Data from 20250701_urea_2M_exp3_MAYP1162681_23-09-50-742.txt Node
Date: Tue Jul 01 23:09:50 BST 2025
User: adleo
Spectrometer: MAYP116268
Trigger mode: 0
Integration Time (sec): 4.000000E0
Scans to average: 1
Electric dark correction enabled: true
Nonlinearity correction enabled: true
Boxcar width: 10
XAxis mode: Wavelengths
Number of Pixels in Spectrum: 2068
>>>>>Begin Spectral Data<<<<<
179.565	3766.33
179.642	3967.2
179.718	4123.6
179.795	4257.8
179.871	4373.9
179.948	4434.53
180.024	4509.69
180.101	4589.99
180.177	4644.13
180.254	4728.32
180.33	4807.37
180.407	5080.91
180.483	5375.73
180.56	5675.48
180.636	5950.73
180.712	5907.58
180.789	5941.94
180.865	5984.99
180.942	6019.76
181.018	6056.51
181.095	6109.47
181.171	6126.94
181.248	6124.97
181.324	6176.3
181.4	6204.91
181.477	6244.03
181.553	6292.62
181.63	6361.7
181.706	6421.43
181.782	6447.43
181.859	6439.66
181.935	6455.46
182.011	6444.36
182.088	6502.33
182.164	6570.26
182.24	6621.77
182.317	6655.89
182.393	6646.24
182.469	6697.72
182.546	6742.91
182.622	6762.5
182.698	6743.14
182.775	6791.8
182.851	6840.35
182.927	6816.71
183.003	6799.09
183.08	6780.7
183.156	6815.57
183.232	6801.64
183.308	6756.87
183.385	6784.48
183.461	6847.98
183.537	6853.65
183.613	6896.06
183.69	6861.47
183.766	6820.09
183.842	6841.14
183.918	6857.9
183.995	6903.48
184.071	6911.5
184.147	6888.01
184.223	6850.04
184.299	6889.88
184.375	6844.97
184.452	6870.3
184.528	6996.83
184.604	7034.76
184.68	7070.84
184.756	7088.48
184.832	7108.8
184.908	7125.08
184.985	7120.8
185.061	7067.19
185.137	7102.22
185.213	7065.52
185.289	7075.85
185.365	7053.32
185.441	7046.35
185.517	7090
185.593	7075.2
185.669	7065.26
185.745	7106.96
185.822	7163.24
185.898	7140.6
185.974	7169.08
186.05	7140.05
186.126	7067.72
186.202	7043.61
186.278	7034.82
186.354	7006.27
186.43	7026.08
186.506	7022.72
186.582	7027.91
186.658	7051.05
186.734	6974.01
186.81	6981.26
186.886	6988.52
186.962	7028
187.038	7014.31
187.114	6995.32
187.19	7029.92
187.266	6996.06
187.341	6992.93
187.417	6962.58
187.493	6961.76
187.569	6979.11
187.645	6958.74
187.721	6919.47
187.797	6946.99
187.873	6957.28
187.949	6937.68
188.025	6919.13
188.101	6928.11
188.176	6945.93
188.252	6928.93
188.328	6958.21
188.404	6958.64
188.48	6940.63
188.556	6917.71
188.632	6914.97
188.707	6915.41
188.783	6899.35
188.859	6888.17
188.935	6850.78
189.011	6880.95
189.086	6856.93
189.162	6822.92
189.238	6817.4
189.314	6802.13
189.39	6782.86
189.465	6754.57
189.541	6812.95
189.617	6761.26
189.693	6741.63
189.768	6754.22
189.844	6837.23
189.92	6812.89
189.996	6838.21
190.071	6875.73
190.147	6874
190.223	6907.83
190.298	6876.3
190.374	6829.71
190.45	6873.55
190.526	6902.48
190.601	6885.28
190.677	6886.77
190.753	6981.77
190.828	6994.35
190.904	7043.6
190.98	7097.67
191.055	7138.7
191.131	7104.86
191.207	7174.67
191.282	7214.29
191.358	7176.34
191.433	7128.54
191.509	7174.2
191.585	7167.28
191.66	7167.47
191.736	7193.08
191.811	7159.97
191.887	7224.39
191.963	7314.35
192.038	7328.82
192.114	7332.18
192.189	7346.45
192.265	7340.12
192.34	7268.46
192.416	7263.8
192.491	7253.23
192.567	7257.41
192.642	7266.11
192.718	7269.43
192.793	7227.23
192.869	7210.08
192.944	7223.53
193.02	7245.98
193.095	7256.17
193.171	7277.75
193.246	7277.65
193.322	7265.59
193.397	7271.06
193.473	7218.61
193.548	7149.58
193.624	7166.84
193.699	7160.4
193.775	7209.53
193.85	7211.41
193.925	7241.54
194.001	7236.41
194.076	7212.76
194.152	7179.4
194.227	7152.14
194.302	7119.44
194.378	7127.99
194.453	7119.3
194.529	7157.55
194.604	7108.58
194.679	7090.85
194.755	7022.84
194.83	7069.92
194.905	7064.92
194.981	7095.78
195.056	7076.23
195.131	7096.02
195.207	7089.19
195.282	7056.38
195.357	6992.78
195.433	7042.7
195.508	7004.83
195.583	7037.35
195.659	7085.95
195.734	7110.03
195.809	7103.4
195.884	7135.24
195.96	7144.76
196.035	7196.51
196.11	7180.5
196.185	7221.11
196.261	7229.9
196.336	7337.59
196.411	7285.27
196.486	7305.12
196.561	7278.11
196.637	7299.87
196.712	7358.34
196.787	7370.7
196.862	7426.83
196.937	7466.67
197.013	7490.52
197.088	7519.45
197.163	7588.14
197.238	7643.86
197.313	7639.2
197.388	7691.88
197.464	7795.35
197.539	7831.94
197.614	7807.62
197.689	7849.74
197.764	7903.52
197.839	7974.4
197.914	7956.7
197.989	8035.92
198.065	8079.73
198.14	8254.92
198.215	8350.02
198.29	8388.91
198.365	8431.25
198.44	8463.53
198.515	8562.48
198.59	8609.93
198.665	8702.17
198.74	8729.32
198.815	8741.31
198.89	8821
198.965	8925.81
199.04	8908.72
199.115	8956.36
199.19	9100.83
199.265	9111.32
199.34	9146.65
199.415	9259.3
199.49	9332.7
199.565	9358.7
199.64	9444.11
199.715	9427.68
199.79	9446.26
199.865	9468.61
199.94	9465.43
200.015	9569.54
200.09	9579.47
200.165	9605.76
200.24	9630.37
200.315	9766.05
200.39	9816.24
200.464	9838.87
200.539	9842.01
200.614	9895.65
200.689	9979.55
200.764	10002.73
200.839	10064.59
200.914	10081.64
200.989	10047.91
201.063	10093.48
201.138	10036.11
201.213	10034.04
201.288	9972.73
201.363	9990.98
201.438	9986.31
201.512	10042.16
201.587	9987.54
201.662	10001.51
201.737	10041.49
201.812	10064.42
201.886	9954.65
201.961	9987.17
202.036	9940.47
202.111	9927.51
202.186	9832.77
202.26	9776.55
202.335	9697.9
202.41	9679.5
202.485	9619.95
202.559	9553.87
202.634	9459.01
202.709	9490.68
202.784	9422.83
202.858	9422.54
202.933	9361.73
203.008	9340.59
203.082	9274.83
203.157	9271.7
203.232	9125.83
203.306	9052.91
203.381	8949
203.456	8868.03
203.53	8781.71
203.605	8720.76
203.68	8639.58
203.754	8615.2
203.829	8557.68
203.904	8491.04
203.978	8443.19
204.053	8454.6
204.127	8404.8
204.202	8405.33
204.277	8343.51
204.351	8323.54
204.426	8300.29
204.5	8269.93
204.575	8152.11
204.65	8188.02
204.724	8159.47
204.799	8186.87
204.873	8169.69
204.948	8159.63
205.022	8116.65
205.097	8084.87
205.171	8130.18
205.246	8161.52
205.32	8159.93
205.395	8161.47
205.469	8130.61
205.544	8154.19
205.618	8096.32
205.693	8140.34
205.767	8093.4
205.842	8166.39
205.916	8145.51
205.991	8110.78
206.065	8129.59
206.14	8183.7
206.214	8160.93
206.289	8137.69
206.363	8175.74
206.438	8186.23
206.512	8208.46
206.586	8279.31
206.661	8310.16
206.735	8233.67
206.81	8231.69
206.884	8279.64
206.958	8236.98
207.033	8301.32
207.107	8326.06
207.181	8438.88
207.256	8412.17
207.33	8477.26
207.405	8523.88
207.479	8585.95
207.553	8610.58
207.628	8555.66
207.702	8600.59
207.776	8577.35
207.851	8587.26
207.925	8636.66
207.999	8622.65
208.073	8622.08
208.148	8631.61
208.222	8586.75
208.296	8695.49
208.371	8754.78
208.445	8792.13
208.519	8887.7
208.593	8924.9
208.668	8912.96
208.742	8922.84
208.816	8932.22
208.89	8979.79
208.965	8968.81
209.039	8996.88
209.113	9059.32
209.187	9130.6
209.261	9112.55
209.336	9177.64
209.41	9244.71
209.484	9250.68
209.558	9330.51
209.632	9371.76
209.707	9404.17
209.781	9482.74
209.855	9537.02
209.929	9595.42
210.003	9619.02
210.077	9613.1
210.151	9774.03
210.226	9883.05
210.3	9967.23
210.374	10041.66
210.448	10050.82
210.522	10087.38
210.596	10129.05
210.67	10155.74
210.744	10317.8
210.818	10428.22
210.892	10503.19
210.966	10487.97
211.041	10543.8
211.115	10531.86
211.189	10611.78
211.263	10673.92
211.337	10699.02
211.411	10749.14
211.485	10728.56
211.559	10765.89
211.633	10781.4
211.707	10676.1
211.781	10701.59
211.855	10579.98
211.929	10555.95
212.003	10496.14
212.077	10527.56
212.151	10561.78
212.225	10593.34
212.299	10552.22
212.373	10510.16
212.447	10490.7
212.52	10583.73
212.594	10583.3
212.668	10613.36
212.742	10562.24
212.816	10537.86
212.89	10514.64
212.964	10494.78
213.038	10493
213.112	10534.2
213.186	10574.04
213.26	10491.55
213.333	10335.42
213.407	10346.74
213.481	10353.96
213.555	10387.62
213.629	10342.37
213.703	10282.72
213.777	10268.99
213.85	10185.98
213.924	10286.35
213.998	10279.75
214.072	10246.73
214.146	10195.23
214.219	10175.38
214.293	10149.52
214.367	10137.62
214.441	10157.85
214.515	10115.02
214.588	10026.34
214.662	9887.43
214.736	9803.73
214.81	9816.63
214.883	9829.24
214.957	9779.7
215.031	9724.25
215.105	9629.16
215.178	9559.38
215.252	9511.61
215.326	9410.91
215.4	9329.87
215.473	9148.19
215.547	9056.15
215.621	8982.69
215.694	8970.94
215.768	8873.94
215.842	8807.23
215.915	8737.26
215.989	8616.13
216.063	8555.41
216.136	8527.2
216.21	8501.03
216.284	8511.34
216.357	8487.61
216.431	8443.96
216.504	8439.63
216.578	8491.67
216.652	8499.41
216.725	8475.2
216.799	8485.99
216.873	8463.23
216.946	8471.31
217.02	8427.56
217.093	8396.38
217.167	8300.68
217.24	8222.04
217.314	8187.32
217.387	8143.04
217.461	8099.89
217.535	8130.15
217.608	8063.87
217.682	8043.47
217.755	8056.07
217.829	7996.65
217.902	7982.89
217.976	7964.32
218.049	7919.26
218.123	7842.21
218.196	7841.15
218.27	7803.73
218.343	7726.02
218.417	7718.91
218.49	7695.44
218.563	7736.93
218.637	7745.16
218.71	7815.39
218.784	7838.67
218.857	7869.68
218.931	7889.72
219.004	7895.83
219.077	7906.27
219.151	7930.46
219.224	7914.01
219.298	7910.31
219.371	7958.71
219.444	7913.27
219.518	7922.65
219.591	7937.84
219.665	8037.48
219.738	8050.51
219.811	8032.82
219.885	8080.54
219.958	8116.24
220.031	8116.77
220.105	8143.52
220.178	8153.19
220.251	8131.05
220.325	8154.78
220.398	8173.49
220.471	8195.71
220.544	8227.75
220.618	8206.43
220.691	8226.93
220.764	8249.68
220.838	8282.83
220.911	8267.72
220.984	8355.11
221.057	8393.7
221.131	8418.71
221.204	8321.67
221.277	8394.54
221.35	8518.1
221.424	8514.64
221.497	8526.67
221.57	8554.13
221.643	8585.09
221.716	8629.95
221.79	8631.34
221.863	8640.25
221.936	8645.21
222.009	8658
222.082	8689.53
222.155	8700.17
222.229	8774.02
222.302	8806.31
222.375	8809.92
222.448	8846.4
222.521	8851.8
222.594	8850.93
222.667	8823.32
222.74	8881.88
222.814	8878.37
222.887	8864.16
222.96	8913.89
223.033	8953.42
223.106	8978.58
223.179	9009.41
223.252	9019.42
223.325	9053.98
223.398	9070.64
223.471	9097.83
223.544	9127.82
223.617	9143.23
223.69	9163.83
223.763	9120.92
223.837	9143.31
223.91	9167.19
223.983	9124.83
224.056	9091.19
224.129	9113.24
224.202	9170.16
224.275	9157.98
224.348	9118.12
224.42	9090.62
224.493	9032.52
224.566	9008.4
224.639	9032.22
224.712	9009.2
224.785	8991.72
224.858	8978.24
224.931	8963.46
225.004	8926.93
225.077	8918.56
225.15	8821.74
225.223	8825.83
225.296	8911.9
225.369	8849
225.442	8824.01
225.514	8838.64
225.587	8857.55
225.66	8864.15
225.733	8865.73
225.806	8877.58
225.879	8874.93
225.952	8837.83
226.025	8882.83
226.097	8935.81
226.17	8921.42
226.243	8849.85
226.316	8845.33
226.389	8852.06
226.461	8867.67
226.534	8890.19
226.607	8878.16
226.68	8965.54
226.753	8957.26
226.825	8864.98
226.898	8923.21
226.971	8924.13
227.044	8938.37
227.117	8939.48
227.189	8957.54
227.262	8994.52
227.335	9012.48
227.407	9013.97
227.48	9045.97
227.553	9063.88
227.626	9040.47
227.698	9052.03
227.771	9094.27
227.844	9075.84
227.916	9090.86
227.989	9053.69
228.062	9047.92
228.134	9139.07
228.207	9139.7
228.28	9138.73
228.352	9150.62
228.425	9161.7
228.498	9207.39
228.57	9189.1
228.643	9254.02
228.716	9252.77
228.788	9233.79
228.861	9227
228.934	9282.08
229.006	9283.81
229.079	9283.09
229.151	9270.57
229.224	9235.72
229.296	9260.47
229.369	9364.45
229.442	9413.15
229.514	9393.66
229.587	9441.42
229.659	9362.54
229.732	9377.32
229.804	9414.44
229.877	9498.74
229.949	9527.01
230.022	9580.82
230.094	9585.35
230.167	9574.12
230.239	9530.65
230.312	9521.45
230.384	9596.31
230.457	9599.59
230.529	9608.98
230.602	9605.7
230.674	9618.85
230.747	9665.59
230.819	9696.7
230.892	9578.04
230.964	9578.47
231.037	9607.01
231.109	9589.72
231.181	9633.05
231.254	9597.23
231.326	9581.86
231.399	9550.31
231.471	9523.28
231.544	9432.53
231.616	9480.68
231.688	9492.05
231.761	9481.99
231.833	9466.1
231.905	9372.18
231.978	9363.65
232.05	9358.5
232.122	9366.21
232.195	9348.72
232.267	9378.63
232.339	9354.36
232.412	9421.33
232.484	9399.55
232.556	9377.46
232.629	9456.95
232.701	9480.36
232.773	9494.56
232.846	9486.47
232.918	9497.98
232.99	9513.01
233.062	9559.87
233.135	9568.3
233.207	9527.89
233.279	9571.36
233.351	9614.16
233.424	9624.37
233.496	9606.07
233.568	9685.59
233.64	9652.22
233.713	9658.96
233.785	9656.55
233.857	9664.07
233.929	9614.33
234.001	9679.66
234.074	9750.24
234.146	9675.23
234.218	9668.83
234.29	9667
234.362	9653.13
234.434	9603.18
234.507	9569.62
234.579	9526.71
234.651	9511.2
234.723	9539.66
234.795	9555.17
234.867	9544.96
234.939	9604.3
235.012	9618.65
235.084	9625.54
235.156	9663.43
235.228	9648.84
235.3	9632.85
235.372	9656.65
235.444	9717.13
235.516	9635.85
235.588	9637.88
235.66	9659.36
235.732	9629.35
235.804	9825.77
235.876	9877.24
235.948	9948.73
236.02	9968.76
236.092	9975.21
236.164	9987.3
236.236	9988.46
236.308	9995.05
236.38	10020.87
236.452	9997.6
236.524	10017.45
236.596	10082.41
236.668	10122.4
236.74	10150.76
236.812	10184.48
236.884	10213.2
236.956	10218.93
237.028	10215.27
237.1	10202.27
237.172	10273.48
237.244	10349.64
237.316	10230.63
237.388	10208.29
237.46	10184.24
237.532	10239.45
237.604	10236.66
237.675	10302.13
237.747	10354.12
237.819	10340.92
237.891	10343.72
237.963	10331.87
238.035	10332.88
238.107	10212.9
238.178	10269.96
238.25	10272.8
238.322	10357.86
238.394	10309.92
238.466	10315.27
238.538	10357.61
238.609	10399.81
238.681	10341.02
238.753	10320.35
238.825	10346.04
238.897	10379.42
238.968	10457.92
239.04	10443.61
239.112	10553.07
239.184	10521.84
239.255	10511.96
239.327	10545.34
239.399	10574.35
239.471	10634.23
239.542	10669.16
239.614	10745.96
239.686	10655.99
239.758	10707.35
239.829	10668.6
239.901	10735.86
239.973	10753.11
240.044	10785.34
240.116	10789.2
240.188	10809.19
240.259	10827.94
240.331	10815.26
240.403	10849.23
240.474	10802.29
240.546	10792.89
240.618	10735.55
240.689	10725.86
240.761	10745.48
240.833	10815.69
240.904	10816.89
240.976	10809.76
241.048	10827.49
241.119	10865.43
241.191	10918.09
241.262	10989.95
241.334	11003.01
241.405	11008.55
241.477	11010.82
241.549	11019.69
241.62	11056.55
241.692	11100.55
241.763	11165.71
241.835	11184.7
241.906	11206.92
241.978	11172.51
242.049	11242.15
242.121	11306.72
242.192	11385.56
242.264	11351.73
242.335	11302.81
242.407	11350.72
242.478	11352.69
242.55	11375.78
242.621	11355.05
242.693	11354.57
242.764	11337.8
242.836	11341.85
242.907	11371.82
242.979	11400.45
243.05	11429.95
243.122	11449.56
243.193	11447.01
243.264	11363.92
243.336	11370.96
243.407	11405.76
243.479	11496.21
243.55	11513.08
243.622	11530.34
243.693	11534.24
243.764	11608.51
243.836	11587.55
243.907	11573.86
243.978	11579.02
244.05	11600.37
244.121	11554.93
244.192	11606.79
244.264	11557.77
244.335	11557.58
244.407	11505.43
244.478	11528.42
244.549	11513.53
244.62	11469.72
244.692	11469.91
244.763	11523.79
244.834	11510.39
244.906	11484.51
244.977	11509.81
245.048	11566.26
245.119	11536.91
245.191	11501.48
245.262	11438.01
245.333	11518.06
245.405	11537.14
245.476	11570.83
245.547	11586.64
245.618	11644.13
245.689	11647.7
245.761	11687.85
245.832	11704.53
245.903	11759.18
245.974	11784.15
246.045	11801.21
246.117	11887.48
246.188	11867.97
246.259	11846.81
246.33	11871
246.401	11885.85
246.473	11843
246.544	11823.67
246.615	11880.35
246.686	11889.56
246.757	11965.08
246.828	11931
246.899	12002.63
246.97	11974.25
247.042	11966.54
247.113	12009.05
247.184	12102.71
247.255	12101.94
247.326	12131.2
247.397	12136.75
247.468	12146.82
247.539	12158.53
247.61	12112.79
247.681	12157.27
247.752	12217.76
247.823	12193.57
247.894	12219.31
247.965	12186.34
248.037	12166.05
248.108	12110.28
248.179	12109.36
248.25	12101.41
248.321	12133.9
248.392	12080.44
248.463	12156.4
248.534	12147.63
248.605	12162.33
248.675	12135.53
248.746	12156.93
248.817	12169.32
248.888	12189.85
248.959	12133.89
249.03	12160.06
249.101	12176.26
249.172	12167.54
249.243	12093.7
249.314	12152.84
249.385	12151.44
249.456	12192.46
249.527	12193.37
249.598	12224.27
249.669	12235.93
249.739	12246.05
249.81	12263.07
249.881	12220.03
249.952	12217.86
250.023	12221.18
250.094	12169.22
250.165	12136.2
250.235	12133.16
250.306	12137.11
250.377	12108.96
250.448	12136.87
250.519	12074.84
250.59	12130.13
250.66	12124.54
250.731	12193.6
250.802	12192.3
250.873	12215.2
250.944	12239.2
251.014	12225.42
251.085	12317.15
251.156	12343.04
251.227	12396.69
251.297	12454.73
251.368	12517.97
251.439	12559.86
251.51	12621.13
251.58	12615.78
251.651	12606.23
251.722	12664.56
251.792	12613.85
251.863	12608.94
251.934	12675.17
252.005	12787.34
252.075	12790.71
252.146	12843.54
252.217	12893.48
252.287	12945.69
252.358	12950.95
252.429	13027.26
252.499	13026.34
252.57	13035.79
252.641	13092.24
252.711	13098.55
252.782	13050.06
252.852	13127.91
252.923	13120.34
252.994	13128.59
253.064	13178.28
253.135	13163.24
253.205	13133.45
253.276	13209.81
253.347	13282.64
253.417	13253.82
253.488	13228.85
253.558	13213.42
253.629	13210.24
253.699	13218.43
253.77	13241.43
253.841	13234.73
253.911	13238.01
253.982	13258.4
254.052	13286.55
254.123	13288.04
254.193	13288.81
254.264	13426.29
254.334	13385.22
254.405	13360.35
254.475	13327.28
254.546	13336.92
254.616	13400.55
254.687	13429.28
254.757	13452.18
254.827	13447.22
254.898	13472.81
254.968	13484.62
255.039	13475.03
255.109	13514.66
255.18	13489.73
255.25	13408.94
255.321	13441.58
255.391	13397.08
255.461	13478.31
255.532	13393.27
255.602	13387.05
255.673	13335.57
255.743	13304.33
255.813	13237.28
255.884	13291.03
255.954	13326.99
256.024	13389.47
256.095	13391.2
256.165	13353.56
256.235	13374.57
256.306	13357.22
256.376	13413.04
256.446	13456.52
256.517	13490.08
256.587	13533.75
256.657	13555.01
256.728	13586.29
256.798	13597
256.868	13595.74
256.938	13570.24
257.009	13621.63
257.079	13656.44
257.149	13759.74
257.219	13688.73
257.29	13724.12
257.36	13664.1
257.43	13706.52
257.5	13636.81
257.571	13628.23
257.641	13664.15
257.711	13627.94
257.781	13668.05
257.852	13681.02
257.922	13615.65
257.992	13619.51
258.062	13614.59
258.132	13661.45
258.202	13667.76
258.273	13675.62
258.343	13749.52
258.413	13741.56
258.483	13745.85
258.553	13708.16
258.623	13676.82
258.693	13716.4
258.764	13779.65
258.834	13851.33
258.904	13871.19
258.974	13862.95
259.044	13866.37
259.114	13897.42
259.184	13929.57
259.254	13939.26
259.324	13880.3
259.394	13930.15
259.464	14009.59
259.535	14020.34
259.605	14005.64
259.675	13998.21
259.745	14032.2
259.815	14004.92
259.885	13998.26
259.955	14105.95
260.025	14098.43
260.095	14112.36
260.165	14138.68
260.235	14202.07
260.305	14186.16
260.375	14148.61
260.445	14239.14
260.515	14312.22
260.585	14363.65
260.655	14367.51
260.725	14411.23
260.795	14451.87
260.865	14523.93
260.934	14491.49
261.004	14517.47
261.074	14528.7
261.144	14588.72
261.214	14625.93
261.284	14629.98
261.354	14668.45
261.424	14628.21
261.494	14704.76
261.564	14709.72
261.634	14740.04
261.703	14680.03
261.773	14699.5
261.843	14737.44
261.913	14734.21
261.983	14669.86
262.053	14694.15
262.123	14702.2
262.192	14658.09
262.262	14707.45
262.332	14654.62
262.402	14682.92
262.472	14693.48
262.541	14634.71
262.611	14677.47
262.681	14662.67
262.751	14700.85
262.821	14706.73
262.89	14667.2
262.96	14689.57
263.03	14768.48
263.1	14787.47
263.169	14802.27
263.239	14841.02
263.309	14901.71
263.379	14932.08
263.448	14961.44
263.518	14977.92
263.588	14985.44
263.657	15058.57
263.727	15087.97
263.797	15098.09
263.867	15094.67
263.936	15058.32
264.006	15123.88
264.076	15128.56
264.145	15111.69
264.215	15094.57
264.285	15141.43
264.354	15107.2
264.424	15093.37
264.494	15043.77
264.563	15036.64
264.633	15119.83
264.702	15135.84
264.772	15086.09
264.842	15080.93
264.911	15111.26
264.981	15076.31
265.05	15093.28
265.12	15086.29
265.19	15098.19
265.259	15150.2
265.329	15190.69
265.398	15216.82
265.468	15313.56
265.537	15301.51
265.607	15339.73
265.676	15388.95
265.746	15407.7
265.815	15473.64
265.885	15479.86
265.955	15468.39
266.024	15464.58
266.094	15401.39
266.163	15462.55
266.232	15530.61
266.302	15542.56
266.371	15565.6
266.441	15583.49
266.51	15630.48
266.58	15633.09
266.649	15613.61
266.719	15661.86
266.788	15683.74
266.858	15755.99
266.927	15685.24
266.996	15708.18
267.066	15743.61
267.135	15708.18
267.205	15755.8
267.274	15774.74
267.343	15828.34
267.413	15845.45
267.482	15909.61
267.552	15977.71
267.621	15929.95
267.69	15877.03
267.76	15898.67
267.829	15918.62
267.898	15941.32
267.968	15915.06
268.037	15961.57
268.106	16016.13
268.176	15987.59
268.245	16000.37
268.314	15985.52
268.384	16038.54
268.453	16063.56
268.522	16091.61
268.592	16169.07
268.661	16150.37
268.73	16179.43
268.799	16168.92
268.869	16247.92
268.938	16201.79
269.007	16184.73
269.076	16215.34
269.146	16279.11
269.215	16309.81
269.284	16390.68
269.353	16388.99
269.422	16400.27
269.492	16392.8
269.561	16306.14
269.63	16336.26
269.699	16325.9
269.768	16351.83
269.838	16373.9
269.907	16413.33
269.976	16380.7
270.045	16320.64
270.114	16354.86
270.183	16358.86
270.253	16391.93
270.322	16349.85
270.391	16373.52
270.46	16443.83
270.529	16488.51
270.598	16525.81
270.667	16533.14
270.736	16498.58
270.806	16530.97
270.875	16605.82
270.944	16617.29
271.013	16755.71
271.082	16786.12
271.151	16824.73
271.22	16777.01
271.289	16798.94
271.358	16811.13
271.427	16849.16
271.496	16885.17
271.565	16884.11
271.634	16908.35
271.703	17043.28
271.772	17101.46
271.841	17121.51
271.91	17089.27
271.979	17100.98
272.048	17077.46
272.117	17127.29
272.186	17131.19
272.255	17178.62
272.324	17212.83
272.393	17254.71
272.462	17240.69
272.531	17259.63
272.6	17277.61
272.669	17362.09
272.738	17371.59
272.807	17404.02
272.876	17390.24
272.945	17529.8
273.013	17599.78
273.082	17663.54
273.151	17565.76
273.22	17598.38
273.289	17617.9
273.358	17707.83
273.427	17724.07
273.496	17776.26
273.564	17813.8
273.633	17869.37
273.702	17857.66
273.771	17874.19
273.84	17900.02
273.909	17941.99
273.977	17984.59
274.046	18005.75
274.115	18062.47
274.184	18054.76
274.253	18067.38
274.322	18142.9
274.39	18072.11
274.459	18054.86
274.528	18001.17
274.597	18030.04
274.665	18063.68
274.734	18139.24
274.803	18147.48
274.872	18173.07
274.94	18169.02
275.009	18390.44
275.078	18393.96
275.147	18429.96
275.215	18447.64
275.284	18513.86
275.353	18531.54
275.421	18494.44
275.49	18580.26
275.559	18584.99
275.627	18615.15
275.696	18640.21
275.765	18670.62
275.833	18692.45
275.902	18739.34
275.971	18825.75
276.039	18911.91
276.108	18971.96
276.177	19003.91
276.245	18996.39
276.314	19026.12
276.383	19087.08
276.451	18914.96
276.52	18967.92
276.588	19049.07
276.657	19106.37
276.725	19116.49
276.794	19153.45
276.863	19240.77
276.931	19216.15
277	19278.75
277.068	19349.92
277.137	19449
277.205	19494.25
277.274	19602.39
277.342	19682.44
277.411	19660.13
277.48	19658.92
277.548	19662.05
277.617	19703.93
277.685	19742.39
277.754	19800.12
277.822	19819.49
277.89	19920.02
277.959	19945.37
278.027	19929.81
278.096	19939.06
278.164	20075.65
278.233	20102.3
278.301	20104.8
278.37	20157.67
278.438	20163.79
278.507	20221.76
278.575	20179.6
278.643	20208.17
278.712	20191.26
278.78	20179.88
278.849	20265.04
278.917	20341.38
278.985	20366.15
279.054	20419.59
279.122	20505.91
279.191	20539.64
279.259	20568.7
279.327	20538.96
279.396	20627.64
279.464	20659.98
279.532	20726.39
279.601	20740.42
279.669	20771.6
279.737	20864.91
279.806	20922.6
279.874	20992.29
279.942	21032.34
280.011	21069.35
280.079	21136.54
280.147	21234.43
280.215	21302.19
280.284	21339.93
280.352	21343.06
280.42	21417.96
280.488	21425.15
280.557	21437.48
280.625	21492.53
280.693	21545.16
280.761	21591.19
280.83	21583.43
280.898	21663.63
280.966	21644.98
281.034	21596.68
281.102	21590.55
281.171	21614.9
281.239	21692.03
281.307	21708.42
281.375	21710.4
281.443	21843.69
281.512	21873.58
281.58	21940.64
281.648	21925.36
281.716	21969.08
281.784	22011.83
281.852	22031.6
281.92	22075.17
281.989	22160.46
282.057	22153.71
282.125	22326.92
282.193	22366.89
282.261	22406.08
282.329	22438.28
282.397	22500.75
282.465	22543.61
282.533	22641.12
282.601	22639.19
282.67	22592.96
282.738	22612.14
282.806	22697.04
282.874	22688.17
282.942	22749.26
283.01	22770.82
283.078	22847.57
283.146	22876.3
283.214	22936.86
283.282	22993.27
283.35	23077.47
283.418	23098.78
283.486	23156.63
283.554	23072.41
283.622	23117.4
283.69	23171.12
283.758	23200
283.826	23258.29
283.894	23331.49
283.962	23440.79
284.03	23542.05
284.098	23594.32
284.165	23627.92
284.233	23665.16
284.301	23685.99
284.369	23706
284.437	23721.97
284.505	23747.82
284.573	23840.36
284.641	23857.77
284.709	23925.79
284.777	23916.29
284.845	23981.7
284.912	24042.91
284.98	24096.25
285.048	24120.41
285.116	24184.13
285.184	24274.24
285.252	24320.26
285.319	24326.87
285.387	24339.37
285.455	24326.87
285.523	24405.4
285.591	24446.49
285.659	24497.77
285.726	24597.06
285.794	24589.78
285.862	24625
285.93	24668.99
285.997	24701.8
286.065	24736.77
286.133	24747.77
286.201	24792.44
286.269	24784.48
286.336	24798.62
286.404	24827.71
286.472	24906.27
286.539	24873.7
286.607	24862.8
286.675	24901.59
286.743	24968.8
286.81	24987.82
286.878	25072.64
286.946	25094.55
287.013	25134.64
287.081	25178.46
287.149	25166.25
287.216	25274.68
287.284	25304.02
287.352	25349.86
287.419	25379.01
287.487	25477.96
287.555	25536.66
287.622	25561.85
287.69	25629.18
287.758	25718.43
287.825	25751.92
287.893	25754.04
287.96	25832.11
288.028	25909.88
288.096	25975.34
288.163	26037.43
288.231	26041.63
288.298	26090.39
288.366	26177.54
288.433	26215.33
288.501	26227.3
288.569	26286.05
288.636	26315.75
288.704	26401.26
288.771	26467.41
288.839	26490.58
288.906	26508.69
288.974	26588.78
289.041	26637.25
289.109	26646.71
289.176	26716.23
289.244	26778.75
289.311	26863.51
289.379	26937.15
289.446	26995.41
289.514	27035.79
289.581	27071.24
289.649	27138.85
289.716	27191.94
289.783	27214.31
289.851	27326.4
289.918	27387.16
289.986	27454.36
290.053	27512.23
290.121	27548.57
290.188	27606.64
290.255	27740.05
290.323	27772.81
290.39	27801.71
290.458	27872.43
290.525	27973.75
290.592	28001.2
290.66	28054.83
290.727	28078.07
290.794	28165.75
290.862	28211.86
290.929	28267.83
290.996	28301.46
291.064	28384.83
291.131	28461.5
291.198	28530.19
291.266	28576.12
291.333	28621.4
291.4	28692.71
291.468	28797.35
291.535	28841.39
291.602	28888.29
291.669	28907.97
291.737	28962.35
291.804	29001.95
291.871	29099.19
291.938	29159.54
292.006	29297.09
292.073	29382.73
292.14	29469.67
292.207	29482.24
292.275	29527.31
292.342	29602.29
292.409	29744.94
292.476	29857.88
292.543	29874.61
292.611	29934.65
292.678	30033.06
292.745	30162.22
292.812	30228.61
292.879	30261.86
292.946	30311
293.014	30416.05
293.081	30496.19
293.148	30589.46
293.215	30685.92
293.282	30710.01
293.349	30780.92
293.416	30752.16
293.484	30833.72
293.551	30913.68
293.618	31014.1
293.685	31146.71
293.752	31174.78
293.819	31208.1
293.886	31214.68
293.953	31288.59
294.02	31369.54
294.087	31426.39
294.154	31449.54
294.221	31551.3
294.288	31596.19
294.356	31711.66
294.423	31770.75
294.49	31792.93
294.557	31874.73
294.624	31888.53
294.691	32012.17
294.758	32062.78
294.825	32150.39
294.892	32171.32
294.959	32215.83
295.026	32298.58
295.093	32315.54
295.16	32357.32
295.226	32401.51
295.293	32536.13
295.36	32595.23
295.427	32668.16
295.494	32759.95
295.561	32839.17
295.628	32947.11
295.695	33038.79
295.762	33088.03
295.829	33160.15
295.896	33266.95
295.963	33357.21
296.03	33437.21
296.096	33494.22
296.163	33595.39
296.23	33690.07
296.297	33787
296.364	33853.35
296.431	33913.03
296.498	33954.67
296.564	34090.72
296.631	34154.61
296.698	34159.8
296.765	34277.37
296.832	34305.39
296.899	34315.97
296.965	34421.05
297.032	34411.21
297.099	34523.55
297.166	34611.37
297.233	34662.01
297.299	34682.18
297.366	34723.95
297.433	34788.63
297.5	34879.25
297.566	34923.01
297.633	34967.74
297.7	35024.82
297.767	35069.59
297.833	35147.6
297.9	35222.48
297.967	35234.61
298.033	35341.49
298.1	35478.82
298.167	35510.6
298.234	35580.93
298.3	35670.78
298.367	35694.03
298.434	35770.22
298.5	35790.41
298.567	35819.03
298.634	35863.38
298.7	35977.11
298.767	36035.25
298.834	36133.61
298.9	36155.75
298.967	36189.38
299.033	36271.6
299.1	36383.38
299.167	36474.51
299.233	36504.8
299.3	36587.35
299.366	36681.54
299.433	36764.71
299.5	36729.56
299.566	36785.23
299.633	36885.96
299.699	36951.93
299.766	37002.41
299.832	37072.43
299.899	37139.43
299.965	37240.94
300.032	37277.73
300.099	37349.64
300.165	37420.63
300.232	37455.44
300.298	37507.34
300.365	37606.09
300.431	37648.97
300.498	37663.39
300.564	37736.57
300.631	37827.23
300.697	37929.6
300.763	37973.15
300.83	38010.89
300.896	38094.51
300.963	38178.56
301.029	38244.47
301.096	38315.82
301.162	38406.49
301.229	38440.29
301.295	38459.33
301.361	38506.4
301.428	38566.95
301.494	38556.6
301.561	38617.17
301.627	38675.75
301.693	38735
301.76	38783.48
301.826	38810.53
301.892	38905.64
301.959	38992.65
302.025	39033.6
302.092	39054.64
302.158	39135.18
302.224	39194.64
302.291	39224.95
302.357	39262.6
302.423	39287.48
302.49	39308.37
302.556	39384.6
302.622	39421.82
302.688	39510.43
302.755	39605.09
302.821	39676.83
302.887	39768.11
302.954	39798.43
303.02	39872.38
303.086	39942.25
303.152	39976.35
303.219	40030.43
303.285	40079.07
303.351	40130.54
303.417	40172.96
303.483	40176.7
303.55	40199
303.616	40249.69
303.682	40290.36
303.748	40314.61
303.815	40418.13
303.881	40489.66
303.947	40494.57
304.013	40546.08
304.079	40556.96
304.145	40547.15
304.212	40587.48
304.278	40602.06
304.344	40638.75
304.41	40630.39
304.476	40646.33
304.542	40690.26
304.608	40750.38
304.674	40747.75
304.741	40769.38
304.807	40811.57
304.873	40886.46
304.939	40993.83
305.005	40979.06
305.071	41023.91
305.137	41079.7
305.203	41026.23
305.269	41068.47
305.335	41144.26
305.401	41193.84
305.467	41240.5
305.533	41295.86
305.599	41375.78
305.666	41443.53
305.732	41499.87
305.798	41595.73
305.864	41729.77
305.93	41776.1
305.996	41810.13
306.062	41866.42
306.128	41901.13
306.194	41924.8
306.259	41955.33
306.325	41951.2
306.391	42025
306.457	42085.13
306.523	42128.1
306.589	42257.72
306.655	42267.25
306.721	42252.86
306.787	42248
306.853	42336.74
306.919	42327.79
306.985	42328.47
307.051	42364.11
307.117	42372.81
307.183	42388.13
307.248	42319.56
307.314	42380.34
307.38	42436.07
307.446	42481.83
307.512	42481.19
307.578	42513.87
307.644	42547.12
307.709	42591.42
307.775	42621.18
307.841	42665.14
307.907	42719.6
307.973	42678.75
308.039	42719.55
308.104	42785.1
308.17	42822.29
308.236	42812.66
308.302	42864.3
308.368	42863.67
308.433	42899.7
308.499	42929.8
308.565	42942.93
308.631	43004.54
308.696	42970.65
308.762	42964.18
308.828	43004.02
308.894	42991.47
308.959	42978
309.025	42983.74
309.091	43012.44
309.156	43034.47
309.222	43078.63
309.288	43066.38
309.354	43051.99
309.419	43092.31
309.485	43083.7
309.551	43149.16
309.616	43147.8
309.682	43176.59
309.748	43214.96
309.813	43233.88
309.879	43237.87
309.945	43242.54
310.01	43260.83
310.076	43313.2
310.141	43341.12
310.207	43323.03
310.273	43369.71
310.338	43428.55
310.404	43428.26
310.469	43427.19
310.535	43402.14
310.601	43356.03
310.666	43421.31
310.732	43501.9
310.797	43493.58
310.863	43494.46
310.928	43488.62
310.994	43534.44
311.059	43558.42
311.125	43575.54
311.191	43637.62
311.256	43655.57
311.322	43696.08
311.387	43664.42
311.453	44559.92
311.518	44586.09
311.584	44613.91
311.649	44674.77
311.715	44667.23
311.78	44710.42
311.846	44714.07
311.911	44786.16
311.976	44835.04
312.042	44810.48
312.107	44789.61
312.173	44818.16
312.238	44859.75
312.304	44904.71
312.369	44909.72
312.434	44917.89
312.5	44952.43
312.565	44890.25
312.631	44938.94
312.696	44961.03
312.761	45002.72
312.827	44143.07
312.892	44241.2
312.958	44267.76
313.023	44299.05
313.088	44338.07
313.154	44327.32
313.219	44343.27
313.284	44350.43
313.35	44368.67
313.415	44374.9
313.48	44394.99
313.546	44422.77
313.611	44464.52
313.676	44452.45
313.741	44448.32
313.807	44500.87
313.872	44537.37
313.937	44588.79
314.003	44652.11
314.068	44682.96
314.133	44749.97
314.198	44742.33
314.264	44694.67
314.329	44696.71
314.394	44703.72
314.459	44727.66
314.525	44825.76
314.59	44844.68
314.655	44824.29
314.72	44883.72
314.785	44926.73
314.851	44936.75
314.916	44906.54
314.981	44889.7
315.046	44895.93
315.111	44904.49
315.176	44902.64
315.242	44945.28
315.307	44973.95
315.372	44946.64
315.437	44953.99
315.502	44945.52
315.567	45022.56
315.632	45012.88
315.698	45050.7
315.763	45064.52
315.828	45072.11
315.893	45064.18
315.958	45082.08
316.023	45086.07
316.088	45034.87
316.153	44971.09
316.218	44976.2
316.283	44935.77
316.348	44894.9
316.413	44898.46
316.479	44859.49
316.544	44738.36
316.609	44626.43
316.674	44509.58
316.739	44384.12
316.804	44260.12
316.869	44130.38
316.934	43984.12
316.999	43858.91
317.064	43675.82
317.129	43511.25
317.194	43360.86
317.259	43189.01
317.324	42987.64
317.389	42816.42
317.454	42659.53
317.518	42537.93
317.583	42407.3
317.648	42289.84
317.713	42136.25
317.778	41907.82
317.843	41768.92
317.908	41598.66
317.973	41425.16
318.038	41284.97
318.103	41114.88
318.168	40962.12
318.233	40806.83
318.297	40598.35
318.362	40438.55
318.427	40256.74
318.492	40118.33
318.557	39904.47
318.622	39757.71
318.687	39622.9
318.751	39429.63
318.816	39261.48
318.881	39078.05
318.946	38836.04
319.011	38620.38
319.075	38412.46
319.14	38219.59
319.205	38005.56
319.27	37835
319.335	37604.33
319.399	37392.92
319.464	37218.25
319.529	36972.25
319.594	36771.26
319.658	36589.83
319.723	36358.85
319.788	36186.33
319.853	35921
319.917	35732.34
319.982	35462.31
320.047	35248.59
320.112	35081.29
320.176	34816.16
320.241	34606.18
320.306	34418.4
320.37	34183.64
320.435	33995.89
320.5	33816.46
320.564	33585.04
320.629	33349.8
320.694	33168.46
320.758	32938.12
320.823	32714.84
320.888	32539.91
320.952	32295.84
321.017	32061.35
321.082	31838.53
321.146	31621.16
321.211	31411.8
321.275	31198.56
321.34	30964.03
321.405	30714.97
321.469	30471.9
321.534	30237.87
321.598	29984.68
321.663	29783.66
321.727	29590.24
321.792	29338.63
321.857	29094.13
321.921	28875.83
321.986	28654.61
322.05	28365.21
322.115	28149.53
322.179	27893.72
322.244	27606.02
322.308	27386.57
322.373	27139.64
322.437	26897.47
322.502	26704.59
322.566	26461.83
322.631	26234.11
322.695	26000.98
322.76	25752.89
322.824	25525.24
322.889	25280.18
322.953	25022.04
323.018	24692.98
323.082	24383.99
323.146	24099.49
323.211	23809.45
323.275	23552.98
323.34	23282.01
323.404	23060.84
323.468	22783.26
323.533	22537.13
323.597	22266.83
323.662	21975.19
323.726	21742.15
323.79	21484.44
323.855	21144.25
323.919	20865.59
323.983	20597.06
324.048	20207.91
324.112	20368.47
324.177	19555
324.241	18497.47
324.305	17446.95
324.37	16421.84
324.434	15420.97
324.498	15143.82
324.562	14840.75
324.627	14483.48
324.691	14141.1
324.755	13743.58
324.82	13305.74
324.884	12829.93
324.948	12369.28
325.012	11796.51
325.077	11083.36
