Data from 20250701_urea_2M_exp3_MAYP1162681_02-59-49-692.txt Node
Date: Wed Jul 02 02:59:49 BST 2025
User: adleo
Spectrometer: MAYP116268
Trigger mode: 0
Integration Time (sec): 4.000000E0
Scans to average: 1
Electric dark correction enabled: true
Nonlinearity correction enabled: true
Boxcar width: 10
XAxis mode: Wavelengths
Number of Pixels in Spectrum: 2068
>>>>>Begin Spectral Data<<<<<
179.565	3671.43
179.642	3863.89
179.718	4012.17
179.795	4146.03
179.871	4261.1
179.948	4322.09
180.024	4393.66
180.101	4474.4
180.177	4525.07
180.254	4602.8
180.33	4678.12
180.407	4942.86
180.483	5230.82
180.56	5521.21
180.636	5788.7
180.712	5747.33
180.789	5780.38
180.865	5820.26
180.942	5852
181.018	5887.54
181.095	5937.71
181.171	5955.5
181.248	5956.17
181.324	6009.6
181.4	6031.62
181.477	6066.37
181.553	6111.93
181.63	6181.52
181.706	6235.48
181.782	6260.94
181.859	6257.15
181.935	6273.52
182.011	6259.6
182.088	6314.62
182.164	6382.88
182.24	6426.35
182.317	6452.02
182.393	6444.58
182.469	6489.08
182.546	6538.1
182.622	6556.44
182.698	6537.66
182.775	6582.6
182.851	6633.68
182.927	6606.98
183.003	6594.89
183.08	6574.78
183.156	6606.9
183.232	6597.34
183.308	6552.16
183.385	6576.83
183.461	6636.32
183.537	6644.49
183.613	6687.94
183.69	6651.69
183.766	6609.21
183.842	6638.22
183.918	6655.8
183.995	6703.43
184.071	6708.9
184.147	6687.48
184.223	6650.38
184.299	6690.4
184.375	6653.53
184.452	6669.87
184.528	6797.62
184.604	6835.21
184.68	6872.95
184.756	6894.24
184.832	6913.55
184.908	6935.44
184.985	6937.98
185.061	6885.15
185.137	6915.52
185.213	6879.79
185.289	6889.82
185.365	6870.04
185.441	6861.3
185.517	6908.97
185.593	6892.98
185.669	6893.22
185.745	6925.98
185.822	6979.12
185.898	6948.42
185.974	6980.68
186.05	6954.49
186.126	6882.76
186.202	6858.12
186.278	6847.12
186.354	6816.57
186.43	6832.91
186.506	6826.14
186.582	6822.64
186.658	6845.53
186.734	6775.91
186.81	6784.45
186.886	6791.7
186.962	6833.63
187.038	6816.91
187.114	6790.96
187.19	6818.2
187.266	6786.55
187.341	6792.13
187.417	6770.27
187.493	6775.03
187.569	6781.61
187.645	6759.62
187.721	6716.09
187.797	6742.07
187.873	6760.56
187.949	6741.93
188.025	6723.76
188.101	6731.78
188.176	6749.31
188.252	6733.08
188.328	6762.02
188.404	6761.49
188.48	6747.81
188.556	6723.79
188.632	6724.32
188.707	6728.69
188.783	6715.72
188.859	6702.66
188.935	6661.25
189.011	6684.93
189.086	6663.08
189.162	6638.06
189.238	6634.6
189.314	6627.35
189.39	6605.88
189.465	6572.26
189.541	6625.2
189.617	6566.28
189.693	6548.71
189.768	6558.23
189.844	6641.5
189.92	6610.69
189.996	6638.79
190.071	6676.11
190.147	6672.46
190.223	6703.49
190.298	6677.16
190.374	6635.53
190.45	6674.27
190.526	6702.9
190.601	6680.47
190.677	6685.13
190.753	6774.97
190.828	6788.51
190.904	6838.57
190.98	6894.26
191.055	6939.56
191.131	6910.58
191.207	6985.65
191.282	7022.04
191.358	6994.62
191.433	6946.4
191.509	6988.92
191.585	6977.82
191.66	6978.02
191.736	7003.57
191.811	6975.18
191.887	7027.66
191.963	7110.01
192.038	7121.25
192.114	7126.59
192.189	7140.51
192.265	7128.99
192.34	7058.27
192.416	7052.26
192.491	7039.67
192.567	7042.7
192.642	7049
192.718	7054.67
192.793	7012.67
192.869	6998.79
192.944	7010.6
193.02	7036.89
193.095	7056.45
193.171	7076.14
193.246	7075.71
193.322	7064.33
193.397	7069.56
193.473	7021.93
193.548	6961.52
193.624	6984.73
193.699	6973.78
193.775	7028.96
193.85	7031.98
193.925	7061.06
194.001	7065.43
194.076	7042.08
194.152	7011.12
194.227	6983.01
194.302	6944.69
194.378	6958.91
194.453	6949.5
194.529	6986.21
194.604	6935.86
194.679	6911.21
194.755	6852.44
194.83	6892.1
194.905	6884.75
194.981	6909.93
195.056	6887.93
195.131	6906.96
195.207	6902.05
195.282	6871.65
195.357	6808.74
195.433	6862.92
195.508	6827.85
195.583	6853.79
195.659	6898.72
195.734	6918.91
195.809	6915.88
195.884	6952.37
195.96	6954.43
196.035	6999.01
196.11	6983.1
196.185	7021.39
196.261	7033.4
196.336	7136.99
196.411	7091.7
196.486	7112.46
196.561	7091.03
196.637	7115.57
196.712	7170.09
196.787	7178.07
196.862	7232.74
196.937	7269.83
197.013	7287.33
197.088	7317.65
197.163	7384.64
197.238	7441.46
197.313	7444.25
197.388	7488.85
197.464	7586.77
197.539	7623.73
197.614	7606.09
197.689	7654.13
197.764	7710.93
197.839	7780.4
197.914	7755.15
197.989	7830.07
198.065	7877.82
198.14	8048.31
198.215	8144.21
198.29	8184.3
198.365	8225.52
198.44	8260.96
198.515	8350.65
198.59	8403
198.665	8491.72
198.74	8520.65
198.815	8528.64
198.89	8600.28
198.965	8697.17
199.04	8684.56
199.115	8738.68
199.19	8878.85
199.265	8882.41
199.34	8919.81
199.415	9035.96
199.49	9108.62
199.565	9135.19
199.64	9211.2
199.715	9198.58
199.79	9217.93
199.865	9236.27
199.94	9235.22
200.015	9340.37
200.09	9356.75
200.165	9378.22
200.24	9394.93
200.315	9523.57
200.39	9565.27
200.464	9580.63
200.539	9590.41
200.614	9643.9
200.689	9718.65
200.764	9738.11
200.839	9804.92
200.914	9818.02
200.989	9775.53
201.063	9821.57
201.138	9762.53
201.213	9764.45
201.288	9698.58
201.363	9714.71
201.438	9716.35
201.512	9764.24
201.587	9709.24
201.662	9720.99
201.737	9759.18
201.812	9785.77
201.886	9675.48
201.961	9710.75
202.036	9676.23
202.111	9668.04
202.186	9570.72
202.26	9509.99
202.335	9441.74
202.41	9413.29
202.485	9357.4
202.559	9291.48
202.634	9201.74
202.709	9237.68
202.784	9175.76
202.858	9176.39
202.933	9113.13
203.008	9086.7
203.082	9025.76
203.157	9020.13
203.232	8877.86
203.306	8801.06
203.381	8696.25
203.456	8621.36
203.53	8545.21
203.605	8476.63
203.68	8393.98
203.754	8368.93
203.829	8324.6
203.904	8253.41
203.978	8210.86
204.053	8222.17
204.127	8179.27
204.202	8174.17
204.277	8109.76
204.351	8085.32
204.426	8060.54
204.5	8032.3
204.575	7919.03
204.65	7955.75
204.724	7927.63
204.799	7952.14
204.873	7944.44
204.948	7941.7
205.022	7898.72
205.097	7869.6
205.171	7918.07
205.246	7948.15
205.32	7949.68
205.395	7944.2
205.469	7918.01
205.544	7939.71
205.618	7881.32
205.693	7920.18
205.767	7880.51
205.842	7957.28
205.916	7934.49
205.991	7901.64
206.065	7922.37
206.14	7975.03
206.214	7951.98
206.289	7926.33
206.363	7972.94
206.438	7978.61
206.512	8000.98
206.586	8066.43
206.661	8090.01
206.735	8017.52
206.81	8015.89
206.884	8062.43
206.958	8020.6
207.033	8077.18
207.107	8102.98
207.181	8205.09
207.256	8182.91
207.33	8240.05
207.405	8281.94
207.479	8348.28
207.553	8374.25
207.628	8320.84
207.702	8356.62
207.776	8333
207.851	8340.6
207.925	8386.18
207.999	8380.12
208.073	8373.87
208.148	8385.27
208.222	8344.7
208.296	8455.74
208.371	8514.58
208.445	8549.18
208.519	8644.68
208.593	8683.56
208.668	8665.37
208.742	8676.49
208.816	8685.49
208.89	8740.61
208.965	8733.53
209.039	8756.59
209.113	8813.53
209.187	8879.84
209.261	8864.98
209.336	8936.21
209.41	9007.84
209.484	9004.32
209.558	9072.45
209.632	9117.69
209.707	9157.46
209.781	9229.51
209.855	9276.61
209.929	9330.43
210.003	9353.44
210.077	9349.06
210.151	9511.38
210.226	9625.68
210.3	9713.85
210.374	9794.92
210.448	9808.31
210.522	9840.34
210.596	9879.26
210.67	9909.55
210.744	10067.6
210.818	10177.22
210.892	10245.77
210.966	10225.6
211.041	10285.42
211.115	10272.18
211.189	10350.69
211.263	10400.55
211.337	10426.42
211.411	10472.57
211.485	10454.02
211.559	10492.22
211.633	10501.41
211.707	10392.84
211.781	10411.3
211.855	10288.21
211.929	10255.66
212.003	10188.39
212.077	10220.58
212.151	10251.22
212.225	10281.77
212.299	10241.14
212.373	10199.91
212.447	10182.51
212.52	10278.86
212.594	10282.77
212.668	10321.64
212.742	10265.66
212.816	10245.62
212.89	10221.15
212.964	10210.02
213.038	10215.46
213.112	10253.19
213.186	10296.54
213.26	10218.49
213.333	10062.68
213.407	10081.12
213.481	10086.08
213.555	10121.03
213.629	10070.54
213.703	10009.6
213.777	9999.72
213.85	9928.04
213.924	10038.66
213.998	10027.1
214.072	9989.56
214.146	9935.18
214.219	9916.15
214.293	9896.11
214.367	9887.3
214.441	9910.56
214.515	9866
214.588	9772.8
214.662	9639.31
214.736	9557.55
214.81	9572.95
214.883	9598.26
214.957	9546.94
215.031	9488.52
215.105	9395.04
215.178	9334.95
215.252	9298.45
215.326	9191.71
215.4	9109.61
215.473	8922.46
215.547	8839.06
215.621	8769.75
215.694	8765.56
215.768	8665.44
215.842	8596.29
215.915	8530.71
215.989	8413.89
216.063	8353.37
216.136	8331.81
216.21	8306.27
216.284	8314.59
216.357	8287.07
216.431	8239.97
216.504	8232.41
216.578	8286.94
216.652	8294.63
216.725	8271.39
216.799	8275.05
216.873	8259.27
216.946	8262.59
217.02	8225.76
217.093	8186.8
217.167	8089.11
217.24	8003.07
217.314	7964.37
217.387	7919.96
217.461	7867.68
217.535	7891.29
217.608	7824.88
217.682	7793.81
217.755	7809.87
217.829	7750.32
217.902	7737.57
217.976	7718.1
218.049	7671.74
218.123	7595.91
218.196	7593.13
218.27	7555.71
218.343	7483.7
218.417	7477.93
218.49	7460.38
218.563	7496.58
218.637	7511.06
218.71	7583.67
218.784	7614.16
218.857	7649.16
218.931	7670.39
219.004	7681.36
219.077	7700.02
219.151	7722.71
219.224	7712.37
219.298	7703.43
219.371	7754.56
219.444	7711.3
219.518	7721.49
219.591	7743.07
219.665	7848.67
219.738	7866.17
219.811	7850.21
219.885	7902.3
219.958	7932.26
220.031	7933.51
220.105	7962.62
220.178	7967.57
220.251	7947.46
220.325	7968.34
220.398	7986.96
220.471	8005.51
220.544	8040.73
220.618	8017.15
220.691	8040.23
220.764	8065.96
220.838	8098.15
220.911	8079.09
220.984	8172.1
221.057	8211.59
221.131	8233.43
221.204	8133.9
221.277	8208.06
221.35	8329.54
221.424	8318.14
221.497	8337.87
221.57	8358.93
221.643	8388.14
221.716	8436.27
221.79	8434.73
221.863	8446.38
221.936	8457.44
222.009	8477.89
222.082	8511.39
222.155	8525.63
222.229	8593.45
222.302	8622.32
222.375	8627.27
222.448	8667.41
222.521	8663.75
222.594	8658.36
222.667	8631.33
222.74	8685.7
222.814	8671.59
222.887	8651.08
222.96	8703.97
223.033	8737.05
223.106	8763.94
223.179	8794.71
223.252	8801.12
223.325	8834.61
223.398	8844.67
223.471	8868.01
223.544	8885.09
223.617	8892.26
223.69	8910.45
223.763	8871.84
223.837	8884.12
223.91	8912.66
223.983	8862.19
224.056	8831.82
224.129	8860.17
224.202	8918.52
224.275	8907.64
224.348	8882.37
224.42	8852.43
224.493	8801.75
224.566	8778.64
224.639	8799.19
224.712	8770.83
224.785	8761.25
224.858	8749.21
224.931	8730.68
225.004	8694.25
225.077	8694.64
225.15	8604.52
225.223	8604.95
225.296	8686.58
225.369	8634.81
225.442	8601.5
225.514	8623.87
225.587	8643.36
225.66	8646.77
225.733	8646.87
225.806	8657.41
225.879	8651.3
225.952	8619.4
226.025	8661.71
226.097	8716.9
226.17	8714.68
226.243	8644.34
226.316	8640.92
226.389	8647.08
226.461	8665.85
226.534	8685.77
226.607	8680.96
226.68	8765.59
226.753	8756.97
226.825	8667.16
226.898	8727.02
226.971	8729.72
227.044	8750.27
227.117	8754.31
227.189	8772.94
227.262	8801.69
227.335	8828.26
227.407	8816.62
227.48	8851.89
227.553	8859.69
227.626	8837.58
227.698	8837.58
227.771	8883.57
227.844	8857.96
227.916	8876.25
227.989	8844.1
228.062	8842.22
228.134	8932.31
228.207	8932.94
228.28	8923.89
228.352	8938.04
228.425	8941.46
228.498	8989.36
228.57	8967.08
228.643	9029.92
228.716	9031.46
228.788	9022.69
228.861	9013.21
228.934	9078.24
229.006	9086.56
229.079	9085.36
229.151	9066.92
229.224	9032.37
229.296	9056.72
229.369	9162
229.442	9214.06
229.514	9194.81
229.587	9238.76
229.659	9156.8
229.732	9167.25
229.804	9212.65
229.877	9297.8
229.949	9333.14
230.022	9382.28
230.094	9387.28
230.167	9372.45
230.239	9328.93
230.312	9320.6
230.384	9386.98
230.457	9379.51
230.529	9381.58
230.602	9392.85
230.674	9406.57
230.747	9448.25
230.819	9483.21
230.892	9364.61
230.964	9366.87
231.037	9400.17
231.109	9390.83
231.181	9429.2
231.254	9395.83
231.326	9383.22
231.399	9353.49
231.471	9322.77
231.544	9242.24
231.616	9287.01
231.688	9294.67
231.761	9278.31
231.833	9267.19
231.905	9181.99
231.978	9181.51
232.05	9171.4
232.122	9171.06
232.195	9147.04
232.267	9186.38
232.339	9161.38
232.412	9224.25
232.484	9193.71
232.556	9166.86
232.629	9238.24
232.701	9253.99
232.773	9267.37
232.846	9257.31
232.918	9263.86
232.99	9286.01
233.062	9334.02
233.135	9345.25
233.207	9307.73
233.279	9353.94
233.351	9388.07
233.424	9394.47
233.496	9372.13
233.568	9453.23
233.64	9419.91
233.713	9440.09
233.785	9436.09
233.857	9443.46
233.929	9394.83
234.001	9460.55
234.074	9523.75
234.146	9450.96
234.218	9454.24
234.29	9454.67
234.362	9436.24
234.434	9390.2
234.507	9348.02
234.579	9292.74
234.651	9273.23
234.723	9308.77
234.795	9331.07
234.867	9318.93
234.939	9372.43
235.012	9400.17
235.084	9406.72
235.156	9436.43
235.228	9422.51
235.3	9401.95
235.372	9419.33
235.444	9478.26
235.516	9397.77
235.588	9409.04
235.66	9425.79
235.732	9391.94
235.804	9418.33
235.876	9475.76
235.948	9540.88
236.02	9562.65
236.092	9575.21
236.164	9585.71
236.236	9578.63
236.308	9571.11
236.38	9597.07
236.452	9579.44
236.524	9594.56
236.596	9658.85
236.668	9694.78
236.74	9710.91
236.812	9746.07
236.884	9775.65
236.956	9788.27
237.028	9786.01
237.1	9768.53
237.172	9837.85
237.244	9920.8
237.316	9967.67
237.388	9942.19
237.46	9917.09
237.532	9979.38
237.604	9977.98
237.675	10056.31
237.747	10107.96
237.819	10099.24
237.891	10113.69
237.963	10108.63
238.035	10104.01
238.107	9989.87
238.178	10053.67
238.25	10063.54
238.322	10153.94
238.394	10110.97
238.466	10121.23
238.538	10168.38
238.609	10210.87
238.681	10152.09
238.753	10129.83
238.825	10155.13
238.897	10193.27
238.968	10281.4
239.04	10264.4
239.112	10375.96
239.184	10333.95
239.255	10327.25
239.327	10362.26
239.399	10379.85
239.471	10419.25
239.542	10456.2
239.614	10525.14
239.686	10440.57
239.758	10490.97
239.829	10448.89
239.901	10514.03
239.973	10520.63
240.044	10547.12
240.116	10558.59
240.188	10577.38
240.259	10589.23
240.331	10577.42
240.403	10614.71
240.474	10561.8
240.546	10546.48
240.618	10482.83
240.689	10487.36
240.761	10503.21
240.833	10569.99
240.904	10567.73
240.976	10575.24
241.048	10588.93
241.119	10628.78
241.191	10674.46
241.262	10745.3
241.334	10751.81
241.405	10759.28
241.477	10760.97
241.549	10773.74
241.62	10798.02
241.692	10840.9
241.763	10898.88
241.835	10919.22
241.906	10925.19
241.978	10900.72
242.049	10969.71
242.121	11035.63
242.192	11097.02
242.264	11067.82
242.335	11020.65
242.407	11063.54
242.478	11058.04
242.55	11084.55
242.621	11065.08
242.693	11072.4
242.764	11055.58
242.836	11055.48
242.907	11085.65
242.979	11121.36
243.05	11140.44
243.122	11164.68
243.193	11165.07
243.264	11096.01
243.336	11096.59
243.407	11145.85
243.479	11225.36
243.55	11245.75
243.622	11254.71
243.693	11255.58
243.764	11322.56
243.836	11302.28
243.907	11294.81
243.978	11309.03
244.05	11332.74
244.121	11286.82
244.192	11323.4
244.264	11275.3
244.335	11291.68
244.407	11235.64
244.478	11253.37
244.549	11243.4
244.62	11199.73
244.692	11201.13
244.763	11242.28
244.834	11235.25
244.906	11202.91
244.977	11220.26
245.048	11264.9
245.119	11245.95
245.191	11217.86
245.262	11158.92
245.333	11232.35
245.405	11249.75
245.476	11280.79
245.547	11298.33
245.618	11359.49
245.689	11370.23
245.761	11409.13
245.832	11416.93
245.903	11465.27
245.974	11492.98
246.045	11509.03
246.117	11589.04
246.188	11569.96
246.259	11558.2
246.33	11572.75
246.401	11586.34
246.473	11551.64
246.544	11539.78
246.615	11596.17
246.686	11602.68
246.757	11673.96
246.828	11653.81
246.899	11727.32
246.97	11695.08
247.042	11676.47
247.113	11716.48
247.184	11807.06
247.255	11801.52
247.326	11825.66
247.397	11835.98
247.468	11841.43
247.539	11855.88
247.61	11812.94
247.681	11853.28
247.752	11908.61
247.823	11889.91
247.894	11908.66
247.965	11878.63
248.037	11865.86
248.108	11817.18
248.179	11824.21
248.25	11816.16
248.321	11842.96
248.392	11788.39
248.463	11871.68
248.534	11874.71
248.605	11895.59
248.675	11864.73
248.746	11884.83
248.817	11906.96
248.888	11928.84
248.959	11871.29
249.03	11893.66
249.101	11901.18
249.172	11896.26
249.243	11821.46
249.314	11886.29
249.385	11887.88
249.456	11922.29
249.527	11914.58
249.598	11935.93
249.669	11941.57
249.739	11956.61
249.81	11971.41
249.881	11938.34
249.952	11933.91
250.023	11927.93
250.094	11868.45
250.165	11838.27
250.235	11833.64
250.306	11833.21
250.377	11792.72
250.448	11829.26
250.519	11767.56
250.59	11826.27
250.66	11822.42
250.731	11895.77
250.802	11888.78
250.873	11908.16
250.944	11936.21
251.014	11932.55
251.085	12022.78
251.156	12043.51
251.227	12089.21
251.297	12142.86
251.368	12198.43
251.439	12233.33
251.51	12286.89
251.58	12276.81
251.651	12271.08
251.722	12330.95
251.792	12283.81
251.863	12292.43
251.934	12349.22
252.005	12466.25
252.075	12481.73
252.146	12536.77
252.217	12585.94
252.287	12635.78
252.358	12643.45
252.429	12701.39
252.499	12688.18
252.57	12699.37
252.641	12744.87
252.711	12756.97
252.782	12714.79
252.852	12786.19
252.923	12791.05
252.994	12804.36
253.064	12857.33
253.135	12841.71
253.205	12814.62
253.276	12893.24
253.347	12958.12
253.417	12934.7
253.488	12910.64
253.558	12888.85
253.629	12884.51
253.699	12893.58
253.77	12914.84
253.841	12910.59
253.911	12933.06
253.982	12959.38
254.052	12984.2
254.123	12995.92
254.193	12997.51
254.264	13135.47
254.334	13093.87
254.405	13060.32
254.475	13028.02
254.546	13028.02
254.616	13095.94
254.687	13125.64
254.757	13145.98
254.827	13146.89
254.898	13170.61
254.968	13175.09
255.039	13158.66
255.109	13189.22
255.18	13168.3
255.25	13097
255.321	13125.44
255.391	13076.27
255.461	13158.75
255.532	13076.9
255.602	13068.7
255.673	13017.99
255.743	12980.87
255.813	12909.29
255.884	12951.13
255.954	12991.34
256.024	13063.99
256.095	13063.7
256.165	13030.92
256.235	13047.84
256.306	13032.12
256.376	13078.01
256.446	13117.59
256.517	13150.71
256.587	13198.87
256.657	13221.96
256.728	13250.83
256.798	13262.02
256.868	13266.21
256.938	13232.95
257.009	13282.74
257.079	13312.68
257.149	13401.91
257.219	13336.35
257.29	13378.14
257.36	13325.07
257.43	13361.61
257.5	13284.57
257.571	13268.66
257.641	13306.17
257.711	13271.22
257.781	13302.02
257.852	13322.32
257.922	13265.77
257.992	13277.15
258.062	13267.51
258.132	13304.34
258.202	13305.93
258.273	13321.02
258.343	13390.67
258.413	13376.31
258.483	13376.79
258.553	13342.61
258.623	13321.35
258.693	13355.39
258.764	13426.11
258.834	13494.7
258.904	13514.61
258.974	13518.47
259.044	13533.03
259.114	13559.59
259.184	13589.96
259.254	13603.17
259.324	13544.79
259.394	13584.99
259.464	13658.8
259.535	13668.68
259.605	13660.24
259.675	13651.37
259.745	13684.68
259.815	13659.91
259.885	13661.01
259.955	13777.62
260.025	13774.92
260.095	13790.3
260.165	13818.54
260.235	13882.22
260.305	13866.94
260.375	13830.21
260.445	13914.28
260.515	13983.94
260.585	14027.32
260.655	14031.66
260.725	14074.71
260.795	14111.1
260.865	14183.41
260.934	14151.4
261.004	14180.47
261.074	14186.21
261.144	14245.5
261.214	14280.88
261.284	14285.7
261.354	14335.74
261.424	14283.25
261.494	14365.06
261.564	14366.79
261.634	14389.69
261.703	14318.16
261.773	14349.2
261.843	14392.68
261.913	14389.16
261.983	14328.67
262.053	14354.5
262.123	14347.42
262.192	14306.34
262.262	14348.86
262.332	14305.24
262.402	14336.09
262.472	14342.55
262.541	14278.91
262.611	14323.99
262.681	14299.31
262.751	14338.06
262.821	14341.58
262.89	14314.59
262.96	14337.1
263.03	14418.61
263.1	14440.74
263.169	14465.85
263.239	14497.14
263.309	14553.2
263.379	14581.4
263.448	14606.8
263.518	14626.61
263.588	14646.95
263.657	14715.31
263.727	14753
263.797	14767.27
263.867	14774.17
263.936	14736.04
264.006	14807.04
264.076	14809.31
264.145	14811.48
264.215	14795.76
264.285	14836.26
264.354	14791.57
264.424	14771.9
264.494	14716.52
264.563	14703.89
264.633	14786.46
264.702	14803.72
264.772	14751.37
264.842	14741.05
264.911	14769.3
264.981	14734.69
265.05	14744.24
265.12	14737.25
265.19	14760.43
265.259	14801.4
265.329	14829.6
265.398	14858.14
265.468	14952.23
265.537	14941.58
265.607	14970.55
265.676	15024.92
265.746	15045.65
265.815	15113.28
265.885	15121.09
265.955	15111.45
266.024	15114.87
266.094	15041.8
266.163	15106.48
266.232	15170.88
266.302	15189.24
266.371	15214.17
266.441	15234.22
266.51	15288.59
266.58	15299.2
266.649	15274.28
266.719	15322.72
266.788	15352.94
266.858	15431.02
266.927	15365.52
266.996	15393.04
267.066	15421.43
267.135	15386.44
267.205	15426.97
267.274	15449.58
267.343	15508.24
267.413	15532.78
267.482	15598.57
267.552	15665.96
267.621	15620.51
267.69	15579.39
267.76	15608.7
267.829	15640.66
267.898	15656.03
267.968	15637.04
268.037	15673.63
268.106	15731.03
268.176	15694.78
268.245	15705
268.314	15688.71
268.384	15746.31
268.453	15775.86
268.522	15811.04
268.592	15878.72
268.661	15865.66
268.73	15891.49
268.799	15879.78
268.869	15962.34
268.938	15916.7
269.007	15910.82
269.076	15929.57
269.146	15981.14
269.215	16008.47
269.284	16077.25
269.353	16072.52
269.422	16080.96
269.492	16081.15
269.561	16001.77
269.63	16043.03
269.699	16033.72
269.768	16062.16
269.838	16085.78
269.907	16120.43
269.976	16085.92
270.045	16030.83
270.114	16064.76
270.183	16075.12
270.253	16104.62
270.322	16051.22
270.391	16073.49
270.46	16140.96
270.529	16189.45
270.598	16227.91
270.667	16240.63
270.736	16213.16
270.806	16262.08
270.875	16326.14
270.944	16327.87
271.013	16453.23
271.082	16480.99
271.151	16521.91
271.22	16478.58
271.289	16487.93
271.358	16496.41
271.427	16532.66
271.496	16556.09
271.565	16557.24
271.634	16576.04
271.703	16710.88
271.772	16777.39
271.841	16799.66
271.91	16768.24
271.979	16790.65
272.048	16771.47
272.117	16809.44
272.186	16806.6
272.255	16846.79
272.324	16882.7
272.393	16924.78
272.462	16908.25
272.531	16931.47
272.6	16944.54
272.669	17017.17
272.738	17028.35
272.807	17061.22
272.876	17047.29
272.945	17181.94
273.013	17244.11
273.082	17311.25
273.151	17212.5
273.22	17253.56
273.289	17281.23
273.358	17369.32
273.427	17376.12
273.496	17428.55
273.564	17469.81
273.633	17526.34
273.702	17512.6
273.771	17527.4
273.84	17555.93
273.909	17596.99
273.977	17635.01
274.046	17648.79
274.115	17705.9
274.184	17700.94
274.253	17717.71
274.322	17794.48
274.39	17746.72
274.459	17735.78
274.528	17693.81
274.597	17718.43
274.665	17738
274.734	17806.24
274.803	17805.23
274.872	17836.75
274.94	17826.96
275.009	17970.81
275.078	17965.56
275.147	18007.83
275.215	18040.84
275.284	18111.34
275.353	18124.01
275.421	18087.77
275.49	18190.03
275.559	18206.76
275.627	18235
275.696	18256.83
275.765	18301.64
275.833	18318.03
275.902	18354.99
275.971	18429.3
276.039	18521.54
276.108	18580.62
276.177	18619.27
276.245	18635.8
276.314	18659.8
276.383	18730.39
276.451	18643.94
276.52	18704.03
276.588	18788.41
276.657	18847.01
276.725	18856.26
276.794	18904.16
276.863	18998.04
276.931	18961.12
277	19023.96
277.068	19106.8
277.137	19209.06
277.205	19238.03
277.274	19345.49
277.342	19427.8
277.411	19414.35
277.48	19413.1
277.548	19417.87
277.617	19455.94
277.685	19480.38
277.754	19543.94
277.822	19567.74
277.89	19654.59
277.959	19680.71
278.027	19657.04
278.096	19661.81
278.164	19787.65
278.233	19805.09
278.301	19807.12
278.37	19869.09
278.438	19868.85
278.507	19914.49
278.575	19872.46
278.643	19909.23
278.712	19879.16
278.78	19878.87
278.849	19949.76
278.917	20029.37
278.985	20058.67
279.054	20113.18
279.122	20193.85
279.191	20222.72
279.259	20248.84
279.327	20221.22
279.396	20311.06
279.464	20350.86
279.532	20414.67
279.601	20451.36
279.669	20480.56
279.737	20567.93
279.806	20622.59
279.874	20699.31
279.942	20739.32
280.011	20779.7
280.079	20849.2
280.147	20954.02
280.215	21010.31
280.284	21041.59
280.352	21040.48
280.42	21119.91
280.488	21134.95
280.557	21151.57
280.625	21204.98
280.693	21243.39
280.761	21297.08
280.83	21283.39
280.898	21364.31
280.966	21358.91
281.034	21281.79
281.102	21286.71
281.171	21317.6
281.239	21381.86
281.307	21396.95
281.375	21407.94
281.443	21530.42
281.512	21563.92
281.58	21637.97
281.648	21637.54
281.716	21686.51
281.784	21729.26
281.852	21739.62
281.92	21774.76
281.989	21859.41
282.057	21855.65
282.125	22047.27
282.193	22089.74
282.261	22142.81
282.329	22167.16
282.397	22217.33
282.465	22284.77
282.533	22382.42
282.601	22372.25
282.67	22350.03
282.738	22373.12
282.806	22452.75
282.874	22455.89
282.942	22511
283.01	22526.86
283.078	22590.93
283.146	22625.78
283.214	22698.15
283.282	22759.04
283.35	22837.64
283.418	22847.67
283.486	22910.58
283.554	22824.58
283.622	22866.24
283.69	22901.29
283.758	22930.17
283.826	22991.25
283.894	23069.75
283.962	23179.86
284.03	23293.61
284.098	23342.01
284.165	23364.91
284.233	23411.06
284.301	23436.28
284.369	23448.82
284.437	23470.14
284.505	23500.37
284.573	23604.92
284.641	23610.42
284.709	23677.51
284.777	23677.27
284.845	23748.03
284.912	23806.43
284.98	23869.8
285.048	23899.89
285.116	23969.83
285.184	24059.73
285.252	24102.85
285.319	24103.53
285.387	24101.93
285.455	24090.21
285.523	24160.68
285.591	24208.81
285.659	24250.97
285.726	24341.42
285.794	24346.2
285.862	24380.5
285.93	24419.8
285.997	24445.71
286.065	24489.22
286.133	24503.65
286.201	24550.87
286.269	24559.6
286.336	24571.91
286.404	24589.95
286.472	24668.69
286.539	24646.5
286.607	24641.44
286.675	24690.46
286.743	24754.67
286.81	24787.44
286.878	24882.59
286.946	24897.93
287.013	24948.2
287.081	24987.14
287.149	24986.85
287.216	25086.39
287.284	25119.78
287.352	25177.92
287.419	25207.6
287.487	25303.5
287.555	25355.43
287.622	25387.33
287.69	25446.74
287.758	25546.21
287.825	25581.48
287.893	25580.18
287.96	25650.96
288.028	25739.97
288.096	25792.97
288.163	25850.12
288.231	25870.3
288.298	25904.29
288.366	25997.41
288.433	26022.22
288.501	26050.36
288.569	26101.58
288.636	26142.57
288.704	26223.63
288.771	26283.01
288.839	26297.78
288.906	26308.79
288.974	26393.94
289.041	26429.66
289.109	26444.39
289.176	26502.5
289.244	26564.44
289.311	26660.97
289.379	26737.02
289.446	26775.61
289.514	26823.86
289.581	26866.36
289.649	26923.77
289.716	26970.14
289.783	26991.25
289.851	27106.76
289.918	27154.91
289.986	27237.56
290.053	27293.46
290.121	27339.45
290.188	27399.64
290.255	27542.07
290.323	27579.65
290.39	27605.94
290.458	27688.24
290.525	27793.47
290.592	27829.76
290.66	27883.34
290.727	27911.56
290.794	28001.4
290.862	28055.77
290.929	28112.79
290.996	28158.89
291.064	28232.97
291.131	28319.64
291.198	28402.34
291.266	28448.94
291.333	28509.58
291.4	28560.87
291.468	28660.09
291.535	28694.85
291.602	28759.24
291.669	28782.21
291.737	28846.59
291.804	28896
291.871	28983.81
291.938	29039.71
292.006	29174.44
292.073	29255.57
292.14	29340.53
292.207	29360.94
292.275	29404.7
292.342	29466.75
292.409	29599.67
292.476	29712.59
292.543	29731.94
292.611	29782.39
292.678	29872.9
292.745	29983.08
292.812	30068.68
292.879	30105.07
292.946	30167.85
293.014	30252.09
293.081	30322.73
293.148	30400.32
293.215	30498.81
293.282	30519.71
293.349	30594.53
293.416	30572.65
293.484	30659.81
293.551	30731.98
293.618	30822.91
293.685	30960.48
293.752	30993.92
293.819	31030.09
293.886	31050.04
293.953	31122.54
294.02	31203.53
294.087	31270.69
294.154	31298.28
294.221	31386.34
294.288	31443.72
294.356	31545.97
294.423	31614.45
294.49	31633.33
294.557	31730.03
294.624	31740.44
294.691	31870.02
294.758	31913.56
294.825	31983.68
294.892	32010.27
294.959	32057.45
295.026	32143.97
295.093	32159.37
295.16	32213.94
295.226	32258.51
295.293	32376.25
295.36	32441.11
295.427	32524.75
295.494	32615.08
295.561	32690.35
295.628	32794.5
295.695	32874.94
295.762	32938.33
295.829	33011.66
295.896	33130.07
295.963	33214.66
296.03	33304.88
296.096	33360.38
296.163	33457.61
296.23	33565.03
296.297	33661.13
296.364	33718.51
296.431	33788.38
296.498	33832.24
296.564	33976.97
296.631	34043.86
296.698	34049.92
296.765	34174.63
296.832	34195.52
296.899	34201.63
296.965	34325.52
297.032	34313.15
297.099	34429.96
297.166	34499.3
297.233	34542.56
297.299	34561.76
297.366	34608.03
297.433	34663.07
297.5	34747.04
297.566	34812.57
297.633	34855.75
297.7	34911.57
297.767	34956.67
297.833	35018.04
297.9	35088.4
297.967	35081.42
298.033	35163.01
298.1	35309.93
298.167	35328.37
298.234	35401.37
298.3	35501.31
298.367	35528.48
298.434	35617.91
298.5	35627.62
298.567	35676.82
298.634	35718.35
298.7	35831.24
298.767	35888.6
298.834	35988.42
298.9	36026.08
298.967	36037
299.033	36129.02
299.1	36235.41
299.167	36345.18
299.233	36387.79
299.3	36469.71
299.366	36571.8
299.433	36679.09
299.5	36650.5
299.566	36693.59
299.633	36790.09
299.699	36857.96
299.766	36904.65
299.832	36961.31
299.899	37034.62
299.965	37117.68
300.032	37166.07
300.099	37232.15
300.165	37307.31
300.232	37340.17
300.298	37382.95
300.365	37484.84
300.431	37528.11
300.498	37549.14
300.564	37600.51
300.631	37684.42
300.697	37780.03
300.763	37824.31
300.83	37850.93
300.896	37938.47
300.963	38033.06
301.029	38098.92
301.096	38171.19
301.162	38263.31
301.229	38292.5
301.295	38311.3
301.361	38381.38
301.428	38439.55
301.494	38445.18
301.561	38493.66
301.627	38551.65
301.693	38607.06
301.76	38662.04
301.826	38687.2
301.892	38774.83
301.959	38858.58
302.025	38898.31
302.092	38920.61
302.158	39000.32
302.224	39062.31
302.291	39086.69
302.357	39131.92
302.423	39154.95
302.49	39174.57
302.556	39245.75
302.622	39304.92
302.688	39389.99
302.755	39471.04
302.821	39542.83
302.887	39633.28
302.954	39674.34
303.02	39747.17
303.086	39822.62
303.152	39866.01
303.219	39920.95
303.285	39974.17
303.351	40020.82
303.417	40077.28
303.483	40100.89
303.55	40130.14
303.616	40173.25
303.682	40218.04
303.748	40223.05
303.815	40312.17
303.881	40392.46
303.947	40396.3
304.013	40429.1
304.079	40448.05
304.145	40418.35
304.212	40474.62
304.278	40487.36
304.344	40534.06
304.41	40534.74
304.476	40551.6
304.542	40581.97
304.608	40633.34
304.674	40637.04
304.741	40659.93
304.807	40707.27
304.873	40779.49
304.939	40864.4
305.005	40845.01
305.071	40880.87
305.137	40942.78
305.203	40912.25
305.269	40928.64
305.335	41011.18
305.401	41060.41
305.467	41101.19
305.533	41181.19
305.599	41240.06
305.666	41301.35
305.732	41339.94
305.798	41440.57
305.864	41565.8
305.93	41617.91
305.996	41664
306.062	41707.89
306.128	41743.77
306.194	41745.08
306.259	41766.18
306.325	41773.08
306.391	41862.81
306.457	41927.76
306.523	41986.58
306.589	42115.32
306.655	42140.46
306.721	42116.83
306.787	42122.61
306.853	42214.89
306.919	42205.12
306.985	42236.24
307.051	42261.96
307.117	42281.21
307.183	42287.29
307.248	42231.46
307.314	42294.14
307.38	42347.19
307.446	42407.1
307.512	42414.68
307.578	42459.17
307.644	42496.8
307.709	42553.64
307.775	42569.06
307.841	42596.29
307.907	42632.22
307.973	42596.13
308.039	42643.5
308.104	42707.63
308.17	42749.35
308.236	42731.06
308.302	42779.05
308.368	42772
308.433	42819.8
308.499	42843.53
308.565	42844.84
308.631	42900.86
308.696	42867.26
308.762	42868.42
308.828	42896.78
308.894	42893.04
308.959	42877.67
309.025	42895.67
309.091	42905.54
309.156	42938.9
309.222	42996.39
309.288	42994.15
309.354	42976.5
309.419	43006.17
309.485	43003.25
309.551	43077.13
309.616	43070.42
309.682	43097.31
309.748	43120.02
309.813	43130.58
309.879	43137.82
309.945	43151.15
310.01	43158.69
310.076	43194.19
310.141	43203.04
310.207	43192.05
310.273	43238.92
310.338	43288.18
310.404	43273.16
310.469	43275.39
310.535	43271.89
310.601	43217.61
310.666	43275.25
310.732	43333.07
310.797	43328.84
310.863	43338.67
310.928	43315.17
310.994	43378.94
311.059	43408.36
311.125	43433.32
311.191	43516.9
311.256	43529.11
311.322	43580.47
311.387	43549.39
311.453	44464.88
311.518	44492.07
311.584	44522.38
311.649	44568.54
311.715	44576.61
311.78	44624.62
311.846	44644.12
311.911	44704.83
311.976	44765.63
312.042	44755.66
312.107	44754.93
312.173	44764.46
312.238	44785.23
312.304	44831.3
312.369	44826.19
312.434	44836.12
312.5	44846.82
312.565	44772.38
312.631	44821.8
312.696	44832.99
312.761	44886.59
312.827	44037.26
312.892	44139.81
312.958	44176.11
313.023	44197.27
313.088	44235.56
313.154	44212.79
313.219	44208.71
313.284	44220.09
313.35	44245.54
313.415	44252.74
313.48	44271.42
313.546	44311.17
313.611	44364.35
313.676	44360.02
313.741	44376.27
313.807	44424.64
313.872	44478.55
313.937	44529.38
314.003	44598.39
314.068	44629.24
314.133	44688.7
314.198	44679.26
314.264	44631.85
314.329	44615.5
314.394	44639.1
314.459	44660.17
314.525	44764
314.59	44804.82
314.655	44792.8
314.72	44838.01
314.785	44872.65
314.851	44888.9
314.916	44871.09
314.981	44853.77
315.046	44854.79
315.111	44858.97
315.176	44845.93
315.242	44868.32
315.307	44896.3
315.372	44861.16
315.437	44865.83
315.502	44878.68
315.567	44939.86
315.632	44924.77
315.698	44979.19
315.763	44993.94
315.828	44985.13
315.893	44986.44
315.958	44987.76
316.023	44983.72
316.088	44944.2
316.153	44892.19
316.218	44883.92
316.283	44836.97
316.348	44789.79
316.413	44785.26
316.479	44745.66
316.544	44641.02
316.609	44547.8
316.674	44425.64
316.739	44290.62
316.804	44186.08
316.869	44048.98
316.934	43906.72
316.999	43787.79
317.064	43583.79
317.129	43417.43
317.194	43275.18
317.259	43091.36
317.324	42901.86
317.389	42721.26
317.454	42554.5
317.518	42417.34
317.583	42298.05
317.648	42179.95
317.713	42035.51
317.778	41807.2
317.843	41668.39
317.908	41496.19
317.973	41327.55
318.038	41187.81
318.103	41043.09
318.168	40888.18
318.233	40730.22
318.297	40521.3
318.362	40350.97
318.427	40180.34
318.492	40048.78
318.557	39838.96
318.622	39699.36
318.687	39551.68
318.751	39370.01
318.816	39204.35
318.881	39021.51
318.946	38784.5
319.011	38578.16
319.075	38369.96
319.14	38196.76
319.205	37975.25
319.27	37802.94
319.335	37570.18
319.399	37358.4
319.464	37190.85
319.529	36933.78
319.594	36726.88
319.658	36549.82
319.723	36313.47
319.788	36125.93
319.853	35861.77
319.917	35689.21
319.982	35424.37
320.047	35215.47
320.112	35036.81
320.176	34779.7
320.241	34575.94
320.306	34373.8
320.37	34145.81
320.435	33952.98
320.5	33752.47
320.564	33523.72
320.629	33287.62
320.694	33103.41
320.758	32873.68
320.823	32634.93
320.888	32453.09
320.952	32185.33
321.017	31952.14
321.082	31739.18
321.146	31536.37
321.211	31328.85
321.275	31089.28
321.34	30841.7
321.405	30589.61
321.469	30336.8
321.534	30106
321.598	29838.48
321.663	29642.55
321.727	29431.75
321.792	29170.75
321.857	28932.91
321.921	28712.4
321.986	28479.74
322.05	28193
322.115	27971.12
322.179	27720
322.244	27424.41
322.308	27216.17
322.373	26963.46
322.437	26727.96
322.502	26536.1
322.566	26284.99
322.631	26066.58
322.695	25839.92
322.76	25607
322.824	25384.64
322.889	25130.6
322.953	24872.74
323.018	24535.98
323.082	24217.21
323.146	23938.78
323.211	23655.26
323.275	23391.9
323.34	23136.52
323.404	22904.84
323.468	22643.87
323.533	22379.7
323.597	22128.27
323.662	21848.46
323.726	21618.99
323.79	21351.36
323.855	21016.9
323.919	20745.96
323.983	20473.87
324.048	20082.55
324.112	20214.49
324.177	19405
324.241	18352.05
324.305	17318.65
324.37	16305.63
324.434	15318.89
324.498	15047.78
324.562	14742.29
324.627	14391.71
324.691	14040.08
324.755	13650.62
324.82	13205.26
324.884	12744.2
324.948	12273.17
325.012	11705.41
325.077	10984.46
