Data from 20250701_urea_2M_exp3_MAYP1162681_05-49-48-835.txt Node
Date: Wed Jul 02 05:49:48 BST 2025
User: adleo
Spectrometer: MAYP116268
Trigger mode: 0
Integration Time (sec): 4.000000E0
Scans to average: 1
Electric dark correction enabled: true
Nonlinearity correction enabled: true
Boxcar width: 10
XAxis mode: Wavelengths
Number of Pixels in Spectrum: 2068
>>>>>Begin Spectral Data<<<<<
179.565	3568.96
179.642	3751.12
179.718	3898.68
179.795	4031.34
179.871	4136.99
179.948	4192.63
180.024	4262.5
180.101	4338.93
180.177	4387.86
180.254	4465.59
180.33	4539.98
180.407	4797.48
180.483	5075.31
180.56	5360.53
180.636	5622.12
180.712	5578.26
180.789	5616.24
180.865	5661.91
180.942	5688.18
181.018	5727.36
181.095	5774.29
181.171	5793.86
181.248	5796.35
181.324	5848.09
181.4	5871.83
181.477	5909.21
181.553	5955.71
181.63	6023.31
181.706	6081.19
181.782	6106.51
181.859	6105.31
181.935	6122.01
182.011	6107.47
182.088	6160.84
182.164	6225.57
182.24	6269.32
182.317	6303.96
182.393	6292.64
182.469	6335.16
182.546	6382.25
182.622	6399.15
182.698	6386.9
182.775	6427.95
182.851	6475.08
182.927	6448.77
183.003	6431.5
183.08	6413.02
183.156	6444.51
183.232	6438.12
183.308	6393.24
183.385	6422.03
183.461	6477
183.537	6485.26
183.613	6530.48
183.69	6501.92
183.766	6463
183.842	6486.39
183.918	6500.22
183.995	6542.46
184.071	6552.3
184.147	6533.67
184.223	6490.2
184.299	6528.49
184.375	6488.5
184.452	6515.4
184.528	6643.28
184.604	6684.27
184.68	6725.65
184.756	6752.99
184.832	6765.72
184.908	6781.89
184.985	6781.69
185.061	6732.81
185.137	6755.68
185.213	6720.87
185.289	6723.65
185.365	6702.05
185.441	6696.29
185.517	6741.12
185.593	6733.53
185.669	6726.95
185.745	6761.77
185.822	6820.12
185.898	6792.31
185.974	6825.24
186.05	6795.45
186.126	6721.03
186.202	6692.18
186.278	6680.84
186.354	6646.83
186.43	6663.8
186.506	6662.5
186.582	6660.96
186.658	6679.78
186.734	6617.95
186.81	6623.18
186.886	6638.83
186.962	6681.85
187.038	6667.64
187.114	6639.14
187.19	6668.2
187.266	6636.42
187.341	6633.87
187.417	6611.4
187.493	6608.71
187.569	6616.69
187.645	6602.23
187.721	6561.59
187.797	6589.68
187.873	6605.43
187.949	6588.82
188.025	6568.93
188.101	6576.56
188.176	6597.35
188.252	6587.03
188.328	6612.65
188.404	6608.81
188.48	6584.14
188.556	6555.42
188.632	6554.65
188.707	6562.63
188.783	6551.67
188.859	6536.08
188.935	6499.77
189.011	6523.83
189.086	6504.15
189.162	6472.37
189.238	6459.17
189.314	6448.8
189.39	6428.34
189.465	6402.31
189.541	6454.61
189.617	6406.9
189.693	6388.42
189.768	6397.65
189.844	6473.99
189.92	6445.69
189.996	6477.62
190.071	6517.71
190.147	6514.73
190.223	6550.76
190.298	6523.81
190.374	6471.72
190.45	6514.24
190.526	6543.53
190.601	6526.77
190.677	6537.05
190.753	6633.15
190.828	6647.7
190.904	6699.43
190.98	6747.46
191.055	6779.21
191.131	6749.47
191.207	6816.79
191.282	6851.73
191.358	6816.73
191.433	6767.03
191.509	6815.69
191.585	6807.43
191.66	6811.47
191.736	6841.05
191.811	6805.69
191.887	6861.53
191.963	6946.36
192.038	6961.15
192.114	6962.06
192.189	6976.71
192.265	6961.07
192.34	6886.99
192.416	6880.9
192.491	6862.06
192.567	6871.19
192.642	6877.63
192.718	6877.77
192.793	6837.52
192.869	6825.95
192.944	6830.65
193.02	6855.68
193.095	6870.24
193.171	6885.18
193.246	6883.31
193.322	6869.9
193.397	6873.26
193.473	6821.17
193.548	6759.57
193.624	6778.56
193.699	6778.41
193.775	6827
193.85	6837.8
193.925	6869.6
194.001	6869.41
194.076	6854.52
194.152	6818.34
194.227	6797.25
194.302	6764.32
194.378	6782.76
194.453	6771
194.529	6817.45
194.604	6770.33
194.679	6742.33
194.755	6682.95
194.83	6720.68
194.905	6715.73
194.981	6743.74
195.056	6719.21
195.131	6738.27
195.207	6734.18
195.282	6696.73
195.357	6635.22
195.433	6683.97
195.508	6644.97
195.583	6672.38
195.659	6716.25
195.734	6743.21
195.809	6735.76
195.884	6769.75
195.96	6768.79
196.035	6815.42
196.11	6797.55
196.185	6832.75
196.261	6846.43
196.336	6950.62
196.411	6906.31
196.486	6925.23
196.561	6905.73
196.637	6935.59
196.712	6993.56
196.787	6998.03
196.862	7053.22
196.937	7084.63
197.013	7101.55
197.088	7136.33
197.163	7201.33
197.238	7255.3
197.313	7254.92
197.388	7299.13
197.464	7394.66
197.539	7426.28
197.614	7407.02
197.689	7450.66
197.764	7510.96
197.839	7575.37
197.914	7557.38
197.989	7628.97
198.065	7675.07
198.14	7841.21
198.215	7929.34
198.29	7958.65
198.365	7998.66
198.44	8034.58
198.515	8127.85
198.59	8184.04
198.665	8263.7
198.74	8291.95
198.815	8301.72
198.89	8376.08
198.965	8478.4
199.04	8467.52
199.115	8522.36
199.19	8664.23
199.265	8672.45
199.34	8706.63
199.415	8816.54
199.49	8876.01
199.565	8911.52
199.64	8988.92
199.715	8979.33
199.79	9003.35
199.865	9030.12
199.94	9029.06
200.015	9130.5
200.09	9150.48
200.165	9164.59
200.24	9194.2
200.315	9326.82
200.39	9371.22
200.464	9390.23
200.539	9395.92
200.614	9445.5
200.689	9521.49
200.764	9542.54
200.839	9603.61
200.914	9618.11
200.989	9586.41
201.063	9641.64
201.138	9581.69
201.213	9581.98
201.288	9519.28
201.363	9532.96
201.438	9532.81
201.512	9582.19
201.587	9525.94
201.662	9535.72
201.737	9575.4
201.812	9600.11
201.886	9488.48
201.961	9520.66
202.036	9487.35
202.111	9473.09
202.186	9378.73
202.26	9325.41
202.335	9254.58
202.41	9235.32
202.485	9177.42
202.559	9114.02
202.634	9021.3
202.709	9051.7
202.784	8989.51
202.858	8984.12
202.933	8927.03
203.008	8906.95
203.082	8846.84
203.157	8841.31
203.232	8698.91
203.306	8625.49
203.381	8520.12
203.456	8447.41
203.53	8372.23
203.605	8301.54
203.68	8226.45
203.754	8207.85
203.829	8155.3
203.904	8082.24
203.978	8041.15
204.053	8054.62
204.127	8013.88
204.202	8013.78
204.277	7953.53
204.351	7925.63
204.426	7903.5
204.5	7875.02
204.575	7753.65
204.65	7788.77
204.724	7763.31
204.799	7797
204.873	7785.26
204.948	7776.36
205.022	7736.08
205.097	7698.79
205.171	7741.19
205.246	7766.83
205.32	7757.61
205.395	7753.23
205.469	7729.45
205.544	7743.06
205.618	7685.4
205.693	7720.13
205.767	7677.63
205.842	7751.69
205.916	7737.94
205.991	7707.41
206.065	7724.19
206.14	7780.72
206.214	7757.53
206.289	7738.14
206.363	7772.72
206.438	7784.12
206.512	7813.94
206.586	7876.92
206.661	7910.46
206.735	7840.97
206.81	7844.87
206.884	7899.14
206.958	7856.31
207.033	7911.3
207.107	7933.29
207.181	8039.71
207.256	8018.93
207.33	8079.96
207.405	8122.09
207.479	8183.75
207.553	8204.76
207.628	8147.9
207.702	8180.65
207.776	8158.76
207.851	8162.13
207.925	8214.4
207.999	8199.68
208.073	8185.2
208.148	8195.5
208.222	8158.3
208.296	8259.69
208.371	8311.45
208.445	8345.47
208.519	8447.68
208.593	8489.59
208.668	8485.01
208.742	8490.12
208.816	8499.35
208.89	8545.71
208.965	8536.56
209.039	8560.58
209.113	8620.3
209.187	8693.71
209.261	8684.86
209.336	8750.26
209.41	8822.65
209.484	8824.77
209.558	8903.91
209.632	8952.31
209.707	8985.91
209.781	9054.79
209.855	9107.94
209.929	9167.35
210.003	9187.13
210.077	9182.61
210.151	9339.42
210.226	9445.91
210.3	9531.96
210.374	9606.03
210.448	9623.08
210.522	9656.31
210.596	9695.61
210.67	9723.11
210.744	9871.36
210.818	9980.83
210.892	10058.86
210.966	10034.45
211.041	10081.99
211.115	10067.4
211.189	10137.91
211.263	10189.34
211.337	10209.52
211.411	10255.48
211.485	10232.6
211.559	10269.05
211.633	10272.66
211.707	10168.87
211.781	10197.54
211.855	10077.79
211.929	10048.52
212.003	9976.84
212.077	10011.72
212.151	10042.02
212.225	10073.77
212.299	10039.17
212.373	9995.05
212.447	9969.13
212.52	10067.54
212.594	10072.12
212.668	10105.26
212.742	10060.51
212.816	10039.7
212.89	10015.61
212.964	10010.27
213.038	10012.05
213.112	10055.27
213.186	10099.28
213.26	10016.48
213.333	9855.72
213.407	9866.36
213.481	9866.31
213.555	9904.09
213.629	9849.75
213.703	9792.18
213.777	9773.39
213.85	9706.29
213.924	9805.97
213.998	9798.84
214.072	9757.11
214.146	9703.55
214.219	9675.08
214.293	9656.01
214.367	9648.55
214.441	9670.8
214.515	9616.08
214.588	9524.87
214.662	9395.67
214.736	9310.65
214.81	9329.17
214.883	9343.41
214.957	9299.96
215.031	9247.94
215.105	9153.04
215.178	9090.07
215.252	9047.27
215.326	8947.34
215.4	8857.17
215.473	8677.33
215.547	8593.99
215.621	8532.1
215.694	8524.54
215.768	8434.41
215.842	8363.34
215.915	8301.24
215.989	8193.33
216.063	8136.29
216.136	8117.19
216.21	8086.37
216.284	8098.11
216.357	8070.54
216.431	8026.58
216.504	8024.99
216.578	8077.53
216.652	8093.34
216.725	8069.68
216.799	8075.55
216.873	8062.42
216.946	8070.11
217.02	8036.04
217.093	8001.6
217.167	7907.18
217.24	7827.99
217.314	7800.21
217.387	7754.22
217.461	7705.03
217.535	7723.11
217.608	7664.78
217.682	7640.35
217.755	7654.39
217.829	7597.5
217.902	7583.79
217.976	7568.89
218.049	7516.97
218.123	7439.9
218.196	7434.47
218.27	7403.12
218.343	7335.5
218.417	7326.13
218.49	7308.53
218.563	7352.85
218.637	7363.43
218.71	7423.77
218.784	7445.5
218.857	7471.89
218.931	7498.74
219.004	7506.87
219.077	7527.8
219.151	7547.45
219.224	7539.18
219.298	7532.45
219.371	7577.56
219.444	7531.47
219.518	7540.99
219.591	7560.7
219.665	7670.21
219.738	7684.97
219.811	7668.87
219.885	7708.78
219.958	7741.15
220.031	7742.73
220.105	7761.73
220.178	7765.29
220.251	7752.45
220.325	7777.51
220.398	7798.86
220.471	7816.89
220.544	7855.32
220.618	7830.88
220.691	7856.03
220.764	7875.74
220.838	7909.41
220.911	7894.55
220.984	7989.56
221.057	8024.71
221.131	8047.21
221.204	7950.63
221.277	8019.81
221.35	8138.68
221.424	8138.53
221.497	8148.11
221.57	8172.96
221.643	8203.18
221.716	8246.49
221.79	8244.18
221.863	8250.48
221.936	8253.47
222.009	8268.23
222.082	8293.45
222.155	8297.73
222.229	8358.46
222.302	8383.57
222.375	8388
222.448	8432.85
222.521	8429.09
222.594	8426.16
222.667	8403.56
222.74	8452.48
222.814	8445.84
222.887	8430.57
222.96	8478.22
223.033	8524.33
223.106	8542.61
223.179	8573.32
223.252	8586.56
223.325	8622.36
223.398	8641.9
223.471	8669.23
223.544	8694.83
223.617	8698.44
223.69	8726.1
223.763	8692.26
223.837	8717.58
223.91	8743.62
223.983	8686.65
224.056	8658.46
224.129	8684.68
224.202	8738.21
224.275	8728.4
224.348	8703.42
224.42	8665.69
224.493	8607.94
224.566	8586.18
224.639	8608.12
224.712	8577.93
224.785	8565.18
224.858	8548.77
224.931	8528.31
225.004	8497.71
225.077	8490.11
225.15	8409.54
225.223	8404.05
225.296	8481.33
225.369	8426.77
225.442	8395.29
225.514	8423.24
225.587	8442.68
225.66	8444.75
225.733	8445.37
225.806	8461.54
225.879	8447.44
225.952	8421.04
226.025	8472.14
226.097	8522.99
226.17	8521.02
226.243	8457.85
226.316	8454.48
226.389	8466.66
226.461	8488.56
226.534	8503.04
226.607	8496.88
226.68	8583.32
226.753	8579.71
226.825	8496.46
226.898	8552.52
226.971	8556.75
227.044	8572.49
227.117	8573.4
227.189	8596.89
227.262	8636.8
227.335	8652.54
227.407	8649.8
227.48	8681.4
227.553	8689.4
227.626	8665.7
227.698	8667.24
227.771	8710.96
227.844	8686.47
227.916	8700.23
227.989	8664.62
228.062	8663.75
228.134	8749.25
228.207	8747.52
228.28	8740.16
228.352	8752.04
228.425	8750.69
228.498	8792.81
228.57	8766.98
228.643	8825.61
228.716	8823.16
228.788	8810.01
228.861	8800.29
228.934	8860.5
229.006	8869.93
229.079	8868.34
229.151	8861.74
229.224	8827.01
229.296	8849
229.369	8951.76
229.442	9000.29
229.514	8979.8
229.587	9013.35
229.659	8936.89
229.732	8943.63
229.804	8980.84
229.877	9063.23
229.949	9100.31
230.022	9149.78
230.094	9152.66
230.167	9139.8
230.239	9094.8
230.312	9077.81
230.384	9144.99
230.457	9148.99
230.529	9156.55
230.602	9164.88
230.674	9172.24
230.747	9213.23
230.819	9244.34
230.892	9126.62
230.964	9119.59
231.037	9154.71
231.109	9147.73
231.181	9184.41
231.254	9153.94
231.326	9144.41
231.399	9109.72
231.471	9079.96
231.544	9002.09
231.616	9049.69
231.688	9065.3
231.761	9057.94
231.833	9049.75
231.905	8969.86
231.978	8963.12
232.05	8948.01
232.122	8953.36
232.195	8927.74
232.267	8967.75
232.339	8939.29
232.412	9007.73
232.484	8993.09
232.556	8960.71
232.629	9032.33
232.701	9051.69
232.773	9062.08
232.846	9053.51
232.918	9064.35
232.99	9083.18
233.062	9125.26
233.135	9134.65
233.207	9094.92
233.279	9135.34
233.351	9169.81
233.424	9170.49
233.496	9146.03
233.568	9230.34
233.64	9193.61
233.713	9209.45
233.785	9203.38
233.857	9221.2
233.929	9176.33
234.001	9239.53
234.074	9309.8
234.146	9240.54
234.218	9244.64
234.29	9247.04
234.362	9239.15
234.434	9197.59
234.507	9162.11
234.579	9114.06
234.651	9101.83
234.723	9132.31
234.795	9151.95
234.867	9141.17
234.939	9200.53
235.012	9219.45
235.084	9217.91
235.156	9251.22
235.228	9234.42
235.3	9219.93
235.372	9229.99
235.444	9285.02
235.516	9202.32
235.588	9208.82
235.66	9225.33
235.732	9193.31
235.804	9383.38
235.876	9421.22
235.948	9484.41
236.02	9495.96
236.092	9506.79
236.164	9515.99
236.236	9517.19
236.308	9520.17
236.38	9544.3
236.452	9520.27
236.524	9538.28
236.596	9598.27
236.668	9634.73
236.74	9654.32
236.812	9682.73
236.884	9718.14
236.956	9724.98
237.028	9721.08
237.1	9700.23
237.172	9767.52
237.244	9836.44
237.316	9721.49
237.388	9707.67
237.46	9681.71
237.532	9741.23
237.604	9732.47
237.675	9805.36
237.747	9848.47
237.819	9835.66
237.891	9843.37
237.963	9836.96
238.035	9832.82
238.107	9728.18
238.178	9786.15
238.25	9792.31
238.322	9883.28
238.394	9835.17
238.466	9838.83
238.538	9883.95
238.609	9932.2
238.681	9879.74
238.753	9867.41
238.825	9890.34
238.897	9917.93
238.968	9996.33
239.04	9981.83
239.112	10095.16
239.184	10054.88
239.255	10049.58
239.327	10080.69
239.399	10104.53
239.471	10153.52
239.542	10184.53
239.614	10252.21
239.686	10165.92
239.758	10217.03
239.829	10180.4
239.901	10247.21
239.973	10260.9
240.044	10287.78
240.116	10294.81
240.188	10311.62
240.259	10322.75
240.331	10310.8
240.403	10350.44
240.474	10302.49
240.546	10292.33
240.618	10237.41
240.689	10236.59
240.761	10255.28
240.833	10321.19
240.904	10316.52
240.976	10313.63
241.048	10328.32
241.119	10364.37
241.191	10415.24
241.262	10479.81
241.334	10479.91
241.405	10483.09
241.477	10489.64
241.549	10496.48
241.62	10518.26
241.692	10560.56
241.763	10621.33
241.835	10638.24
241.906	10654.39
241.978	10631.89
242.049	10704.49
242.121	10761.3
242.192	10831.5
242.264	10795.85
242.335	10748.58
242.407	10790.5
242.478	10800.81
242.55	10826.06
242.621	10808.33
242.693	10803.51
242.764	10801.82
242.836	10806.01
242.907	10833
242.979	10864.03
243.05	10887.11
243.122	10913.81
243.193	10917.33
243.264	10845.86
243.336	10850.44
243.407	10888.32
243.479	10958.67
243.55	10971.25
243.622	10982.43
243.693	10975.39
243.764	11042.61
243.836	11023.97
243.907	11017.61
243.978	11017.51
244.05	11041.56
244.121	10993.81
244.192	11041.09
244.264	10983.16
244.335	10996.46
244.407	10947.26
244.478	10963.79
244.549	10958.92
244.62	10917.63
244.692	10918.4
244.763	10965.91
244.834	10959.74
244.906	10933.38
244.977	10959.64
245.048	11006.4
245.119	10984.81
245.191	10966.98
245.262	10903.33
245.333	10973.82
245.405	10988.32
245.476	11020.65
245.547	11037.28
245.618	11098.28
245.689	11104.6
245.761	11148.35
245.832	11150.86
245.903	11203.82
245.974	11226.42
246.045	11234.28
246.117	11317.89
246.188	11296.5
246.259	11277.22
246.33	11290.33
246.401	11300.35
246.473	11267
246.544	11256.54
246.615	11318.18
246.686	11321.99
246.757	11401.6
246.828	11383.57
246.899	11452.84
246.97	11422.62
247.042	11415.49
247.113	11453.28
247.184	11543.95
247.255	11543.66
247.326	11570.7
247.397	11573.25
247.468	11588.68
247.539	11609.69
247.61	11564.14
247.681	11609.59
247.752	11662.7
247.823	11639.76
247.894	11658.75
247.965	11629.54
248.037	11612.53
248.108	11551.95
248.179	11558.02
248.25	11545
248.321	11573.39
248.392	11529.04
248.463	11608.37
248.534	11604.13
248.605	11626.83
248.675	11599.35
248.746	11613.77
248.817	11632.56
248.888	11649.96
248.959	11588.61
249.03	11609.29
249.101	11622.3
249.172	11604.76
249.243	11534.06
249.314	11603.13
249.385	11605.92
249.456	11638.88
249.527	11636.19
249.598	11669.15
249.669	11667.61
249.739	11686.12
249.81	11697.3
249.881	11654.93
249.952	11652.77
250.023	11650.4
250.094	11595.07
250.165	11565.04
250.235	11550.1
250.306	11548.36
250.377	11517.56
250.448	11544.79
250.519	11480.45
250.59	11530.34
250.66	11528.56
250.731	11597.23
250.802	11591.49
250.873	11611.83
250.944	11631.21
251.014	11617.91
251.085	11699.8
251.156	11722.41
251.227	11773.26
251.297	11821.32
251.368	11872.84
251.439	11907.64
251.51	11960.18
251.58	11946.11
251.651	11940.71
251.722	12002.89
251.792	11955.51
251.863	11962.69
251.934	12031.81
252.005	12146.14
252.075	12156.51
252.146	12208.08
252.217	12257.87
252.287	12296.48
252.358	12300.72
252.429	12377.03
252.499	12376.89
252.57	12386
252.641	12433.96
252.711	12432.13
252.782	12394.05
252.852	12473.63
252.923	12473.34
252.994	12487.95
253.064	12535.28
253.135	12514.55
253.205	12488.14
253.276	12565.4
253.347	12626.76
253.417	12602.9
253.488	12578.08
253.558	12553.01
253.629	12547.66
253.699	12558.46
253.77	12588.63
253.841	12587.19
253.911	12588.35
253.982	12604.25
254.052	12636.93
254.123	12645.61
254.193	12654.1
254.264	12782.27
254.334	12741.25
254.405	12707.56
254.475	12676.37
254.546	12686.73
254.616	12750.21
254.687	12782.9
254.757	12802.32
254.827	12804.93
254.898	12826.09
254.968	12836.12
255.039	12829.9
255.109	12876.75
255.18	12845.52
255.25	12771.33
255.321	12800.93
255.391	12766.36
255.461	12844.74
255.532	12758.84
255.602	12750.45
255.673	12698.92
255.743	12671.06
255.813	12611.92
255.884	12668.56
255.954	12699.79
256.024	12764.48
256.095	12760.97
256.165	12725.15
256.235	12745.01
256.306	12726.55
256.376	12767.72
256.446	12807.92
256.517	12842.92
256.587	12878.54
256.657	12901.92
256.728	12932.96
256.798	12946.12
256.868	12934.99
256.938	12908.14
257.009	12955.86
257.079	12990.14
257.149	13088.81
257.219	13021.76
257.29	13053.23
257.36	12988.2
257.43	13023.49
257.5	12958.12
257.571	12948.58
257.641	12991.1
257.711	12957.35
257.781	12987.72
257.852	13000.59
257.922	12939.95
257.992	12939.47
258.062	12928.23
258.132	12967.81
258.202	12961.55
258.273	12971.52
258.343	13054.34
258.413	13042.24
258.483	13046.97
258.553	13020.31
258.623	12992.54
258.693	13026.05
258.764	13087.94
258.834	13156.15
258.904	13177.7
258.974	13165.12
259.044	13184.83
259.114	13212.31
259.184	13237.57
259.254	13251.26
259.324	13206.29
259.394	13254.73
259.464	13339
259.535	13350.52
259.605	13343.91
259.675	13342.13
259.745	13368.64
259.815	13340.11
259.885	13344.93
259.955	13451.27
260.025	13437.29
260.095	13448.33
260.165	13478.26
260.235	13536.78
260.305	13520.15
260.375	13490.65
260.445	13578.38
260.515	13632.18
260.585	13677.88
260.655	13687.47
260.725	13729.56
260.795	13765.23
260.865	13831.27
260.934	13797.14
261.004	13819.22
261.074	13827.32
261.144	13885.36
261.214	13920.02
261.284	13923.97
261.354	13960.23
261.424	13921.76
261.494	13995.9
261.564	13995.8
261.634	14022.7
261.703	13968.47
261.773	13996.87
261.843	14026.13
261.913	14019.23
261.983	13966.3
262.053	13987.85
262.123	13986.36
262.192	13943.36
262.262	13984.57
262.332	13940.7
262.402	13973.34
262.472	13991.85
262.541	13936.22
262.611	13980.86
262.681	13958.25
262.751	13991.18
262.821	13998.84
262.89	13966.35
262.96	13993.25
263.03	14070.28
263.1	14095.88
263.169	14116.22
263.239	14140.85
263.309	14201.54
263.379	14241.51
263.448	14267.2
263.518	14281.18
263.588	14297.13
263.657	14371.03
263.727	14404.25
263.797	14413.94
263.867	14407.62
263.936	14373.3
264.006	14429.36
264.076	14424.54
264.145	14432.45
264.215	14415.48
264.285	14449.13
264.354	14412.68
264.424	14402.95
264.494	14359.03
264.563	14344.33
264.633	14413.07
264.702	14443
264.772	14387.38
264.842	14380
264.911	14407.05
264.981	14369.01
265.05	14392.39
265.12	14386.75
265.19	14396.35
265.259	14436.07
265.329	14472.75
265.398	14491.74
265.468	14591.19
265.537	14590.37
265.607	14619.05
265.676	14674.24
265.746	14701.24
265.815	14754.75
265.885	14755.47
265.955	14749.59
266.024	14754.6
266.094	14691.55
266.163	14758.02
266.232	14838.66
266.302	14852.26
266.371	14885.71
266.441	14911.16
266.51	14951.27
266.58	14958.31
266.649	14945.68
266.719	15003.76
266.788	15035.04
266.858	15108.12
266.927	15035.09
266.996	15055.87
267.066	15088.6
267.135	15059.05
267.205	15103.78
267.274	15127.74
267.343	15191.51
267.413	15205.15
267.482	15253.02
267.552	15321.51
267.621	15273.6
267.69	15217.49
267.76	15233.79
267.829	15256.25
267.898	15274.81
267.968	15255.38
268.037	15293.41
268.106	15344.46
268.176	15312.69
268.245	15314.57
268.314	15307.2
268.384	15376.08
268.453	15403.36
268.522	15424.52
268.592	15487.81
268.661	15473.69
268.73	15499.77
268.799	15482.03
268.869	15560.41
268.938	15524.35
269.007	15512.98
269.076	15531.39
269.146	15591.79
269.215	15627.36
269.284	15696.14
269.353	15693.15
269.422	15705.54
269.492	15706.26
269.561	15632.85
269.63	15667.94
269.699	15664.37
269.768	15689
269.838	15705.82
269.907	15744.87
269.976	15720.48
270.045	15676.23
270.114	15708.91
270.183	15719.37
270.253	15758.12
270.322	15716.33
270.391	15737.3
270.46	15804.68
270.529	15845.7
270.598	15885.99
270.667	15889.99
270.736	15858.32
270.806	15891.34
270.875	15948.8
270.944	15953.33
271.013	16068.04
271.082	16092.43
271.151	16132.77
271.22	16088.38
271.289	16101.49
271.358	16112.67
271.427	16149.25
271.496	16170.75
271.565	16170.32
271.634	16194.71
271.703	16312.59
271.772	16367.05
271.841	16387.78
271.91	16357.27
271.979	16385.03
272.048	16358.86
272.117	16415.92
272.186	16426
272.255	16471.11
272.324	16509.62
272.393	16555.31
272.462	16555.36
272.531	16573.48
272.6	16588.03
272.669	16665.83
272.738	16681.97
272.807	16711.52
272.876	16696.24
272.945	16834.51
273.013	16893.98
273.082	16955.77
273.151	16859.14
273.22	16903.53
273.289	16929.84
273.358	17016.64
273.427	17024.69
273.496	17074.67
273.564	17102.91
273.633	17154.48
273.702	17150.96
273.771	17168.94
273.84	17196.41
273.909	17234.82
273.977	17279.2
274.046	17290.62
274.115	17339.06
274.184	17331.11
274.253	17351.97
274.322	17427.64
274.39	17367.69
274.459	17367.4
274.528	17319.06
274.597	17342.29
274.665	17366.97
274.734	17434.77
274.803	17445.76
274.872	17469.67
274.94	17468.94
275.009	17686.97
275.078	17681.91
275.147	17715.26
275.215	17742.68
275.284	17795.26
275.353	17802.87
275.421	17771.21
275.49	17871.88
275.559	17888.7
275.627	17912.99
275.696	17934.53
275.765	17973.38
275.833	17988.46
275.902	18029.28
275.971	18113.13
276.039	18210.38
276.108	18263.25
276.177	18294.96
276.245	18288.79
276.314	18319.68
276.383	18386.04
276.451	18228.54
276.52	18283.38
276.588	18359.23
276.657	18418.21
276.725	18440.72
276.794	18479.99
276.863	18560.04
276.931	18521.05
277	18581.72
277.068	18653.77
277.137	18757.28
277.205	18797.28
277.274	18904.31
277.342	18977.99
277.411	18966.28
277.48	18963.44
277.548	18973.8
277.617	19022.18
277.685	19056.88
277.754	19111.09
277.822	19128.68
277.89	19217.07
277.959	19237.5
278.027	19224.15
278.096	19228.39
278.164	19355.09
278.233	19381.11
278.301	19380.2
278.37	19445.54
278.438	19445.59
278.507	19504.43
278.575	19460.43
278.643	19489.73
278.712	19469.15
278.78	19467.9
278.849	19545.39
278.917	19622.69
278.985	19645.53
279.054	19693.1
279.122	19781
279.191	19823.93
279.259	19849.57
279.327	19815.4
279.396	19915.55
279.464	19957.71
279.532	20018.91
279.601	20046.82
279.669	20085.71
279.737	20181.86
279.806	20231.01
279.874	20302.19
279.942	20336.26
280.011	20368.84
280.079	20441.28
280.147	20546.19
280.215	20601.66
280.284	20628.99
280.352	20630.53
280.42	20703.35
280.488	20719.35
280.557	20731.93
280.625	20780.46
280.693	20827.54
280.761	20877.91
280.83	20867.21
280.898	20944.41
280.966	20939.21
281.034	20870.62
281.102	20874.24
281.171	20899.83
281.239	20973.96
281.307	20996.33
281.375	21002.01
281.443	21126.27
281.512	21146.76
281.58	21208.7
281.648	21203.93
281.716	21250.82
281.784	21288.41
281.852	21309.33
281.92	21348.86
281.989	21422.94
282.057	21411.52
282.125	21613.35
282.193	21663.67
282.261	21707.77
282.329	21735.49
282.397	21793.37
282.465	21849.96
282.533	21941.2
282.601	21941.97
282.67	21907.5
282.738	21916.85
282.806	22004.82
282.874	22006.22
282.942	22068.6
283.01	22082.87
283.078	22152.52
283.146	22181.25
283.214	22254.19
283.282	22313.53
283.35	22408.18
283.418	22429.1
283.486	22486.51
283.554	22378.43
283.622	22417.68
283.69	22464.82
283.758	22492.54
283.826	22552.61
283.894	22636.74
283.962	22736.85
284.03	22829.66
284.098	22881.14
284.165	22930.12
284.233	22971.2
284.301	22996.08
284.369	23008.52
284.437	23028.24
284.505	23050.47
284.573	23147.48
284.641	23168.74
284.709	23228.78
284.777	23200.76
284.845	23279.42
284.912	23345.14
284.98	23406.19
285.048	23427.5
285.116	23496.42
285.184	23594.08
285.252	23631.69
285.319	23627.16
285.387	23645.54
285.455	23653.11
285.523	23725.06
285.591	23762.48
285.659	23806.37
285.726	23890.29
285.794	23896.32
285.862	23944.26
285.93	23988.82
285.997	24021.47
286.065	24050.85
286.133	24068.89
286.201	24117.11
286.269	24112.63
286.336	24134.57
286.404	24163.66
286.472	24244.84
286.539	24208.86
286.607	24196.71
286.675	24251.51
286.743	24320.44
286.81	24343.21
286.878	24427.78
286.946	24447.22
287.013	24498.54
287.081	24547.18
287.149	24544.18
287.216	24650.46
287.284	24677
287.352	24740.44
287.419	24776.43
287.487	24868.79
287.555	24931.33
287.622	24972.34
287.69	25046.36
287.758	25127.86
287.825	25172.2
287.893	25180.74
287.96	25253.43
288.028	25330.11
288.096	25375.09
288.163	25432.86
288.231	25438.27
288.298	25481.76
288.366	25578.44
288.433	25607.44
288.501	25621.1
288.569	25675.44
288.636	25702.95
288.704	25787.52
288.771	25852.11
288.839	25871.51
288.906	25888.94
288.974	25963.69
289.041	25999.11
289.109	26009.06
289.176	26088.93
289.244	26137.93
289.311	26220.34
289.379	26304.19
289.446	26359.38
289.514	26408.15
289.581	26454.94
289.649	26521.9
289.716	26567.97
289.783	26583.04
289.851	26697.56
289.918	26753.18
289.986	26847.74
290.053	26911.35
290.121	26961.68
290.188	27008.58
290.255	27139.53
290.323	27179.52
290.39	27206.91
290.458	27291.81
290.525	27386.96
290.592	27409.72
290.66	27473.04
290.727	27505.79
290.794	27583.43
290.862	27632.09
290.929	27703.07
290.996	27743.07
291.064	27819.26
291.131	27891.21
291.198	27979.94
291.266	28014.25
291.333	28071.83
291.4	28110.4
291.468	28216.94
291.535	28245.31
291.602	28307.08
291.669	28326.9
291.737	28389.81
291.804	28433.56
291.871	28519.12
291.938	28578.1
292.006	28712.4
292.073	28790.76
292.14	28864.72
292.207	28892.76
292.275	28929.35
292.342	28992.02
292.409	29124.77
292.476	29244.05
292.543	29273.35
292.611	29324.13
292.678	29429.66
292.745	29555.25
292.812	29643.14
292.879	29651.32
292.946	29699.62
293.014	29778.17
293.081	29858.47
293.148	29939.91
293.215	30034.69
293.282	30061.44
293.349	30136.67
293.416	30115.09
293.484	30193.57
293.551	30274.66
293.618	30372.87
293.685	30512.25
293.752	30530.63
293.819	30559.19
293.886	30564.18
293.953	30633.99
294.02	30712.7
294.087	30770.5
294.154	30788.75
294.221	30875.08
294.288	30936.93
294.356	31051.82
294.423	31119.36
294.49	31128.94
294.557	31215.79
294.624	31226.01
294.691	31335.61
294.758	31398.7
294.825	31474.66
294.892	31504.88
294.959	31555.77
295.026	31629.67
295.093	31645.71
295.16	31700.69
295.226	31752.66
295.293	31877.34
295.36	31945.91
295.427	32036.66
295.494	32113.01
295.561	32185.9
295.628	32300.49
295.695	32400.87
295.762	32459.19
295.829	32549.47
295.896	32664.7
295.963	32751.15
296.03	32846.28
296.096	32910.1
296.163	32991.47
296.23	33090.19
296.297	33178.17
296.364	33226.87
296.431	33284.2
296.498	33327.33
296.564	33453.98
296.631	33523.87
296.698	33536.28
296.765	33654.16
296.832	33658.48
296.899	33678.64
296.965	33802.71
297.032	33798.87
297.099	33913.67
297.166	33988.13
297.233	34023.29
297.299	34056.83
297.366	34108.92
297.433	34176.5
297.5	34263.06
297.566	34310.64
297.633	34365.49
297.7	34437.65
297.767	34493.59
297.833	34567.45
297.9	34626.5
297.967	34636.39
298.033	34720.59
298.1	34871.33
298.167	34897.81
298.234	34956.88
298.3	35036.31
298.367	35047.18
298.434	35116.46
298.5	35126.31
298.567	35165.9
298.634	35208.05
298.7	35305.6
298.767	35356.44
298.834	35434.26
298.9	35454.83
298.967	35486.17
299.033	35571.54
299.1	35672.14
299.167	35773.87
299.233	35809.2
299.3	35913.07
299.366	36013.2
299.433	36095.33
299.5	36052.42
299.566	36098.66
299.633	36208.82
299.699	36300.11
299.766	36348.2
299.832	36407.18
299.899	36484.26
299.965	36573.13
300.032	36618.36
300.099	36686.7
300.165	36757.48
300.232	36797.81
300.298	36866.64
300.365	36955.51
300.431	36998.58
300.498	37010.62
300.564	37068.49
300.631	37151.35
300.697	37237.78
300.763	37283.41
300.83	37337.46
300.896	37423
300.963	37509.51
301.029	37569.87
301.096	37626.83
301.162	37714.9
301.229	37759.67
301.295	37768.37
301.361	37819.94
301.428	37871.39
301.494	37879.16
301.561	37929.23
301.627	37984.97
301.693	38036.83
301.76	38096.86
301.826	38128.48
301.892	38211.86
301.959	38295.06
302.025	38330.22
302.092	38366.41
302.158	38454.46
302.224	38508.53
302.291	38537.76
302.357	38577.01
302.423	38612.08
302.49	38625.63
302.556	38703.65
302.622	38742.84
302.688	38826.29
302.755	38914.61
302.821	39001.98
302.887	39088.63
302.954	39130.94
303.02	39217.66
303.086	39289.21
303.152	39325.5
303.219	39359.45
303.285	39424.85
303.351	39480.1
303.417	39542.77
303.483	39562.93
303.55	39588.29
303.616	39628.04
303.682	39670.49
303.748	39687.06
303.815	39776.27
303.881	39853.28
303.947	39863.1
304.013	39912.46
304.079	39943.6
304.145	39934.52
304.212	39974.5
304.278	39984.46
304.344	40015.12
304.41	40015.85
304.476	40032.96
304.542	40064.59
304.608	40136.89
304.674	40125.28
304.741	40151.42
304.807	40196.08
304.873	40251.82
304.939	40330.5
305.005	40315
305.071	40360.18
305.137	40418
305.203	40375.09
305.269	40413
305.335	40490.62
305.401	40536.98
305.467	40569.2
305.533	40636.95
305.599	40703.44
305.666	40792.52
305.732	40844.18
305.798	40929.91
305.864	41043.61
305.93	41112.58
305.996	41139.89
306.062	41189.22
306.128	41227.19
306.194	41240.07
306.259	41275.3
306.325	41281.62
306.391	41369.06
306.457	41434.09
306.523	41487.71
306.589	41615.36
306.655	41647.58
306.721	41622.6
306.787	41619.34
306.853	41705.97
306.919	41698.1
306.985	41707.38
307.051	41710.2
307.117	41716.72
307.183	41730.38
307.248	41670.87
307.314	41710.01
307.38	41753.86
307.446	41798.53
307.512	41809.52
307.578	41856.77
307.644	41892.36
307.709	41942.09
307.775	41951.33
307.841	41977.29
307.907	42016.09
307.973	41977.29
308.039	42002.96
308.104	42079.04
308.17	42131.35
308.236	42128.53
308.302	42181.62
308.368	42187.16
308.433	42225.57
308.499	42265.53
308.565	42276.61
308.631	42349.98
308.696	42317.84
308.762	42327.47
308.828	42366.56
308.894	42347.7
308.959	42326.75
309.025	42330.49
309.091	42364.77
309.156	42386.51
309.222	42447.2
309.288	42452.4
309.354	42433.73
309.419	42464.85
309.485	42446.62
309.551	42487.08
309.616	42479.73
309.682	42499.57
309.748	42526.36
309.813	42549.65
309.879	42565.12
309.945	42568.91
310.01	42569.01
310.076	42618.21
310.141	42638.25
310.207	42624.29
310.273	42667.66
310.338	42728.53
310.404	42718.03
310.469	42703.39
310.535	42707.57
310.601	42655.63
310.666	42702.61
310.732	42779.44
310.797	42779.05
310.863	42792.66
310.928	42817.23
310.994	42861.43
311.059	42891.05
311.125	42910.89
311.191	42989.49
311.256	42986.82
311.322	43035.89
311.387	43018.48
311.453	43954.49
311.518	43977.3
311.584	44011.83
311.649	44055.16
311.715	44059.49
311.78	44110.74
311.846	44119.05
311.911	44174.06
311.976	44211.31
312.042	44188.94
312.107	44173.77
312.173	44182.13
312.238	44204.99
312.304	44215.83
312.369	44218.7
312.434	44213.01
312.5	44230.03
312.565	44151.91
312.631	44203.8
312.696	44202.05
312.761	44255.4
312.827	43360.15
312.892	43451.38
312.958	43485.19
313.023	43525.47
313.088	43548.86
313.154	43531.5
313.219	43546.14
313.284	43551.93
313.35	43564.91
313.415	43585.58
313.48	43614.47
313.546	43658.5
313.611	43716.14
313.676	43725.19
313.741	43728.2
313.807	43789.01
313.872	43841.74
313.937	43904.15
314.003	43978.93
314.068	44015.12
314.133	44059.29
314.198	44063.09
314.264	44022.4
314.329	44010.29
314.394	44015.64
314.459	44030.96
314.525	44132.88
314.59	44153.11
314.655	44143.63
314.72	44202.83
314.785	44228.08
314.851	44235.91
314.916	44220.64
314.981	44195.63
315.046	44194.07
315.111	44209.01
315.176	44194.65
315.242	44222.29
315.307	44234.46
315.372	44181.66
315.437	44181.66
315.502	44177.04
315.567	44248.76
315.632	44228.91
315.698	44281.65
315.763	44302.87
315.828	44313.28
315.893	44314.01
315.958	44311.09
316.023	44308.76
316.088	44275.97
316.153	44237.05
316.218	44228.83
316.283	44168.77
316.348	44131.7
316.413	44143.38
316.479	44092.21
316.544	44000.15
316.609	43910.63
316.674	43803.83
316.739	43689.45
316.804	43589.27
316.869	43473.66
316.934	43334.68
316.999	43222.83
317.064	43019.99
317.129	42852.44
317.194	42713.61
317.259	42522.24
317.324	42342.36
317.389	42174.93
317.454	42013.99
317.518	41863.39
317.583	41745.82
317.648	41641.6
317.713	41491.59
317.778	41252.12
317.843	41119.42
317.908	40947.19
317.973	40778.09
318.038	40631.17
318.103	40478.84
318.168	40331.54
318.233	40178.75
318.297	39959.12
318.362	39788.68
318.427	39627.16
318.492	39494.75
318.557	39272.18
318.622	39137.41
318.687	39003.26
318.751	38826.67
318.816	38655.06
318.881	38490.85
318.946	38256.94
319.011	38057.43
319.075	37860.77
319.14	37680.41
319.205	37460.41
319.27	37287.98
319.335	37069.76
319.399	36877.08
319.464	36705.5
319.529	36453.57
319.594	36240.78
319.658	36070.99
319.723	35857.78
319.788	35670.51
319.853	35409.31
319.917	35231.95
319.982	34966.5
320.047	34754.48
320.112	34568.35
320.176	34312.32
320.241	34095.71
320.306	33901.96
320.37	33668.68
320.435	33473.03
320.5	33290.29
320.564	33073.48
320.629	32839.7
320.694	32643.61
320.758	32399.34
320.823	32167.05
320.888	31990.91
320.952	31743.69
321.017	31514.97
321.082	31288.29
321.146	31078.71
321.211	30865.05
321.275	30644.57
321.34	30404.9
321.405	30173.65
321.469	29934.6
321.534	29704.89
321.598	29447.31
321.663	29252.82
321.727	29050.97
321.792	28785.78
321.857	28536.05
321.921	28311.86
321.986	28079.93
322.05	27790.64
322.115	27573.03
322.179	27324.96
322.244	27033.91
322.308	26823.76
322.373	26564.53
322.437	26334.25
322.502	26142.65
322.566	25898.5
322.631	25673.41
322.695	25445.59
322.76	25189.29
322.824	24967.59
322.889	24724.88
322.953	24473.86
323.018	24143.99
323.082	23838.32
323.146	23576.5
323.211	23313.55
323.275	23052.31
323.34	22796.04
323.404	22577.64
323.468	22319.73
323.533	22066.92
323.597	21818.15
323.662	21542.3
323.726	21320.18
323.79	21052.03
323.855	20728.65
323.919	20453.14
323.983	20197.69
324.048	19809.42
324.112	19941.77
324.177	19136.42
324.241	18098.13
324.305	17078.41
324.37	16074.65
324.434	15090.02
324.498	14813.61
324.562	14499.06
324.627	14159.39
324.691	13816.61
324.755	13423.9
324.82	12987
324.884	12527.79
324.948	12053.45
325.012	11475.08
325.077	10765.24
