Data from 20250701_urea_2M_exp3_MAYP1162681_20-29-51-517.txt Node
Date: Tue Jul 01 20:29:51 BST 2025
User: adleo
Spectrometer: MAYP116268
Trigger mode: 0
Integration Time (sec): 4.000000E0
Scans to average: 1
Electric dark correction enabled: true
Nonlinearity correction enabled: true
Boxcar width: 10
XAxis mode: Wavelengths
Number of Pixels in Spectrum: 2068
>>>>>Begin Spectral Data<<<<<
179.565	3967.27
179.642	4178.44
179.718	4341
179.795	4475.5
179.871	4600.21
179.948	4668.46
180.024	4741.65
180.101	4826.75
180.177	4881.37
180.254	4964.38
180.33	5045.44
180.407	5332.91
180.483	5643.42
180.56	5955.08
180.636	6242.61
180.712	6203.85
180.789	6242.59
180.865	6290.13
180.942	6318.92
181.018	6356.36
181.095	6404.25
181.171	6420.43
181.248	6417.45
181.324	6470.77
181.4	6502.17
181.477	6542.38
181.553	6592.09
181.63	6672.49
181.706	6729.8
181.782	6757.54
181.859	6755.71
181.935	6779.25
182.011	6771.28
182.088	6828.11
182.164	6904.39
182.24	6953.61
182.317	6984.06
182.393	6976.71
182.469	7026.91
182.546	7078.75
182.622	7099.17
182.698	7089.08
182.775	7130.68
182.851	7183.96
182.927	7162.82
183.003	7151.05
183.08	7125.35
183.156	7157.69
183.232	7143.89
183.308	7106.41
183.385	7140.76
183.461	7205.49
183.537	7205.68
183.613	7253.31
183.69	7218.13
183.766	7176.15
183.842	7199.7
183.918	7216.42
183.995	7264.43
184.071	7268.7
184.147	7248.18
184.223	7206.3
184.299	7244.28
184.375	7208.77
184.452	7227.1
184.528	7355.74
184.604	7391.34
184.68	7437.28
184.756	7455.84
184.832	7469.83
184.908	7483.66
184.985	7479.63
185.061	7423.25
185.137	7456.04
185.213	7410.29
185.289	7420.85
185.365	7394.33
185.441	7391.45
185.517	7441.32
185.593	7425.7
185.669	7418.97
185.745	7457.33
185.822	7515.02
185.898	7481.8
185.974	7512.16
186.05	7487.79
186.126	7409.47
186.202	7380.98
186.278	7363.82
186.354	7333.82
186.43	7357.34
186.506	7353.06
186.582	7351.72
186.658	7373.04
186.734	7297.27
186.81	7306.35
186.886	7318.41
186.962	7358.68
187.038	7346.52
187.114	7316.17
187.19	7345.98
187.266	7315.66
187.341	7314.22
187.417	7293.17
187.493	7293.79
187.569	7308.12
187.645	7293.36
187.721	7251.53
187.797	7281.37
187.873	7299.83
187.949	7280.86
188.025	7255.9
188.101	7266.18
188.176	7282.76
188.252	7271.32
188.328	7303.3
188.404	7305.56
188.48	7280.82
188.556	7257.41
188.632	7255.2
188.707	7262.65
188.783	7250.87
188.859	7235.94
188.935	7201.13
189.011	7224.15
189.086	7208.73
189.162	7176.48
189.238	7160.72
189.314	7150.82
189.39	7132.22
189.465	7108.14
189.541	7167.17
189.617	7119.21
189.693	7102.45
189.768	7117.83
189.844	7205.35
189.92	7175.92
189.996	7204.47
190.071	7247.53
190.147	7245.99
190.223	7279.4
190.298	7245.56
190.374	7204.52
190.45	7246.89
190.526	7271.35
190.601	7256.65
190.677	7254.92
190.753	7352.99
190.828	7368.31
190.904	7425.23
190.98	7480.48
191.055	7514.9
191.131	7486.05
191.207	7559.92
191.282	7592.07
191.358	7554.38
191.433	7498.49
191.509	7548.63
191.585	7539.36
191.66	7544.5
191.736	7571.27
191.811	7535.41
191.887	7600.58
191.963	7682.55
192.038	7695.68
192.114	7703.08
192.189	7709.86
192.265	7705.15
192.34	7630.05
192.416	7627.84
192.491	7610.77
192.567	7614.81
192.642	7623.56
192.718	7629.38
192.793	7577.94
192.869	7563.37
192.944	7574.04
193.02	7602.03
193.095	7616.16
193.171	7638.52
193.246	7629.67
193.322	7617.9
193.397	7622.99
193.473	7569.79
193.548	7502.18
193.624	7525.89
193.699	7519.21
193.775	7578.08
193.85	7582.45
193.925	7608.7
194.001	7606.59
194.076	7579.09
194.152	7545.67
194.227	7524.12
194.302	7482.37
194.378	7503.99
194.453	7494.58
194.529	7536.21
194.604	7483.76
194.679	7461.45
194.755	7386.83
194.83	7434.5
194.905	7428.35
194.981	7465.71
195.056	7439.61
195.131	7464.46
195.207	7453.16
195.282	7418.03
195.357	7350.65
195.433	7402.32
195.508	7364.87
195.583	7389.52
195.659	7441.03
195.734	7459.01
195.809	7450.98
195.884	7485.86
195.96	7486.2
196.035	7536.48
196.11	7522.77
196.185	7565.46
196.261	7579.16
196.336	7695.31
196.411	7640.43
196.486	7660.66
196.561	7629.41
196.637	7660.74
196.712	7716.74
196.787	7732.13
196.862	7785.74
196.937	7819.53
197.013	7841.33
197.088	7878.11
197.163	7955.33
197.238	8017.14
197.313	8025.17
197.388	8074.38
197.464	8181.1
197.539	8221.07
197.614	8201.74
197.689	8244.75
197.764	8305.34
197.839	8371.1
197.914	8344.39
197.989	8426.52
198.065	8477.61
198.14	8657.38
198.215	8752.23
198.29	8796.72
198.365	8838.44
198.44	8881.22
198.515	8980.24
198.59	9032.52
198.665	9121.67
198.74	9148.35
198.815	9156.44
198.89	9230.91
198.965	9337.48
199.04	9323.66
199.115	9379.64
199.19	9529.6
199.265	9544.76
199.34	9575.97
199.415	9701.51
199.49	9776.03
199.565	9809.83
199.64	9889.97
199.715	9878.36
199.79	9900.27
199.865	9911.35
199.94	9911.3
200.015	10020.55
200.09	10039.97
200.165	10066.36
200.24	10096.81
200.315	10233.91
200.39	10281.55
200.464	10302.89
200.539	10313.16
200.614	10370.96
200.689	10454.07
200.764	10473.39
200.839	10527.95
200.914	10547.37
200.989	10503.03
201.063	10562.29
201.138	10505.14
201.213	10502.01
201.288	10435.91
201.363	10453.4
201.438	10457.93
201.512	10513.46
201.587	10450.96
201.662	10466.14
201.737	10503.05
201.812	10524.83
201.886	10411.91
201.961	10449.4
202.036	10409.23
202.111	10392.23
202.186	10282.78
202.26	10219.7
202.335	10143.68
202.41	10128.51
202.485	10063.44
202.559	9992.98
202.634	9894.47
202.709	9929.23
202.784	9863.06
202.858	9858.68
202.933	9791.54
203.008	9770.92
203.082	9703.31
203.157	9694.45
203.232	9537.86
203.306	9466.75
203.381	9350.44
203.456	9270.66
203.53	9179.21
203.605	9112.84
203.68	9027.74
203.754	9006.29
203.829	8952.99
203.904	8885.89
203.978	8842.31
204.053	8861.37
204.127	8819.5
204.202	8810.36
204.277	8739.85
204.351	8720.26
204.426	8697.87
204.5	8667.79
204.575	8542.37
204.65	8574.29
204.724	8546.7
204.799	8576.22
204.873	8558.17
204.948	8552.54
205.022	8510.3
205.097	8485.31
205.171	8528.08
205.246	8558.13
205.32	8549.33
205.395	8543.26
205.469	8506.48
205.544	8525.83
205.618	8462.83
205.693	8505.43
205.767	8461.45
205.842	8536.77
205.916	8521.52
205.991	8487.59
206.065	8510.69
206.14	8566.75
206.214	8552.25
206.289	8530.4
206.363	8574.14
206.438	8580.59
206.512	8608.07
206.586	8672.74
206.661	8698.69
206.735	8623.32
206.81	8625.15
206.884	8686.59
206.958	8645.31
207.033	8709.43
207.107	8731.97
207.181	8842.07
207.256	8820.22
207.33	8891.39
207.405	8938.07
207.479	9000.02
207.553	9026.3
207.628	8961.5
207.702	9006.16
207.776	8977.28
207.851	8988.59
207.925	9043.1
207.999	9033.23
208.073	9030.97
208.148	9045.51
208.222	9006.17
208.296	9122.47
208.371	9183.26
208.445	9217.64
208.519	9324.7
208.593	9363.7
208.668	9350.4
208.742	9358.11
208.816	9361.82
208.89	9412.83
208.965	9407.67
209.039	9431.95
209.113	9491.8
209.187	9571.23
209.261	9546.78
209.336	9614.96
209.41	9687.4
209.484	9690
209.558	9766.1
209.632	9811.22
209.707	9849.65
209.781	9927.09
209.855	9981.96
209.929	10038.21
210.003	10063.78
210.077	10055.16
210.151	10226.82
210.226	10347.71
210.3	10445.4
210.374	10531.22
210.448	10542.98
210.522	10573.96
210.596	10614.48
210.67	10647.44
210.744	10807.89
210.818	10930.42
210.892	11004.48
210.966	10980.1
211.041	11032.43
211.115	11018.84
211.189	11102.45
211.263	11161.38
211.337	11184.46
211.411	11233.04
211.485	11210.48
211.559	11250.04
211.633	11255.87
211.707	11144.96
211.781	11173.5
211.855	11045.02
211.929	11011.88
212.003	10940.93
212.077	10981.6
212.151	11019.39
212.225	11047.72
212.299	11011.57
212.373	10961.46
212.447	10940.83
212.52	11042.51
212.594	11056.15
212.668	11094.7
212.742	11043.04
212.816	11015.71
212.89	10992.49
212.964	10978.41
213.038	10982.85
213.112	11021.5
213.186	11067.27
213.26	10983.94
213.333	10811.11
213.407	10823.45
213.481	10826.87
213.555	10866.31
213.629	10811.75
213.703	10746.74
213.777	10737.59
213.85	10662.27
213.924	10773.5
213.998	10768.63
214.072	10727.85
214.146	10665.06
214.219	10645.45
214.293	10613.7
214.367	10606.81
214.441	10629.36
214.515	10576.31
214.588	10479.32
214.662	10342.55
214.736	10258.01
214.81	10270.05
214.883	10294.65
214.957	10239.37
215.031	10175.14
215.105	10072.42
215.178	10002.76
215.252	9961.58
215.326	9848.67
215.4	9759.17
215.473	9569.94
215.547	9476.54
215.621	9411.59
215.694	9404.6
215.768	9299.29
215.842	9225.34
215.915	9153.28
215.989	9032.21
216.063	8970.32
216.136	8946.39
216.21	8916.98
216.284	8925.51
216.357	8892.53
216.431	8838.28
216.504	8832.65
216.578	8896.54
216.652	8915.25
216.725	8888.34
216.799	8889.25
216.873	8872.6
216.946	8877.27
217.02	8833.64
217.093	8803.37
217.167	8693.68
217.24	8601.2
217.314	8567.63
217.387	8524.25
217.461	8475.69
217.535	8495.42
217.608	8429.26
217.682	8400.48
217.755	8414.67
217.829	8352.34
217.902	8341.03
217.976	8322.08
218.049	8271.42
218.123	8184.63
218.196	8176.98
218.27	8141.9
218.343	8066.48
218.417	8058.93
218.49	8036.37
218.563	8086.15
218.637	8089.23
218.71	8170.26
218.784	8202.5
218.857	8233.43
218.931	8252.47
219.004	8257.38
219.077	8283.95
219.151	8303.1
219.224	8294.63
219.298	8285.15
219.371	8340.54
219.444	8295.48
219.518	8308.23
219.591	8330.64
219.665	8443.01
219.738	8453.16
219.811	8434.51
219.885	8486.28
219.958	8525.17
220.031	8529.4
220.105	8546.3
220.178	8552.79
220.251	8524.06
220.325	8544.85
220.398	8562.75
220.471	8591.62
220.544	8631.71
220.618	8596.76
220.691	8625.73
220.764	8645.55
220.838	8681.51
220.911	8660.85
220.984	8752.22
221.057	8786.92
221.131	8807.13
221.204	8706.54
221.277	8788.44
221.35	8913.92
221.424	8909.54
221.497	8916.81
221.57	8937.11
221.643	8974.96
221.716	9024.79
221.79	9028.74
221.863	9044.73
221.936	9055.27
222.009	9064.22
222.082	9095.86
222.155	9104.43
222.229	9177.72
222.302	9212.48
222.375	9216.14
222.448	9261.16
222.521	9265.97
222.594	9269.92
222.667	9244.51
222.74	9301.41
222.814	9287.83
222.887	9272.85
222.96	9324.13
223.033	9365.45
223.106	9395.1
223.179	9424.92
223.252	9440.14
223.325	9474.9
223.398	9486.61
223.471	9518.72
223.544	9540.91
223.617	9549.29
223.69	9580.54
223.763	9537.96
223.837	9561.17
223.91	9592.77
223.983	9537.59
224.056	9501.15
224.129	9528.79
224.202	9584.57
224.275	9574.17
224.348	9544.17
224.42	9508.67
224.493	9449.21
224.566	9419.73
224.639	9444.24
224.712	9412.73
224.785	9397.42
224.858	9385.72
224.931	9368.67
225.004	9326.39
225.077	9329.43
225.15	9236.04
225.223	9232.19
225.296	9310.47
225.369	9251.4
225.442	9215.08
225.514	9234.43
225.587	9263.94
225.66	9267.94
225.733	9271.31
225.806	9273.24
225.879	9265.39
225.952	9228.95
226.025	9278.26
226.097	9338.14
226.17	9328.17
226.243	9259.81
226.316	9250.66
226.389	9257.64
226.461	9275.8
226.534	9299.2
226.607	9291.3
226.68	9378.23
226.753	9371.44
226.825	9287
226.898	9345.49
226.971	9352.96
227.044	9374.58
227.117	9378.81
227.189	9392.4
227.262	9431.02
227.335	9457.85
227.407	9454.33
227.48	9498.23
227.553	9512.15
227.626	9493.22
227.698	9498.23
227.771	9542.99
227.844	9525.08
227.916	9541.26
227.989	9506.97
228.062	9498.11
228.134	9586.21
228.207	9593.92
228.28	9586.69
228.352	9600.08
228.425	9605.67
228.498	9647.09
228.57	9623.06
228.643	9687.13
228.716	9686.31
228.788	9673.64
228.861	9661.51
228.934	9725.8
229.006	9725.89
229.079	9722.04
229.151	9703.15
229.224	9658.86
229.296	9685.59
229.369	9795.82
229.442	9848.72
229.514	9828.98
229.587	9874.05
229.659	9792.36
229.732	9802.57
229.804	9844.61
229.877	9932.64
229.949	9965.73
230.022	10020.67
230.094	10023.12
230.167	10005.73
230.239	9960.56
230.312	9946.59
230.384	10030.38
230.457	10029.56
230.529	10038.56
230.602	10047.62
230.674	10067.42
230.747	10119.32
230.819	10154.92
230.892	10031.64
230.964	10026.63
231.037	10054.22
231.109	10051.42
231.181	10093.08
231.254	10055.27
231.326	10044.63
231.399	10017.25
231.471	9981.36
231.544	9900.56
231.616	9945.2
231.688	9952.34
231.761	9944.34
231.833	9935.48
231.905	9841.92
231.978	9837.44
232.05	9827.71
232.122	9831.52
232.195	9799.49
232.267	9839.85
232.339	9807.62
232.412	9876.35
232.484	9852.16
232.556	9821.78
232.629	9887.31
232.701	9907.5
232.773	9919.3
232.846	9909.04
232.918	9910.15
232.99	9933.7
233.062	9978.22
233.135	9997.77
233.207	9963.52
233.279	10011.63
233.351	10045.92
233.424	10049.63
233.496	10025.21
233.568	10114.48
233.64	10078.54
233.713	10100.12
233.785	10094.87
233.857	10115.68
233.929	10061.45
234.001	10129.01
234.074	10206.15
234.146	10134.22
234.218	10133.93
234.29	10135.61
234.362	10125.41
234.434	10082.33
234.507	10042.69
234.579	9988.98
234.651	9967.4
234.723	9999.92
234.795	10021.69
234.867	10014.37
234.939	10073.38
235.012	10094.91
235.084	10099.44
235.156	10129.16
235.228	10103.63
235.3	10089.85
235.372	10094.38
235.444	10155.6
235.516	10078.69
235.588	10081.01
235.66	10101.43
235.732	10073.97
235.804	10277.79
235.876	10320.22
235.948	10385.41
236.02	10405.01
236.092	10421.77
236.164	10432.08
236.236	10432.13
236.308	10429.48
236.38	10461.08
236.452	10444.07
236.524	10466.19
236.596	10531.21
236.668	10574.14
236.74	10603.09
236.812	10633.1
236.884	10675.36
236.956	10686.93
237.028	10674.26
237.1	10659.95
237.172	10736.33
237.244	10819.5
237.316	10704
237.388	10689.65
237.46	10669.6
237.532	10733.39
237.604	10722.03
237.675	10811.56
237.747	10859.8
237.819	10849.97
237.891	10853.93
237.963	10844.43
238.035	10842.65
238.107	10728.05
238.178	10795.33
238.25	10807.91
238.322	10902.57
238.394	10854.24
238.466	10855.39
238.538	10905.98
238.609	10951.12
238.681	10887.75
238.753	10862.74
238.825	10880.23
238.897	10908.7
238.968	10994.74
239.04	10978.26
239.112	11096.07
239.184	11045.8
239.255	11038.09
239.327	11074.9
239.399	11094.56
239.471	11148.24
239.542	11187.9
239.614	11257.34
239.686	11157.53
239.758	11210.1
239.829	11172.46
239.901	11248.41
239.973	11268.89
240.044	11304.55
240.116	11321.08
240.188	11337.65
240.259	11352.98
240.331	11343.87
240.403	11393.41
240.474	11341.06
240.546	11333.4
240.618	11266.22
240.689	11261.93
240.761	11284.15
240.833	11352.59
240.904	11352.78
240.976	11350.08
241.048	11365.79
241.119	11404.69
241.191	11465.99
241.262	11540.51
241.334	11546.49
241.405	11548.56
241.477	11548.27
241.549	11556.61
241.62	11585.72
241.692	11636.52
241.763	11707.42
241.835	11723.52
241.906	11732.49
241.978	11704.15
242.049	11769.26
242.121	11845.65
242.192	11918.38
242.264	11880.64
242.335	11834.95
242.407	11893.37
242.478	11898.04
242.55	11919.06
242.621	11903.87
242.693	11900.26
242.764	11885.22
242.836	11888.49
242.907	11918.57
242.979	11955.44
243.05	11976.32
243.122	12007.21
243.193	12007.45
243.264	11930.14
243.336	11937.95
243.407	11987.07
243.479	12074.26
243.55	12100.92
243.622	12118.27
243.693	12118.56
243.764	12192.11
243.836	12157.61
243.907	12139.58
243.978	12147.24
244.05	12174.86
244.121	12122.71
244.192	12170.48
244.264	12120.64
244.335	12137.32
244.407	12083.14
244.478	12103.77
244.549	12099.14
244.62	12044.82
244.692	12051.18
244.763	12100.88
244.834	12095.53
244.906	12066.8
244.977	12086.61
245.048	12137.76
245.119	12110.38
245.191	12088.73
245.262	12029.16
245.333	12119.77
245.405	12143.58
245.476	12181.22
245.547	12192.41
245.618	12254.92
245.689	12267.21
245.761	12306.31
245.832	12312.81
245.903	12366.03
245.974	12394.47
246.045	12409.99
246.117	12506.35
246.188	12481.43
246.259	12462.05
246.33	12477.24
246.401	12488.32
246.473	12447.78
246.544	12432.4
246.615	12498.59
246.686	12501.58
246.757	12577.88
246.828	12554.65
246.899	12637.03
246.97	12599.53
247.042	12601.75
247.113	12646.68
247.184	12737.69
247.255	12735.9
247.326	12761.07
247.397	12772.54
247.468	12785.27
247.539	12801.61
247.61	12745.11
247.681	12795.53
247.752	12856.61
247.823	12826.14
247.894	12846.48
247.965	12818.43
248.037	12805.95
248.108	12745.35
248.179	12755.09
248.25	12744.72
248.321	12774.32
248.392	12712.47
248.463	12803.24
248.534	12797.41
248.605	12820.93
248.675	12800.88
248.746	12818.71
248.817	12846.58
248.888	12866.68
248.959	12803.15
249.03	12827.44
249.101	12848.27
249.172	12831.49
249.243	12750.9
249.314	12828.89
249.385	12835.25
249.456	12877.43
249.527	12876.42
249.598	12903.12
249.669	12907.75
249.739	12924.38
249.81	12932.53
249.881	12888.33
249.952	12883.75
250.023	12878.73
250.094	12825.08
250.165	12786.61
250.235	12788.83
250.306	12777.84
250.377	12738.69
250.448	12772.82
250.519	12712.86
250.59	12764
250.66	12773.4
250.731	12850.38
250.802	12845.8
250.873	12868.41
250.944	12891.6
251.014	12873.71
251.085	12972.68
251.156	13003.05
251.227	13055.4
251.297	13123.37
251.368	13183.72
251.439	13225.71
251.51	13286.5
251.58	13274.69
251.651	13271.56
251.722	13318.32
251.792	13279.9
251.863	13290.6
251.934	13359.34
252.005	13474.36
252.075	13481.98
252.146	13530.52
252.217	13581.43
252.287	13626.31
252.358	13620.86
252.429	13691.62
252.499	13688.59
252.57	13692.49
252.641	13744.6
252.711	13760.99
252.782	13710.67
252.852	13799.61
252.923	13807.46
252.994	13818.5
253.064	13866.9
253.135	13845.74
253.205	13833.78
253.276	13904.4
253.347	13969.97
253.417	13938.87
253.488	13923.78
253.558	13917.66
253.629	13914.77
253.699	13932.46
253.77	13962.3
253.841	13967.31
253.911	13979.27
253.982	14000.38
254.052	14033.98
254.123	14034.99
254.193	14032.63
254.264	14169.24
254.334	14122.38
254.405	14075.53
254.475	14037.59
254.546	14042.84
254.616	14110.04
254.687	14137.47
254.757	14168.32
254.827	14169.48
254.898	14196.28
254.968	14198.07
255.039	14173.1
255.109	14207.13
255.18	14175.56
255.25	14100.55
255.321	14134.39
255.391	14092.64
255.461	14185.25
255.532	14094.48
255.602	14095.15
255.673	14034.22
255.743	13999.76
255.813	13928.41
255.884	13982.59
255.954	14025.59
256.024	14096.07
256.095	14104.17
256.165	14069.36
256.235	14090.04
256.306	14076.06
256.376	14128.75
256.446	14172.57
256.517	14216.73
256.587	14266.86
256.657	14289.85
256.728	14317.23
256.798	14333
256.868	14332.61
256.938	14301.66
257.009	14359.27
257.079	14390.85
257.149	14503.02
257.219	14442.76
257.29	14484.56
257.36	14422.9
257.43	14462.81
257.5	14395.47
257.571	14379.85
257.641	14421.89
257.711	14380.96
257.781	14416.54
257.852	14434.91
257.922	14363.46
257.992	14367.18
258.062	14357.1
258.132	14402.27
258.202	14404.15
258.273	14415.14
258.343	14482.14
258.413	14462.52
258.483	14465.18
258.553	14433.79
258.623	14405.35
258.693	14437.12
258.764	14500.42
258.834	14576.68
258.904	14588.01
258.974	14586.08
259.044	14605.21
259.114	14634.76
259.184	14661.71
259.254	14670.29
259.324	14614.71
259.394	14668.08
259.464	14752
259.535	14765.35
259.605	14753.44
259.675	14743.27
259.745	14776.43
259.815	14763.03
259.885	14766.65
259.955	14884.64
260.025	14876.78
260.095	14886.23
260.165	14915.87
260.235	14987.98
260.305	14970.39
260.375	14943.88
260.445	15028.19
260.515	15093.35
260.585	15142.33
260.655	15158.38
260.725	15202.77
260.795	15239.6
260.865	15312.72
260.934	15270.26
261.004	15299.66
261.074	15311.04
261.144	15383.49
261.214	15419.74
261.284	15424.36
261.354	15472.95
261.424	15425.1
261.494	15503.33
261.564	15513.31
261.634	15542.33
261.703	15469.69
261.773	15500.83
261.843	15534.13
261.913	15529.31
261.983	15464
262.053	15482.7
262.123	15481.26
262.192	15438.69
262.262	15482.07
262.332	15434.26
262.402	15481.69
262.472	15494.36
262.541	15428.18
262.611	15469.01
262.681	15446.93
262.751	15481.35
262.821	15482.07
262.89	15446.11
262.96	15472.28
263.03	15550.27
263.1	15572.1
263.169	15590.28
263.239	15624.21
263.309	15693.76
263.379	15721.47
263.448	15748.23
263.518	15774.69
263.588	15786.64
263.657	15859.76
263.727	15896.2
263.797	15908.64
263.867	15895.77
263.936	15852.87
264.006	15917.51
264.076	15907.29
264.145	15904.26
264.215	15891.39
264.285	15930.91
264.354	15887.19
264.424	15866.51
264.494	15811.28
264.563	15796.29
264.633	15881.46
264.702	15895.48
264.772	15833.6
264.842	15834.8
264.911	15868.88
264.981	15824.25
265.05	15838.71
265.12	15833.79
265.19	15850.37
265.259	15900.45
265.329	15942.53
265.398	15965.81
265.468	16068.71
265.537	16070.74
265.607	16110.4
265.676	16149.73
265.746	16178.36
265.815	16247.34
265.885	16256.21
265.955	16246.18
266.024	16253.12
266.094	16189.16
266.163	16259.14
266.232	16333.22
266.302	16338.96
266.371	16361.32
266.441	16386.09
266.51	16435.26
266.58	16441.67
266.649	16424.89
266.719	16471.06
266.788	16492.37
266.858	16568.37
266.927	16489.48
266.996	16511.07
267.066	16537.82
267.135	16511.12
267.205	16554.78
267.274	16568.32
267.343	16629.05
267.413	16644.91
267.482	16710.69
267.552	16775.57
267.621	16718.94
267.69	16665.11
267.76	16696.29
267.829	16722.12
267.898	16737.4
267.968	16712
268.037	16750.36
268.106	16803.96
268.176	16768.2
268.245	16773.21
268.314	16763.09
268.384	16836.15
268.453	16861.07
268.522	16886.85
268.592	16955.87
268.661	16935.73
268.73	16976.11
268.799	16957.51
268.869	17036.79
268.938	16987.54
269.007	16973.8
269.076	17009.08
269.146	17075.83
269.215	17098
269.284	17174.48
269.353	17170.82
269.422	17189.86
269.492	17180.22
269.561	17093.56
269.63	17131.39
269.699	17130.67
269.768	17155.25
269.838	17165.61
269.907	17201.03
269.976	17167.11
270.045	17107.73
270.114	17146.91
270.183	17150.57
270.253	17182.33
270.322	17138.67
270.391	17167.3
270.46	17243.3
270.529	17287.01
270.598	17325.41
270.667	17336.4
270.736	17304.65
270.806	17341.51
270.875	17405.85
270.944	17428.12
271.013	17558.53
271.082	17589.8
271.151	17625.47
271.22	17588.5
271.289	17602.72
271.358	17610.09
271.427	17649.95
271.496	17680.84
271.565	17668.99
271.634	17688.94
271.703	17824.98
271.772	17890.81
271.841	17905.99
271.91	17870.23
271.979	17891.05
272.048	17863.05
272.117	17907.53
272.186	17903.15
272.255	17960.88
272.324	17998.9
272.393	18027
272.462	18017.55
272.531	18028.16
272.6	18047.48
272.669	18120.83
272.738	18138.52
272.807	18176.01
272.876	18152.06
272.945	18305.79
273.013	18378.36
273.082	18441.01
273.151	18344.05
273.22	18381.2
273.289	18403.95
273.358	18495.46
273.427	18498.16
273.496	18548.57
273.564	18593.72
273.633	18656.37
273.702	18634.69
273.771	18644.03
273.84	18678.83
273.909	18716.08
273.977	18761.76
274.046	18770.53
274.115	18819.73
274.184	18813.18
274.253	18837.42
274.322	18929.13
274.39	18853.18
274.459	18838.58
274.528	18785.23
274.597	18809.09
274.665	18829.76
274.734	18896.74
274.803	18896.5
274.872	18926.86
274.94	18918.48
275.009	19065.43
275.078	19062.05
275.147	19093.18
275.215	19119.35
275.284	19185.57
275.353	19206.24
275.421	19176.51
275.49	19291.15
275.559	19306.24
275.627	19330.28
275.696	19350.23
275.765	19391.63
275.833	19409.85
275.902	19458.95
275.971	19548.2
276.039	19637.06
276.108	19702.65
276.177	19743.81
276.245	19753.68
276.314	19782.89
276.383	19843.75
276.451	19748.41
276.52	19796.7
276.588	19887.73
276.657	19947.06
276.725	19955.83
276.794	19986.96
276.863	20063.73
276.931	20013.56
277	20083.83
277.068	20159.92
277.137	20273.18
277.205	20307.68
277.274	20420.88
277.342	20499.44
277.411	20481.37
277.48	20478.38
277.548	20484.21
277.617	20528.41
277.685	20550.24
277.754	20607.25
277.822	20634.91
277.89	20733.91
277.959	20757.77
278.027	20737.82
278.096	20738.39
278.164	20875.67
278.233	20898.52
278.301	20901.51
278.37	20965.56
278.438	20952.93
278.507	20998.81
278.575	20940.15
278.643	20963.09
278.712	20930.9
278.78	20916.58
278.849	20998.37
278.917	21078.09
278.985	21110.33
279.054	21148.89
279.122	21242.68
279.191	21272.23
279.259	21298.3
279.327	21258.15
279.396	21354.26
279.464	21393.44
279.532	21460.59
279.601	21484.55
279.669	21517.57
279.737	21614.98
279.806	21664.92
279.874	21739.87
279.942	21789.76
280.011	21826.87
280.079	21898.69
280.147	22005.85
280.215	22068.66
280.284	22090.97
280.352	22087.16
280.42	22147.47
280.488	22173.5
280.557	22177.41
280.625	22237.57
280.693	22283.89
280.761	22333.88
280.83	22320.91
280.898	22398.09
280.966	22375.48
281.034	22313.24
281.102	22313.33
281.171	22338.11
281.239	22413.96
281.307	22432.91
281.375	22443.42
281.443	22557.15
281.512	22584.44
281.58	22647.47
281.648	22631.9
281.716	22677.69
281.784	22724.26
281.852	22746.78
281.92	22778.7
281.989	22875.62
282.057	22861.98
282.125	23071.91
282.193	23109.52
282.261	23162.99
282.329	23183.53
282.397	23245.19
282.465	23300.83
282.533	23397.16
282.601	23397.59
282.67	23352.74
282.738	23367.69
282.806	23438.19
282.874	23451.02
282.942	23504.65
283.01	23520.08
283.078	23604.08
283.146	23634.6
283.214	23707.04
283.282	23763.18
283.35	23854.39
283.418	23868.33
283.486	23933.33
283.554	23820.17
283.622	23865.85
283.69	23902.98
283.758	23927.39
283.826	23997.56
283.894	24075.27
283.962	24173.54
284.03	24276.38
284.098	24328.27
284.165	24355.13
284.233	24404.34
284.301	24425.41
284.369	24448.67
284.437	24474.96
284.505	24504.77
284.573	24607.72
284.641	24609.84
284.709	24685.11
284.777	24664.66
284.845	24726.95
284.912	24788.47
284.98	24844.09
285.048	24874.87
285.116	24933.68
285.184	25030.72
285.252	25074.53
285.319	25064.11
285.387	25088.68
285.455	25080.38
285.523	25162.7
285.591	25209.44
285.659	25254.08
285.726	25353.11
285.794	25346.16
285.862	25371.55
285.93	25400.69
285.997	25430.42
286.065	25464.54
286.133	25467.29
286.201	25512.41
286.269	25518.39
286.336	25529.35
286.404	25550.29
286.472	25636.99
286.539	25608.13
286.607	25598.91
286.675	25642.6
286.743	25711.86
286.81	25727.4
286.878	25816.95
286.946	25824.04
287.013	25864.48
287.081	25902.67
287.149	25880.07
287.216	25994.33
287.284	26037.25
287.352	26084.21
287.419	26110.91
287.487	26201.44
287.555	26254.89
287.622	26278.79
287.69	26340.01
287.758	26431.9
287.825	26475.44
287.893	26458.83
287.96	26523.89
288.028	26606.32
288.096	26654.28
288.163	26716.87
288.231	26721.99
288.298	26761.4
288.366	26859.31
288.433	26899.76
288.501	26929.22
288.569	26990.65
288.636	27009.63
288.704	27099
288.771	27183.43
288.839	27197.58
288.906	27226.52
288.974	27306.3
289.041	27354.05
289.109	27361.3
289.176	27427.36
289.244	27480.45
289.311	27585.62
289.379	27683.58
289.446	27737.56
289.514	27785.98
289.581	27832.86
289.649	27896.19
289.716	27942.29
289.783	27957.81
289.851	28073.62
289.918	28113.62
289.986	28190.76
290.053	28254.16
290.121	28287.71
290.188	28333.05
290.255	28481.35
290.323	28515.62
290.39	28545.89
290.458	28619.24
290.525	28714.03
290.592	28744.78
290.66	28807.71
290.727	28821.34
290.794	28908.91
290.862	28946.39
290.929	28994.59
290.996	29035.98
291.064	29115.37
291.131	29197.59
291.198	29291.8
291.266	29332.03
291.333	29379.55
291.4	29439.67
291.468	29533.57
291.535	29561.71
291.602	29632.67
291.669	29653.87
291.737	29703.48
291.804	29736.08
291.871	29829.34
291.938	29903.12
292.006	30039.62
292.073	30119.01
292.14	30208.12
292.207	30213.34
292.275	30267.48
292.342	30344.85
292.409	30478.25
292.476	30598.53
292.543	30614.5
292.611	30650.37
292.678	30759.32
292.745	30895.55
292.812	30966.95
292.879	30998.03
292.946	31058.37
293.014	31145.33
293.081	31213.3
293.148	31315.56
293.215	31413.64
293.282	31437.51
293.349	31500.85
293.416	31477.06
293.484	31564.76
293.551	31641.56
293.618	31757.08
293.685	31889.6
293.752	31912.64
293.819	31938.71
293.886	31937.79
293.953	32008.82
294.02	32093.87
294.087	32143.24
294.154	32158.06
294.221	32265.39
294.288	32322.55
294.356	32427.89
294.423	32479.88
294.49	32491.27
294.557	32575.47
294.624	32596.94
294.691	32717.37
294.758	32770.72
294.825	32845.58
294.892	32866.41
294.959	32912.45
295.026	32982.82
295.093	32996.06
295.16	33050.84
295.226	33092.62
295.293	33233.63
295.36	33297.11
295.427	33388.64
295.494	33473.29
295.561	33555.59
295.628	33673.86
295.695	33776.49
295.762	33846.39
295.829	33935.18
295.896	34046.17
295.963	34121.92
296.03	34213.49
296.096	34285.16
296.163	34369.44
296.23	34461.33
296.297	34561.84
296.364	34619.44
296.431	34690.84
296.498	34740.63
296.564	34884.21
296.631	34959.62
296.698	34960.97
296.765	35081.26
296.832	35097.07
296.899	35107.84
296.965	35231.06
297.032	35202.96
297.099	35314.19
297.166	35387.25
297.233	35422.91
297.299	35463.12
297.366	35518.77
297.433	35578.49
297.5	35657.01
297.566	35713.68
297.633	35764.63
297.7	35825.28
297.767	35871.51
297.833	35931.64
297.9	35992.96
297.967	35984.13
298.033	36068.82
298.1	36218.42
298.167	36247.25
298.234	36324.99
298.3	36416.46
298.367	36431.32
298.434	36515.44
298.5	36533.21
298.567	36565.29
298.634	36606.21
298.7	36708.66
298.767	36761.57
298.834	36860.26
298.9	36891.43
298.967	36917.64
299.033	36998.91
299.1	37098.73
299.167	37206.59
299.233	37239.26
299.3	37332.86
299.366	37449.6
299.433	37552.55
299.5	37505.45
299.566	37561.43
299.633	37648.49
299.699	37741.78
299.766	37782.17
299.832	37834.04
299.899	37908.83
299.965	38010.03
300.032	38043.52
300.099	38110.74
300.165	38186.65
300.232	38221.42
300.298	38277.02
300.365	38378.13
300.431	38429.08
300.498	38446.9
300.564	38500.13
300.631	38603.78
300.697	38706.96
300.763	38741.73
300.83	38772.29
300.896	38874.58
300.963	38951.13
301.029	39023.12
301.096	39077
301.162	39174.44
301.229	39210.73
301.295	39208.01
301.361	39264.56
301.428	39335.37
301.494	39342.12
301.561	39395.9
301.627	39452.79
301.693	39510.65
301.76	39572.79
301.826	39614.28
301.892	39700.76
301.959	39777.87
302.025	39795.27
302.092	39810.87
302.158	39896.28
302.224	39952.89
302.291	39982.09
302.357	40023.1
302.423	40038.7
302.49	40053.57
302.556	40126.61
302.622	40168.3
302.688	40260.09
302.755	40344.85
302.821	40422.25
302.887	40506.89
302.954	40544.75
303.02	40625.38
303.086	40696.47
303.152	40724.13
303.219	40754.11
303.285	40823.42
303.351	40891.23
303.417	40942.26
303.483	40962.19
303.55	40985.03
303.616	41034.08
303.682	41070.13
303.748	41091.37
303.815	41198.51
303.881	41286.59
303.947	41299.81
304.013	41358.28
304.079	41377.77
304.145	41355.94
304.212	41393.32
304.278	41421.85
304.344	41455.15
304.41	41448.19
304.476	41459.18
304.542	41512.6
304.608	41573.51
304.674	41554.79
304.741	41574.38
304.807	41632.53
304.873	41703.74
304.939	41803.65
305.005	41780.22
305.071	41811.13
305.137	41856.72
305.203	41816.76
305.269	41834.46
305.335	41905.15
305.401	41939.33
305.467	41978.95
305.533	42057.96
305.599	42127.43
305.666	42183.88
305.732	42231.72
305.798	42318.02
305.864	42444.02
305.93	42497.46
305.996	42524.49
306.062	42573.55
306.128	42616.29
306.194	42614.06
306.259	42650.04
306.325	42645.71
306.391	42728.57
306.457	42811.47
306.523	42881.53
306.589	43000.15
306.655	43021.64
306.721	42997.72
306.787	43005.69
306.853	43093.38
306.919	43073.97
306.985	43088.61
307.051	43111.66
307.117	43125.28
307.183	43155.24
307.248	43096.72
307.314	43139.29
307.38	43200.42
307.446	43259.02
307.512	43244.97
307.578	43306.92
307.644	43316.7
307.709	43376.09
307.775	43407.9
307.841	43416.61
307.907	43442.24
307.973	43412.27
308.039	43463.83
308.104	43537.61
308.17	43593.44
308.236	43586.15
308.302	43640.72
308.368	43646.75
308.433	43686.09
308.499	43716.73
308.565	43713.62
308.631	43762.02
308.696	43730.79
308.762	43740.28
308.828	43787.81
308.894	43792.14
308.959	43766.41
309.025	43805.28
309.091	43821.92
309.156	43845.03
309.222	43898.68
309.288	43903.01
309.354	43877.14
309.419	43911.05
309.485	43907.21
309.551	43956.01
309.616	43948.95
309.682	43975.32
309.748	43999.83
309.813	44018.61
309.879	44033.98
309.945	44043.08
310.01	44063.17
310.076	44119.17
310.141	44130.06
310.207	44106.56
310.273	44149.41
310.338	44201.22
310.404	44173.34
310.469	44168.58
310.535	44161.81
310.601	44135.69
310.666	44204.98
310.732	44289.14
310.797	44272.69
310.863	44274.05
310.928	44273.18
310.994	44318.13
311.059	44349.27
311.125	44376.86
311.191	44457.75
311.256	44463.88
311.322	44516.77
311.387	44495.85
311.453	45349.46
311.518	45379.34
311.584	45408.34
311.649	45464.39
311.715	45478.99
311.78	45531.19
311.846	45545.5
311.911	45611.49
311.976	45638.49
312.042	45616.79
312.107	45592.11
312.173	45609.68
312.238	45632.69
312.304	45669.2
312.369	45669.29
312.434	45655.18
312.5	45668.42
312.565	45583.83
312.631	45642.41
312.696	45643.29
312.761	45676.38
312.827	44844.08
312.892	44944.57
312.958	44971.39
313.023	45006.88
313.088	45037.88
313.154	45019.24
313.219	45017.64
313.284	45008.39
313.35	45039.63
313.415	45043.67
313.48	45067.13
313.546	45118.53
313.611	45189.01
313.676	45184.24
313.741	45207.69
313.807	45279.1
313.872	45335.86
313.937	45405.35
314.003	45462.02
314.068	45519.08
314.133	45584.74
314.198	45598.22
314.264	45569.88
314.329	45572.75
314.394	45577.08
314.459	45599.28
314.525	45711.87
314.59	45731.48
314.655	45734.55
314.72	45794.24
314.785	45834.78
314.851	45839.84
314.916	45808.49
314.981	45783.37
315.046	45791.45
315.111	45788.43
315.176	45781.23
315.242	45805.38
315.307	45838.83
315.372	45801
315.437	45783.47
315.502	45768.96
315.567	45838.83
315.632	45805.09
315.698	45833.62
315.763	45852.95
315.828	45854.37
315.893	45846.48
315.958	45868.38
316.023	45861.22
316.088	45818.96
316.153	45762.06
316.218	45767.61
316.283	45717.88
316.348	45661.48
316.413	45664.25
316.479	45621.57
316.544	45501.82
316.609	45399.5
316.674	45259.49
316.739	45138.63
316.804	45015.03
316.869	44904.77
316.934	44759.28
316.999	44645.62
317.064	44469.67
317.129	44311.22
317.194	44150
317.259	43983.48
317.324	43772.97
317.389	43598.59
317.454	43437.71
317.518	43299.16
317.583	43178.32
317.648	43073.76
317.713	42933.07
317.778	42694.27
317.843	42565.75
317.908	42408.82
317.973	42237.76
318.038	42115.58
318.103	41962.8
318.168	41832.31
318.233	41673.34
318.297	41457.47
318.362	41276.16
318.427	41090.12
318.492	40943.9
318.557	40737.39
318.622	40569.02
318.687	40450.61
318.751	40261.51
318.816	40087.15
318.881	39910.88
318.946	39656.9
319.011	39433.55
319.075	39213.84
319.14	39032.62
319.205	38804.45
319.27	38623.3
319.335	38400.78
319.399	38181.83
319.464	37995.36
319.529	37729.08
319.594	37529.39
319.658	37351.46
319.723	37136.1
319.788	36952.47
319.853	36680.27
319.917	36498.79
319.982	36237.9
320.047	36023.57
320.112	35836.23
320.176	35574.32
320.241	35360.63
320.306	35174.15
320.37	34938.57
320.435	34751.7
320.5	34549.75
320.564	34318.41
320.629	34080.32
320.694	33875.64
320.758	33635.39
320.823	33392.46
320.888	33215.77
320.952	32941.92
321.017	32696.02
321.082	32460.42
321.146	32251.85
321.211	32042.12
321.275	31808.67
321.34	31558.8
321.405	31301.16
321.469	31048.35
321.534	30813.64
321.598	30554.22
321.663	30353.16
321.727	30152.11
321.792	29896.45
321.857	29653.59
321.921	29428.93
321.986	29184.43
322.05	28897.42
322.115	28670.57
322.179	28424.36
322.244	28124.78
322.308	27925.28
322.373	27677.42
322.437	27438.95
322.502	27239.14
322.566	26985.48
322.631	26757.63
322.695	26523.08
322.76	26275.69
322.824	26057.7
322.889	25807.45
322.953	25545.83
323.018	25213.25
323.082	24890.49
323.146	24606.85
323.211	24322.98
323.275	24061.5
323.34	23803.23
323.404	23573.97
323.468	23308.75
323.533	23054.91
323.597	22792.65
323.662	22497.3
323.726	22267.6
323.79	21996.84
323.855	21657.09
323.919	21378.65
323.983	21109.81
324.048	20711.59
324.112	20920.46
324.177	20099.19
324.241	19009.94
324.305	17937.48
324.37	16882.1
324.434	15861.9
324.498	15579.88
324.562	15269.39
324.627	14913.84
324.691	14564.74
324.755	14171.05
324.82	13723.12
324.884	13247.34
324.948	12771.78
325.012	12187.02
325.077	11453.98
