Data from 20250701_urea_2M_exp3_MAYP1162681_06-19-48-632.txt Node
Date: Wed Jul 02 06:19:48 BST 2025
User: adleo
Spectrometer: MAYP116268
Trigger mode: 0
Integration Time (sec): 4.000000E0
Scans to average: 1
Electric dark correction enabled: true
Nonlinearity correction enabled: true
Boxcar width: 10
XAxis mode: Wavelengths
Number of Pixels in Spectrum: 2068
>>>>>Begin Spectral Data<<<<<
179.565	3679.31
179.642	3862.86
179.718	4007.32
179.795	4136.68
179.871	4246.98
179.948	4309.59
180.024	4383.41
180.101	4463.08
180.177	4511.57
180.254	4588.85
180.33	4666.11
180.407	4925.2
180.483	5208.55
180.56	5496.36
180.636	5761.44
180.712	5720.41
180.789	5753.75
180.865	5786.87
180.942	5816.02
181.018	5853.63
181.095	5895.72
181.171	5910.45
181.248	5914.96
181.324	5969.39
181.4	5995.2
181.477	6030.86
181.553	6073.73
181.63	6141.4
181.706	6192.38
181.782	6220.96
181.859	6220.43
181.935	6236.7
182.011	6224.03
182.088	6277.84
182.164	6344.7
182.24	6390.33
182.317	6422.1
182.393	6416.67
182.469	6469.04
182.546	6515.66
182.622	6527.85
182.698	6516.95
182.775	6557.13
182.851	6602.84
182.927	6574.6
183.003	6559.58
183.08	6543.55
183.156	6574.95
183.232	6566.06
183.308	6527.27
183.385	6553.23
183.461	6610.86
183.537	6610.19
183.613	6655.51
183.69	6630.01
183.766	6592.82
183.842	6616.74
183.918	6632.88
183.995	6676.86
184.071	6684.4
184.147	6664.91
184.223	6628.25
184.299	6667.11
184.375	6630.24
184.452	6656.96
184.528	6789.85
184.604	6826.67
184.68	6862.2
184.756	6884.31
184.832	6898.24
184.908	6913.07
184.985	6913.16
185.061	6861.06
185.137	6896.94
185.213	6861.69
185.289	6864.72
185.365	6842.44
185.441	6838.17
185.517	6886.08
185.593	6870.76
185.669	6863.02
185.745	6900.11
185.822	6960.54
185.898	6934.02
185.974	6966.81
186.05	6942.16
186.126	6864.84
186.202	6841.31
186.278	6830.22
186.354	6802.55
186.43	6820.42
186.506	6821.62
186.582	6817.64
186.658	6838.38
186.734	6773.31
186.81	6782.05
186.886	6791.12
186.962	6830.02
187.038	6816
187.114	6788.88
187.19	6812.09
187.266	6785.77
187.341	6784.04
187.417	6757.87
187.493	6754.65
187.569	6767.62
187.645	6743.85
187.721	6706.56
187.797	6731.15
187.873	6747.77
187.949	6728.56
188.025	6712.75
188.101	6721.73
188.176	6738.63
188.252	6726.01
188.328	6753.07
188.404	6752.26
188.48	6737.13
188.556	6714.89
188.632	6714.32
188.707	6716.53
188.783	6707.97
188.859	6689.45
188.935	6653.13
189.011	6678.88
189.086	6659.77
189.162	6627.49
189.238	6621.54
189.314	6607.42
189.39	6587.21
189.465	6562.04
189.541	6611.27
189.617	6556.72
189.693	6537.62
189.768	6549.24
189.844	6630.02
189.92	6598.35
189.996	6628.37
190.071	6661.02
190.147	6657.33
190.223	6686.97
190.298	6658.43
190.374	6616.13
190.45	6655.25
190.526	6681.81
190.601	6662.26
190.677	6665.33
190.753	6760.41
190.828	6770.44
190.904	6823.05
190.98	6877.1
191.055	6910.82
191.131	6884.97
191.207	6955.95
191.282	6987.93
191.358	6954.07
191.433	6907.53
191.509	6952.84
191.585	6947.03
191.66	6952.7
191.736	6977.92
191.811	6951.16
191.887	7008.16
191.963	7087.43
192.038	7105.2
192.114	7108.09
192.189	7123.99
192.265	7116.59
192.34	7037.31
192.416	7030.26
192.491	7014.88
192.567	7018.29
192.642	7024.11
192.718	7029.82
192.793	6989.22
192.869	6980.48
192.944	6995.65
193.02	7017.71
193.095	7026.94
193.171	7041.59
193.246	7044.91
193.322	7037.22
193.397	7037.22
193.473	6985.17
193.548	6923.75
193.624	6939.85
193.699	6938.89
193.775	6987.25
193.85	6991.81
193.925	7022.37
194.001	7025.11
194.076	7004.35
194.152	6972.15
194.227	6952.54
194.302	6917.21
194.378	6928.49
194.453	6915.34
194.529	6955.22
194.604	6906.69
194.679	6887.48
194.755	6826.21
194.83	6863.23
194.905	6855.93
194.981	6886.77
195.056	6868.86
195.131	6891.87
195.207	6888.17
195.282	6856.99
195.357	6793.17
195.433	6842.5
195.508	6809.4
195.583	6841.15
195.659	6882.48
195.734	6902.66
195.809	6898.58
195.884	6928.58
195.96	6933
196.035	6983.54
196.11	6964.94
196.185	7002.17
196.261	7017.83
196.336	7117.08
196.411	7074.39
196.486	7096.44
196.561	7071.99
196.637	7098.26
196.712	7155.04
196.787	7165.13
196.862	7213.9
196.937	7251.13
197.013	7270.99
197.088	7301.93
197.163	7370.27
197.238	7431.65
197.313	7435.74
197.388	7480.63
197.464	7580.03
197.539	7613.48
197.614	7587.29
197.689	7637.11
197.764	7697.95
197.839	7764.49
197.914	7744
197.989	7813.63
198.065	7859.17
198.14	8030.76
198.215	8121.08
198.29	8153.52
198.365	8193.49
198.44	8231.19
198.515	8320.15
198.59	8372.26
198.665	8458.95
198.74	8483.64
198.815	8484.94
198.89	8562.07
198.965	8660.31
199.04	8646.16
199.115	8703.5
199.19	8847.46
199.265	8847.61
199.34	8877.98
199.415	8980.25
199.49	9054.59
199.565	9088.24
199.64	9164.3
199.715	9151.19
199.79	9176.66
199.865	9201.89
199.94	9196.26
200.015	9297.28
200.09	9315.67
200.165	9330.6
200.24	9355.59
200.315	9482.06
200.39	9534.64
200.464	9554.96
200.539	9564.31
200.614	9620.78
200.689	9692.16
200.764	9720
200.839	9777.81
200.914	9788.5
200.989	9761.13
201.063	9812.14
201.138	9746.45
201.213	9743.56
201.288	9680.14
201.363	9691.89
201.438	9689.39
201.512	9748.69
201.587	9690.85
201.662	9702.94
201.737	9748.69
201.812	9774.32
201.886	9667.3
201.961	9698.38
202.036	9652.55
202.111	9642.58
202.186	9542.09
202.26	9485.78
202.335	9408.67
202.41	9392.78
202.485	9336.66
202.559	9271.76
202.634	9179.46
202.709	9212.46
202.784	9148.39
202.858	9146.22
202.933	9082.92
203.008	9056.73
203.082	8985.73
203.157	8979.13
203.232	8837.87
203.306	8766.22
203.381	8654.1
203.456	8574.4
203.53	8498.3
203.605	8437.37
203.68	8353.22
203.754	8332.45
203.829	8282.4
203.904	8212.84
203.978	8168.37
204.053	8185.5
204.127	8144.66
204.202	8137.25
204.277	8080.45
204.351	8061.74
204.426	8036.33
204.5	8011.65
204.575	7895.84
204.65	7930.58
204.724	7906.9
204.799	7934.05
204.873	7922.11
204.948	7917.79
205.022	7880.05
205.097	7847.47
205.171	7893.97
205.246	7922.5
205.32	7920.58
205.395	7917.69
205.469	7888.86
205.544	7911.47
205.618	7851.16
205.693	7887.67
205.767	7843.82
205.842	7916.55
205.916	7895.54
205.991	7866.1
206.065	7884.67
206.14	7937.37
206.214	7921.49
206.289	7898.49
206.363	7937.2
206.438	7940.57
206.512	7970.64
206.586	8038.58
206.661	8060.91
206.735	7985.64
206.81	7983.47
206.884	8034.2
206.958	7992.42
207.033	8053.9
207.107	8085.72
207.181	8197.46
207.256	8175.28
207.33	8243.48
207.405	8281.04
207.479	8345.07
207.553	8367.19
207.628	8310.7
207.702	8352.4
207.776	8326.61
207.851	8335.94
207.925	8387.21
207.999	8378.64
208.073	8363.05
208.148	8368.78
208.222	8335.48
208.296	8440.06
208.371	8501.07
208.445	8536.39
208.519	8637.76
208.593	8672.17
208.668	8652.91
208.742	8653.97
208.816	8660.75
208.89	8703.6
208.965	8696.91
209.039	8719.92
209.113	8779.94
209.187	8855.63
209.261	8836.96
209.336	8913.05
209.41	8982.42
209.484	8981.27
209.558	9053.38
209.632	9105.65
209.707	9143.92
209.781	9218.58
209.855	9269.09
209.929	9321.66
210.003	9342.99
210.077	9334.9
210.151	9495
210.226	9607.47
210.3	9705.67
210.374	9789.91
210.448	9808.7
210.522	9845.02
210.596	9879.4
210.67	9907.87
210.744	10062.01
210.818	10176.69
210.892	10239.27
210.966	10219.96
211.041	10275.55
211.115	10263.65
211.189	10338.51
211.263	10396.17
211.337	10413.7
211.411	10459.32
211.485	10438.8
211.559	10472.56
211.633	10478.63
211.707	10372.95
211.781	10391.45
211.855	10261.62
211.929	10225.11
212.003	10153.38
212.077	10182.43
212.151	10223.82
212.225	10256.1
212.299	10211.71
212.373	10168.07
212.447	10149.18
212.52	10239.22
212.594	10245.15
212.668	10275.35
212.742	10226.45
212.816	10199.71
212.89	10175.43
212.964	10170.95
213.038	10176.59
213.112	10215.28
213.186	10260.55
213.26	10179.72
213.333	10025.25
213.407	10043.74
213.481	10043.55
213.555	10078.69
213.629	10029.78
213.703	9963.98
213.777	9950.97
213.85	9877.27
213.924	9982.59
213.998	9973.15
214.072	9947.22
214.146	9890.62
214.219	9873.86
214.293	9853.97
214.367	9845.25
214.441	9869.72
214.515	9818.94
214.588	9727.38
214.662	9600.87
214.736	9518.44
214.81	9538.26
214.883	9557.08
214.957	9506.2
215.031	9457.16
215.105	9359.46
215.178	9298.89
215.252	9264.61
215.326	9154.84
215.4	9073.23
215.473	8890.56
215.547	8808.89
215.621	8737.27
215.694	8731.15
215.768	8632.92
215.842	8562.13
215.915	8502.86
215.989	8390.27
216.063	8329.37
216.136	8308.72
216.21	8283.52
216.284	8290.4
216.357	8255.85
216.431	8211.54
216.504	8203.99
216.578	8255.96
216.652	8271.25
216.725	8248.63
216.799	8248.73
216.873	8234.16
216.946	8238.24
217.02	8202.62
217.093	8167.12
217.167	8070.38
217.24	7986.85
217.314	7955.27
217.387	7906.43
217.461	7851.98
217.535	7872.38
217.608	7811.79
217.682	7784.27
217.755	7792.16
217.829	7735.83
217.902	7719.43
217.976	7702.22
218.049	7652.55
218.123	7579.85
218.196	7578.5
218.27	7544.65
218.343	7472.06
218.417	7467.4
218.49	7449.66
218.563	7486.82
218.637	7497.69
218.71	7566.31
218.784	7594.98
218.857	7619.97
218.931	7641.59
219.004	7654.96
219.077	7674.25
219.151	7690.59
219.224	7678.81
219.298	7673.62
219.371	7724.94
219.444	7685.29
219.518	7689.91
219.591	7711.01
219.665	7816.12
219.738	7828.33
219.811	7806.23
219.885	7854.94
219.958	7891.21
220.031	7894.86
220.105	7912.9
220.178	7918.48
220.251	7893.32
220.325	7914.68
220.398	7941.09
220.471	7963.35
220.544	7996.63
220.618	7976.33
220.691	8003.98
220.764	8024.13
220.838	8052.85
220.911	8036.54
220.984	8128.57
221.057	8165.18
221.131	8185.37
221.204	8076.37
221.277	8144.26
221.35	8269.39
221.424	8266.46
221.497	8273.53
221.57	8295.89
221.643	8335.02
221.716	8382.42
221.79	8387.86
221.863	8400.08
221.936	8405.04
222.009	8420.48
222.082	8444.97
222.155	8450.65
222.229	8516.4
222.302	8540.5
222.375	8546.57
222.448	8582.32
222.521	8589.54
222.594	8595.51
222.667	8565.94
222.74	8629.63
222.814	8628.43
222.887	8609.65
222.96	8660.38
223.033	8708.86
223.106	8731.08
223.179	8753.76
223.252	8762.53
223.325	8792.65
223.398	8806.27
223.471	8836.79
223.544	8859.3
223.617	8871.63
223.69	8893.57
223.763	8858.14
223.837	8890.53
223.91	8921.05
223.983	8875.58
224.056	8842.42
224.129	8866.82
224.202	8933.59
224.275	8918.76
224.348	8890.32
224.42	8858.93
224.493	8804.49
224.566	8777.87
224.639	8807.42
224.712	8781.56
224.785	8767.26
224.858	8754.03
224.931	8740.69
225.004	8701.52
225.077	8704.07
225.15	8620.21
225.223	8617.13
225.296	8694.23
225.369	8639.75
225.442	8605.91
225.514	8619.43
225.587	8633.82
225.66	8627.03
225.733	8626.07
225.806	8639.93
225.879	8629.92
225.952	8596.63
226.025	8638.88
226.097	8693.74
226.17	8679.68
226.243	8617.76
226.316	8617.03
226.389	8626.37
226.461	8642.21
226.534	8662.51
226.607	8649.71
226.68	8731.84
226.753	8728.18
226.825	8649.64
226.898	8698.15
226.971	8705.37
227.044	8729.62
227.117	8732.65
227.189	8759.76
227.262	8791.53
227.335	8808.58
227.407	8801.7
227.48	8832.63
227.553	8842.55
227.626	8816.15
227.698	8817.21
227.771	8857.38
227.844	8834.37
227.916	8855.22
227.989	8813
228.062	8808.1
228.134	8891.44
228.207	8885.13
228.28	8879.02
228.352	8889.27
228.425	8902.41
228.498	8948.92
228.57	8926.25
228.643	8992.36
228.716	8988.42
228.788	8982.3
228.861	8975.08
228.934	9040.83
229.006	9053.92
229.079	9059.02
229.151	9045.49
229.224	9016.19
229.296	9038.86
229.369	9139.99
229.442	9186.13
229.514	9174.1
229.587	9220.55
229.659	9149.1
229.732	9161.52
229.804	9198.92
229.877	9279.16
229.949	9306.9
230.022	9350.88
230.094	9354.2
230.167	9332.82
230.239	9290.03
230.312	9273.61
230.384	9347.98
230.457	9346.72
230.529	9350.09
230.602	9352.36
230.674	9362.66
230.747	9401.74
230.819	9434.14
230.892	9315.64
230.964	9309.72
231.037	9340.37
231.109	9331.27
231.181	9368.91
231.254	9339.02
231.326	9329.58
231.399	9305.68
231.471	9278.47
231.544	9203.53
231.616	9247.38
231.688	9260.58
231.761	9254.18
231.833	9240.41
231.905	9150.59
231.978	9144.67
232.05	9134.61
232.122	9134.61
232.195	9115.54
232.267	9156.47
232.339	9130.51
232.412	9197.57
232.484	9177.1
232.556	9146.88
232.629	9214.8
232.701	9232.37
232.773	9245.42
232.846	9230.74
232.918	9236.08
232.99	9248.99
233.062	9290.5
233.135	9304.22
233.207	9266.47
233.279	9309.59
233.351	9346.66
233.424	9349.46
233.496	9329.04
233.568	9407.87
233.64	9375.09
233.713	9386.5
233.785	9384.38
233.857	9402.05
233.929	9353.57
234.001	9421.11
234.074	9486.38
234.146	9420.44
234.218	9418.56
234.29	9421.16
234.362	9412.21
234.434	9367.17
234.507	9335.25
234.579	9282.67
234.651	9265.77
234.723	9300.05
234.795	9321.29
234.867	9310.98
234.939	9374.6
235.012	9394.72
235.084	9404.7
235.156	9439.46
235.228	9421.83
235.3	9408.78
235.372	9419.04
235.444	9476.96
235.516	9391.65
235.588	9400.32
235.66	9405.81
235.732	9381.39
235.804	9568.69
235.876	9613.36
235.948	9681.76
236.02	9696.69
236.092	9715.89
236.164	9726.63
236.236	9722.63
236.308	9723.07
236.38	9752.3
236.452	9730.72
236.524	9748.44
236.596	9816.64
236.668	9854.93
236.74	9877.27
236.812	9896.73
236.884	9934.93
236.956	9949.23
237.028	9949.28
237.1	9932.33
237.172	10007.82
237.244	10088.36
237.316	9978.18
237.388	9961.18
237.46	9935.31
237.532	9997.64
237.604	9986.32
237.675	10060.66
237.747	10109.79
237.819	10098.04
237.891	10106.04
237.963	10101.27
238.035	10099.97
238.107	9983.27
238.178	10040.91
238.25	10053.67
238.322	10145.56
238.394	10093.58
238.466	10093.97
238.538	10137.41
238.609	10178.06
238.681	10129.06
238.753	10104
238.825	10121.21
238.897	10150.92
238.968	10229.71
239.04	10214.05
239.112	10332.45
239.184	10290.92
239.255	10287.84
239.327	10316.06
239.399	10337.11
239.471	10380.51
239.542	10410.38
239.614	10483.51
239.686	10403.62
239.758	10455.65
239.829	10422.01
239.901	10489.31
239.973	10501.6
240.044	10534.99
240.116	10554.93
240.188	10568.23
240.259	10582.87
240.331	10570.92
240.403	10618.67
240.474	10567.29
240.546	10551.2
240.618	10486.39
240.689	10492.9
240.761	10512.61
240.833	10582.71
240.904	10584.16
240.976	10581.51
241.048	10606.9
241.119	10634.86
241.191	10676.82
241.262	10735.86
241.334	10740.24
241.405	10744.77
241.477	10748.77
241.549	10754.99
241.62	10777.59
241.692	10818.35
241.763	10880.09
241.835	10909.87
241.906	10919.75
241.978	10892.86
242.049	10966.24
242.121	11028.98
242.192	11090.9
242.264	11056.98
242.335	11013.27
242.407	11061.03
242.478	11071.63
242.55	11089.22
242.621	11080.45
242.693	11086.52
242.764	11080.64
242.836	11085.51
242.907	11120.01
242.979	11153.31
243.05	11181.74
243.122	11209.31
243.193	11206.42
243.264	11134.85
243.336	11134.32
243.407	11174.52
243.479	11257.98
243.55	11279.24
243.622	11292.06
243.693	11293.79
243.764	11361.74
243.836	11337.75
243.907	11318.52
243.978	11318.91
244.05	11341.32
244.121	11290.29
244.192	11331.59
244.264	11290.91
244.335	11301.9
244.407	11251.83
244.478	11273.56
244.549	11265.95
244.62	11214.58
244.692	11224.02
244.763	11264.4
244.834	11252.45
244.906	11228.55
244.977	11245.61
245.048	11295.93
245.119	11276.61
245.191	11248.46
245.262	11188.03
245.333	11264.84
245.405	11287.3
245.476	11315.87
245.547	11338
245.618	11397.08
245.689	11414.82
245.761	11444.5
245.832	11451.2
245.903	11497.85
245.974	11522.58
246.045	11529.04
246.117	11614.68
246.188	11596.8
246.259	11587.07
246.33	11607.94
246.401	11624.8
246.473	11591.93
246.544	11573.18
246.615	11630.34
246.686	11636.95
246.757	11712.08
246.828	11689.23
246.899	11764
246.97	11735.28
247.042	11719.47
247.113	11760.44
247.184	11839.21
247.255	11841.33
247.326	11866.92
247.397	11871.84
247.468	11881.28
247.539	11901.48
247.61	11858.2
247.681	11905.04
247.752	11955.7
247.823	11933.62
247.894	11945.38
247.965	11918.97
248.037	11902.29
248.108	11853.95
248.179	11862.43
248.25	11855.54
248.321	11882.19
248.392	11828.11
248.463	11916.88
248.534	11914.04
248.605	11934.19
248.675	11905.07
248.746	11924.69
248.817	11945.27
248.888	11970.68
248.959	11914.86
249.03	11936.65
249.101	11949.04
249.172	11930.67
249.243	11864.07
249.314	11928.7
249.385	11937.43
249.456	11974.25
249.527	11976.9
249.598	11999.89
249.669	11999.89
249.739	12012.71
249.81	12029.82
249.881	11997.77
249.952	11992.18
250.023	11995.99
250.094	11941.57
250.165	11913.17
250.235	11907.44
250.306	11906.76
250.377	11868.64
250.448	11894.47
250.519	11830.17
250.59	11887.44
250.66	11886.95
250.731	11955.49
250.802	11949.46
250.873	11975.3
250.944	11986.24
251.014	11978.96
251.085	12069.64
251.156	12101.79
251.227	12150.33
251.297	12199.83
251.368	12250.64
251.439	12286.02
251.51	12335.62
251.58	12323.86
251.651	12323.62
251.722	12378.09
251.792	12331.53
251.863	12339.63
251.934	12402.29
252.005	12513.39
252.075	12515.76
252.146	12564.39
252.217	12612.98
252.287	12656.56
252.358	12651.69
252.429	12727.71
252.499	12718.02
252.57	12726.02
252.641	12771.87
252.711	12780.25
252.782	12746.22
252.852	12817.76
252.923	12825.18
252.994	12838.25
253.064	12892.28
253.135	12867.65
253.205	12845.91
253.276	12921.78
253.347	12979.91
253.417	12950.12
253.488	12932
253.558	12921.15
253.629	12917.15
253.699	12928.04
253.77	12952.82
253.841	12946.02
253.911	12955.47
253.982	12973.69
254.052	13003.15
254.123	13014.38
254.193	13013.22
254.264	13139.18
254.334	13103.65
254.405	13065.72
254.475	13028.07
254.546	13029.18
254.616	13095.22
254.687	13119.08
254.757	13146.12
254.827	13148.68
254.898	13180.16
254.968	13196.35
255.039	13184.35
255.109	13232.75
255.18	13208.36
255.25	13135.76
255.321	13178.28
255.391	13141.64
255.461	13230.1
255.532	13144.39
255.602	13129.88
255.673	13077.53
255.743	13048.07
255.813	12988.2
255.884	13036.31
255.954	13086.93
256.024	13152.2
256.095	13156.54
256.165	13127.33
256.235	13141.69
256.306	13129.98
256.376	13175.39
256.446	13205.66
256.517	13240.61
256.587	13273.92
256.657	13291.52
256.728	13324.87
256.798	13324.97
256.868	13319.19
256.938	13287.9
257.009	13334.61
257.079	13372.17
257.149	13476.19
257.219	13407.02
257.29	13440.04
257.36	13379.63
257.43	13410.82
257.5	13348.59
257.571	13338.23
257.641	13369.22
257.711	13334.32
257.781	13372.45
257.852	13392.41
257.922	13338.71
257.992	13335.67
258.062	13336.15
258.132	13382.19
258.202	13380.16
258.273	13393.95
258.343	13468.91
258.413	13457.97
258.483	13465.01
258.553	13441.68
258.623	13405.38
258.693	13434.35
258.764	13499.33
258.834	13580.46
258.904	13596.95
258.974	13593.19
259.044	13603.7
259.114	13634.93
259.184	13663.71
259.254	13667.71
259.324	13610.73
259.394	13656.29
259.464	13736.65
259.535	13732.46
259.605	13723.59
259.675	13721.8
259.745	13754.44
259.815	13730.29
259.885	13722.57
259.955	13837.49
260.025	13823.17
260.095	13846.7
260.165	13883.24
260.235	13942.33
260.305	13911.19
260.375	13878.61
260.445	13964.9
260.515	14031.76
260.585	14084.83
260.655	14091.72
260.725	14132.02
260.795	14176.81
260.865	14244.58
260.934	14218.46
261.004	14250.51
261.074	14255
261.144	14314.53
261.214	14351.6
261.284	14353.34
261.354	14393.35
261.424	14342.93
261.494	14417.84
261.564	14413.75
261.634	14433.8
261.703	14364.19
261.773	14400.3
261.843	14436.79
261.913	14423.24
261.983	14362.84
262.053	14384.49
262.123	14381.83
262.192	14348.09
262.262	14382.7
262.332	14339.41
262.402	14371.18
262.472	14391.09
262.541	14336.71
262.611	14381.16
262.681	14355.75
262.751	14393.55
262.821	14397.79
262.89	14369.11
262.96	14383.86
263.03	14467.01
263.1	14492.84
263.169	14517.86
263.239	14547.56
263.309	14621.64
263.379	14658.96
263.448	14682.43
263.518	14698.19
263.588	14715.5
263.657	14785.3
263.727	14821.79
263.797	14825.31
263.867	14818.37
263.936	14768.72
264.006	14826.95
264.076	14819.43
264.145	14819.57
264.215	14802.27
264.285	14849.94
264.354	14806.12
264.424	14795.04
264.494	14739.99
264.563	14730.16
264.633	14808.92
264.702	14831.62
264.772	14770.79
264.842	14760
264.911	14795.86
264.981	14755.13
265.05	14773.93
265.12	14767.91
265.19	14778.17
265.259	14822.71
265.329	14860.5
265.398	14899.16
265.468	14997.3
265.537	14990.94
265.607	15028.39
265.676	15079.97
265.746	15098.63
265.815	15157.92
265.885	15170.5
265.955	15169.87
266.024	15169.92
266.094	15104.8
266.163	15161.05
266.232	15226.12
266.302	15242.37
266.371	15263.62
266.441	15290.57
266.51	15332.46
266.58	15339.69
266.649	15330.24
266.719	15385.57
266.788	15414.78
266.858	15480.05
266.927	15411.75
266.996	15443.56
267.066	15473.25
267.135	15445.05
267.205	15498.75
267.274	15518.36
267.343	15567.24
267.413	15587.63
267.482	15655.35
267.552	15723.61
267.621	15677.24
267.69	15629.23
267.76	15653.67
267.829	15677.58
267.898	15692.23
267.968	15672.61
268.037	15709.82
268.106	15756.29
268.176	15716.52
268.245	15723.75
268.314	15711.17
268.384	15773.01
268.453	15798.66
268.522	15823.72
268.592	15886.43
268.661	15867.58
268.73	15903.06
268.799	15891.25
268.869	15962.1
268.938	15913.47
269.007	15904.7
269.076	15934.34
269.146	15989
269.215	16014.21
269.284	16089.88
269.353	16088.58
269.422	16099.52
269.492	16091.13
269.561	16010.78
269.63	16062.11
269.699	16055.32
269.768	16081.97
269.838	16103.8
269.907	16139.08
269.976	16112
270.045	16056.81
270.114	16094.3
270.183	16107.94
270.253	16140.24
270.322	16094.59
270.391	16121.54
270.46	16184.48
270.529	16228.63
270.598	16274.03
270.667	16288.06
270.736	16248.01
270.806	16279.38
270.875	16340.69
270.944	16356.4
271.013	16486.39
271.082	16504.18
271.151	16544.32
271.22	16502.01
271.289	16502.78
271.358	16510.2
271.427	16544.37
271.496	16573.68
271.565	16568.28
271.634	16579.75
271.703	16715.03
271.772	16774.65
271.841	16790.07
271.91	16760.43
271.979	16777.93
272.048	16746.17
272.117	16791.57
272.186	16810.99
272.255	16857.98
272.324	16898.07
272.393	16929.31
272.462	16912.78
272.531	16932.05
272.6	16949.74
272.669	17019.92
272.738	17039.53
272.807	17068.69
272.876	17052.98
272.945	17195.58
273.013	17251.63
273.082	17319.25
273.151	17213.47
273.22	17256.36
273.289	17275.83
273.358	17359.93
273.427	17376.12
273.496	17435.73
273.564	17464.65
273.633	17514.14
273.702	17508.26
273.771	17522.58
273.84	17562.1
273.909	17608.74
273.977	17644.41
274.046	17650.67
274.115	17711.97
274.184	17707.2
274.253	17731.68
274.322	17812.45
274.39	17747.78
274.459	17743.45
274.528	17689.86
274.597	17724.22
274.665	17750.91
274.734	17827.78
274.803	17834.62
274.872	17849.52
274.94	17845.95
275.009	17990.62
275.078	17981.75
275.147	18016.26
275.215	18035.34
275.284	18094.95
275.353	18108.11
275.421	18079.68
275.49	18183.53
275.559	18196.54
275.627	18221.55
275.696	18239.09
275.765	18279.43
275.833	18301.6
275.902	18346.32
275.971	18438.55
276.039	18520.14
276.108	18574.74
276.177	18606.88
276.245	18615.56
276.314	18654.98
276.383	18708.32
276.451	18630.35
276.52	18688.61
276.588	18769.47
276.657	18834.77
276.725	18842.34
276.794	18874.72
276.863	18956.31
276.931	18910.86
277	18962.86
277.068	19038.28
277.137	19137.94
277.205	19174.03
277.274	19274.41
277.342	19348.38
277.411	19320.77
277.48	19326.89
277.548	19330.6
277.617	19368.77
277.685	19402.26
277.754	19450.21
277.822	19471.17
277.89	19555.75
277.959	19574.64
278.027	19554.06
278.096	19558.64
278.164	19700.38
278.233	19727.03
278.301	19736.47
278.37	19800.13
278.438	19801
278.507	19846.73
278.575	19807.36
278.643	19834.39
278.712	19815.12
278.78	19814.88
278.849	19905.76
278.917	19978.39
278.985	20009.38
279.054	20064.12
279.122	20138.05
279.191	20182.15
279.259	20207.2
279.327	20179.93
279.396	20274.53
279.464	20306.34
279.532	20371.83
279.601	20386.39
279.669	20416.03
279.737	20498.82
279.806	20558.15
279.874	20641.24
279.942	20682.25
280.011	20712.56
280.079	20776.52
280.147	20874.45
280.215	20920.18
280.284	20941.68
280.352	20946.3
280.42	21013.73
280.488	21018.11
280.557	21028.62
280.625	21079.47
280.693	21134.51
280.761	21192.54
280.83	21183.19
280.898	21272.01
280.966	21259.58
281.034	21198.99
281.102	21205.44
281.171	21229.93
281.239	21298.53
281.307	21304.41
281.375	21312.12
281.443	21437.49
281.512	21468.29
281.58	21533.27
281.648	21538.96
281.716	21579.64
281.784	21618.39
281.852	21641.58
281.92	21680.23
281.989	21763.24
282.057	21745.99
282.125	21940.07
282.193	21958.29
282.261	21998.44
282.329	22018.83
282.397	22072.53
282.465	22114.99
282.533	22200.93
282.601	22206.96
282.67	22172.25
282.738	22191.72
282.806	22273.38
282.874	22276.8
282.942	22330.08
283.01	22349.27
283.078	22408.27
283.146	22444.42
283.214	22514.57
283.282	22565.72
283.35	22655.6
283.418	22675.32
283.486	22741.79
283.554	22630.81
283.622	22679.27
283.69	22722.51
283.758	22753.22
283.826	22809.97
283.894	22895.74
283.962	23009.79
284.03	23109.17
284.098	23168.23
284.165	23200.09
284.233	23246.58
284.301	23263.89
284.369	23276.33
284.437	23290.36
284.505	23317.07
284.573	23408.84
284.641	23416.65
284.709	23480.51
284.777	23461.12
284.845	23543.21
284.912	23603.93
284.98	23658.18
285.048	23690.82
285.116	23756.46
285.184	23842.02
285.252	23893.09
285.319	23887.16
285.387	23893.63
285.455	23877.76
285.523	23935.01
285.591	23977.3
285.659	24022.35
285.726	24112.41
285.794	24121.43
285.862	24162.81
285.93	24216.1
285.997	24244.52
286.065	24280.01
286.133	24297.96
286.201	24346.19
286.269	24339.2
286.336	24352.41
286.404	24394.48
286.472	24475.19
286.539	24454.4
286.607	24447.21
286.675	24487.6
286.743	24561.35
286.81	24591.27
286.878	24676.66
286.946	24689.83
287.013	24730.93
287.081	24776.43
287.149	24772.09
287.216	24873.17
287.284	24901.34
287.352	24952.05
287.419	24979.99
287.487	25075.78
287.555	25130.61
287.622	25167.9
287.69	25230.06
287.758	25313.35
287.825	25334.1
287.893	25331.93
287.96	25386.25
288.028	25467.38
288.096	25522.21
288.163	25572.89
288.231	25580.41
288.298	25630.57
288.366	25730.59
288.433	25769.91
288.501	25785.31
288.569	25826.52
288.636	25852.74
288.704	25941.71
288.771	26007.55
288.839	26033.62
288.906	26048.83
288.974	26120.25
289.041	26154.66
289.109	26165.48
289.176	26236.66
289.244	26303.04
289.311	26396.95
289.379	26482.97
289.446	26532.23
289.514	26570.19
289.581	26617.17
289.649	26662.31
289.716	26705.2
289.783	26724.28
289.851	26834.37
289.918	26880.91
289.986	26973.11
290.053	27033.63
290.121	27067.97
290.188	27126.62
290.255	27269.04
290.323	27302.94
290.39	27335.7
290.458	27409.34
290.525	27489.48
290.592	27505.66
290.66	27557.93
290.727	27584.99
290.794	27673.17
290.862	27719.31
290.929	27776.08
290.996	27816.04
291.064	27906.33
291.131	28001.99
291.198	28088.35
291.266	28124.69
291.333	28171.02
291.4	28229.75
291.468	28329.82
291.535	28370.17
291.602	28408.36
291.669	28416.39
291.737	28479.11
291.804	28511.64
291.871	28605.17
291.938	28676.14
292.006	28812.62
292.073	28882.71
292.14	28955.66
292.207	28972.2
292.275	29014.93
292.342	29086.4
292.409	29215.82
292.476	29323.78
292.543	29326.63
292.611	29368.18
292.678	29479.66
292.745	29606.46
292.812	29678.34
292.879	29704.81
292.946	29761.82
293.014	29852.42
293.081	29924.16
293.148	30004.45
293.215	30103.14
293.282	30131.39
293.349	30210.36
293.416	30195.89
293.484	30292.46
293.551	30380.49
293.618	30477.83
293.685	30611.41
293.752	30643.63
293.819	30675.19
293.886	30676.93
293.953	30745.84
294.02	30830.59
294.087	30883.46
294.154	30911.14
294.221	30995.5
294.288	31042.93
294.356	31144.81
294.423	31209.99
294.49	31233.12
294.557	31312.03
294.624	31334.26
294.691	31453.21
294.758	31507.98
294.825	31579.78
294.892	31605.25
294.959	31638.04
295.026	31716.25
295.093	31744.06
295.16	31802.73
295.226	31861.87
295.293	32003.42
295.36	32070.92
295.427	32146.07
295.494	32233.57
295.561	32314.6
295.628	32433.27
295.695	32542.03
295.762	32600.22
295.829	32682.11
295.896	32791.01
295.963	32883.71
296.03	32965.72
296.096	33027.47
296.163	33110.49
296.23	33213.23
296.297	33307.03
296.364	33358
296.431	33419.66
296.498	33456.73
296.564	33582.09
296.631	33632.89
296.698	33634.49
296.765	33751.6
296.832	33769.73
296.899	33777.1
296.965	33879.69
297.032	33864.8
297.099	33967.37
297.166	34045.57
297.233	34077.43
297.299	34105.79
297.366	34149.48
297.433	34213.57
297.5	34285.4
297.566	34333.32
297.633	34376.67
297.7	34436.71
297.767	34491.34
297.833	34563.03
297.9	34624.02
297.967	34628.39
298.033	34722.67
298.1	34870.4
298.167	34891.69
298.234	34963.56
298.3	35055.67
298.367	35068.43
298.434	35147.56
298.5	35158.81
298.567	35185.88
298.634	35229.97
298.7	35325.09
298.767	35382.29
298.834	35464.38
298.9	35492.09
298.967	35522.94
299.033	35596.65
299.1	35694.38
299.167	35784.76
299.233	35823.34
299.3	35917.95
299.366	36017.61
299.433	36114.98
299.5	36074.89
299.566	36125.79
299.633	36218
299.699	36288.71
299.766	36340.1
299.832	36399.23
299.899	36474.08
299.965	36560.32
300.032	36607.39
300.099	36693.94
300.165	36763.55
300.232	36810.97
300.298	36862.95
300.365	36952.94
300.431	37007.85
300.498	37023.53
300.564	37101.21
300.631	37182.33
300.697	37268.47
300.763	37299.54
300.83	37332.9
300.896	37419.8
300.963	37513.69
301.029	37579.73
301.096	37651.99
301.162	37750.75
301.229	37781.78
301.295	37805.38
301.361	37870.74
301.428	37935.55
301.494	37931.71
301.561	37991.78
301.627	38039.08
301.693	38095.6
301.76	38154.17
301.826	38203.51
301.892	38287.33
301.959	38364.13
302.025	38396.67
302.092	38429.79
302.158	38514.34
302.224	38561.85
302.291	38583.07
302.357	38612.6
302.423	38644.37
302.49	38647.82
302.556	38719.76
302.622	38763.82
302.688	38836
302.755	38919.7
302.821	38982.5
302.887	39075.71
302.954	39107.29
303.02	39181.12
303.086	39250.68
303.152	39291.78
303.219	39315.78
303.285	39386.67
303.351	39442.5
303.417	39493.02
303.483	39509.06
303.55	39534.17
303.616	39583
303.682	39638.43
303.748	39667.09
303.815	39758.64
303.881	39843.18
303.947	39851.88
304.013	39902.94
304.079	39925.34
304.145	39909.84
304.212	39956.38
304.278	39956.48
304.344	39998.36
304.41	40003.12
304.476	40017.85
304.542	40042.87
304.608	40110.51
304.674	40092.28
304.741	40107.25
304.807	40163.19
304.873	40233.01
304.939	40335.31
305.005	40328.8
305.071	40354.75
305.137	40401.2
305.203	40357.22
305.269	40390.02
305.335	40481.11
305.401	40526.98
305.467	40571.94
305.533	40636.52
305.599	40705.78
305.666	40774.1
305.732	40812.01
305.798	40899.35
305.864	41025.97
305.93	41094.06
305.996	41128.23
306.062	41183.68
306.128	41220.77
306.194	41216.06
306.259	41253.39
306.325	41249.74
306.391	41323.09
306.457	41400.22
306.523	41453.19
306.589	41575.11
306.655	41592.17
306.721	41560.47
306.787	41557.9
306.853	41630.53
306.919	41633.59
306.985	41639.62
307.051	41665.23
307.117	41686.67
307.183	41711.32
307.248	41671.16
307.314	41714.14
307.38	41759.1
307.446	41811.12
307.512	41811.95
307.578	41870.91
307.644	41890.7
307.709	41934.55
307.775	41959.1
307.841	41986.09
307.907	42028.29
307.973	42005.58
308.039	42051.28
308.104	42119.49
308.17	42173.3
308.236	42168.3
308.302	42215.94
308.368	42237.23
308.433	42284.49
308.499	42308.36
308.565	42305.05
308.631	42341.71
308.696	42301.84
308.762	42310.21
308.828	42340.7
308.894	42345.12
308.959	42322.76
309.025	42334.38
309.091	42363.94
309.156	42384.71
309.222	42431.68
309.288	42424.87
309.354	42412.48
309.419	42437.72
309.485	42424.98
309.551	42471.36
309.616	42469.66
309.682	42487.65
309.748	42502.92
309.813	42511.38
309.879	42536.08
309.945	42543.42
310.01	42554.12
310.076	42621.66
310.141	42636.83
310.207	42615.48
310.273	42644.85
310.338	42692.98
310.404	42686.27
310.469	42673.82
310.535	42673.38
310.601	42633.8
310.666	42690.79
310.732	42740.24
310.797	42725.51
310.863	42725.22
310.928	42735.77
310.994	42779.05
311.059	42812.31
311.125	42829.04
311.191	42913.63
311.256	42910.18
311.322	42963.18
311.387	42941.06
311.453	43863.21
311.518	43868.46
311.584	43907.9
311.649	43960.09
311.715	43964.7
311.78	43987.95
311.846	43998.26
311.911	44061.88
311.976	44101.65
312.042	44089.69
312.107	44081.57
312.173	44106.61
312.238	44118.24
312.304	44138.66
312.369	44137.35
312.434	44134.58
312.5	44154.18
312.565	44073.92
312.631	44125.37
312.696	44133.2
312.761	44185.86
312.827	43292.07
312.892	43407.86
312.958	43436.42
313.023	43464.15
313.088	43498.14
313.154	43512.97
313.219	43524.35
313.284	43515.06
313.35	43538.8
313.415	43531.35
313.48	43539.82
313.546	43576.59
313.611	43643.66
313.676	43655.78
313.741	43668.81
313.807	43727.82
313.872	43769.07
313.937	43827.39
314.003	43901.98
314.068	43932.82
314.133	43993.09
314.198	43990.71
314.264	43936.16
314.329	43934.55
314.394	43953.19
314.459	43979.55
314.525	44066.97
314.59	44078.89
314.655	44081.07
314.72	44128.12
314.785	44180.61
314.851	44208.91
314.916	44175.93
314.981	44162.94
315.046	44157.59
315.111	44157.2
315.176	44143.58
315.242	44189.61
315.307	44210.19
315.372	44157.2
315.437	44165.96
315.502	44164.5
315.567	44229.65
315.632	44228.09
315.698	44261.03
315.763	44283.56
315.828	44288.91
315.893	44289.3
315.958	44312.31
316.023	44306.52
316.088	44265.94
316.153	44208.01
316.218	44201.74
316.283	44177.08
316.348	44131.94
316.413	44149.02
316.479	44118.91
316.544	44015.71
316.609	43909.81
316.674	43786.42
316.739	43684.49
316.804	43573.94
316.869	43435.62
316.934	43300.83
316.999	43191.7
317.064	43008.66
317.129	42838.43
317.194	42703.3
317.259	42524.86
317.324	42328.79
317.389	42154.4
317.454	42001
317.518	41873.35
317.583	41758.4
317.648	41635.37
317.713	41487.11
317.778	41236.27
317.843	41103.81
317.908	40945.23
317.973	40778.04
318.038	40653.58
318.103	40479.57
318.168	40324.65
318.233	40181.44
318.297	39962.06
318.362	39777.66
318.427	39601.09
318.492	39463.92
318.557	39247.37
318.622	39104.28
318.687	38989.41
318.751	38805.16
318.816	38629.51
318.881	38445.88
318.946	38199.25
319.011	37994.99
319.075	37803.24
319.14	37632.54
319.205	37408.7
319.27	37234.86
319.335	37015.05
319.399	36806.3
319.464	36634.97
319.529	36390.43
319.594	36183.57
319.658	36009.76
319.723	35791.17
319.788	35618.46
319.853	35352.52
319.917	35176.41
319.982	34919.09
320.047	34697.02
320.112	34518.9
320.176	34271.74
320.241	34067.79
320.306	33890.86
320.37	33657.8
320.435	33454.16
320.5	33265.85
320.564	33048.4
320.629	32814.72
320.694	32624.16
320.758	32390.51
320.823	32157.13
320.888	31975.33
320.952	31719.3
321.017	31492.4
321.082	31271.83
321.146	31061.99
321.211	30862.91
321.275	30636.7
321.34	30390.96
321.405	30151.64
321.469	29910.27
321.534	29682.58
321.598	29427.97
321.663	29214
321.727	29016.66
321.792	28761.92
321.857	28516.64
321.921	28292.93
321.986	28052.16
322.05	27771.53
322.115	27556.22
322.179	27319.86
322.244	27034.27
322.308	26829.74
322.373	26587.89
322.437	26355.88
322.502	26172.71
322.566	25927.44
322.631	25697.28
322.695	25483.05
322.76	25231.49
322.824	25007.14
322.889	24758.44
322.953	24510.97
323.018	24198.29
323.082	23882.17
323.146	23610.42
323.211	23336.53
323.275	23086.18
323.34	22833.63
323.404	22610.26
323.468	22345.69
323.533	22091.53
323.597	21837.31
323.662	21561.71
323.726	21326.95
323.79	21069.84
323.855	20735.31
323.919	20469.87
323.983	20214.18
324.048	19825.81
324.112	20004.16
324.177	19211.45
324.241	18172.49
324.305	17141.1
324.37	16132.82
324.434	15162.94
324.498	14896.91
324.562	14596.38
324.627	14249.41
324.691	13916.15
324.755	13530.93
324.82	13101.02
324.884	12647.36
324.948	12193.11
325.012	11629.76
325.077	10942.63
