Data from 20250701_urea_2M_exp3_MAYP1162681_16-49-48-584.txt Node
Date: Tue Jul 01 16:49:48 BST 2025
User: adleo
Spectrometer: MAYP116268
Trigger mode: 0
Integration Time (sec): 4.000000E0
Scans to average: 1
Electric dark correction enabled: true
Nonlinearity correction enabled: true
Boxcar width: 10
XAxis mode: Wavelengths
Number of Pixels in Spectrum: 2068
>>>>>Begin Spectral Data<<<<<
179.565	4122.53
179.642	4336.02
179.718	4501.3
179.795	4648.3
179.871	4771.33
179.948	4840.56
180.024	4921.92
180.101	5013.27
180.177	5071.62
180.254	5159.21
180.33	5241.59
180.407	5545.16
180.483	5863.1
180.56	6187.11
180.636	6488.75
180.712	6440.52
180.789	6479.13
180.865	6521.26
180.942	6557.74
181.018	6604.46
181.095	6650.21
181.171	6670.71
181.248	6673.4
181.324	6735.29
181.4	6765.51
181.477	6804.9
181.553	6854.35
181.63	6932.04
181.706	6988.93
181.782	7019.13
181.859	7016.15
181.935	7043.54
182.011	7031.05
182.088	7098.09
182.164	7173.67
182.24	7220.07
182.317	7256.53
182.393	7247.26
182.469	7301.75
182.546	7347.7
182.622	7359.57
182.698	7348.41
182.775	7387.68
182.851	7437.95
182.927	7404.11
183.003	7384.13
183.08	7368.46
183.156	7404.89
183.232	7392.92
183.308	7349.37
183.385	7379.26
183.461	7446.27
183.537	7446.08
183.613	7493.09
183.69	7459.73
183.766	7417.64
183.842	7444.13
183.918	7464.56
183.995	7514.46
184.071	7521.38
184.147	7505.56
184.223	7469.68
184.299	7511.08
184.375	7474.07
184.452	7499.18
184.528	7635.26
184.604	7678.22
184.68	7717.59
184.756	7739.91
184.832	7754.96
184.908	7771.29
184.985	7772.16
185.061	7714.47
185.137	7742.4
185.213	7698.66
185.289	7701.44
185.365	7679.72
185.441	7676.88
185.517	7727.68
185.593	7712.68
185.669	7707.39
185.745	7742.93
185.822	7803.09
185.898	7775.39
185.974	7809.13
186.05	7783.88
186.126	7708.92
186.202	7681.18
186.278	7666.52
186.354	7635.64
186.43	7663.16
186.506	7659.32
186.582	7656.77
186.658	7679.79
186.734	7608.75
186.81	7621.68
186.886	7629.23
186.962	7669.9
187.038	7655.04
187.114	7621.07
187.19	7653.49
187.266	7619.07
187.341	7619.84
187.417	7592.1
187.493	7594.12
187.569	7605.95
187.645	7582.44
187.721	7539.92
187.797	7574.49
187.873	7590.79
187.949	7567.96
188.025	7537.55
188.101	7549.81
188.176	7567.5
188.252	7554.19
188.328	7585.7
188.404	7579.41
188.48	7561
188.556	7535.9
188.632	7535.23
188.707	7542.59
188.783	7526.33
188.859	7507.45
188.935	7469.07
189.011	7496.72
189.086	7470.14
189.162	7440.76
189.238	7431
189.314	7419.42
189.39	7392.55
189.465	7367.74
189.541	7426.68
189.617	7371.56
189.693	7349.74
189.768	7363.11
189.844	7444.49
189.92	7413.7
189.996	7444.57
190.071	7488.84
190.147	7482.59
190.223	7513.9
190.298	7480.86
190.374	7429.72
190.45	7472.29
190.526	7496.91
190.601	7479.89
190.677	7485.85
190.753	7587.08
190.828	7601.45
190.904	7661.9
190.98	7719.8
191.055	7765.06
191.131	7732.45
191.207	7812.3
191.282	7850.46
191.358	7808.83
191.433	7755.08
191.509	7808.57
191.585	7798.47
191.66	7799.67
191.736	7830.97
191.811	7798.75
191.887	7862.88
191.963	7956.17
192.038	7977.95
192.114	7985.5
192.189	7999.98
192.265	7987.43
192.34	7903.61
192.416	7899.42
192.491	7883.02
192.567	7891.01
192.642	7897.16
192.718	7902.26
192.793	7854.7
192.869	7836.96
192.944	7853.73
193.02	7886.39
193.095	7896.25
193.171	7921.74
193.246	7919.96
193.322	7909.53
193.397	7911.64
193.473	7857.66
193.548	7791.09
193.624	7814.08
193.699	7805.23
193.775	7857.63
193.85	7861.42
193.925	7891.73
194.001	7893.79
194.076	7868.45
194.152	7833.09
194.227	7799.46
194.302	7763.66
194.378	7778.46
194.453	7771.78
194.529	7818.1
194.604	7763.37
194.679	7738.27
194.755	7664.11
194.83	7711.84
194.905	7705.25
194.981	7736.71
195.056	7709.02
195.131	7732.87
195.207	7723.48
195.282	7693
195.357	7622.1
195.433	7681.38
195.508	7641.27
195.583	7666.9
195.659	7712.94
195.734	7734.01
195.809	7730.93
195.884	7763.18
195.96	7767.51
196.035	7823.14
196.11	7803.42
196.185	7848.19
196.261	7867.03
196.336	7984.9
196.411	7933.17
196.486	7951.83
196.561	7928.12
196.637	7961.53
196.712	8019.47
196.787	8029.57
196.862	8086.03
196.937	8127
197.013	8143.36
197.088	8182.99
197.163	8260.34
197.238	8319.85
197.313	8316.43
197.388	8372.24
197.464	8485.87
197.539	8521.91
197.614	8500.69
197.689	8543.95
197.764	8606.05
197.839	8673.95
197.914	8652.38
197.989	8726.83
198.065	8778.13
198.14	8963.33
198.215	9060.75
198.29	9103.03
198.365	9152.62
198.44	9190.5
198.515	9287.37
198.59	9345.25
198.665	9439.47
198.74	9467.8
198.815	9479.4
198.89	9564.09
198.965	9668.95
199.04	9650.55
199.115	9715.41
199.19	9868.82
199.265	9883.12
199.34	9915.3
199.415	10044.52
199.49	10119.83
199.565	10161.64
199.64	10246.08
199.715	10229.16
199.79	10250.93
199.865	10270.69
199.94	10265.58
200.015	10379.33
200.09	10404.29
200.165	10428.76
200.24	10447.6
200.315	10591.46
200.39	10641.23
200.464	10662.38
200.539	10667.44
200.614	10731.47
200.689	10817.38
200.764	10837.72
200.839	10898.61
200.914	10918.6
200.989	10874.94
201.063	10928.61
201.138	10866.49
201.213	10868.75
201.288	10804.04
201.363	10823.99
201.438	10826.35
201.512	10883.43
201.587	10817.8
201.662	10832.11
201.737	10876.06
201.812	10913.17
201.886	10798.36
201.961	10834.31
202.036	10795.87
202.111	10788.69
202.186	10680.37
202.26	10613.29
202.335	10535.18
202.41	10510.76
202.485	10446.02
202.559	10376.98
202.634	10282.75
202.709	10317.95
202.784	10245.78
202.858	10246.41
202.933	10178.68
203.008	10151.75
203.082	10082.35
203.157	10078.73
203.232	9919.36
203.306	9840.73
203.381	9711.44
203.456	9624.84
203.53	9540.89
203.605	9466.62
203.68	9375.43
203.754	9344.11
203.829	9287.81
203.904	9212.66
203.978	9165.17
204.053	9178.66
204.127	9127.1
204.202	9117.56
204.277	9045.02
204.351	9023.35
204.426	8990.32
204.5	8962.97
204.575	8835.84
204.65	8870.08
204.724	8843.29
204.799	8872.11
204.873	8859.35
204.948	8856.22
205.022	8810.17
205.097	8780.74
205.171	8826.94
205.246	8856.55
205.32	8855.16
205.395	8854.82
205.469	8824.52
205.544	8853.65
205.618	8790.06
205.693	8836.32
205.767	8790.17
205.842	8868.88
205.916	8842.31
205.991	8810.98
206.065	8828.02
206.14	8884.38
206.214	8866.08
206.289	8838.25
206.363	8882.82
206.438	8887.06
206.512	8918.06
206.586	8989.97
206.661	9017.28
206.735	8939.58
206.81	8943.09
206.884	9000.6
206.958	8954.98
207.033	9017.72
207.107	9046.28
207.181	9163.58
207.256	9135.85
207.33	9205.27
207.405	9251.13
207.479	9321.81
207.553	9350.69
207.628	9293.86
207.702	9340.84
207.776	9318.88
207.851	9325.81
207.925	9378.89
207.999	9362.38
208.073	9350.53
208.148	9361.95
208.222	9311.19
208.296	9428.33
208.371	9489.76
208.445	9526.31
208.519	9626.55
208.593	9668.83
208.668	9649.76
208.742	9662.86
208.816	9676.97
208.89	9720.47
208.965	9714.06
209.039	9740.02
209.113	9800.95
209.187	9878.25
209.261	9857.98
209.336	9931.67
209.41	10007.82
209.484	10012.01
209.558	10098.67
209.632	10147.36
209.707	10181.66
209.781	10266.62
209.855	10322.76
209.929	10385.56
210.003	10407.91
210.077	10407.77
210.151	10582.19
210.226	10710.08
210.3	10805.47
210.374	10889.77
210.448	10905.28
210.522	10943.36
210.596	10987.74
210.67	11022.14
210.744	11184.92
210.818	11304.88
210.892	11384.98
210.966	11365.03
211.041	11425.65
211.115	11412.31
211.189	11500.98
211.263	11559.86
211.337	11583.57
211.411	11638.13
211.485	11613.6
211.559	11658.65
211.633	11665.01
211.707	11543.11
211.781	11564.13
211.855	11435.54
211.929	11410.87
212.003	11346.37
212.077	11380.83
212.151	11420.02
212.225	11450.14
212.299	11413.84
212.373	11371.43
212.447	11339.47
212.52	11445.94
212.594	11443.86
212.668	11481.69
212.742	11430.27
212.816	11413.06
212.89	11389.11
212.964	11373.59
213.038	11374.89
213.112	11413.02
213.186	11462.6
213.26	11376.14
213.333	11204.63
213.407	11216.1
213.481	11205.5
213.555	11240.62
213.629	11187.69
213.703	11115.35
213.777	11108.56
213.85	11023.84
213.924	11132.43
213.998	11120.23
214.072	11077.91
214.146	11025.38
214.219	11001.38
214.293	10973.92
214.367	10958.54
214.441	10982.11
214.515	10933.33
214.588	10835.61
214.662	10694.58
214.736	10610.17
214.81	10627.02
214.883	10643.69
214.957	10588.78
215.031	10525.16
215.105	10424.73
215.178	10352.7
215.252	10307.9
215.326	10185.58
215.4	10095.97
215.473	9897.75
215.547	9813.58
215.621	9745.25
215.694	9739.37
215.768	9632.83
215.842	9558.72
215.915	9483.33
215.989	9356.27
216.063	9288.39
216.136	9261.23
216.21	9236.68
216.284	9239.04
216.357	9217.22
216.431	9170.86
216.504	9162.62
216.578	9228.31
216.652	9240.43
216.725	9215.35
216.799	9225.89
216.873	9210.73
216.946	9222.67
217.02	9185.81
217.093	9149.75
217.167	9038.01
217.24	8941.41
217.314	8907.2
217.387	8860.49
217.461	8808.41
217.535	8836.38
217.608	8766.25
217.682	8740.45
217.755	8750.27
217.829	8691.53
217.902	8666.5
217.976	8643.79
218.049	8598.35
218.123	8517.07
218.196	8514.48
218.27	8479.34
218.343	8403.42
218.417	8400.58
218.49	8371.23
218.563	8414
218.637	8417.42
218.71	8497.89
218.784	8527.88
218.857	8559.83
218.931	8579.36
219.004	8592.06
219.077	8612.04
219.151	8632.06
219.224	8620.22
219.298	8618.87
219.371	8663.69
219.444	8623.81
219.518	8641.27
219.591	8658.84
219.665	8766.23
219.738	8783.7
219.811	8759.79
219.885	8812.4
219.958	8841.14
220.031	8847.73
220.105	8876.53
220.178	8879.41
220.251	8847.88
220.325	8875.32
220.398	8899.06
220.471	8919.22
220.544	8962.25
220.618	8928.6
220.691	8962.68
220.764	8989.97
220.838	9016.35
220.911	9005.32
220.984	9097.87
221.057	9135.33
221.131	9156.56
221.204	9057.01
221.277	9132.56
221.35	9268.1
221.424	9254.28
221.497	9274.74
221.57	9304.82
221.643	9335.79
221.716	9394.21
221.79	9395.65
221.863	9405.04
221.936	9408.8
222.009	9425.45
222.082	9455.46
222.155	9471.69
222.229	9538.88
222.302	9570.18
222.375	9581.35
222.448	9624.55
222.521	9634.42
222.594	9636.93
222.667	9613.25
222.74	9672.66
222.814	9661.39
222.887	9645.63
222.96	9710.37
223.033	9755.51
223.106	9779.24
223.179	9809.93
223.252	9818.56
223.325	9859.63
223.398	9881.12
223.471	9919.6
223.544	9948.01
223.617	9959.76
223.69	9983.65
223.763	9945.44
223.837	9969.77
223.91	9997.18
223.983	9942.52
224.056	9903.13
224.129	9922.01
224.202	9986.24
224.275	9974.15
224.348	9945.54
224.42	9910.61
224.493	9845.01
224.566	9819.38
224.639	9844.19
224.712	9820.38
224.785	9809.16
224.858	9796.35
224.931	9774.38
225.004	9731.66
225.077	9729.11
225.15	9634.54
225.223	9633.97
225.296	9723.1
225.369	9659.83
225.442	9626.35
225.514	9651.48
225.587	9675.94
225.66	9686.01
225.733	9676.38
225.806	9685.05
225.879	9678.02
225.952	9646.43
226.025	9699.12
226.097	9754.87
226.17	9747.55
226.243	9670.64
226.316	9671.12
226.389	9686.54
226.461	9710.38
226.534	9730.66
226.607	9723.58
226.68	9813.42
226.753	9806.58
226.825	9714.02
226.898	9779.13
226.971	9785.2
227.044	9801
227.117	9813.76
227.189	9835.1
227.262	9882.36
227.335	9911.85
227.407	9907.03
227.48	9943.58
227.553	9958.08
227.626	9933.12
227.698	9934.76
227.771	9988.39
227.844	9963.2
227.916	9970.96
227.989	9929.87
228.062	9930.59
228.134	10033.59
228.207	10038.51
228.28	10040
228.352	10054.64
228.425	10061.49
228.498	10108.5
228.57	10087.17
228.643	10147.39
228.716	10148.6
228.788	10135.4
228.861	10128.75
228.934	10201.34
229.006	10207.89
229.079	10209.82
229.151	10201
229.224	10171.53
229.296	10196.53
229.369	10316.03
229.442	10375.54
229.514	10364.03
229.587	10414.32
229.659	10331.16
229.732	10347.15
229.804	10389.98
229.877	10483.99
229.949	10520.62
230.022	10584.67
230.094	10593
230.167	10583.99
230.239	10538.61
230.312	10530.9
230.384	10605.69
230.457	10601.16
230.529	10613.49
230.602	10618.7
230.674	10635.66
230.747	10688.16
230.819	10722.8
230.892	10587.75
230.964	10589.05
231.037	10616.84
231.109	10604.55
231.181	10649.3
231.254	10611.34
231.326	10597.08
231.399	10567.2
231.471	10537.22
231.544	10447.16
231.616	10497.4
231.688	10509.16
231.761	10499.58
231.833	10488.21
231.905	10400.41
231.978	10399.01
232.05	10386.87
232.122	10392.12
232.195	10362.88
232.267	10400.89
232.339	10373.19
232.412	10452.48
232.484	10429.97
232.556	10406.86
232.629	10489.8
232.701	10509.22
232.773	10529.54
232.846	10520.68
232.918	10529.74
232.99	10551.18
233.062	10604.09
233.135	10617.82
233.207	10572.72
233.279	10622
233.351	10664.73
233.424	10661.36
233.496	10638.04
233.568	10727.67
233.64	10689.85
233.713	10714.47
233.785	10707.87
233.857	10731.43
233.929	10670.34
234.001	10740.32
234.074	10813.06
234.146	10728.68
234.218	10725.11
234.29	10721.5
234.362	10715.53
234.434	10667.77
234.507	10630.96
234.579	10569.86
234.651	10554.25
234.723	10598.29
234.795	10619.11
234.867	10607.74
234.939	10675.87
235.012	10699.09
235.084	10701.69
235.156	10743.32
235.228	10718.17
235.3	10704.63
235.372	10714.8
235.444	10787.31
235.516	10706.82
235.588	10717.71
235.66	10742.14
235.732	10720.12
235.804	10932.05
235.876	10978.69
235.948	11048.96
236.02	11071.46
236.092	11093.23
236.164	11106.96
236.236	11101.86
236.308	11105.76
236.38	11147.35
236.452	11133.81
236.524	11155.3
236.596	11227.02
236.668	11263.94
236.74	11299.12
236.812	11333.09
236.884	11373.19
236.956	11388.66
237.028	11381.19
237.1	11362.35
237.172	11443.28
237.244	11524.29
237.316	11406.09
237.388	11393.71
237.46	11372.74
237.532	11440.07
237.604	11429.56
237.675	11512.47
237.747	11569.53
237.819	11560.42
237.891	11555.85
237.963	11551.65
238.035	11555.51
238.107	11435.49
238.178	11505.58
238.25	11511.94
238.322	11616.49
238.394	11569.4
238.466	11571.33
238.538	11623.04
238.609	11670.27
238.681	11612.28
238.753	11593.77
238.825	11616.62
238.897	11651.41
238.968	11740.69
239.04	11719.82
239.112	11849.65
239.184	11808.73
239.255	11808.3
239.327	11847.53
239.399	11883.53
239.471	11933.99
239.542	11973.9
239.614	12055.5
239.686	11970.71
239.758	12030.82
239.829	11997.22
239.901	12075.15
239.973	12093.81
240.044	12137.81
240.116	12147.5
240.188	12166.25
240.259	12188.09
240.331	12174.78
240.403	12223.9
240.474	12180.27
240.546	12181.19
240.618	12116.07
240.689	12119.44
240.761	12139.93
240.833	12216.52
240.904	12211.94
240.976	12209.2
241.048	12233.1
241.119	12274.37
241.191	12327.49
241.262	12405.63
241.334	12412.67
241.405	12416.57
241.477	12428.86
241.549	12435.37
241.62	12476.73
241.692	12530.28
241.763	12594.68
241.835	12623.85
241.906	12642.26
241.978	12606.3
242.049	12678.66
242.121	12757.61
242.192	12835.61
242.264	12806.54
242.335	12757.42
242.407	12813.63
242.478	12830.31
242.55	12849.35
242.621	12835.22
242.693	12838.84
242.764	12819.7
242.836	12821.1
242.907	12855.81
242.979	12889.6
243.05	12922.91
243.122	12954.1
243.193	12954.73
243.264	12878.03
243.336	12892.25
243.407	12938.67
243.479	13037.45
243.55	13060.78
243.622	13084.06
243.693	13083.77
243.764	13153.52
243.836	13130.24
243.907	13118.24
243.978	13124.27
244.05	13153.96
244.121	13112.75
244.192	13159.31
244.264	13115.93
244.335	13132.61
244.407	13085.12
244.478	13103.01
244.549	13092.16
244.62	13043.28
244.692	13044.39
244.763	13099.25
244.834	13084.83
244.906	13057.16
244.977	13075.1
245.048	13134.87
245.119	13107.15
245.191	13085.22
245.262	13023.08
245.333	13112.31
245.405	13139.98
245.476	13178.06
245.547	13200.38
245.618	13259.24
245.689	13280.83
245.761	13322.58
245.832	13337.28
245.903	13387.23
245.974	13426.32
246.045	13450.76
246.117	13552.38
246.188	13538.64
246.259	13521.14
246.33	13549.25
246.401	13566.51
246.473	13538.59
246.544	13525.48
246.615	13584.92
246.686	13595.24
246.757	13686.73
246.828	13671.16
246.899	13749.69
246.97	13718.5
247.042	13718.06
247.113	13768.63
247.184	13862.15
247.255	13865.04
247.326	13889.33
247.397	13910.5
247.468	13921.01
247.539	13940.63
247.61	13888.76
247.681	13937.98
247.752	14005.22
247.823	13978.37
247.894	13999.49
247.965	13971.33
248.037	13950.89
248.108	13899.75
248.179	13913.78
248.25	13903.7
248.321	13934.94
248.392	13879.55
248.463	13975.34
248.534	13968.06
248.605	13987.44
248.675	13960.69
248.746	13985.8
248.817	14012.07
248.888	14030
248.959	13968.2
249.03	13989.85
249.101	13997.08
249.172	13989.41
249.243	13911.51
249.314	13986.47
249.385	13991.87
249.456	14033.43
249.527	14037.96
249.598	14073
249.669	14076.62
249.739	14095.66
249.81	14112.34
249.881	14074.21
249.952	14064.67
250.023	14070.5
250.094	14021.62
250.165	13995.44
250.235	13992.65
250.306	13996.12
250.377	13963.05
250.448	14005.23
250.519	13943.04
250.59	14013.04
250.66	14015.16
250.731	14096.1
250.802	14087.52
250.873	14108.97
250.944	14125.89
251.014	14117.74
251.085	14217.62
251.156	14243.46
251.227	14300.58
251.297	14357.22
251.368	14421.67
251.439	14468.72
251.51	14527.19
251.58	14511.86
251.651	14505.64
251.722	14565.12
251.792	14514.22
251.863	14526.85
251.934	14595.73
252.005	14722.22
252.075	14738.08
252.146	14794.14
252.217	14848.71
252.287	14904.1
252.358	14915.28
252.429	14993.7
252.499	14984.74
252.57	14989.94
252.641	15049.14
252.711	15052.08
252.782	15005.9
252.852	15080.27
252.923	15085.87
252.994	15101.77
253.064	15167.86
253.135	15149.83
253.205	15121.25
253.276	15204.79
253.347	15273.43
253.417	15248.9
253.488	15222.48
253.558	15203.97
253.629	15201.8
253.699	15213.32
253.77	15242.29
253.841	15237.95
253.911	15250.58
253.982	15278.44
254.052	15317.67
254.123	15323.75
254.193	15333.48
254.264	15482.95
254.334	15453.98
254.405	15414.84
254.475	15384.95
254.546	15387.03
254.616	15463.77
254.687	15506.28
254.757	15534.04
254.827	15531.73
254.898	15556.12
254.968	15575.98
255.039	15557.95
255.109	15606.54
255.18	15585.09
255.25	15507.58
255.321	15548.07
255.391	15507.92
255.461	15599.07
255.532	15509.66
255.602	15505.47
255.673	15444.44
255.743	15411.91
255.813	15336.62
255.884	15394.85
255.954	15437.07
256.024	15508.31
256.095	15505.08
256.165	15473.51
256.235	15496.69
256.306	15489.8
256.376	15545.23
256.446	15579.11
256.517	15622.64
256.587	15663.75
256.657	15686.41
256.728	15720.63
256.798	15729.6
256.868	15732.3
256.938	15699.81
257.009	15747.48
257.079	15785.7
257.149	15896.85
257.219	15826.92
257.29	15873.58
257.36	15820.17
257.43	15864.71
257.5	15798
257.571	15787.64
257.641	15831.4
257.711	15789.04
257.781	15820.8
257.852	15834.01
257.922	15772.21
257.992	15782.43
258.062	15782.34
258.132	15829.38
258.202	15831.64
258.273	15846.49
258.343	15925.05
258.413	15917.24
258.483	15930.88
258.553	15895.46
258.623	15872.32
258.693	15913.68
258.764	15984.14
258.834	16053.79
258.904	16065.51
258.974	16062.61
259.044	16079.53
259.114	16111.82
259.184	16145.61
259.254	16161.57
259.324	16108.64
259.394	16171.69
259.464	16253.33
259.535	16261.58
259.605	16261.58
259.675	16259.31
259.745	16307.8
259.815	16285.29
259.885	16285.1
259.955	16403.89
260.025	16404.9
260.095	16415.89
260.165	16446.83
260.235	16514.79
260.305	16499.6
260.375	16468.23
260.445	16564
260.515	16640.92
260.585	16692.78
260.655	16706.99
260.725	16761.55
260.795	16806.76
260.865	16883.1
260.934	16849.94
261.004	16883.39
261.074	16880.98
261.144	16945.04
261.214	16975.98
261.284	16979.83
261.354	17029.81
261.424	16985.19
261.494	17058.69
261.564	17070.79
261.634	17095.37
261.703	17028.38
261.773	17060.33
261.843	17100.24
261.913	17094.17
261.983	17033.39
262.053	17051.32
262.123	17051.95
262.192	17004.57
262.262	17052.86
262.332	17001.92
262.402	17031.7
262.472	17045.97
262.541	16984.08
262.611	17037.09
262.681	17018.69
262.751	17064.28
262.821	17072.86
262.89	17040.66
262.96	17075.51
263.03	17165.72
263.1	17195.07
263.169	17205
263.239	17237.43
263.309	17313.14
263.379	17348.56
263.448	17370.59
263.518	17395.55
263.588	17407.46
263.657	17475.36
263.727	17507.65
263.797	17516.81
263.867	17521.53
263.936	17469.48
264.006	17542.36
264.076	17533.15
264.145	17533.49
264.215	17508.57
264.285	17549.39
264.354	17500.86
264.424	17480.48
264.494	17415.66
264.563	17404.48
264.633	17502.07
264.702	17526.98
264.772	17462.65
264.842	17458.6
264.911	17494.22
264.981	17448.92
265.05	17467.52
265.12	17472.39
265.19	17487.52
265.259	17536.1
265.329	17574.6
265.398	17611.9
265.468	17713.54
265.537	17707.32
265.607	17738.31
265.676	17797.73
265.746	17817.25
265.815	17887.23
265.885	17896.04
265.955	17884.24
266.024	17883.13
266.094	17819.37
266.163	17879.66
266.232	17950.79
266.302	17957.73
266.371	17989.05
266.441	18011.75
266.51	18062.74
266.58	18057.24
266.649	18042.5
266.719	18091.55
266.788	18117.91
266.858	18189.91
266.927	18119.07
266.996	18152.8
267.066	18179.12
267.135	18142.97
267.205	18196.7
267.274	18210.73
267.343	18277.28
267.413	18301.91
267.482	18378
267.552	18444.6
267.621	18404.36
267.69	18355.93
267.76	18382.1
267.829	18400.6
267.898	18415.93
267.968	18398.87
268.037	18449.85
268.106	18504.74
268.176	18468.55
268.245	18480.26
268.314	18470.09
268.384	18533.32
268.453	18555.77
268.522	18582.23
268.592	18654.81
268.661	18632.4
268.73	18671.24
268.799	18651.29
268.869	18738.22
268.938	18689.02
269.007	18673.41
269.076	18698.61
269.146	18769.31
269.215	18806.99
269.284	18885.25
269.353	18886.75
269.422	18892.96
269.492	18887.37
269.561	18798.46
269.63	18835.81
269.699	18835.47
269.768	18855.28
269.838	18880.34
269.907	18929.25
269.976	18902.41
270.045	18843.52
270.114	18885.35
270.183	18904.33
270.253	18936.09
270.322	18887.71
270.391	18905.3
270.46	18980.91
270.529	19032.04
270.598	19073.1
270.667	19082.35
270.736	19056.9
270.806	19106.68
270.875	19179.93
270.944	19190.1
271.013	19326.91
271.082	19368.45
271.151	19408.11
271.22	19383.25
271.289	19396.16
271.358	19400.36
271.427	19451.63
271.496	19483.82
271.565	19481.75
271.634	19500.35
271.703	19555.43
271.772	19625.98
271.841	19642.99
271.91	19612.58
271.979	19632.25
272.048	19594.51
272.117	19651.91
272.186	19653.88
272.255	19708.49
272.324	19737.74
272.393	19774.65
272.462	19771.9
272.531	19790.36
272.6	19803.37
272.669	19869.59
272.738	19879.32
272.807	19911.18
272.876	19883.85
272.945	20028.82
273.013	20093.39
273.082	20154.84
273.151	20142.45
273.22	20168.81
273.289	20201.92
273.358	20287.99
273.427	20292.38
273.496	20351.03
273.564	20382.26
273.633	20439.75
273.702	20413.97
273.771	20441.1
273.84	20472.71
273.909	20513.97
273.977	20551.8
274.046	20561.25
274.115	20630.36
274.184	20620.19
274.253	20644.38
274.322	20728.09
274.39	20663.9
274.459	20665.97
274.528	20615.46
274.597	20635.7
274.665	20667.13
274.734	20737.87
274.803	20736.28
274.872	20761.97
274.94	20756.86
275.009	21000.86
275.078	20993.63
275.147	21030.26
275.215	21058.07
275.284	21127.23
275.353	21137.55
275.421	21094.89
275.49	21188.16
275.559	21195.44
275.627	21238.28
275.696	21260.4
275.765	21306.96
275.833	21329.13
275.902	21369.76
275.971	21458.88
276.039	21562.94
276.108	21627.1
276.177	21669.56
276.245	21683.3
276.314	21718.53
276.383	21786.35
276.451	21598.12
276.52	21659.43
276.588	21748.03
276.657	21798.4
276.725	21810.45
276.794	21854.94
276.863	21950.14
276.931	21917.26
277	21984.03
277.068	22049.77
277.137	22150.87
277.205	22188.08
277.274	22296.93
277.342	22371.56
277.411	22338.64
277.48	22333.96
277.548	22349.44
277.617	22382.32
277.685	22413.12
277.754	22471.06
277.822	22486.63
277.89	22578.01
277.959	22598.26
278.027	22581.34
278.096	22589.77
278.164	22726.73
278.233	22746.21
278.301	22745.58
278.37	22816.21
278.438	22815.49
278.507	22872.81
278.575	22818.57
278.643	22846.96
278.712	22821.07
278.78	22816.64
278.849	22907.65
278.917	22983.36
278.985	22991.17
279.054	23052.9
279.122	23139.01
279.191	23175.18
279.259	23206.18
279.327	23174.01
279.396	23273.78
279.464	23303.29
279.532	23378.04
279.601	23403.42
279.669	23430.33
279.737	23524.07
279.806	23578.91
279.874	23649.66
279.942	23679.41
280.011	23721.4
280.079	23792.06
280.147	23891.79
280.215	23949.18
280.284	23987.18
280.352	23976.81
280.42	24069.56
280.488	24078.2
280.557	24096.77
280.625	24158.56
280.693	24204.28
280.761	24261
280.83	24243.34
280.898	24327.07
280.966	24307.97
281.034	24246.17
281.102	24254.66
281.171	24274.34
281.239	24353.91
281.307	24377.12
281.375	24391.78
281.443	24523.49
281.512	24548.14
281.58	24613.67
281.648	24596.31
281.716	24631.71
281.784	24685.6
281.852	24698.77
281.92	24735.19
281.989	24815.64
282.057	24790.36
282.125	24992.97
282.193	25026.12
282.261	25080.4
282.329	25114.51
282.397	25167.48
282.465	25229.43
282.533	25319.11
282.601	25331.32
282.67	25284.26
282.738	25294.25
282.806	25375.26
282.874	25374.97
282.942	25441.01
283.01	25482.96
283.078	25564.51
283.146	25607.94
283.214	25680.1
283.282	25732.37
283.35	25820.33
283.418	25841.14
283.486	25895.23
283.554	25788.63
283.622	25834.44
283.69	25870.45
283.758	25893.81
283.826	25954.38
283.894	26027.28
283.962	26139.22
284.03	26238.52
284.098	26297.64
284.165	26332.49
284.233	26373.96
284.301	26404.47
284.369	26418.48
284.437	26422.1
284.505	26451.84
284.573	26551.06
284.641	26556.37
284.709	26619.26
284.777	26613.32
284.845	26685.72
284.912	26764.96
284.98	26825.56
285.048	26851.25
285.116	26923.83
285.184	27026.47
285.252	27063.51
285.319	27053.17
285.387	27069.6
285.455	27057.67
285.523	27126.01
285.591	27163
285.659	27222.8
285.726	27304.59
285.794	27307.68
285.862	27351.97
285.93	27405.59
285.997	27427.72
286.065	27456.55
286.133	27478.39
286.201	27523.27
286.269	27524.33
286.336	27540.61
286.404	27565.3
286.472	27650.39
286.539	27607.3
286.607	27597.59
286.675	27664.31
286.743	27735.86
286.81	27751.62
286.878	27847.44
286.946	27869.76
287.013	27917.44
287.081	27962.73
287.149	27948.81
287.216	28052.99
287.284	28083.97
287.352	28123.64
287.419	28155.64
287.487	28263.81
287.555	28325.55
287.622	28348.89
287.69	28415.07
287.758	28502.61
287.825	28547.51
287.893	28536.25
287.96	28608.08
288.028	28689.4
288.096	28744.14
288.163	28798.57
288.231	28813.27
288.298	28843.64
288.366	28932.56
288.433	28967.26
288.501	28984.33
288.569	29044.85
288.636	29068.69
288.704	29162.66
288.771	29235.63
288.839	29244.53
288.906	29266.78
288.974	29341.05
289.041	29380.59
289.109	29386.2
289.176	29450.75
289.244	29509.36
289.311	29611.99
289.379	29706
289.446	29749.64
289.514	29783.16
289.581	29837.74
289.649	29895.67
289.716	29955.33
289.783	29982.86
289.851	30098.71
289.918	30140.45
289.986	30223.72
290.053	30295.53
290.121	30322.68
290.188	30378.04
290.255	30536.39
290.323	30570.45
290.39	30591.51
290.458	30669.84
290.525	30755.49
290.592	30790.39
290.66	30848.56
290.727	30885.2
290.794	30979.22
290.862	31029.47
290.929	31100.39
290.996	31142.17
291.064	31226.78
291.131	31317.91
291.198	31401.58
291.266	31466.37
291.333	31521.21
291.4	31586.25
291.468	31683.36
291.535	31726.7
291.602	31788.2
291.669	31804.09
291.737	31865.97
291.804	31919.73
291.871	32028.02
291.938	32112.06
292.006	32249.15
292.073	32327.08
292.14	32412.63
292.207	32421.98
292.275	32470.75
292.342	32536.88
292.409	32672.75
292.476	32801.72
292.543	32806.61
292.611	32856.62
292.678	32946.52
292.745	33083.25
292.812	33154.74
292.879	33183.53
292.946	33230.03
293.014	33302.88
293.081	33380.77
293.148	33460.67
293.215	33556.21
293.282	33568.08
293.349	33643.52
293.416	33623.69
293.484	33725.69
293.551	33801.47
293.618	33916.84
293.685	34053.86
293.752	34082.56
293.819	34118.98
293.886	34120.34
293.953	34208.08
294.02	34305.02
294.087	34364.82
294.154	34384.12
294.221	34497.34
294.288	34550.83
294.356	34665.74
294.423	34750.33
294.49	34776.18
294.557	34877.16
294.624	34897.92
294.691	35034.54
294.758	35096.1
294.825	35177.2
294.892	35184.04
294.959	35221.35
295.026	35289.9
295.093	35314.16
295.16	35373.47
295.226	35423.59
295.293	35564.03
295.36	35631.32
295.427	35711.59
295.494	35809.38
295.561	35887.93
295.628	36006.01
295.695	36109.57
295.762	36169.45
295.829	36249.88
295.896	36348.38
295.963	36438.66
296.03	36526.54
296.096	36592.56
296.163	36677.94
296.23	36787.16
296.297	36895.63
296.364	36959.5
296.431	37030.23
296.498	37081.53
296.564	37223.79
296.631	37282.48
296.698	37281.22
296.765	37403.85
296.832	37413.17
296.899	37420.26
296.965	37545.34
297.032	37519.89
297.099	37641.69
297.166	37739.58
297.233	37785.9
297.299	37819.01
297.366	37862.77
297.433	37938.08
297.5	38020.06
297.566	38064.2
297.633	38111.56
297.7	38173.57
297.767	38229.65
297.833	38302.07
297.9	38352.57
297.967	38346.01
298.033	38459.47
298.1	38622.06
298.167	38641.73
298.234	38720.55
298.3	38811.13
298.367	38834.01
298.434	38917.47
298.5	38933.5
298.567	38964.98
298.634	39005.64
298.7	39124.01
298.767	39184.64
298.834	39278.88
298.9	39314.06
298.967	39341.31
299.033	39425.32
299.1	39524.73
299.167	39620.13
299.233	39656.28
299.3	39761.7
299.366	39884.17
299.433	39986.81
299.5	39950.31
299.566	40016.54
299.633	40120.57
299.699	40202.79
299.766	40252.59
299.832	40306.83
299.899	40383.18
299.965	40483.53
300.032	40527.21
300.099	40606.67
300.165	40678.3
300.232	40722.14
300.298	40773.9
300.365	40893.69
300.431	40953.08
300.498	40983.9
300.564	41066.33
300.631	41166.75
300.697	41262.94
300.763	41295.84
300.83	41325.31
300.896	41419.89
300.963	41512.44
301.029	41583.03
301.096	41652.02
301.162	41750.16
301.229	41803
301.295	41820.55
301.361	41878.98
301.428	41943.14
301.494	41932.4
301.561	41999.05
301.627	42056.85
301.693	42125.25
301.76	42174.94
301.826	42208.1
301.892	42298.93
301.959	42366.08
302.025	42402.35
302.092	42438.87
302.158	42528.04
302.224	42591.94
302.291	42606.19
302.357	42634.49
302.423	42660.7
302.49	42667.36
302.556	42747.12
302.622	42792.64
302.688	42883.52
302.755	42976.87
302.821	43061.32
302.887	43160.66
302.954	43207.4
303.02	43287.8
303.086	43354.23
303.152	43395.03
303.219	43416.87
303.285	43485.12
303.351	43559.46
303.417	43623.27
303.483	43642.05
303.55	43663.3
303.616	43703.78
303.682	43753.57
303.748	43779.45
303.815	43879.77
303.881	43984.31
303.947	43985.57
304.013	44039.13
304.079	44056.4
304.145	44037.67
304.212	44086.75
304.278	44113.12
304.344	44152.43
304.41	44148.49
304.476	44161.43
304.542	44197.77
304.608	44284.41
304.674	44267.04
304.741	44287.77
304.807	44334.83
304.873	44401.29
304.939	44508.63
305.005	44495.88
305.071	44532.56
305.137	44601.6
305.203	44567.19
305.269	44592.84
305.335	44691.5
305.401	44736.02
305.467	44773.78
305.533	44848.05
305.599	44920.03
305.666	44980.56
305.732	45025.09
305.798	45119.27
305.864	45258.06
305.93	45327.03
305.996	45363.19
306.062	45417.07
306.128	45456.11
306.194	45464.82
306.259	45511.7
306.325	45514.77
306.391	45600.43
306.457	45677.23
306.523	45709.16
306.589	45830.2
306.655	45855.03
306.721	45830.93
306.787	45842.02
306.853	45949.39
306.919	45931.72
306.985	45959.77
307.051	45999.98
307.117	46018.34
307.183	46022.43
307.248	45961.7
307.314	46014.44
307.38	46076.24
307.446	46145.48
307.512	46135.89
307.578	46206.89
307.644	46227.92
307.709	46271.61
307.775	46291.57
307.841	46321.86
307.907	46384.14
307.973	46356.96
308.039	46395.73
308.104	46451.93
308.17	46491.07
308.236	46466.71
308.302	46523.97
308.368	46505.22
308.433	46529.67
308.499	46553.68
308.565	46564.83
308.631	46618.4
308.696	46557.82
308.762	46545.25
308.828	46564.01
308.894	46557.82
308.959	46504.06
309.025	46509.42
309.091	46532.07
309.156	46559.84
309.222	46608.56
309.288	46588.1
309.354	46551.04
309.419	46581.74
309.485	46580.28
309.551	46622.32
309.616	46610.48
309.682	46642.44
309.748	46671.32
309.813	46708.83
309.879	46721.74
309.945	46731.04
310.01	46748.43
310.076	46810.72
310.141	46829.38
310.207	46820.32
310.273	46887.18
310.338	46945.87
310.404	46930.14
310.469	46930.87
310.535	46936.91
310.601	46901.68
310.666	46975.07
310.732	47058.55
310.797	47056.5
310.863	47061.96
310.928	47087.11
310.994	47142.94
311.059	47174.08
311.125	47202.19
311.191	47271.57
311.256	47278.78
311.322	47340.91
311.387	47317.18
311.453	48054.58
311.518	48096.93
311.584	48136.26
311.649	48182.56
311.715	48193.04
311.78	48241.75
311.846	48250.86
311.911	48304.53
311.976	48346.43
312.042	48317.38
312.107	48315.77
312.173	48322.69
312.238	48336.58
312.304	48357.49
312.369	48362.27
312.434	48358.66
312.5	48375.72
312.565	48302.63
312.631	48353.12
312.696	48356.63
312.761	48399.7
312.827	47727.23
312.892	47821.73
312.958	47849.67
313.023	47875.08
313.088	47899.93
313.154	47893.65
313.219	47906.9
313.284	47896.61
313.35	47922.4
313.415	47938.48
313.48	47945.94
313.546	47997.13
313.611	48070.7
313.676	48076.21
313.741	48079.09
313.807	48145.71
313.872	48188.9
313.937	48239.79
314.003	48311.01
314.068	48355.68
314.133	48404.93
314.198	48386.93
314.264	48338.17
314.329	48332.76
314.394	48345.05
314.459	48372.4
314.525	48464.35
314.59	48489.11
314.655	48487.99
314.72	48534.62
314.785	48580.99
314.851	48592.15
314.916	48557.09
314.981	48533.2
315.046	48539.05
315.111	48549.72
315.176	48524.5
315.242	48558.16
315.307	48576.8
315.372	48537.28
315.437	48531.37
315.502	48537.37
315.567	48615.47
315.632	48586.26
315.698	48626.01
315.763	48637.28
315.828	48642.79
315.893	48651.24
315.958	48651.28
316.023	48654.45
316.088	48620.11
316.153	48549.13
316.218	48547.08
316.283	48508.05
316.348	48452.48
316.413	48463.65
316.479	48406.88
316.544	48302.78
316.609	48193.52
316.674	48071.33
316.739	47947.37
316.804	47820.03
316.869	47688.74
316.934	47525.91
316.999	47401.13
317.064	47198.05
317.129	47030.6
317.194	46875.69
317.259	46691.84
317.324	46484.2
317.389	46287.07
317.454	46110.31
317.518	45972.77
317.583	45840.1
317.648	45707.29
317.713	45555.94
317.778	45294.31
317.843	45144.98
317.908	44965.13
317.973	44781.99
318.038	44624.86
318.103	44432.65
318.168	44274.85
318.233	44113.07
318.297	43897.99
318.362	43720.77
318.427	43526.05
318.492	43361.43
318.557	43126.8
318.622	42965.55
318.687	42822.21
318.751	42624.62
318.816	42437.89
318.881	42235.97
318.946	41975.3
319.011	41743.02
319.075	41507.74
319.14	41311.28
319.205	41089.29
319.27	40887.66
319.335	40648.66
319.399	40434.09
319.464	40272.03
319.529	40003.28
319.594	39772.9
319.658	39567.59
319.723	39318.61
319.788	39130.28
319.853	38850.23
319.917	38655.15
319.982	38353.77
320.047	38129.24
320.112	37939.61
320.176	37666.37
320.241	37442.38
320.306	37232.98
320.37	36992.84
320.435	36792.7
320.5	36591.11
320.564	36339.66
320.629	36080.71
320.694	35879.24
320.758	35622.32
320.823	35348.78
320.888	35153.44
320.952	34875.51
321.017	34626.22
321.082	34389.4
321.146	34157.99
321.211	33937.1
321.275	33689.17
321.34	33441.21
321.405	33180.99
321.469	32924.17
321.534	32669.74
321.598	32387.27
321.663	32175.07
321.727	31955.08
321.792	31677.97
321.857	31415.41
321.921	31174.07
321.986	30930.66
322.05	30603.69
322.115	30361.15
322.179	30091.05
322.244	29770.35
322.308	29539.3
322.373	29274.56
322.437	29013.26
322.502	28806.93
322.566	28538.94
322.631	28301.23
322.695	28060.92
322.76	27786.47
322.824	27537.25
322.889	27269.92
322.953	27007.02
323.018	26654.99
323.082	26318.65
323.146	26017.24
323.211	25703.1
323.275	25432.43
323.34	25153.13
323.404	24924.59
323.468	24642.2
323.533	24376.58
323.597	24101.78
323.662	23801.88
323.726	23549.95
323.79	23271.29
323.855	22909.45
323.919	22613.23
323.983	22327.24
324.048	21902.78
324.112	22063.24
324.177	21185.82
324.241	20035.72
324.305	18897.1
324.37	17785.75
324.434	16704.66
324.498	16408.52
324.562	16078.21
324.627	15694.51
324.691	15320.62
324.755	14893.04
324.82	14416.28
324.884	13906.48
324.948	13396.19
325.012	12772.25
325.077	11996.77
