Data from 20250701_urea_2M_exp3_MAYP1162681_15-59-48-820.txt Node
Date: Tue Jul 01 15:59:48 BST 2025
User: adleo
Spectrometer: MAYP116268
Trigger mode: 0
Integration Time (sec): 4.000000E0
Scans to average: 1
Electric dark correction enabled: true
Nonlinearity correction enabled: true
Boxcar width: 10
XAxis mode: Wavelengths
Number of Pixels in Spectrum: 2068
>>>>>Begin Spectral Data<<<<<
179.565	4160.62
179.642	4383.47
179.718	4554.58
179.795	4709.53
179.871	4837.03
179.948	4902.54
180.024	4984.47
180.101	5073.37
180.177	5131
180.254	5222.9
180.33	5308.73
180.407	5614.32
180.483	5943.21
180.56	6270.97
180.636	6573.96
180.712	6531.68
180.789	6571.92
180.865	6612.71
180.942	6646.75
181.018	6692.66
181.095	6746.19
181.171	6761.28
181.248	6759.88
181.324	6819.28
181.4	6845.56
181.477	6886.5
181.553	6938.78
181.63	7015.47
181.706	7074.67
181.782	7107.08
181.859	7097.47
181.935	7116.22
182.011	7102.76
182.088	7160.05
182.164	7235.16
182.24	7287.76
182.317	7316.93
182.393	7311.02
182.469	7364.84
182.546	7413.53
182.622	7429.48
182.698	7413.67
182.775	7464.57
182.851	7520.71
182.927	7486.34
183.003	7470.68
183.08	7444.48
183.156	7482.84
183.232	7474.19
183.308	7429.77
183.385	7459.52
183.461	7529.99
183.537	7539.22
183.613	7587.83
183.69	7552.3
183.766	7509.92
183.842	7538.49
183.918	7564.01
183.995	7610.69
184.071	7620.6
184.147	7601.94
184.223	7564.85
184.299	7601.73
184.375	7559.86
184.452	7582.38
184.528	7733.3
184.604	7770.36
184.68	7819.29
184.756	7843.39
184.832	7856.47
184.908	7875.65
184.985	7867.09
185.061	7804.06
185.137	7832.39
185.213	7794.11
185.289	7801.76
185.365	7779.12
185.441	7772.34
185.517	7820.54
185.593	7804.19
185.669	7801.45
185.745	7842.57
185.822	7899.67
185.898	7872.3
185.974	7906.53
186.05	7880.02
186.126	7792.67
186.202	7768.4
186.278	7753.63
186.354	7715.49
186.43	7740.99
186.506	7735.51
186.582	7736.81
186.658	7770.17
186.734	7695.71
186.81	7704.26
186.886	7716.18
186.962	7760.37
187.038	7737.58
187.114	7705.72
187.19	7740.26
187.266	7702.57
187.341	7699.44
187.417	7670.35
187.493	7672.8
187.569	7683.1
187.645	7655.45
187.721	7615.62
187.797	7645.91
187.873	7658.36
187.949	7639.48
188.025	7610.8
188.101	7623.63
188.176	7646.9
188.252	7627.53
188.328	7657.17
188.404	7654.15
188.48	7635.78
188.556	7608.61
188.632	7609.91
188.707	7617.32
188.783	7599.86
188.859	7581.36
188.935	7541.93
189.011	7572.84
189.086	7552.12
189.162	7520.1
189.238	7517.6
189.314	7503.47
189.39	7482.12
189.465	7459.57
189.541	7515.73
189.617	7462.04
189.693	7440.51
189.768	7452.44
189.844	7535.66
189.92	7508.08
189.996	7539.91
190.071	7584.19
190.147	7582.75
190.223	7622.09
190.298	7588.38
190.374	7545.25
190.45	7591.73
190.526	7627.99
190.601	7610.48
190.677	7613.03
190.753	7711.18
190.828	7725.51
190.904	7779.76
190.98	7839.45
191.055	7876.91
191.131	7852.72
191.207	7935.56
191.282	7973.97
191.358	7933.92
191.433	7884.84
191.509	7934.19
191.585	7920.72
191.66	7915.29
191.736	7943.95
191.811	7909.22
191.887	7970.71
191.963	8054.83
192.038	8073.49
192.114	8066.37
192.189	8082.04
192.265	8070.17
192.34	7994.09
192.416	7989.76
192.491	7977.49
192.567	7977.01
192.642	7985.77
192.718	7985.48
192.793	7931.42
192.869	7914.88
192.944	7928.77
193.02	7958.84
193.095	7971.39
193.171	7992.46
193.246	7993.18
193.322	7980.24
193.397	7979.86
193.473	7931.45
193.548	7863.34
193.624	7883.45
193.699	7888.16
193.775	7941.09
193.85	7947.53
193.925	7980.97
194.001	7977.6
194.076	7949.08
194.152	7917.09
194.227	7887.69
194.302	7848.9
194.378	7868.91
194.453	7860.21
194.529	7907.54
194.604	7849.39
194.679	7827.75
194.755	7759.49
194.83	7806.31
194.905	7795.88
194.981	7829.83
195.056	7804.74
195.131	7832.96
195.207	7827.67
195.282	7787.95
195.357	7720.88
195.433	7777
195.508	7733.13
195.583	7762.13
195.659	7809.65
195.734	7826.83
195.809	7828.13
195.884	7864.85
195.96	7866
196.035	7927.18
196.11	7909.62
196.185	7957.61
196.261	7971.08
196.336	8086.7
196.411	8031.84
196.486	8055.84
196.561	8029
196.637	8057.12
196.712	8111.55
196.787	8123.97
196.862	8180.14
196.937	8213.14
197.013	8232.87
197.088	8267.98
197.163	8339.21
197.238	8412.36
197.313	8414.33
197.388	8463.65
197.464	8577.77
197.539	8616.02
197.614	8586
197.689	8632.49
197.764	8690.74
197.839	8762.88
197.914	8737.56
197.989	8820.15
198.065	8868.37
198.14	9059.07
198.215	9161.22
198.29	9206.34
198.365	9247.7
198.44	9285.44
198.515	9392.72
198.59	9449.83
198.665	9544.4
198.74	9580.28
198.815	9579.94
198.89	9659.53
198.965	9768.92
199.04	9747.2
199.115	9809.36
199.19	9959.6
199.265	9968.89
199.34	10008.34
199.415	10132.84
199.49	10211.48
199.565	10245.2
199.64	10338.31
199.715	10326.26
199.79	10347.03
199.865	10368.95
199.94	10366.11
200.015	10486.89
200.09	10500.09
200.165	10525.82
200.24	10549.38
200.315	10685.68
200.39	10735.74
200.464	10759.69
200.539	10760.7
200.614	10823.62
200.689	10908
200.764	10938.94
200.839	11005.6
200.914	11017.55
200.989	10973.6
201.063	11026.03
201.138	10964.62
201.213	10957.54
201.288	10887.23
201.363	10908.05
201.438	10910.94
201.512	10971.25
201.587	10904.65
201.662	10924.41
201.737	10965.18
201.812	10996.55
201.886	10880.59
201.961	10919.43
202.036	10880.51
202.111	10872.08
202.186	10767.51
202.26	10706.74
202.335	10621.21
202.41	10598.76
202.485	10537.63
202.559	10469.75
202.634	10371.95
202.709	10397.13
202.784	10323.86
202.858	10316.44
202.933	10242.74
203.008	10213.64
203.082	10138.88
203.157	10133.92
203.232	9969.04
203.306	9890.22
203.381	9776.53
203.456	9689.21
203.53	9599.04
203.605	9520.53
203.68	9435.37
203.754	9406.54
203.829	9350.33
203.904	9279.07
203.978	9231.2
204.053	9245.17
204.127	9197.31
204.202	9192.93
204.277	9127.46
204.351	9109.51
204.426	9087.98
204.5	9060.54
204.575	8933.1
204.65	8971.97
204.724	8943.54
204.799	8975.68
204.873	8962.58
204.948	8952.09
205.022	8909.26
205.097	8878.39
205.171	8935.52
205.246	8962.05
205.32	8959.45
205.395	8949.44
205.469	8919.47
205.544	8938.78
205.618	8874.22
205.693	8919.33
205.767	8875.82
205.842	8960.7
205.916	8939.13
205.991	8903.51
206.065	8923.01
206.14	8986.54
206.214	8968.53
206.289	8939.93
206.363	8985.8
206.438	8991
206.512	9012.47
206.586	9086.31
206.661	9119.11
206.735	9040.53
206.81	9044.04
206.884	9100.89
206.958	9060.7
207.033	9121.91
207.107	9150.91
207.181	9274.67
207.256	9252.42
207.33	9320.21
207.405	9364.68
207.479	9434.45
207.553	9457.5
207.628	9397.06
207.702	9433.65
207.776	9405.14
207.851	9411.64
207.925	9465.49
207.999	9458.27
208.073	9458.8
208.148	9467.04
208.222	9429.42
208.296	9544.46
208.371	9605.16
208.445	9643.65
208.519	9747.31
208.593	9784.73
208.668	9773.89
208.742	9777.55
208.816	9784.34
208.89	9836.76
208.965	9830.49
209.039	9855.06
209.113	9923.55
209.187	10002.35
209.261	9989.78
209.336	10065.4
209.41	10145.99
209.484	10146.42
209.558	10229.43
209.632	10275.86
209.707	10314.59
209.781	10392.78
209.855	10447.99
209.929	10507.23
210.003	10526.94
210.077	10524.48
210.151	10702.17
210.226	10825.4
210.3	10926.24
210.374	11012.56
210.448	11021.77
210.522	11062.59
210.596	11104.61
210.67	11135.69
210.744	11304.41
210.818	11427.55
210.892	11506.49
210.966	11485.24
211.041	11545.63
211.115	11528.04
211.189	11617.92
211.263	11680.76
211.337	11701.1
211.411	11754.31
211.485	11736.81
211.559	11779.36
211.633	11784.61
211.707	11672.06
211.781	11695.2
211.855	11562.42
211.929	11531.92
212.003	11461.43
212.077	11491.9
212.151	11538.89
212.225	11574.32
212.299	11540.19
212.373	11486.6
212.447	11458.54
212.52	11560.14
212.594	11569.3
212.668	11610.02
212.742	11548.62
212.816	11526.3
212.89	11499.8
212.964	11489.53
213.038	11487.7
213.112	11529.06
213.186	11579.94
213.26	11493.03
213.333	11316.56
213.407	11326.01
213.481	11325.43
213.555	11365.31
213.629	11314.71
213.703	11241.73
213.777	11221.88
213.85	11133.92
213.924	11249.84
213.998	11247.33
214.072	11206.17
214.146	11140.72
214.219	11115.8
214.293	11096.05
214.367	11081.11
214.441	11104.33
214.515	11051.41
214.588	10956.1
214.662	10810.44
214.736	10725.83
214.81	10741.05
214.883	10762.05
214.957	10703.28
215.031	10645.73
215.105	10541.87
215.178	10471
215.252	10421.85
215.326	10312.35
215.4	10220.17
215.473	10025.51
215.547	9933.28
215.621	9860.23
215.694	9852.18
215.768	9742.79
215.842	9666.6
215.915	9598.63
215.989	9471.17
216.063	9400.74
216.136	9380.03
216.21	9354.32
216.284	9360.92
216.357	9332.03
216.431	9284.94
216.504	9284.89
216.578	9343.84
216.652	9354.38
216.725	9331.41
216.799	9343.35
216.873	9326.31
216.946	9330.83
217.02	9286.56
217.093	9245.39
217.167	9137.99
217.24	9051.07
217.314	9011.85
217.387	8958.45
217.461	8904.87
217.535	8936.98
217.608	8870.26
217.682	8836.03
217.755	8856.73
217.829	8793.32
217.902	8775.17
217.976	8760.06
218.049	8705.67
218.123	8622.46
218.196	8622.6
218.27	8582.27
218.343	8501.76
218.417	8493
218.49	8472.26
218.563	8514.03
218.637	8522.55
218.71	8601.82
218.784	8631.77
218.857	8674.4
218.931	8704.22
219.004	8708.89
219.077	8721.46
219.151	8747.59
219.224	8736.33
219.298	8726.41
219.371	8776.67
219.444	8738.37
219.518	8741.21
219.591	8767.39
219.665	8874.16
219.738	8887.16
219.811	8868.35
219.885	8915.9
219.958	8952.54
220.031	8953.36
220.105	8984.61
220.178	8999.24
220.251	8973.77
220.325	8995.73
220.398	9013.02
220.471	9037.22
220.544	9076.75
220.618	9053.92
220.691	9082.85
220.764	9106.44
220.838	9134.65
220.911	9118.33
220.984	9209.4
221.057	9254.42
221.131	9278.29
221.204	9174.11
221.277	9251.07
221.35	9384.35
221.424	9377.08
221.497	9383.39
221.57	9408.94
221.643	9441.51
221.716	9488.03
221.79	9496.99
221.863	9509.51
221.936	9518.08
222.009	9532
222.082	9568.6
222.155	9578.71
222.229	9650.49
222.302	9686.65
222.375	9690.94
222.448	9736.55
222.521	9747
222.594	9751.48
222.667	9721.3
222.74	9785.63
222.814	9779.66
222.887	9764.24
222.96	9829.12
223.033	9880.33
223.106	9911.19
223.179	9944.63
223.252	9962.99
223.325	9992.41
223.398	10007.06
223.471	10045.44
223.544	10069.19
223.617	10083.78
223.69	10110.42
223.763	10066.09
223.837	10091.58
223.91	10129.44
223.983	10076.99
224.056	10039.42
224.129	10062.78
224.202	10127.06
224.275	10115.79
224.348	10085.44
224.42	10047.53
224.493	9984.53
224.566	9961.55
224.639	9983.56
224.712	9946.99
224.785	9930.46
224.858	9926.8
224.931	9914.42
225.004	9869.82
225.077	9873.91
225.15	9777.03
225.223	9776.83
225.296	9869.16
225.369	9809.24
225.442	9773.45
225.514	9793.48
225.587	9818.09
225.66	9823.68
225.733	9820.98
225.806	9835.92
225.879	9833.03
225.952	9801.58
226.025	9853.89
226.097	9912.29
226.17	9910.22
226.243	9844.83
226.316	9846.75
226.389	9856.63
226.461	9874.21
226.534	9894.68
226.607	9880.71
226.68	9977.31
226.753	9972.59
226.825	9887.06
226.898	9949.86
226.971	9955.26
227.044	9981.46
227.117	9984.54
227.189	10007.52
227.262	10053.58
227.335	10071.84
227.407	10065.05
227.48	10104.3
227.553	10122.36
227.626	10098.89
227.698	10103.37
227.771	10149.55
227.844	10121.37
227.916	10137.08
227.989	10098.35
228.062	10098.11
228.134	10202.75
228.207	10204.34
228.28	10199.19
228.352	10212.34
228.425	10224.39
228.498	10285.96
228.57	10262.89
228.643	10335.16
228.716	10334.92
228.788	10326.44
228.861	10323.12
228.934	10395.18
229.006	10405.06
229.079	10404.1
229.151	10391.23
229.224	10361.75
229.296	10392.54
229.369	10505.68
229.442	10563.27
229.514	10548.87
229.587	10600.51
229.659	10514.7
229.732	10530.07
229.804	10583.93
229.877	10674.87
229.949	10706.53
230.022	10754.34
230.094	10759.88
230.167	10741.71
230.239	10693.15
230.312	10680.86
230.384	10763.61
230.457	10761.35
230.529	10771.42
230.602	10777.53
230.674	10793
230.747	10841.46
230.819	10872.83
230.892	10742.88
230.964	10741.91
231.037	10778.95
231.109	10772.64
231.181	10817.06
231.254	10785.26
231.326	10765.36
231.399	10729.59
231.471	10702.65
231.544	10617.88
231.616	10672.32
231.688	10687.99
231.761	10684.95
231.833	10674.69
231.905	10580.43
231.978	10578.6
232.05	10567.37
232.122	10568.38
232.195	10544.58
232.267	10583.37
232.339	10559.86
232.412	10642.04
232.484	10617.22
232.556	10588.37
232.629	10664.43
232.701	10688.86
232.773	10698.64
232.846	10690.3
232.918	10709.39
232.99	10728.47
233.062	10779.36
233.135	10792.47
233.207	10753.58
233.279	10802.81
233.351	10841.94
233.424	10844.1
233.496	10820.16
233.568	10912.97
233.64	10878.47
233.713	10901.41
233.785	10898.85
233.857	10917.36
233.929	10865.08
234.001	10939.88
234.074	11015.37
234.146	10935.56
234.218	10934.31
234.29	10936.24
234.362	10924.05
234.434	10871.61
234.507	10833.55
234.579	10785.55
234.651	10763.48
234.723	10798.85
234.795	10818.61
234.867	10810.95
234.939	10879.76
235.012	10906.65
235.084	10908.24
235.156	10956.09
235.228	10939.99
235.3	10929.34
235.372	10951.94
235.444	11013.67
235.516	10931.68
235.588	10941.95
235.66	10967.54
235.732	10943.1
235.804	11158.66
235.876	11213.87
235.948	11287.61
236.02	11311.95
236.092	11322.21
236.164	11338.02
236.236	11336.62
236.308	11343.03
236.38	11379.27
236.452	11357.15
236.524	11382.64
236.596	11458.56
236.668	11491.34
236.74	11520.49
236.812	11552.73
236.884	11587.29
236.956	11609.41
237.028	11605.61
237.1	11593.08
237.172	11675.4
237.244	11762.59
237.316	11636.58
237.388	11619.48
237.46	11592.73
237.532	11657.98
237.604	11659.43
237.675	11752.6
237.747	11811.89
237.819	11801.81
237.891	11808.03
237.963	11802.01
238.035	11805.14
238.107	11684.2
238.178	11756.94
238.25	11767.54
238.322	11866.89
238.394	11822.79
238.466	11822.94
238.538	11875.47
238.609	11924.53
238.681	11868.04
238.753	11847.94
238.825	11878.69
238.897	11916.62
238.968	12014.33
239.04	11999.05
239.112	12122.34
239.184	12075.05
239.255	12070.19
239.327	12108.21
239.399	12140.41
239.471	12201.09
239.542	12240.04
239.614	12327.04
239.686	12243.21
239.758	12300.62
239.829	12268.56
239.901	12341.83
239.973	12360.87
240.044	12397.36
240.116	12417.03
240.188	12441.71
240.259	12458.19
240.331	12455.97
240.403	12504.8
240.474	12453.85
240.546	12448.69
240.618	12383.04
240.689	12389.93
240.761	12422.42
240.833	12504.22
240.904	12504.42
240.976	12505.19
241.048	12527.8
241.119	12568.34
241.191	12623.09
241.262	12699.55
241.334	12711.41
241.405	12724.38
241.477	12732.23
241.549	12746.69
241.62	12782.95
241.692	12821.99
241.763	12896.76
241.835	12922.36
241.906	12948.48
241.978	12927.56
242.049	13009.61
242.121	13083.22
242.192	13164.78
242.264	13127.61
242.335	13073.62
242.407	13130.94
242.478	13145.11
242.55	13171.14
242.621	13157.5
242.693	13161.65
242.764	13156.97
242.836	13155.52
242.907	13191.1
242.979	13231.02
243.05	13258.88
243.122	13284.77
243.193	13291.76
243.264	13211.01
243.336	13216.6
243.407	13261
243.479	13347.34
243.55	13368.16
243.622	13391.4
243.693	13386.19
243.764	13461.25
243.836	13443.37
243.907	13436.23
243.978	13446.16
244.05	13477.88
244.121	13427.41
244.192	13481.98
244.264	13432.23
244.335	13453.63
244.407	13406.97
244.478	13431.56
244.549	13427.55
244.62	13382.29
244.692	13386.87
244.763	13438.11
244.834	13430.16
244.906	13402.44
244.977	13429.67
245.048	13496.68
245.119	13478.36
245.191	13456.86
245.262	13394.72
245.333	13483.23
245.405	13512.01
245.476	13547.68
245.547	13572.65
245.618	13643.37
245.689	13650.55
245.761	13693.26
245.832	13704.01
245.903	13754.15
245.974	13786.4
246.045	13807.37
246.117	13902.72
246.188	13885.8
246.259	13884.83
246.33	13898.62
246.401	13917.28
246.473	13888.5
246.544	13870.52
246.615	13942.3
246.686	13957.34
246.757	14049.51
246.828	14034.27
246.899	14106.43
246.97	14076.59
247.042	14071.1
247.113	14123.64
247.184	14234.31
247.255	14243.04
247.326	14284.69
247.397	14298.81
247.468	14313.61
247.539	14337.04
247.61	14292.79
247.681	14348.75
247.752	14409.88
247.823	14392.14
247.894	14415.18
247.965	14385.44
248.037	14378.06
248.108	14318.43
248.179	14325.76
248.25	14315.49
248.321	14345.67
248.392	14302.38
248.463	14399.09
248.534	14399.76
248.605	14424.63
248.675	14395.23
248.746	14417.45
248.817	14437.99
248.888	14467.54
248.959	14413.07
249.03	14440.3
249.101	14459.25
249.172	14455.2
249.243	14378.36
249.314	14460.21
249.385	14465.51
249.456	14496.12
249.527	14479.44
249.598	14515.5
249.669	14525.29
249.739	14547.7
249.81	14573.06
249.881	14526.49
249.952	14522.35
250.023	14512.37
250.094	14452.6
250.165	14422.33
250.235	14416.64
250.306	14411.05
250.377	14370.65
250.448	14397.89
250.519	14330.45
250.59	14389.21
250.66	14390.22
250.731	14475.06
250.802	14467.11
250.873	14495.55
250.944	14526.3
251.014	14530.64
251.085	14629.45
251.156	14663.44
251.227	14724.41
251.297	14777.82
251.368	14829.74
251.439	14872.45
251.51	14943.55
251.58	14930.39
251.651	14932.12
251.722	14993.29
251.792	14949.28
251.863	14961.72
251.934	15033.44
252.005	15166
252.075	15176.85
252.146	15228.81
252.217	15278.27
252.287	15334.37
252.358	15341.46
252.429	15429.43
252.499	15430.44
252.57	15439.59
252.641	15493.77
252.711	15501.29
252.782	15459.02
252.852	15559.66
252.923	15565.64
252.994	15584.29
253.064	15645.51
253.135	15618.03
253.205	15595.91
253.276	15680.41
253.347	15748.38
253.417	15729.67
253.488	15703.55
253.558	15693.86
253.629	15700.23
253.699	15713.87
253.77	15747.27
253.841	15745.39
253.911	15754.5
253.982	15770.93
254.052	15807.37
254.123	15811.03
254.193	15814.65
254.264	15966.85
254.334	15921.16
254.405	15886.07
254.475	15841.82
254.546	15849.97
254.616	15930.22
254.687	15967.38
254.757	15996.16
254.827	16006.33
254.898	16033.56
254.968	16049.28
255.039	16036.98
255.109	16080.94
255.18	16056.22
255.25	15982.42
255.321	16023.73
255.391	15982.04
255.461	16071.6
255.532	15980.7
255.602	15979.88
255.673	15925.41
255.743	15886.47
255.813	15817.78
255.884	15874.47
255.954	15929.27
256.024	16013.04
256.095	16017.76
256.165	15980.79
256.235	16005.42
256.306	15983.01
256.376	16044.99
256.446	16080.22
256.517	16120.32
256.587	16174.69
256.657	16202.45
256.728	16226.21
256.798	16235.37
256.868	16238.12
256.938	16219.27
257.009	16273.59
257.079	16311.23
257.149	16419.92
257.219	16360.4
257.29	16407.01
257.36	16351.29
257.43	16393.37
257.5	16322.76
257.571	16306.27
257.641	16358.14
257.711	16323.2
257.781	16368.84
257.852	16388.79
257.922	16336.3
257.992	16345.56
258.062	16337.46
258.132	16385.99
258.202	16397.56
258.273	16420.12
258.343	16499.54
258.413	16484.12
258.483	16496.32
258.553	16469.9
258.623	16445.61
258.693	16479.3
258.764	16548.23
258.834	16618.84
258.904	16641.49
258.974	16631.9
259.044	16646.98
259.114	16671.66
259.184	16709.93
259.254	16731.04
259.324	16671.23
259.394	16714.94
259.464	16801.69
259.535	16812.29
259.605	16803.18
259.675	16802.89
259.745	16840.34
259.815	16818.51
259.885	16821.79
259.955	16949.11
260.025	16943.03
260.095	16955.71
260.165	16985.45
260.235	17063.47
260.305	17053.15
260.375	17024.72
260.445	17125.45
260.515	17205.93
260.585	17270.17
260.655	17278.8
260.725	17316.83
260.795	17359.38
260.865	17443.09
260.934	17405.21
261.004	17441.12
261.074	17451.91
261.144	17507.96
261.214	17544.83
261.284	17548.93
261.354	17599.63
261.424	17547.49
261.494	17631.25
261.564	17644.41
261.634	17676.21
261.703	17596.55
261.773	17621.76
261.843	17657.52
261.913	17644.22
261.983	17577.71
262.053	17594.43
262.123	17591.25
262.192	17554.05
262.262	17602.29
262.332	17546.63
262.402	17579.93
262.472	17581.37
262.541	17518.91
262.611	17580.11
262.681	17549.61
262.751	17593.9
262.821	17590.57
262.89	17555.49
262.96	17578.67
263.03	17659.58
263.1	17679.15
263.169	17704.5
263.239	17750.13
263.309	17818.47
263.379	17864.78
263.448	17889.94
263.518	17911.67
263.588	17924.59
263.657	18002.8
263.727	18037.98
263.797	18054.99
263.867	18060.34
263.936	18025.4
264.006	18093.17
264.076	18086.23
264.145	18088.64
264.215	18068.49
264.285	18125.99
264.354	18079.58
264.424	18063
264.494	18008.98
264.563	18001.17
264.633	18096.06
264.702	18124.3
264.772	18055.19
264.842	18036.93
264.911	18075.34
264.981	18030.76
265.05	18055.77
265.12	18046.91
265.19	18065.27
265.259	18115.34
265.329	18149.26
265.398	18181.07
265.468	18291.62
265.537	18281.02
265.607	18320.87
265.676	18377.44
265.746	18391.56
265.815	18466.94
265.885	18480.77
265.955	18459.52
266.024	18456
266.094	18384.72
266.163	18448.96
266.232	18527.17
266.302	18535.13
266.371	18566.5
266.441	18595.17
266.51	18642.3
266.58	18647.79
266.649	18630.21
266.719	18685.67
266.788	18719.4
266.858	18788.32
266.927	18704.61
266.996	18738.25
267.066	18777.38
267.135	18741.57
267.205	18792.89
267.274	18802.72
267.343	18862.43
267.413	18891.83
267.482	18970.14
267.552	19043
267.621	18985.7
267.69	18937.18
267.76	18983.58
267.829	19005.51
267.898	19025.22
267.968	19002.09
268.037	19041.89
268.106	19099.48
268.176	19067.77
268.245	19075.63
268.314	19073.7
268.384	19149.98
268.453	19170.61
268.522	19191.57
268.592	19266.46
268.661	19251.28
268.73	19280.24
268.799	19260.96
268.869	19345.2
268.938	19300.43
269.007	19286.6
269.076	19317.25
269.146	19387.37
269.215	19417.1
269.284	19507.12
269.353	19500.47
269.422	19517.15
269.492	19519.22
269.561	19433.05
269.63	19462.59
269.699	19462.74
269.768	19483.65
269.838	19499.27
269.907	19545.82
269.976	19510.35
270.045	19443.08
270.114	19481.97
270.183	19499.89
270.253	19535.36
270.322	19491.7
270.391	19513.97
270.46	19591.22
270.529	19625.72
270.598	19660.71
270.667	19663.94
270.736	19621.82
270.806	19668.66
270.875	19730.49
270.944	19746.63
271.013	19879.06
271.082	19914
271.151	19954.09
271.22	19914.43
271.289	19930.82
271.358	19941.57
271.427	19978.05
271.496	20011.73
271.565	20010.91
271.634	20047.44
271.703	20184.71
271.772	20250.78
271.841	20262.63
271.91	20222.73
271.979	20245.81
272.048	20215.65
272.117	20272.32
272.186	20280.95
272.255	20330.87
272.324	20378.73
272.393	20412.03
272.462	20411.16
272.531	20429.29
272.6	20445.86
272.669	20521.14
272.738	20531.69
272.807	20563.5
272.876	20551.98
272.945	20713.1
273.013	20775.32
273.082	20836.53
273.151	20743.12
273.22	20777.09
273.289	20808.95
273.358	20901.77
273.427	20916.71
273.496	20975.03
273.564	21007.47
273.633	21061.2
273.702	21045.06
273.771	21055.13
273.84	21093.06
273.909	21124.05
273.977	21171.48
274.046	21185.27
274.115	21243.87
274.184	21237.37
274.253	21253.95
274.322	21344.84
274.39	21272.54
274.459	21269.02
274.528	21210.32
274.597	21217.69
274.665	21249.94
274.734	21321.75
274.803	21328.69
274.872	21364.45
274.94	21370.19
275.009	21611.91
275.078	21607.29
275.147	21636.21
275.215	21664.31
275.284	21736.66
275.353	21749.48
275.421	21704.08
275.49	21802.33
275.559	21809.22
275.627	21845.27
275.696	21865.22
275.765	21903.35
275.833	21917.18
275.902	21950.3
275.971	22046.02
276.039	22156.22
276.108	22215.18
276.177	22252.93
276.245	22256.35
276.314	22276.74
276.383	22330.58
276.451	22148.2
276.52	22196.41
276.588	22294.08
276.657	22357.81
276.725	22359.16
276.794	22409.21
276.863	22503.83
276.931	22468.35
277	22548.82
277.068	22621.85
277.137	22736.51
277.205	22774.3
277.274	22889.67
277.342	22980.32
277.411	22946.96
277.48	22944.46
277.548	22949.13
277.617	22995.9
277.685	23017.69
277.754	23086.26
277.822	23116
277.89	23218.01
277.959	23239.32
278.027	23215.94
278.096	23207.79
278.164	23342.94
278.233	23363.29
278.301	23363
278.37	23431.23
278.438	23419.71
278.507	23472.65
278.575	23419.46
278.643	23442.94
278.712	23427.37
278.78	23416.56
278.849	23503.73
278.917	23581.67
278.985	23620.98
279.054	23673.79
279.122	23772.56
279.191	23810.23
279.259	23820.26
279.327	23774.86
279.396	23884.69
279.464	23921.91
279.532	24000.68
279.601	24024.09
279.669	24052.11
279.737	24152.29
279.806	24198.55
279.874	24270.71
279.942	24310.56
280.011	24349.71
280.079	24427.23
280.147	24523.08
280.215	24583.92
280.284	24613.24
280.352	24602
280.42	24673.26
280.488	24685.46
280.557	24693.14
280.625	24741.48
280.693	24805.68
280.761	24859.66
280.83	24841.18
280.898	24928.89
280.966	24905.06
281.034	24836.82
281.102	24838.13
281.171	24865
281.239	24934.41
281.307	24950.53
281.375	24959.07
281.443	25082.8
281.512	25114.22
281.58	25187.4
281.648	25178.71
281.716	25228.41
281.784	25290.8
281.852	25297.22
281.92	25341.72
281.989	25431.98
282.057	25417.4
282.125	25616.75
282.193	25664.01
282.261	25715.59
282.329	25742.58
282.397	25795.8
282.465	25859.01
282.533	25954.22
282.601	25960.78
282.67	25917.72
282.738	25942.1
282.806	26012.27
282.874	26009.33
282.942	26066.25
283.01	26074.8
283.078	26150.24
283.146	26186.64
283.214	26257.71
283.282	26318.69
283.35	26402.14
283.418	26419.33
283.486	26488.21
283.554	26382.45
283.622	26418.13
283.69	26459.36
283.758	26487.9
283.826	26564.13
283.894	26643.37
283.962	26752.64
284.03	26843.47
284.098	26911.69
284.165	26951.38
284.233	27005.61
284.301	27038.16
284.369	27055.65
284.437	27076.27
284.505	27097.95
284.573	27192.09
284.641	27197.88
284.709	27272.72
284.777	27245
284.845	27322.02
284.912	27382.64
284.98	27448.09
285.048	27481.08
285.116	27544.56
285.184	27632.25
285.252	27674.96
285.319	27660.22
285.387	27673.42
285.455	27661.24
285.523	27728.64
285.591	27759.75
285.659	27805.65
285.726	27897.28
285.794	27892.06
285.862	27934.39
285.93	27982.65
285.997	28020.11
286.065	28048.13
286.133	28060.65
286.201	28108.73
286.269	28104.08
286.336	28111.67
286.404	28133.08
286.472	28226.28
286.539	28198.07
286.607	28185.79
286.675	28233.45
286.743	28310.67
286.81	28340.7
286.878	28434.13
286.946	28445.53
287.013	28488.92
287.081	28535.68
287.149	28521.03
287.216	28641.78
287.284	28669.72
287.352	28708.78
287.419	28727.68
287.487	28826.08
287.555	28889
287.622	28931.54
287.69	28993.09
287.758	29083.07
287.825	29113.67
287.893	29100.23
287.96	29173.01
288.028	29255.94
288.096	29305.08
288.163	29363.55
288.231	29368.97
288.298	29406.41
288.366	29496.56
288.433	29543.26
288.501	29566.63
288.569	29631.09
288.636	29655.48
288.704	29741
288.771	29826.62
288.839	29849.35
288.906	29877.9
288.974	29949.54
289.041	29991.03
289.109	30002.4
289.176	30079.74
289.244	30148.28
289.311	30241.82
289.379	30332.82
289.446	30392.3
289.514	30441.61
289.581	30488.26
289.649	30553.05
289.716	30605.9
289.783	30633.29
289.851	30751.32
289.918	30793.95
289.986	30877.98
290.053	30931.42
290.121	30981.87
290.188	31037.06
290.255	31195.67
290.323	31223.7
290.39	31259.54
290.458	31335.67
290.525	31439.8
290.592	31477.63
290.66	31527.63
290.727	31560.56
290.794	31647.83
290.862	31690.78
290.929	31750.64
290.996	31800.51
291.064	31869.95
291.131	31972.79
291.198	32075.19
291.266	32106
291.333	32154.46
291.4	32212.93
291.468	32320.01
291.535	32350.14
291.602	32406.23
291.669	32407.11
291.737	32453.74
291.804	32491.24
291.871	32592.21
291.938	32660.59
292.006	32802.72
292.073	32887.94
292.14	32968.91
292.207	32983.93
292.275	33029.48
292.342	33103.14
292.409	33230.86
292.476	33364.8
292.543	33366.79
292.611	33409.93
292.678	33503.04
292.745	33639.66
292.812	33717.09
292.879	33744.04
292.946	33793.91
293.014	33881.61
293.081	33967.91
293.148	34069.84
293.215	34174.52
293.282	34203.8
293.349	34273.54
293.416	34239.93
293.484	34342.64
293.551	34421.25
293.618	34536.66
293.685	34684.48
293.752	34718.72
293.819	34759.08
293.886	34760.1
293.953	34833.41
294.02	34917.91
294.087	35003.97
294.154	35026.48
294.221	35136.82
294.288	35194.54
294.356	35321.71
294.423	35395.32
294.49	35410.45
294.557	35504.42
294.624	35519.32
294.691	35638.71
294.758	35696.8
294.825	35786.16
294.892	35802.95
294.959	35856.13
295.026	35939.03
295.093	35963.59
295.16	36019.38
295.226	36072.81
295.293	36211.82
295.36	36288.58
295.427	36373.04
295.494	36466.74
295.561	36556.03
295.628	36678.85
295.695	36779.62
295.762	36845.2
295.829	36933.9
295.896	37056.5
295.963	37143.06
296.03	37241.11
296.096	37295.63
296.163	37387.83
296.23	37488.68
296.297	37591.74
296.364	37645.67
296.431	37699.18
296.498	37744.62
296.564	37891.15
296.631	37948.14
296.698	37949.84
296.765	38076.54
296.832	38094.75
296.899	38092.9
296.965	38199.55
297.032	38162.04
297.099	38291.11
297.166	38363.81
297.233	38391.35
297.299	38413.69
297.366	38465.52
297.433	38520.69
297.5	38615.21
297.566	38667.33
297.633	38713.14
297.7	38778.91
297.767	38825.28
297.833	38916.18
297.9	38979.12
297.967	38971.2
298.033	39079.39
298.1	39248.18
298.167	39261.88
298.234	39336.2
298.3	39439.14
298.367	39488.45
298.434	39585.09
298.5	39587.28
298.567	39627.7
298.634	39676.77
298.7	39783.55
298.767	39838.3
298.834	39933.05
298.9	39968.62
298.967	40000.69
299.033	40082.71
299.1	40178.74
299.167	40280.87
299.233	40303.37
299.3	40399.04
299.366	40512.59
299.433	40612.48
299.5	40567.47
299.566	40636.38
299.633	40745.92
299.699	40826.7
299.766	40858.09
299.832	40915.31
299.899	41003.24
299.965	41102.48
300.032	41146.65
300.099	41235.46
300.165	41322.66
300.232	41356.44
300.298	41408.69
300.365	41507.41
300.431	41566.96
300.498	41594.77
300.564	41662.97
300.631	41755.33
300.697	41863.32
300.763	41909.11
300.83	41946.35
300.896	42044.5
300.963	42144.17
301.029	42205
301.096	42281.1
301.162	42386.16
301.229	42432.89
301.295	42441.79
301.361	42515.36
301.428	42592.65
301.494	42587.74
301.561	42644.93
301.627	42728.41
301.693	42794.68
301.76	42869.86
301.826	42911.54
301.892	43007.73
301.959	43100.77
302.025	43139.92
302.092	43166.48
302.158	43249.49
302.224	43308.49
302.291	43322.88
302.357	43351.68
302.423	43384.9
302.49	43389.66
302.556	43468.62
302.622	43518.52
302.688	43622.71
302.755	43703.87
302.821	43786.45
302.887	43893.54
302.954	43945.4
303.02	44025.04
303.086	44083.61
303.152	44115.33
303.219	44151.32
303.285	44216.14
303.351	44282.66
303.417	44350.63
303.483	44374.22
303.55	44401.56
303.616	44466.92
303.682	44539.26
303.748	44558.86
303.815	44672.5
303.881	44763.93
303.947	44778.73
304.013	44831.09
304.079	44840.19
304.145	44827.97
304.212	44861.59
304.278	44870.45
304.344	44911.91
304.41	44908.89
304.476	44947.92
304.542	44987.43
304.608	45059.85
304.674	45052.79
304.741	45082.15
304.807	45125.52
304.873	45191.56
304.939	45282.38
305.005	45242.81
305.071	45267.68
305.137	45331.72
305.203	45286.44
305.269	45316.04
305.335	45411.53
305.401	45453.4
305.467	45487.9
305.533	45563.27
305.599	45656.89
305.666	45728.83
305.732	45774.99
305.798	45862.52
305.864	45993.39
305.93	46052.55
305.996	46098.56
306.062	46151.68
306.128	46185.87
306.194	46198.77
306.259	46244.94
306.325	46264.22
306.391	46355.46
306.457	46440.82
306.523	46499.1
306.589	46629.4
306.655	46666.32
306.721	46630.66
306.787	46626.33
306.853	46718.19
306.919	46702.26
306.985	46698.12
307.051	46729.68
307.117	46733.48
307.183	46746.09
307.248	46672.92
307.314	46731.72
307.38	46775.03
307.446	46835.69
307.512	46840.36
307.578	46895.6
307.644	46923.52
307.709	46983.6
307.775	47012.78
307.841	47031.78
307.907	47067.93
307.973	47030.4
308.039	47064.61
308.104	47125.65
308.17	47172.26
308.236	47171.77
308.302	47220.34
308.368	47226.08
308.433	47259.26
308.499	47286.93
308.565	47295.55
308.631	47360.79
308.696	47315.96
308.762	47322.93
308.828	47349.84
308.894	47321.15
308.959	47285.54
309.025	47286.76
309.091	47298.95
309.156	47310.11
309.222	47351.2
309.288	47354.8
309.354	47329.91
309.419	47361.35
309.485	47348.87
309.551	47397.56
309.616	47379.63
309.682	47404.04
309.748	47436.44
309.813	47453.89
309.879	47478.45
309.945	47474.8
310.01	47489.96
310.076	47537.76
310.141	47549.8
310.207	47541.66
310.273	47614.1
310.338	47680.71
310.404	47670.92
310.469	47654.93
310.535	47658.09
310.601	47625.05
310.666	47674.33
310.732	47745.58
310.797	47738.56
310.863	47752.5
310.928	47773.71
310.994	47833.66
311.059	47863.74
311.125	47892.99
311.191	47971.47
311.256	47972.3
311.322	48053.27
311.387	48022.51
311.453	48722.58
311.518	48766.32
311.584	48792.36
311.649	48842.88
311.715	48838.69
311.78	48880.31
311.846	48892.11
311.911	48963.51
311.976	49007.92
312.042	48990.17
312.107	48990.56
312.173	49015.87
312.238	49035.07
312.304	49061.36
312.369	49073.65
312.434	49077.11
312.5	49076.19
312.565	49005.41
312.631	49055.09
312.696	49058.55
312.761	49102.91
312.827	48450.58
312.892	48528.49
312.958	48555.71
313.023	48573.28
313.088	48614.14
313.154	48603.51
313.219	48605.07
313.284	48599.75
313.35	48616.33
313.415	48628.28
313.48	48636.52
313.546	48668.14
313.611	48730.03
313.676	48740.62
313.741	48740.62
313.807	48811.08
313.872	48864.25
313.937	48930.49
314.003	49002.43
314.068	49036.63
314.133	49088.2
314.198	49101.27
314.264	49071.87
314.329	49079.44
314.394	49095.15
314.459	49118.81
314.525	49219.94
314.59	49251.64
314.655	49252.47
314.72	49311.18
314.785	49348.74
314.851	49368.11
314.916	49332.44
314.981	49308.97
315.046	49307.07
315.111	49300.97
315.176	49283.2
315.242	49330.02
315.307	49346.42
315.372	49321.81
315.437	49318.93
315.502	49328.84
315.567	49392.36
315.632	49364.39
315.698	49395.48
315.763	49414.28
315.828	49414.62
315.893	49418.58
315.958	49433.07
316.023	49416.77
316.088	49366.21
316.153	49316.8
316.218	49305.48
316.283	49262.14
316.348	49214.05
316.413	49212.44
316.479	49169.93
316.544	49047.25
316.609	48924.79
316.674	48796.63
316.739	48650.22
316.804	48522.57
316.869	48378.5
316.934	48218.11
316.999	48084.84
317.064	47885.06
317.129	47709.38
317.194	47543.54
317.259	47343.07
317.324	47138.31
317.389	46949.49
317.454	46778.71
317.518	46615.94
317.583	46489.3
317.648	46373.53
317.713	46210.88
317.778	45957.41
317.843	45812.79
317.908	45638.06
317.973	45457.04
318.038	45298.26
318.103	45119.52
318.168	44949.86
318.233	44784.59
318.297	44555.68
318.362	44367.47
318.427	44165.75
318.492	44014.75
318.557	43788.97
318.622	43619.33
318.687	43459.52
318.751	43261.07
318.816	43071.87
318.881	42878.52
318.946	42616.81
319.011	42365.41
319.075	42143.22
319.14	41940.99
319.205	41707.03
319.27	41508.14
319.335	41266.85
319.399	41045.83
319.464	40864.64
319.529	40600.42
319.594	40376.47
319.658	40172.05
319.723	39940.23
319.788	39744.29
319.853	39450.18
319.917	39247.58
319.982	38967.81
320.047	38736.89
320.112	38534.06
320.176	38267.28
320.241	38044.17
320.306	37828.01
320.37	37588.61
320.435	37378.18
320.5	37175.04
320.564	36927.08
320.629	36679.5
320.694	36462.07
320.758	36201.16
320.823	35935.33
320.888	35735.34
320.952	35450.91
321.017	35195.75
321.082	34941.98
321.146	34714.73
321.211	34482.73
321.275	34231.39
321.34	33970.7
321.405	33708.15
321.469	33445.37
321.534	33174.07
321.598	32877.53
321.663	32652.72
321.727	32428.16
321.792	32134.09
321.857	31861.01
321.921	31628.1
321.986	31363.83
322.05	31048.63
322.115	30810.37
322.179	30538.3
322.244	30221.04
322.308	29993.66
322.373	29717.66
322.437	29464.25
322.502	29254.57
322.566	28982.08
322.631	28737.78
322.695	28488.96
322.76	28210.59
322.824	27964.72
322.889	27698.85
322.953	27437.54
323.018	27075.36
323.082	26724.72
323.146	26428.72
323.211	26120.91
323.275	25824.72
323.34	25539.68
323.404	25301.1
323.468	25007.06
323.533	24739.89
323.597	24456.7
323.662	24141.19
323.726	23890.01
323.79	23596.21
323.855	23228.23
323.919	22930.35
323.983	22640.66
324.048	22209.63
324.112	22406.9
324.177	21519.27
324.241	20353.4
324.305	19197.85
324.37	18076.13
324.434	16987.29
324.498	16688.92
324.562	16352.63
324.627	15966.38
324.691	15588.53
324.755	15153.96
324.82	14669.62
324.884	14141.67
324.948	13621.74
325.012	13005.45
325.077	12232.66
