Data from 20250701_urea_2M_exp3_MAYP1162681_20-49-51-412.txt Node
Date: Tue Jul 01 20:49:51 BST 2025
User: adleo
Spectrometer: MAYP116268
Trigger mode: 0
Integration Time (sec): 4.000000E0
Scans to average: 1
Electric dark correction enabled: true
Nonlinearity correction enabled: true
Boxcar width: 10
XAxis mode: Wavelengths
Number of Pixels in Spectrum: 2068
>>>>>Begin Spectral Data<<<<<
179.565	3964.21
179.642	4175.43
179.718	4331.58
179.795	4472.49
179.871	4591.51
179.948	4659.27
180.024	4728.65
180.101	4816.57
180.177	4867.77
180.254	4952.4
180.33	5036.74
180.407	5326.28
180.483	5632.94
180.56	5942.78
180.636	6230.32
180.712	6187.23
180.789	6221.93
180.865	6266.35
180.942	6298.46
181.018	6339.02
181.095	6385.13
181.171	6404.38
181.248	6401.84
181.324	6460.82
181.4	6487.81
181.477	6529.06
181.553	6576.47
181.63	6659.17
181.706	6714.37
181.782	6743.54
181.859	6739.56
181.935	6754.78
182.011	6746.57
182.088	6805.22
182.164	6881.12
182.24	6931.82
182.317	6965.1
182.393	6962.6
182.469	7013.67
182.546	7064.02
182.622	7078.43
182.698	7066.03
182.775	7108.79
182.851	7160.83
182.927	7130.84
183.003	7115.09
183.08	7091.79
183.156	7123.55
183.232	7106.82
183.308	7063.77
183.385	7098.4
183.461	7164.76
183.537	7171.35
183.613	7210.08
183.69	7179.47
183.766	7134.75
183.842	7156
183.918	7169.36
183.995	7213.9
184.071	7218.18
184.147	7196.69
184.223	7156.5
184.299	7194.95
184.375	7157.48
184.452	7182.19
184.528	7324.16
184.604	7360.82
184.68	7405.12
184.756	7430.03
184.832	7447.72
184.908	7464.77
184.985	7456.93
185.061	7396.57
185.137	7426.81
185.213	7389.57
185.289	7396.77
185.365	7373.86
185.441	7368.76
185.517	7419.45
185.593	7408.15
185.669	7407.48
185.745	7445.55
185.822	7504.59
185.898	7476.56
185.974	7508.46
186.05	7482.16
186.126	7396.28
186.202	7373.27
186.278	7358.8
186.354	7323.94
186.43	7350.88
186.506	7347.51
186.582	7343.53
186.658	7366.06
186.734	7294.99
186.81	7299.94
186.886	7307.05
186.962	7347.37
187.038	7334.68
187.114	7306.88
187.19	7332.21
187.266	7299.49
187.341	7299.49
187.417	7272.62
187.493	7273.54
187.569	7282.43
187.645	7258.3
187.721	7218.01
187.797	7241.22
187.873	7256.46
187.949	7236.96
188.025	7209.01
188.101	7220.02
188.176	7245.68
188.252	7235.59
188.328	7267.95
188.404	7269.59
188.48	7252.82
188.556	7231.91
188.632	7227.64
188.707	7230.95
188.783	7220.37
188.859	7201.26
188.935	7161.84
189.011	7191.16
189.086	7165.69
189.162	7140.65
189.238	7131.33
189.314	7122.78
189.39	7106.35
189.465	7083.42
189.541	7146.2
189.617	7095.7
189.693	7072.06
189.768	7081.73
189.844	7168.77
189.92	7136.54
189.996	7171
190.071	7209.83
190.147	7202.92
190.223	7237.57
190.298	7205.08
190.374	7159.09
190.45	7201.46
190.526	7230.92
190.601	7209.49
190.677	7220.53
190.753	7322.03
190.828	7338.6
190.904	7393.98
190.98	7448.36
191.055	7484.08
191.131	7448.93
191.207	7522.08
191.282	7567.48
191.358	7531.92
191.433	7475.4
191.509	7523.77
191.585	7506.22
191.66	7509.39
191.736	7544.48
191.811	7513.28
191.887	7574.02
191.963	7653.58
192.038	7670.36
192.114	7671.85
192.189	7688.67
192.265	7676.51
192.34	7592.27
192.416	7584.01
192.491	7567.22
192.567	7568.86
192.642	7580.31
192.718	7584.06
192.793	7539.34
192.869	7518.77
192.944	7530.45
193.02	7560.84
193.095	7573
193.171	7598.58
193.246	7594.88
193.322	7577.86
193.397	7579.69
193.473	7528.8
193.548	7470.71
193.624	7494.28
193.699	7490.48
193.775	7547.67
193.85	7551.66
193.925	7584.21
194.001	7584.74
194.076	7556.28
194.152	7528.68
194.227	7498.53
194.302	7467.01
194.378	7485.13
194.453	7472.49
194.529	7520.14
194.604	7467.25
194.679	7444.09
194.755	7378.44
194.83	7426.55
194.905	7420.73
194.981	7454.2
195.056	7430.46
195.131	7453.91
195.207	7445.64
195.282	7409.4
195.357	7337.12
195.433	7391.82
195.508	7352.25
195.583	7376.33
195.659	7429.27
195.734	7449.81
195.809	7451.68
195.884	7481.13
195.96	7480.99
196.035	7539.97
196.11	7518.28
196.185	7561.36
196.261	7569
196.336	7673.9
196.411	7620.5
196.486	7635.93
196.561	7611.41
196.637	7642.46
196.712	7700.81
196.787	7707.6
196.862	7762.35
196.937	7799.8
197.013	7820.24
197.088	7852.74
197.163	7926.4
197.238	7989.99
197.313	7985.42
197.388	8028.13
197.464	8134.37
197.539	8172.47
197.614	8146.21
197.689	8193.26
197.764	8254.71
197.839	8333.12
197.914	8308.72
197.989	8386.96
198.065	8435.83
198.14	8614.2
198.215	8712.56
198.29	8749.34
198.365	8794.2
198.44	8836.06
198.515	8932.62
198.59	8984.13
198.665	9075.06
198.74	9106.98
198.815	9108.76
198.89	9193.33
198.965	9298.89
199.04	9282.71
199.115	9337.39
199.19	9487.63
199.265	9492.5
199.34	9518.74
199.415	9638.64
199.49	9722.55
199.565	9756.36
199.64	9848.68
199.715	9841.5
199.79	9861.58
199.865	9887.06
199.94	9881.43
200.015	9981.28
200.09	10003
200.165	10029.78
200.24	10053.1
200.315	10189.81
200.39	10241.94
200.464	10260.72
200.539	10269.4
200.614	10323.63
200.689	10406.45
200.764	10427.02
200.839	10493.28
200.914	10514.62
200.989	10472.84
201.063	10514.18
201.138	10456.83
201.213	10454.04
201.288	10382.07
201.363	10397.58
201.438	10396.95
201.512	10464.52
201.587	10406.23
201.662	10415.67
201.737	10454.22
201.812	10485.58
201.886	10376.52
201.961	10404.33
202.036	10367.87
202.111	10353.65
202.186	10256.05
202.26	10192.41
202.335	10114.65
202.41	10090.9
202.485	10026.95
202.559	9951.76
202.634	9862.32
202.709	9892.31
202.784	9820.74
202.858	9822.38
202.933	9760.4
203.008	9728.17
203.082	9651.6
203.157	9653
203.232	9502.04
203.306	9422.71
203.381	9306.88
203.456	9220.64
203.53	9141.96
203.605	9067.46
203.68	8985.35
203.754	8965
203.829	8914.3
203.904	8842.64
203.978	8800.8
204.053	8812.3
204.127	8774.72
204.202	8767.21
204.277	8702.48
204.351	8679.28
204.426	8646.25
204.5	8612.8
204.575	8491.67
204.65	8527.25
204.724	8500.33
204.799	8531.54
204.873	8526.63
204.948	8521.48
205.022	8484.49
205.097	8450.74
205.171	8494.42
205.246	8523.79
205.32	8514.84
205.395	8512.1
205.469	8486.95
205.544	8513.57
205.618	8454.05
205.693	8498.13
205.767	8458.1
205.842	8537.13
205.916	8518.95
205.991	8485.74
206.065	8509.13
206.14	8568.46
206.214	8549.87
206.289	8528.25
206.363	8573.83
206.438	8571.03
206.512	8597.07
206.586	8658.85
206.661	8686.68
206.735	8616.51
206.81	8618.05
206.884	8673
206.958	8627.29
207.033	8686.27
207.107	8706.3
207.181	8822.18
207.256	8796.28
207.33	8856.29
207.405	8894.82
207.479	8960.14
207.553	8990.17
207.628	8927.48
207.702	8967.67
207.776	8935.37
207.851	8939.36
207.925	8990.94
207.999	8987.09
208.073	8978.57
208.148	8983.14
208.222	8942.6
208.296	9059.62
208.371	9116.17
208.445	9153.01
208.519	9256.59
208.593	9295.92
208.668	9281.33
208.742	9281.86
208.816	9291.58
208.89	9343.84
208.965	9341.14
209.039	9371.29
209.113	9428.98
209.187	9508.08
209.261	9493.35
209.336	9574.53
209.41	9649.08
209.484	9646.82
209.558	9722.34
209.632	9775.3
209.707	9825.05
209.781	9902.35
209.855	9957.75
209.929	10023.15
210.003	10042.89
210.077	10036.97
210.151	10214.12
210.226	10338.34
210.3	10438.34
210.374	10522.23
210.448	10538.09
210.522	10578.13
210.596	10614.94
210.67	10646.45
210.744	10803.72
210.818	10923.12
210.892	10994.1
210.966	10972.52
211.041	11029.86
211.115	11014.68
211.189	11097.8
211.263	11156.69
211.337	11180.73
211.411	11224.73
211.485	11198.9
211.559	11237.83
211.633	11241.05
211.707	11121.47
211.781	11144.7
211.855	11016.71
211.929	10988.77
212.003	10917.53
212.077	10940.77
212.151	10977.2
212.225	11011.46
212.299	10978.97
212.373	10930.16
212.447	10916.48
212.52	11014.68
212.594	11023.45
212.668	11064.36
212.742	11010.29
212.816	10982.49
212.89	10956.18
212.964	10941.96
213.038	10946.35
213.112	10990.16
213.186	11041.61
213.26	10957.51
213.333	10785.84
213.407	10799.33
213.481	10798.56
213.555	10838.19
213.629	10792.46
213.703	10727.36
213.777	10709.77
213.85	10627.32
213.924	10746.26
213.998	10729.92
214.072	10695.46
214.146	10634.55
214.219	10606.75
214.293	10576.06
214.367	10562.09
214.441	10589.94
214.515	10537.03
214.588	10433.35
214.662	10291.09
214.736	10200.53
214.81	10218.1
214.883	10241.55
214.957	10191.57
215.031	10127.72
215.105	10027.7
215.178	9960.26
215.252	9914.98
215.326	9804.98
215.4	9715.28
215.473	9518.63
215.547	9431.44
215.621	9362.97
215.694	9351.7
215.768	9255.77
215.842	9186.78
215.915	9122.29
215.989	8997.95
216.063	8943.81
216.136	8922.53
216.21	8900.2
216.284	8917.25
216.357	8886.48
216.431	8837.05
216.504	8824.77
216.578	8878.31
216.652	8887.78
216.725	8864.82
216.799	8870.94
216.873	8856.69
216.946	8860.69
217.02	8812.44
217.093	8770.95
217.167	8664.15
217.24	8580
217.314	8537.87
217.387	8491.5
217.461	8435.77
217.535	8458.1
217.608	8386.65
217.682	8363.02
217.755	8376.25
217.829	8316.71
217.902	8295.2
217.976	8276.25
218.049	8230.3
218.123	8151.79
218.196	8150.78
218.27	8110.17
218.343	8039.13
218.417	8030.66
218.49	8009.64
218.563	8060.82
218.637	8070.06
218.71	8145.8
218.784	8174.53
218.857	8208.43
218.931	8233.05
219.004	8248.69
219.077	8270.5
219.151	8286.17
219.224	8272.41
219.298	8266.3
219.371	8308.65
219.444	8269.22
219.518	8276.34
219.591	8297.98
219.665	8408.62
219.738	8424.5
219.811	8408.87
219.885	8453.67
219.958	8489.33
220.031	8492.45
220.105	8511.66
220.178	8517.63
220.251	8488.98
220.325	8511.42
220.398	8529.46
220.471	8549.28
220.544	8582.83
220.618	8550.82
220.691	8587.2
220.764	8602.93
220.838	8637.97
220.911	8622.71
220.984	8712.2
221.057	8749.02
221.131	8771.3
221.204	8665.47
221.277	8739.13
221.35	8865.1
221.424	8862.93
221.497	8879.49
221.57	8906.67
221.643	8936.82
221.716	8988.96
221.79	8992.71
221.863	9004.7
221.936	9017.6
222.009	9030.93
222.082	9064.59
222.155	9078.36
222.229	9146.74
222.302	9182.46
222.375	9182.99
222.448	9225.98
222.521	9229.16
222.594	9235.08
222.667	9204.62
222.74	9267.25
222.814	9256.6
222.887	9235.16
222.96	9287.46
223.033	9325.6
223.106	9352.56
223.179	9383.87
223.252	9397.5
223.325	9431.49
223.398	9448.49
223.471	9480.46
223.544	9504.77
223.617	9512.91
223.69	9536.5
223.763	9489.64
223.837	9510.83
223.91	9542.9
223.983	9485.42
224.056	9453.07
224.129	9477.14
224.202	9542.6
224.275	9528.88
224.348	9498.59
224.42	9466.66
224.493	9404.79
224.566	9383.54
224.639	9402.42
224.712	9371.49
224.785	9353.14
224.858	9342.45
224.931	9321.36
225.004	9270.33
225.077	9264.21
225.15	9166.36
225.223	9166.31
225.296	9260.49
225.369	9201.08
225.442	9164.29
225.514	9188.79
225.587	9210.98
225.66	9216.57
225.733	9212.28
225.806	9228.27
225.879	9222.83
225.952	9186.49
226.025	9232.32
226.097	9285.07
226.17	9273.03
226.243	9209.11
226.316	9205.49
226.389	9218.93
226.461	9234.82
226.534	9263.32
226.607	9256.14
226.68	9347.21
226.753	9335.22
226.825	9240.7
226.898	9302.52
226.971	9309.21
227.044	9329.77
227.117	9336.36
227.189	9353.75
227.262	9394.07
227.335	9411.26
227.407	9406.93
227.48	9445.82
227.553	9467.64
227.626	9439.12
227.698	9448.12
227.771	9486.48
227.844	9464.96
227.916	9474.35
227.989	9435.39
228.062	9429.08
228.134	9521.56
228.207	9524.31
228.28	9526.28
228.352	9544.82
228.425	9555.08
228.498	9598.48
228.57	9573.54
228.643	9635.34
228.716	9627.39
228.788	9613.08
228.861	9608.79
228.934	9673.66
229.006	9685.65
229.079	9685.94
229.151	9681.7
229.224	9648.05
229.296	9677.57
229.369	9791.17
229.442	9846.28
229.514	9833.48
229.587	9883.42
229.659	9800.76
229.732	9816.75
229.804	9856.24
229.877	9937.62
229.949	9965.56
230.022	10018.22
230.094	10024.63
230.167	10014.41
230.239	9980.03
230.312	9972.71
230.384	10038.43
230.457	10034.76
230.529	10037.22
230.602	10039.68
230.674	10050.52
230.747	10095.53
230.819	10126.84
230.892	9996.49
230.964	9993.22
231.037	10019.55
231.109	10006.5
231.181	10051.19
231.254	10010.2
231.326	9993.15
231.399	9963.9
231.471	9936.63
231.544	9862.91
231.616	9905
231.688	9910.78
231.761	9897.11
231.833	9879.73
231.905	9795.23
231.978	9792.14
232.05	9778.8
232.122	9779.72
232.195	9751.92
232.267	9795.95
232.339	9772.49
232.412	9841.98
232.484	9816.25
232.556	9795.02
232.629	9868.69
232.701	9887.34
232.773	9907.81
232.846	9898.66
232.918	9910.12
232.99	9929.49
233.062	9967.5
233.135	9988.6
233.207	9945.92
233.279	9994.94
233.351	10029.95
233.424	10030.87
233.496	10002.74
233.568	10087.38
233.64	10050
233.713	10070.67
233.785	10062.43
233.857	10079.77
233.929	10030.6
234.001	10099.17
234.074	10168.75
234.146	10089.78
234.218	10089.11
234.29	10083.28
234.362	10073.32
234.434	10025.04
234.507	9990.02
234.579	9934.48
234.651	9913.86
234.723	9952.45
234.795	9966.08
234.867	9961.02
234.939	10027.31
235.012	10052.21
235.084	10060.26
235.156	10098.21
235.228	10078.41
235.3	10059.48
235.372	10071.62
235.444	10132.79
235.516	10054.49
235.588	10061.72
235.66	10080.94
235.732	10050.49
235.804	10260.47
235.876	10313.11
235.948	10377.53
236.02	10389.19
236.092	10403.93
236.164	10417.94
236.236	10415.54
236.308	10418.23
236.38	10454.46
236.452	10428.54
236.524	10447.47
236.596	10516.69
236.668	10554.08
236.74	10578.98
236.812	10613.91
236.884	10644.7
236.956	10657.66
237.028	10649.33
237.1	10633.72
237.172	10713.47
237.244	10800.2
237.316	10671.93
237.388	10658.54
237.46	10632.33
237.532	10704.12
237.604	10698.48
237.675	10780.36
237.747	10832.06
237.819	10820.89
237.891	10818.38
237.963	10818.77
238.035	10818.48
238.107	10694.58
238.178	10756.56
238.25	10762.53
238.322	10851.6
238.394	10805.1
238.466	10809
238.538	10856.56
238.609	10898.28
238.681	10845.7
238.753	10821.65
238.825	10844.64
238.897	10870.32
238.968	10958.38
239.04	10946.19
239.112	11067.52
239.184	11011.95
239.255	11004.09
239.327	11042.35
239.399	11072.61
239.471	11115.4
239.542	11150.57
239.614	11227.82
239.686	11138.37
239.758	11192.97
239.829	11160.05
239.901	11231.56
239.973	11245.44
240.044	11281.97
240.116	11295.65
240.188	11303.36
240.259	11322.54
240.331	11313.87
240.403	11354.15
240.474	11304.65
240.546	11286.72
240.618	11222.38
240.689	11229.95
240.761	11250.53
240.833	11319.16
240.904	11313.91
240.976	11314.53
241.048	11333.09
241.119	11374.54
241.191	11433.57
241.262	11507.03
241.334	11508.58
241.405	11509.83
241.477	11516.87
241.549	11528.39
241.62	11553.06
241.692	11601.4
241.763	11663.87
241.835	11683.39
241.906	11697.42
241.978	11666.09
242.049	11733.9
242.121	11805.28
242.192	11880.95
242.264	11849
242.335	11797.91
242.407	11848.71
242.478	11856.81
242.55	11881.68
242.621	11865.96
242.693	11863.22
242.764	11851.07
242.836	11853.91
242.907	11887.99
242.979	11918.69
243.05	11931.8
243.122	11964.58
243.193	11967.62
243.264	11887.56
243.336	11888.52
243.407	11929.06
243.479	12014.95
243.55	12032.88
243.622	12042.71
243.693	12042.67
243.764	12114.77
243.836	12089.71
243.907	12071.64
243.978	12079.2
244.05	12108.56
244.121	12059.78
244.192	12105
244.264	12055.83
244.335	12071.83
244.407	12020.6
244.478	12031.68
244.549	12026.04
244.62	11979.19
244.692	11978.42
244.763	12037.13
244.834	12026.47
244.906	12004.01
244.977	12025.27
245.048	12081.62
245.119	12055.21
245.191	12028.89
245.262	11964.3
245.333	12051.78
245.405	12077.04
245.476	12111.21
245.547	12129.62
245.618	12181.82
245.689	12188.81
245.761	12229.88
245.832	12239.76
245.903	12294.33
245.974	12329.85
246.045	12344.02
246.117	12428.72
246.188	12408.86
246.259	12385.91
246.33	12410.06
246.401	12426.98
246.473	12390.44
246.544	12374.82
246.615	12441.01
246.686	12449.01
246.757	12535.19
246.828	12510.32
246.899	12587.89
246.97	12555.16
247.042	12534.33
247.113	12584.95
247.184	12683.14
247.255	12678.61
247.326	12703.39
247.397	12704.45
247.468	12713.47
247.539	12734.1
247.61	12689.46
247.681	12739.97
247.752	12801.14
247.823	12780.95
247.894	12795.12
247.965	12769.77
248.037	12757.28
248.108	12698.76
248.179	12703.82
248.25	12691.29
248.321	12717.65
248.392	12667.76
248.463	12751.92
248.534	12758.05
248.605	12776.41
248.675	12747.25
248.746	12772.12
248.817	12789.86
248.888	12816.52
248.959	12758.24
249.03	12786.44
249.101	12792.32
249.172	12775.4
249.243	12692.3
249.314	12760.51
249.385	12769.72
249.456	12802.98
249.527	12794.16
249.598	12818.89
249.669	12826.74
249.739	12846.31
249.81	12867.62
249.881	12822.79
249.952	12819.61
250.023	12824.67
250.094	12769.57
250.165	12739.63
250.235	12729.27
250.306	12733.9
250.377	12700.01
250.448	12730.52
250.519	12658.94
250.59	12728.79
250.66	12730.43
250.731	12805.86
250.802	12792.17
250.873	12813
250.944	12836.09
251.014	12832.76
251.085	12935.1
251.156	12954.92
251.227	13001.77
251.297	13051.38
251.368	13111.25
251.439	13152.71
251.51	13205.2
251.58	13194.41
251.651	13191.66
251.722	13253.17
251.792	13203.28
251.863	13207.76
251.934	13278.43
252.005	13396.92
252.075	13394.17
252.146	13450.28
252.217	13507.69
252.287	13564.05
252.358	13573.74
252.429	13649.47
252.499	13641.32
252.57	13646.29
252.641	13696.9
252.711	13696.04
252.782	13648.6
252.852	13724.57
252.923	13725.1
252.994	13729.35
253.064	13785.46
253.135	13759.57
253.205	13731.76
253.276	13805.95
253.347	13870.73
253.417	13842.29
253.488	13824.89
253.558	13817.08
253.629	13808.31
253.699	13815.3
253.77	13843.16
253.841	13833.95
253.911	13840.99
253.982	13865.96
254.052	13896.38
254.123	13904.86
254.193	13918.02
254.264	14065.33
254.334	14023.59
254.405	13987.14
254.475	13953.3
254.546	13957.01
254.616	14026.67
254.687	14060.8
254.757	14087.65
254.827	14102.02
254.898	14130.65
254.968	14135.81
255.039	14121.73
255.109	14171.34
255.18	14146.66
255.25	14072.56
255.321	14109.35
255.391	14073.19
255.461	14158.08
255.532	14080.18
255.602	14074.54
255.673	14016.46
255.743	13977.56
255.813	13909.88
255.884	13961.99
255.954	14010.63
256.024	14073.58
256.095	14073.78
256.165	14034.63
256.235	14054.01
256.306	14034.01
256.376	14086.02
256.446	14131.09
256.517	14168.31
256.587	14207.01
256.657	14228.8
256.728	14253.58
256.798	14266.64
256.868	14254.35
256.938	14230.54
257.009	14271.71
257.079	14305.55
257.149	14410.39
257.219	14343.05
257.29	14382.87
257.36	14327
257.43	14364.55
257.5	14298.03
257.571	14292.92
257.641	14334.95
257.711	14302.12
257.781	14330.71
257.852	14341.17
257.922	14273.88
257.992	14275.71
258.062	14269.44
258.132	14311.96
258.202	14317.65
258.273	14323.53
258.343	14403.4
258.413	14388.51
258.483	14397.81
258.553	14369.66
258.623	14340.35
258.693	14377.71
258.764	14453.54
258.834	14531.24
258.904	14548.98
258.974	14542.48
259.044	14560.31
259.114	14584.46
259.184	14616.23
259.254	14626.06
259.324	14570.15
259.394	14620.33
259.464	14705.98
259.535	14713.7
259.605	14706.56
259.675	14698.37
259.745	14732.01
259.815	14709.74
259.885	14705.41
259.955	14817.56
260.025	14809.56
260.095	14825.76
260.165	14859.5
260.235	14921.34
260.305	14895.84
260.375	14860.27
260.445	14956.24
260.515	15019.1
260.585	15075.3
260.655	15079.16
260.725	15128.08
260.795	15166.84
260.865	15242.37
260.934	15209.89
261.004	15238.28
261.074	15242.47
261.144	15300.32
261.214	15346.54
261.284	15347.65
261.354	15389.25
261.424	15343.51
261.494	15419.05
261.564	15419.24
261.634	15445.61
261.703	15378.03
261.773	15403.43
261.843	15444.74
261.913	15436.74
261.983	15367.38
262.053	15391.09
262.123	15387.33
262.192	15346.46
262.262	15396.92
262.332	15348.53
262.402	15373.84
262.472	15388.97
262.541	15321.1
262.611	15377.64
262.681	15345.39
262.751	15392.63
262.821	15397.55
262.89	15370.65
262.96	15398.12
263.03	15481.85
263.1	15500.69
263.169	15516.84
263.239	15557.96
263.309	15621.48
263.379	15652.04
263.448	15685.49
263.518	15707.66
263.588	15727.28
263.657	15793.7
263.727	15825.18
263.797	15838.14
263.867	15844.51
263.936	15806.62
264.006	15876.71
264.076	15864.76
264.145	15865.24
264.215	15840.56
264.285	15887.22
264.354	15837.33
264.424	15810.29
264.494	15752.26
264.563	15743.39
264.633	15826.2
264.702	15849.28
264.772	15787.3
264.842	15785.03
264.911	15815.35
264.981	15768.36
265.05	15782.92
265.12	15773.28
265.19	15785.52
265.259	15831.26
265.329	15857.34
265.398	15878.79
265.468	15977.3
265.537	15973.45
265.607	16007.91
265.676	16057.84
265.746	16076.5
265.815	16147.69
265.885	16161.62
265.955	16147.06
266.024	16143.45
266.094	16071.3
266.163	16132.12
266.232	16209.18
266.302	16216.75
266.371	16235.12
266.441	16262.64
266.51	16311.85
266.58	16321.58
266.649	16303.03
266.719	16354.31
266.788	16389.68
266.858	16464.39
266.927	16402.98
266.996	16432.63
267.066	16460.44
267.135	16436.05
267.205	16490.12
267.274	16500.87
267.343	16558.71
267.413	16580.16
267.482	16653.32
267.552	16731.35
267.621	16680.41
267.69	16631.68
267.76	16662.48
267.829	16686.58
267.898	16702.29
267.968	16680.31
268.037	16718.29
268.106	16774.68
268.176	16743.35
268.245	16749.91
268.314	16743.5
268.384	16800.61
268.453	16816.95
268.522	16845.62
268.592	16901.82
268.661	16863.84
268.73	16897.87
268.799	16882.5
268.869	16969.92
268.938	16922.26
269.007	16908.43
269.076	16928.81
269.146	16985.11
269.215	17008.82
269.284	17096.53
269.353	17099.52
269.422	17110.6
269.492	17110.17
269.561	17019.66
269.63	17054.31
269.699	17043.27
269.768	17061.54
269.838	17085.58
269.907	17132.28
269.976	17103.13
270.045	17046.64
270.114	17101.19
270.183	17111.6
270.253	17138.35
270.322	17082.01
270.391	17104.33
270.46	17171.94
270.529	17222.98
270.598	17263.6
270.667	17273.34
270.736	17235.61
270.806	17265.58
270.875	17330.4
270.944	17340.81
271.013	17480.38
271.082	17506.4
271.151	17555.71
271.22	17511.9
271.289	17520.57
271.358	17525.87
271.427	17564.38
271.496	17592.19
271.565	17578.02
271.634	17596.62
271.703	17738.64
271.772	17811.37
271.841	17823.51
271.91	17788.19
271.979	17807.37
272.048	17771.13
272.117	17822.4
272.186	17829.2
272.255	17871.85
272.324	17912.66
272.393	17945.58
272.462	17930.69
272.531	17950.74
272.6	17960.76
272.669	18041.05
272.738	18058.3
272.807	18090.49
272.876	18073.43
272.945	18230.1
273.013	18294.15
273.082	18361.52
273.151	18260.37
273.22	18301.47
273.289	18330.77
273.358	18424.41
273.427	18434.29
273.496	18493.32
273.564	18536.88
273.633	18586.18
273.702	18582.95
273.771	18595.58
273.84	18634.85
273.909	18676.35
273.977	18718.99
274.046	18733.02
274.115	18793.59
274.184	18779.91
274.253	18794.65
274.322	18878.55
274.39	18816.82
274.459	18812.1
274.528	18754.41
274.597	18784.58
274.665	18810.65
274.734	18878.36
274.803	18873.2
274.872	18901.78
274.94	18900.05
275.009	19130.61
275.078	19131.62
275.147	19160.59
275.215	19182.85
275.284	19247.91
275.353	19257.83
275.421	19216.34
275.49	19314.65
275.559	19319.9
275.627	19352.05
275.696	19378.31
275.765	19417.34
275.833	19427.03
275.902	19475.41
275.971	19568.23
276.039	19655.69
276.108	19709.28
276.177	19747.11
276.245	19754.39
276.314	19769.95
276.383	19831.97
276.451	19653.21
276.52	19704.39
276.588	19790.85
276.657	19855.71
276.725	19855.09
276.794	19897.69
276.863	19988.77
276.931	19949.73
277	20022.16
277.068	20093.29
277.137	20186.93
277.205	20216.04
277.274	20322.59
277.342	20391.27
277.411	20360.52
277.48	20358.98
277.548	20368.47
277.617	20411.85
277.685	20445.24
277.754	20515.03
277.822	20525.77
277.89	20622.03
277.959	20642.94
278.027	20620.05
278.096	20621.93
278.164	20762.1
278.233	20780.03
278.301	20784.46
278.37	20851.16
278.438	20843.69
278.507	20899.5
278.575	20858.92
278.643	20885.81
278.712	20867.78
278.78	20863.35
278.849	20956.8
278.917	21031.79
278.985	21064.52
279.054	21114.12
279.122	21191.86
279.191	21222.17
279.259	21253.31
279.327	21205.1
279.396	21308.25
279.464	21344.64
279.532	21416.55
279.601	21437
279.669	21468.81
279.737	21559.52
279.806	21609.36
279.874	21680.8
279.942	21707.89
280.011	21737.38
280.079	21812.77
280.147	21911.25
280.215	21976.28
280.284	22000.76
280.352	21997.1
280.42	22053.3
280.488	22060.44
280.557	22075.77
280.625	22136.36
280.693	22191.89
280.761	22257.69
280.83	22242.5
280.898	22323.34
280.966	22291.82
281.034	22233.72
281.102	22226.35
281.171	22241.29
281.239	22321.19
281.307	22341.06
281.375	22351.32
281.443	22490.75
281.512	22518.52
281.58	22587.15
281.648	22576.54
281.716	22617.32
281.784	22668.33
281.852	22700.68
281.92	22750.1
281.989	22833.8
282.057	22814.95
282.125	23008.43
282.193	23044.45
282.261	23086.2
282.329	23116.39
282.397	23185.81
282.465	23247.04
282.533	23349.67
282.601	23352.81
282.67	23301.45
282.738	23317.84
282.806	23408.01
282.874	23398.75
282.942	23455.56
283.01	23471.82
283.078	23544.72
283.146	23578.81
283.214	23647.83
283.282	23693.35
283.35	23770.82
283.418	23787.75
283.486	23849.18
283.554	23742.01
283.622	23778.09
283.69	23816.72
283.758	23839.53
283.826	23907.34
283.894	23981.67
283.962	24101.46
284.03	24209.07
284.098	24272.73
284.165	24299.01
284.233	24335.77
284.301	24361.62
284.369	24373.2
284.437	24392.79
284.505	24415.99
284.573	24514.11
284.641	24529.83
284.709	24608.24
284.777	24604.09
284.845	24682.8
284.912	24751.06
284.98	24815.17
285.048	24847.98
285.116	24910.7
285.184	25004.69
285.252	25044.64
285.319	25039.62
285.387	25044.5
285.455	25034.22
285.523	25103.22
285.591	25141.76
285.659	25194.26
285.726	25274.51
285.794	25275.48
285.862	25326.25
285.93	25371.89
285.997	25401.04
286.065	25437.81
286.133	25456.45
286.201	25494.52
286.269	25497.27
286.336	25507.75
286.404	25533.95
286.472	25613.16
286.539	25593.81
286.607	25584.4
286.675	25630.69
286.743	25707.77
286.81	25737.08
286.878	25828.12
286.946	25842.6
287.013	25893.89
287.081	25935.07
287.149	25930.49
287.216	26039.38
287.284	26053.43
287.352	26100.73
287.419	26133.66
287.487	26215.36
287.555	26264.13
287.622	26299.71
287.69	26347.27
287.758	26436.64
287.825	26467.25
287.893	26462.42
287.96	26530.33
288.028	26620.92
288.096	26674.33
288.163	26715.87
288.231	26721.37
288.298	26751.71
288.366	26841.54
288.433	26874.95
288.501	26897.94
288.569	26964.72
288.636	26993.7
288.704	27087.94
288.771	27156.24
288.839	27164.4
288.906	27185.17
288.974	27250.89
289.041	27287.45
289.109	27301.12
289.176	27374.19
289.244	27436.64
289.311	27531.91
289.379	27609.43
289.446	27652.4
289.514	27689.89
289.581	27736.91
289.649	27798.69
289.716	27850.88
289.783	27876.69
289.851	27990.47
289.918	28027.82
289.986	28107.95
290.053	28161.78
290.121	28192.82
290.188	28249.22
290.255	28401.96
290.323	28427.04
290.39	28459.49
290.458	28539.99
290.525	28642.36
290.592	28656.1
290.66	28709.41
290.727	28732.76
290.794	28830.57
290.862	28875.92
290.929	28943.37
290.996	28986.35
291.064	29063.9
291.131	29155.31
291.198	29234.43
291.266	29272.59
291.333	29334.31
291.4	29391.92
291.468	29504.3
291.535	29533.41
291.602	29587.97
291.669	29596.48
291.737	29666.64
291.804	29714.73
291.871	29803.25
291.938	29871.08
292.006	30024.17
292.073	30108.77
292.14	30195.61
292.207	30207.61
292.275	30249.6
292.342	30316.38
292.409	30443.32
292.476	30570.78
292.543	30580.84
292.611	30620.43
292.678	30724.78
292.745	30850.75
292.812	30923.17
292.879	30936.09
292.946	31002.43
293.014	31082.83
293.081	31157.96
293.148	31241.88
293.215	31330.23
293.282	31354.19
293.349	31412.73
293.416	31374.86
293.484	31458.97
293.551	31539.16
293.618	31647.52
293.685	31786.9
293.752	31808.88
293.819	31844.77
293.886	31831.6
293.953	31898.61
294.02	31994.56
294.087	32062.43
294.154	32079.87
294.221	32183.42
294.288	32250.89
294.356	32360.74
294.423	32449.07
294.49	32475.47
294.557	32560.44
294.624	32580.83
294.691	32700.35
294.758	32764.21
294.825	32847.68
294.892	32871.09
294.959	32900.55
295.026	32957.4
295.093	32984.1
295.16	33029.1
295.226	33075.58
295.293	33218.87
295.36	33282.25
295.427	33358.07
295.494	33436.57
295.561	33523.7
295.628	33638.33
295.695	33736.55
295.762	33792.11
295.829	33865.48
295.896	33977.94
295.963	34062.36
296.03	34144.81
296.096	34213.81
296.163	34301.63
296.23	34406.43
296.297	34496.31
296.364	34560.26
296.431	34656.39
296.498	34685.82
296.564	34833.41
296.631	34910.32
296.698	34910.9
296.765	35048.21
296.832	35074.02
296.899	35079.06
296.965	35184.18
297.032	35156.81
297.099	35278.18
297.166	35363.08
297.233	35395
297.299	35414.79
297.366	35480.35
297.433	35551.56
297.5	35632.3
297.566	35691.94
297.633	35738.58
297.7	35801.31
297.767	35833.61
297.833	35886.51
297.9	35964.47
297.967	35972.48
298.033	36072.99
298.1	36212.54
298.167	36221.47
298.234	36289.55
298.3	36379.03
298.367	36402.76
298.434	36495.96
298.5	36503.73
298.567	36539.01
298.634	36585.41
298.7	36706.75
298.767	36752.67
298.834	36846.21
298.9	36864.46
298.967	36888.88
299.033	36963.16
299.1	37069.48
299.167	37183.05
299.233	37219.27
299.3	37305.54
299.366	37391.99
299.433	37477.22
299.5	37436.82
299.566	37505.52
299.633	37605.83
299.699	37696
299.766	37736.59
299.832	37790.89
299.899	37861.84
299.965	37952.75
300.032	37996.54
300.099	38063.17
300.165	38140.39
300.232	38184.39
300.298	38239.36
300.365	38331.63
300.431	38394.14
300.498	38411.58
300.564	38484.43
300.631	38565.15
300.697	38665.17
300.763	38719.99
300.83	38759.93
300.896	38864.64
300.963	38942.89
301.029	39013.24
301.096	39064.44
301.162	39162.46
301.229	39187.43
301.295	39201.9
301.361	39248.35
301.428	39311.1
301.494	39307.6
301.561	39364.59
301.627	39422.69
301.693	39490.46
301.76	39544.87
301.826	39571.3
301.892	39672.36
301.959	39747.58
302.025	39785.38
302.092	39795.49
302.158	39880.85
302.224	39931.05
302.291	39949.56
302.357	39985.32
302.423	39989.02
302.49	40003.11
302.556	40089.08
302.622	40138.83
302.688	40224.89
302.755	40330.7
302.821	40396.04
302.887	40478.4
302.954	40512.91
303.02	40577.54
303.086	40633.57
303.152	40673.13
303.219	40709.19
303.285	40765.72
303.351	40836.79
303.417	40887.86
303.483	40913.13
303.55	40915.76
303.616	40956.98
303.682	40998.91
303.748	41030.55
303.815	41152.61
303.881	41245.01
303.947	41250.89
304.013	41318.79
304.079	41342.22
304.145	41308.29
304.212	41358.89
304.278	41367.59
304.344	41401.46
304.41	41394.51
304.476	41414.15
304.542	41444.09
304.608	41506.89
304.674	41492.21
304.741	41501.84
304.807	41565.38
304.873	41644.27
304.939	41760.7
305.005	41746.22
305.071	41792.2
305.137	41829.87
305.203	41769.73
305.269	41805.32
305.335	41889.05
305.401	41911.07
305.467	41936.06
305.533	42010.2
305.599	42074.04
305.666	42157.85
305.732	42199.86
305.798	42290.34
305.864	42413.75
305.93	42484.64
305.996	42524.12
306.062	42575.27
306.128	42615.87
306.194	42610.38
306.259	42636.49
306.325	42638.05
306.391	42723.63
306.457	42791.36
306.523	42855
306.589	43000.8
306.655	43021.91
306.721	43001.24
306.787	43012.38
306.853	43104.58
306.919	43091.99
306.985	43113.68
307.051	43124.38
307.117	43135.12
307.183	43159.34
307.248	43114.21
307.314	43156.04
307.38	43221.94
307.446	43288.68
307.512	43293.93
307.578	43365.27
307.644	43390.17
307.709	43441.98
307.775	43464.89
307.841	43498.74
307.907	43525.64
307.973	43483.55
308.039	43520.03
308.104	43575.14
308.17	43624.55
308.236	43617.69
308.302	43676.1
308.368	43676.01
308.433	43726.69
308.499	43765.79
308.565	43775.52
308.631	43839.92
308.696	43809.13
308.762	43791.76
308.828	43815.21
308.894	43806.02
308.959	43770.22
309.025	43790.99
309.091	43821.16
309.156	43828.07
309.222	43869.52
309.288	43885.62
309.354	43858.24
309.419	43884.32
309.485	43887.87
309.551	43941.04
309.616	43940.8
309.682	43963.66
309.748	43979.37
309.813	44000.1
309.879	44018.24
309.945	44017.66
310.01	44023.3
310.076	44077.74
310.141	44106.78
310.207	44088.97
310.273	44129.35
310.338	44181.69
310.404	44162.62
310.469	44142.52
310.535	44154.93
310.601	44123.94
310.666	44186.42
310.732	44269.02
310.797	44269.6
310.863	44269.41
310.928	44276.95
310.994	44328.33
311.059	44360.11
311.125	44387.15
311.191	44455.29
311.256	44454.85
311.322	44505.5
311.387	44473.88
311.453	45333.62
311.518	45337.66
311.584	45377.8
311.649	45431.23
311.715	45441.25
311.78	45497.49
311.846	45511.5
311.911	45571.95
311.976	45600.51
312.042	45572.86
312.107	45550.38
312.173	45559.53
312.238	45564.54
312.304	45596.76
312.369	45600.17
312.434	45601.68
312.5	45621.48
312.565	45556.94
312.631	45606.72
312.696	45614.6
312.761	45668.17
312.827	44845.76
312.892	44963.24
312.958	44995.41
313.023	45026.76
313.088	45061.94
313.154	45040.63
313.219	45048.03
313.284	45037.86
313.35	45074.45
313.415	45077.76
313.48	45101.41
313.546	45142.39
313.611	45216.03
313.676	45209.16
313.741	45209.55
313.807	45264.22
313.872	45306.76
313.937	45366.81
314.003	45436.24
314.068	45476.15
314.133	45521.18
314.198	45541.28
314.264	45495.26
314.329	45488.49
314.394	45505.68
314.459	45516.04
314.525	45619.09
314.59	45637.39
314.655	45650.43
314.72	45699.02
314.785	45747.16
314.851	45760.06
314.916	45737.47
314.981	45714.79
315.046	45708.46
315.111	45720.48
315.176	45719.27
315.242	45766.01
315.307	45787.92
315.372	45743.22
315.437	45731.97
315.502	45754.28
315.567	45794.01
315.632	45778.72
315.698	45809.15
315.763	45814.17
315.828	45807.84
315.893	45812.95
315.958	45827.61
316.023	45808.72
316.088	45765.63
316.153	45714.96
316.218	45715.01
316.283	45666.88
316.348	45634.37
316.413	45647.23
316.479	45595.59
316.544	45481.77
316.609	45378.52
316.674	45254.08
316.739	45153.66
316.804	45058.77
316.869	44907.23
316.934	44767.31
316.999	44648.34
317.064	44454.6
317.129	44298.3
317.194	44159.95
317.259	43973.15
317.324	43775.91
317.389	43603.54
317.454	43441.35
317.518	43290.25
317.583	43151.22
317.648	43039.18
317.713	42879.71
317.778	42636.94
317.843	42507.34
317.908	42341.36
317.973	42163.3
318.038	42011.42
318.103	41838.66
318.168	41677.88
318.233	41525.24
318.297	41320.11
318.362	41144.83
318.427	40963.19
318.492	40837.91
318.557	40627.41
318.622	40481.7
318.687	40346.08
318.751	40143.45
318.816	39966.13
318.881	39782.82
318.946	39553.54
319.011	39332.05
319.075	39117.73
319.14	38935.74
319.205	38696.12
319.27	38509.58
319.335	38289.88
319.399	38081.59
319.464	37900.99
319.529	37646.77
319.594	37440.79
319.658	37260.81
319.723	37033.66
319.788	36867.23
319.853	36576.91
319.917	36393.77
319.982	36122.74
320.047	35903.34
320.112	35746.37
320.176	35491.12
320.241	35291.22
320.306	35093.77
320.37	34870.77
320.435	34679.04
320.5	34497.75
320.564	34281.73
320.629	34054.12
320.694	33860.48
320.758	33623.84
320.823	33377.14
320.888	33195.18
320.952	32935.3
321.017	32672.85
321.082	32441.83
321.146	32224.53
321.211	32013.79
321.275	31780.48
321.34	31540.83
321.405	31296.14
321.469	31040.99
321.534	30807.1
321.598	30530.85
321.663	30331.59
321.727	30128.75
321.792	29875.95
321.857	29622.46
321.921	29399.68
321.986	29157.73
322.05	28852.24
322.115	28638.65
322.179	28399.98
322.244	28105.68
322.308	27902.8
322.373	27665.89
322.437	27436.4
322.502	27238.34
322.566	26995.26
322.631	26768.23
322.695	26528.65
322.76	26278.95
322.824	26057.91
322.889	25804.67
322.953	25553.35
323.018	25211.04
323.082	24881.09
323.146	24589.84
323.211	24303.45
323.275	24037.33
323.34	23771.15
323.404	23550.39
323.468	23282.75
323.533	23024.62
323.597	22758.11
323.662	22456.45
323.726	22231.34
323.79	21957.78
323.855	21612.2
323.919	21323.54
323.983	21066.31
324.048	20670.7
324.112	20875.98
324.177	20047.88
324.241	18961.82
324.305	17892.74
324.37	16849.17
324.434	15836.83
324.498	15561.27
324.562	15248.23
324.627	14891.36
324.691	14541.26
324.755	14146.65
324.82	13694.63
324.884	13215.98
324.948	12749.02
325.012	12177.84
325.077	11444.57
