Data from 20250701_urea_2M_exp3_MAYP1162681_08-29-52-030.txt Node
Date: Wed Jul 02 08:29:52 BST 2025
User: adleo
Spectrometer: MAYP116268
Trigger mode: 0
Integration Time (sec): 4.000000E0
Scans to average: 1
Electric dark correction enabled: true
Nonlinearity correction enabled: true
Boxcar width: 10
XAxis mode: Wavelengths
Number of Pixels in Spectrum: 2068
>>>>>Begin Spectral Data<<<<<
179.565	3800.76
179.642	3996.74
179.718	4156.91
179.795	4295.21
179.871	4409.9
179.948	4476.7
180.024	4548.32
180.101	4630.5
180.177	4690.51
180.254	4772.49
180.33	4849.39
180.407	5125.61
180.483	5420.09
180.56	5721
180.636	5990.98
180.712	5948.01
180.789	5980.54
180.865	6024.95
180.942	6060.92
181.018	6100.99
181.095	6149.58
181.171	6170.5
181.248	6173.43
181.324	6222.84
181.4	6243.19
181.477	6285.97
181.553	6325.93
181.63	6400.97
181.706	6455.9
181.782	6478.02
181.859	6473.36
181.935	6494.39
182.011	6481.81
182.088	6540.4
182.164	6606.75
182.24	6662.52
182.317	6695.88
182.393	6687.72
182.469	6730.22
182.546	6771.19
182.622	6789.05
182.698	6772.91
182.775	6812.15
182.851	6864.84
182.927	6839.38
183.003	6832.47
183.08	6807.59
183.156	6846.88
183.232	6833.67
183.308	6793.71
183.385	6821.84
183.461	6883.86
183.537	6886.79
183.613	6929.11
183.69	6900.28
183.766	6864.86
183.842	6885.71
183.918	6902.33
183.995	6954.06
184.071	6966.84
184.147	6949.5
184.223	6909.37
184.299	6953.15
184.375	6911.12
184.452	6934
184.528	7063.61
184.604	7098.58
184.68	7139.12
184.756	7160.89
184.832	7177.95
184.908	7193.65
184.985	7191.68
185.061	7135.43
185.137	7164.79
185.213	7123.48
185.289	7127.13
185.365	7102.78
185.441	7099.85
185.517	7148.79
185.593	7132.98
185.669	7125.1
185.745	7155.51
185.822	7215.54
185.898	7181.37
185.974	7217.72
186.05	7185.51
186.126	7112.71
186.202	7083.93
186.278	7074.18
186.354	7043.08
186.43	7063.47
186.506	7060.92
186.582	7061.31
186.658	7087.62
186.734	7017.07
186.81	7028.69
186.886	7040.41
186.962	7088.12
187.038	7075.24
187.114	7046.34
187.19	7075.08
187.266	7046.11
187.341	7053.47
187.417	7028.97
187.493	7030.6
187.569	7043.24
187.645	7025.13
187.721	6982.69
187.797	7009.25
187.873	7020.11
187.949	6999.6
188.025	6975.47
188.101	6983.97
188.176	6999.48
188.252	6983.01
188.328	7014.45
188.404	7014.5
188.48	6995.77
188.556	6965.73
188.632	6964.77
188.707	6966.12
188.783	6956.36
188.859	6939.56
188.935	6902.55
189.011	6928.02
189.086	6904.34
189.162	6873.49
189.238	6863.89
189.314	6856.25
189.39	6838.62
189.465	6815.42
189.541	6872.12
189.617	6821.49
189.693	6804.21
189.768	6818.77
189.844	6905.1
189.92	6875.97
189.996	6906.14
190.071	6944.62
190.147	6941.21
190.223	6971.58
190.298	6947.51
190.374	6900.96
190.45	6943.75
190.526	6971.76
190.601	6951.72
190.677	6962.58
190.753	7058.74
190.828	7076.08
190.904	7131.11
190.98	7184.36
191.055	7220.21
191.131	7189.45
191.207	7259.88
191.282	7293.16
191.358	7257.22
191.433	7203.03
191.509	7247.2
191.585	7237.2
191.66	7241.14
191.736	7266.56
191.811	7238.45
191.887	7291.72
191.963	7373.13
192.038	7387.26
192.114	7391.68
192.189	7407.49
192.265	7394.14
192.34	7317.91
192.416	7310.99
192.491	7293.1
192.567	7303.49
192.642	7316.91
192.718	7322.34
192.793	7278.46
192.869	7265.97
192.944	7277.16
193.02	7301.39
193.095	7314.31
193.171	7331.33
193.246	7323.2
193.322	7318.25
193.397	7318.69
193.473	7272.91
193.548	7209.75
193.624	7228.84
193.699	7221.68
193.775	7271.97
193.85	7277.11
193.925	7307.3
194.001	7311.53
194.076	7285.43
194.152	7243.36
194.227	7209.61
194.302	7172.1
194.378	7192.18
194.453	7182.72
194.529	7227.57
194.604	7180.09
194.679	7159.52
194.755	7098.33
194.83	7143.96
194.905	7129.6
194.981	7156.17
195.056	7132.68
195.131	7157.48
195.207	7156.32
195.282	7120.14
195.357	7055.05
195.433	7110.21
195.508	7069.69
195.583	7092.76
195.659	7142.37
195.734	7170.78
195.809	7170.54
195.884	7202
195.96	7203.92
196.035	7257.07
196.11	7234.57
196.185	7270.95
196.261	7281.52
196.336	7386.72
196.411	7338.97
196.486	7360.59
196.561	7338.87
196.637	7367.4
196.712	7416.84
196.787	7417.51
196.862	7475.71
196.937	7515.31
197.013	7531.57
197.088	7563.48
197.163	7634.58
197.238	7699.21
197.313	7696.71
197.388	7746.91
197.464	7850.57
197.539	7884.27
197.614	7858.65
197.689	7910.21
197.764	7970.1
197.839	8042.67
197.914	8022.84
197.989	8097.11
198.065	8143.57
198.14	8318.24
198.215	8408.05
198.29	8445.45
198.365	8496.21
198.44	8535.47
198.515	8627.92
198.59	8681.73
198.665	8772.63
198.74	8800.41
198.815	8797.09
198.89	8881.2
198.965	8985.15
199.04	8969.27
199.115	9028.12
199.19	9172.55
199.265	9174.29
199.34	9211.5
199.415	9324.97
199.49	9397.75
199.565	9429.67
199.64	9514.36
199.715	9500.72
199.79	9525.47
199.865	9552.34
199.94	9550.61
200.015	9654.83
200.09	9676.41
200.165	9701.6
200.24	9720.09
200.315	9850.91
200.39	9905.77
200.464	9922.77
200.539	9923.02
200.614	9976.47
200.689	10051.71
200.764	10069.97
200.839	10134.68
200.914	10154.86
200.989	10121.42
201.063	10168.77
201.138	10112.88
201.213	10110.33
201.288	10049.01
201.363	10062.65
201.438	10062.93
201.512	10115.61
201.587	10052.8
201.662	10059.35
201.737	10097.31
201.812	10131.22
201.886	10024.53
201.961	10058.84
202.036	10016.8
202.111	10006.74
202.186	9909.45
202.26	9847.69
202.335	9778.91
202.41	9750.73
202.485	9682.12
202.559	9608.83
202.634	9516.03
202.709	9541.39
202.784	9472.87
202.858	9465.75
202.933	9403.25
203.008	9382.73
203.082	9309.41
203.157	9305.27
203.232	9157.76
203.306	9085.33
203.381	8974.33
203.456	8896.05
203.53	8810.73
203.605	8742.47
203.68	8657.15
203.754	8634.26
203.829	8588.48
203.904	8516.11
203.978	8476.35
204.053	8491.7
204.127	8452.3
204.202	8450.42
204.277	8390.86
204.351	8368.15
204.426	8347.5
204.5	8318.87
204.575	8194.31
204.65	8228.58
204.724	8197.62
204.799	8225.12
204.873	8209.81
204.948	8203.42
205.022	8160.18
205.097	8127.45
205.171	8173.86
205.246	8211.35
205.32	8207.41
205.395	8199.09
205.469	8173.08
205.544	8191.42
205.618	8134.6
205.693	8174.73
205.767	8130.43
205.842	8208.38
205.916	8189.71
205.991	8151.08
206.065	8173.7
206.14	8226.27
206.214	8210.05
206.289	8188.25
206.363	8226.78
206.438	8234.34
206.512	8265.23
206.586	8329.92
206.661	8360.93
206.735	8288.42
206.81	8290.78
206.884	8341.37
206.958	8302.27
207.033	8359.25
207.107	8388.96
207.181	8495.86
207.256	8476.27
207.33	8540.11
207.405	8586.11
207.479	8648.08
207.553	8680.99
207.628	8620.15
207.702	8666.96
207.776	8644.63
207.851	8654.16
207.925	8712.9
207.999	8700
208.073	8686.09
208.148	8695.72
208.222	8655.96
208.296	8760.43
208.371	8809.17
208.445	8850.95
208.519	8950.27
208.593	8994.22
208.668	8980.59
208.742	8989.65
208.816	8995.18
208.89	9042.23
208.965	9030.67
209.039	9059.8
209.113	9113.09
209.187	9187.55
209.261	9169.84
209.336	9239.07
209.41	9310.76
209.484	9309.56
209.558	9388.24
209.632	9432.24
209.707	9474.8
209.781	9547.89
209.855	9603.91
209.929	9661.68
210.003	9683.12
210.077	9680.13
210.151	9840.35
210.226	9960.74
210.3	10056.64
210.374	10135.32
210.448	10146.49
210.522	10191.06
210.596	10229.02
210.67	10264.33
210.744	10422.44
210.818	10537.25
210.892	10610.43
210.966	10592.03
211.041	10650.81
211.115	10640.31
211.189	10725.44
211.263	10776.02
211.337	10797.94
211.411	10849.94
211.485	10826.76
211.559	10864.77
211.633	10869.87
211.707	10760.18
211.781	10778.21
211.855	10644.94
211.929	10616.33
212.003	10555.7
212.077	10576.71
212.151	10617.14
212.225	10641.28
212.299	10601.13
212.373	10554.01
212.447	10528.86
212.52	10618.57
212.594	10620.55
212.668	10651.62
212.742	10596.88
212.816	10575.15
212.89	10551.69
212.964	10538.58
213.038	10546.29
213.112	10586.48
213.186	10634.08
213.26	10554.81
213.333	10396.94
213.407	10412.64
213.481	10416.35
213.555	10447.02
213.629	10401.05
213.703	10332.05
213.777	10328.92
213.85	10255.25
213.924	10363.77
213.998	10360.06
214.072	10332.49
214.146	10276.27
214.219	10256.66
214.293	10235.03
214.367	10229.49
214.441	10261
214.515	10208.82
214.588	10119.26
214.662	9981.55
214.736	9895.39
214.81	9910.55
214.883	9924.95
214.957	9876.75
215.031	9815.57
215.105	9719.33
215.178	9651.47
215.252	9613.14
215.326	9501.56
215.4	9417.9
215.473	9229.57
215.547	9137.05
215.621	9063.59
215.694	9054.53
215.768	8954.87
215.842	8886.91
215.915	8810.19
215.989	8684.24
216.063	8625.49
216.136	8590.73
216.21	8565.86
216.284	8571.49
216.357	8542.18
216.431	8493.62
216.504	8486.6
216.578	8547.54
216.652	8559.18
216.725	8535.11
216.799	8541.32
216.873	8525.35
216.946	8530.45
217.02	8492.61
217.093	8464.55
217.167	8367.84
217.24	8288.09
217.314	8249.76
217.387	8197.02
217.461	8149.49
217.535	8171.71
217.608	8107.54
217.682	8085.27
217.755	8104.51
217.829	8048.6
217.902	8034.79
217.976	8021.76
218.049	7975.15
218.123	7892.32
218.196	7890.4
218.27	7852.93
218.343	7776.38
218.417	7771.28
218.49	7744.83
218.563	7790.51
218.637	7796.24
218.71	7865.84
218.784	7893.07
218.857	7925.38
218.931	7950.86
219.004	7960.48
219.077	7978.28
219.151	7992.76
219.224	7986.07
219.298	7973.8
219.371	8018.11
219.444	7971.43
219.518	7979.02
219.591	7997.25
219.665	8104.88
219.738	8117.05
219.811	8100.37
219.885	8146.64
219.958	8179.84
220.031	8185.9
220.105	8205.53
220.178	8210.15
220.251	8186.14
220.325	8205.87
220.398	8227.96
220.471	8249.98
220.544	8286.02
220.618	8256.9
220.691	8288.89
220.764	8307.89
220.838	8333.93
220.911	8323.77
220.984	8413.96
221.057	8445.62
221.131	8468.66
221.204	8370.26
221.277	8444.14
221.35	8568.87
221.424	8562.18
221.497	8575.18
221.57	8602.98
221.643	8637.74
221.716	8689.97
221.79	8696.37
221.863	8708.26
221.936	8712.16
222.009	8731.59
222.082	8761.87
222.155	8776.55
222.229	8840.39
222.302	8867.87
222.375	8880.38
222.448	8915.18
222.521	8922.7
222.594	8926.79
222.667	8901.58
222.74	8956.83
222.814	8950.66
222.887	8935.78
222.96	8993.16
223.033	9033.28
223.106	9058.3
223.179	9084.93
223.252	9092.64
223.325	9122.72
223.398	9136.83
223.471	9173.32
223.544	9192.62
223.617	9205.67
223.69	9230.17
223.763	9194.29
223.837	9225.01
223.91	9255.25
223.983	9207.31
224.056	9168.66
224.129	9191.91
224.202	9253.17
224.275	9246.53
224.348	9214.66
224.42	9174.55
224.493	9110.96
224.566	9080.43
224.639	9103.63
224.712	9074.21
224.785	9064.04
224.858	9056
224.931	9038.57
225.004	8994.77
225.077	8991.11
225.15	8894.53
225.223	8891.93
225.296	8971.55
225.369	8903.92
225.442	8866.99
225.514	8884.22
225.587	8908.67
225.66	8916.81
225.733	8915.22
225.806	8919.74
225.879	8916.9
225.952	8887.02
226.025	8942.86
226.097	9002.44
226.17	8987.37
226.243	8921.1
226.316	8912.62
226.389	8918.78
226.461	8939.2
226.534	8960.71
226.607	8952.24
226.68	9043.38
226.753	9034.77
226.825	8955.63
226.898	9022.15
226.971	9029.46
227.044	9051.99
227.117	9059.07
227.189	9074.77
227.262	9106.26
227.335	9126.48
227.407	9115.27
227.48	9149.58
227.553	9159.69
227.626	9137.2
227.698	9151.21
227.771	9192.06
227.844	9175.06
227.916	9187.92
227.989	9147.96
228.062	9143.67
228.134	9234.55
228.207	9233.78
228.28	9232.96
228.352	9237.97
228.425	9242.73
228.498	9284.29
228.57	9263.45
228.643	9329.24
228.716	9324.33
228.788	9313.15
228.861	9308.67
228.934	9382.77
229.006	9397.12
229.079	9397.84
229.151	9380.74
229.224	9339.59
229.296	9362.21
229.369	9463.12
229.442	9521.55
229.514	9503.03
229.587	9554.02
229.659	9477.63
229.732	9493.09
229.804	9536.09
229.877	9622.7
229.949	9655.6
230.022	9710.52
230.094	9714.57
230.167	9693.42
230.239	9654.42
230.312	9648.5
230.384	9719.94
230.457	9712.67
230.529	9720.75
230.602	9721.91
230.674	9735.78
230.747	9782.04
230.819	9820.57
230.892	9701.13
230.964	9696.46
231.037	9725.48
231.109	9709.82
231.181	9746.18
231.254	9716.27
231.326	9698.41
231.399	9672.53
231.471	9642.38
231.544	9554.7
231.616	9602.76
231.688	9608.54
231.761	9600.16
231.833	9580.52
231.905	9489.09
231.978	9489.57
232.05	9474.07
232.122	9482.02
232.195	9453.99
232.267	9488.23
232.339	9462.03
232.412	9535.65
232.484	9505.83
232.556	9482.05
232.629	9550.8
232.701	9574.98
232.773	9578.06
232.846	9567.33
232.918	9577.54
232.99	9594.83
233.062	9645.16
233.135	9653.54
233.207	9616.94
233.279	9663.44
233.351	9704.18
233.424	9714.1
233.496	9683.91
233.568	9766.9
233.64	9729.77
233.713	9758.76
233.785	9756.4
233.857	9774.08
233.929	9720.09
234.001	9794.49
234.074	9865.45
234.146	9792.57
234.218	9792.81
234.29	9800.9
234.362	9789.01
234.434	9738.38
234.507	9702.5
234.579	9652.22
234.651	9634.69
234.723	9671.96
234.795	9690.31
234.867	9681.69
234.939	9734.63
235.012	9758.8
235.084	9767.67
235.156	9802.58
235.228	9776.67
235.3	9761.83
235.372	9769.59
235.444	9823.52
235.516	9738.1
235.588	9741.28
235.66	9755.25
235.732	9723.36
235.804	9917.95
235.876	9963.26
235.948	10020.54
236.02	10038.36
236.092	10043.37
236.164	10056.61
236.236	10054.59
236.308	10055.02
236.38	10081.52
236.452	10062.58
236.524	10081.56
236.596	10139.93
236.668	10172.44
236.74	10202.16
236.812	10233.71
236.884	10268.55
236.956	10285.51
237.028	10276.02
237.1	10259.21
237.172	10329.31
237.244	10403.26
237.316	10288.73
237.388	10277.08
237.46	10263.73
237.532	10322.6
237.604	10316.92
237.675	10388.95
237.747	10434.48
237.819	10426.92
237.891	10429.81
237.963	10422.44
238.035	10417.43
238.107	10304.53
238.178	10369.49
238.25	10371.75
238.322	10462.55
238.394	10416.88
238.466	10416.11
238.538	10468.32
238.609	10509.99
238.681	10462.34
238.753	10440.7
238.825	10457.37
238.897	10490.95
238.968	10574.13
239.04	10563.68
239.112	10684.02
239.184	10643.64
239.255	10642.15
239.327	10673.46
239.399	10701.98
239.471	10756.47
239.542	10797.67
239.614	10871.05
239.686	10782.77
239.758	10841.55
239.829	10802.85
239.901	10873.05
239.973	10895.45
240.044	10923.45
240.116	10939.06
240.188	10955.01
240.259	10972.55
240.331	10968.84
240.403	11005.7
240.474	10950.37
240.546	10933.84
240.618	10869.46
240.689	10869.37
240.761	10893.99
240.833	10961.51
240.904	10958.23
240.976	10952.21
241.048	10962.23
241.119	10996.45
241.191	11054.08
241.262	11121.32
241.334	11127.3
241.405	11129.51
241.477	11124.69
241.549	11134.86
241.62	11161.37
241.692	11208.98
241.763	11272.7
241.835	11293.76
241.906	11311.59
241.978	11288.51
242.049	11363.78
242.121	11429.56
242.192	11499.01
242.264	11458.72
242.335	11408.07
242.407	11454.86
242.478	11461.37
242.55	11489.61
242.621	11468.98
242.693	11462.57
242.764	11446.86
242.836	11452.45
242.907	11482.24
242.979	11515.68
243.05	11539.39
243.122	11563.3
243.193	11560.5
243.264	11481.95
243.336	11473.13
243.407	11510.91
243.479	11594.2
243.55	11605.04
243.622	11624.47
243.693	11626.44
243.764	11697.87
243.836	11677.05
243.907	11661.19
243.978	11670.83
244.05	11697.15
244.121	11654.64
244.192	11699.08
244.264	11647.12
244.335	11649.05
244.407	11601.39
244.478	11616.28
244.549	11612.52
244.62	11568.47
244.692	11573.67
244.763	11623.94
244.834	11615.5
244.906	11587.26
244.977	11608.08
245.048	11663.47
245.119	11631.95
245.191	11613.58
245.262	11544.91
245.333	11626.88
245.405	11652.18
245.476	11682.31
245.547	11697.54
245.618	11758.12
245.689	11775.86
245.761	11819.77
245.832	11838.86
245.903	11885.36
245.974	11916.21
246.045	11926.63
246.117	12012.37
246.188	11996.13
246.259	11977.53
246.33	12004.81
246.401	12021.92
246.473	11980.75
246.544	11969.91
246.615	12029.48
246.686	12036.86
246.757	12118.79
246.828	12093.34
246.899	12168.69
246.97	12134.52
247.042	12123.09
247.113	12166.81
247.184	12256.19
247.255	12252.19
247.326	12273.01
247.397	12280.96
247.468	12298.27
247.539	12314.37
247.61	12267.76
247.681	12306.41
247.752	12364.59
247.823	12336.39
247.894	12354.37
247.965	12332.97
248.037	12315.91
248.108	12265.15
248.179	12267.17
248.25	12256.28
248.321	12287.08
248.392	12231.88
248.463	12312.72
248.534	12309.92
248.605	12326.12
248.675	12289.82
248.746	12311.51
248.817	12333.83
248.888	12356.44
248.959	12293.34
249.03	12313.83
249.101	12330.6
249.172	12321.35
249.243	12251.17
249.314	12316.43
249.385	12319.37
249.456	12350.17
249.527	12342.75
249.598	12369.16
249.669	12375.14
249.739	12393.17
249.81	12406.28
249.881	12367.67
249.952	12368.39
250.023	12371
250.094	12321.15
250.165	12289.53
250.235	12285.09
250.306	12287.31
250.377	12248.36
250.448	12280.51
250.519	12224.12
250.59	12277.53
250.66	12273.58
250.731	12343.22
250.802	12344.81
250.873	12366.31
250.944	12387.67
251.014	12382.17
251.085	12480.56
251.156	12506.83
251.227	12562.46
251.297	12617.71
251.368	12677.81
251.439	12716.76
251.51	12764.39
251.58	12748.34
251.651	12747.33
251.722	12806.53
251.792	12750.42
251.863	12762.32
251.934	12818.62
252.005	12930.75
252.075	12945.4
252.146	13000.26
252.217	13059.21
252.287	13102.99
252.358	13104.29
252.429	13173.85
252.499	13169.08
252.57	13176.11
252.641	13226.49
252.711	13227.69
252.782	13180.31
252.852	13253.92
252.923	13253.05
252.994	13274.7
253.064	13329.89
253.135	13316.73
253.205	13286.79
253.276	13365.51
253.347	13433.29
253.417	13416.03
253.488	13396.8
253.558	13379.83
253.629	13375.58
253.699	13377.47
253.77	13401.57
253.841	13399.5
253.911	13413.52
253.982	13431.6
254.052	13459.32
254.123	13465.1
254.193	13467.37
254.264	13605.81
254.334	13564.4
254.405	13529.41
254.475	13492.62
254.546	13498.89
254.616	13553.7
254.687	13587.98
254.757	13608.99
254.827	13599.31
254.898	13622.83
254.968	13632.09
255.039	13605.52
255.109	13635.6
255.18	13611.69
255.25	13539.77
255.321	13573.47
255.391	13529.79
255.461	13622.01
255.532	13535.87
255.602	13525.02
255.673	13469.78
255.743	13433.24
255.813	13365.12
255.884	13418.83
255.954	13455.99
256.024	13520.25
256.095	13524.78
256.165	13487.71
256.235	13515.58
256.306	13505.64
256.376	13561.32
256.446	13602.68
256.517	13644.72
256.587	13699.29
256.657	13720.93
256.728	13744.36
256.798	13753.86
256.868	13756.27
256.938	13721.85
257.009	13767.94
257.079	13799.32
257.149	13907.44
257.219	13844.87
257.29	13887
257.36	13824.19
257.43	13864.73
257.5	13796.62
257.571	13793.29
257.641	13831.08
257.711	13793.63
257.781	13822.5
257.852	13832.92
257.922	13763.02
257.992	13769.14
258.062	13754.44
258.132	13793
258.202	13799.56
258.273	13810.4
258.343	13880.98
258.413	13866.42
258.483	13874.81
258.553	13847.23
258.623	13814.93
258.693	13843.57
258.764	13907.15
258.834	13987.51
258.904	14000
258.974	13988.19
259.044	13993.01
259.114	14021.45
259.184	14051.63
259.254	14073.99
259.324	14017.69
259.394	14069.17
259.464	14149.97
259.535	14162.07
259.605	14159.75
259.675	14150.4
259.745	14186.26
259.815	14158.59
259.885	14157.24
259.955	14271.14
260.025	14255.57
260.095	14273.22
260.165	14313.18
260.235	14380.52
260.305	14360.37
260.375	14331.64
260.445	14435.04
260.515	14503.73
260.585	14551.16
260.655	14561.29
260.725	14603.71
260.795	14643.86
260.865	14721.61
260.934	14689.61
261.004	14720.02
261.074	14725.28
261.144	14795.71
261.214	14830.75
261.284	14840.63
261.354	14883.83
261.424	14838.42
261.494	14918.73
261.564	14917.53
261.634	14941.44
261.703	14869.57
261.773	14891.6
261.843	14922.01
261.913	14910.59
261.983	14851.11
262.053	14877.47
262.123	14867.69
262.192	14821.36
262.262	14862.24
262.332	14813.89
262.402	14844.21
262.472	14860.21
262.541	14798.03
262.611	14841.89
262.681	14819.82
262.751	14861.22
262.821	14863.1
262.89	14831.29
262.96	14856.02
263.03	14938.92
263.1	14961.05
263.169	14987.46
263.239	15027.33
263.309	15096.79
263.379	15132.89
263.448	15155.21
263.518	15173.72
263.588	15196.47
263.657	15269.5
263.727	15309.55
263.797	15314.47
263.867	15318.71
263.936	15266.12
264.006	15327.44
264.076	15318.23
264.145	15317.22
264.215	15297.55
264.285	15341.23
264.354	15297.94
264.424	15283.09
264.494	15232.63
264.563	15221.4
264.633	15299.48
264.702	15324.5
264.772	15263.04
264.842	15253.69
264.911	15290.13
264.981	15249.07
265.05	15265.12
265.12	15264.59
265.19	15276.16
265.259	15324.41
265.329	15360.56
265.398	15398.73
265.468	15504.44
265.537	15502.7
265.607	15533.36
265.676	15586.14
265.746	15617.32
265.815	15680.85
265.885	15692.91
265.955	15681.29
266.024	15690.06
266.094	15623.3
266.163	15685.67
266.232	15759.22
266.302	15771.76
266.371	15801.21
266.441	15824.68
266.51	15871.68
266.58	15872.69
266.649	15855.87
266.719	15904.21
266.788	15927.34
266.858	16004.27
266.927	15937.18
266.996	15961.66
267.066	15997.47
267.135	15956.7
267.205	15999.16
267.274	16017.43
267.343	16076.04
267.413	16086.64
267.482	16138.07
267.552	16212.05
267.621	16159.28
267.69	16112.91
267.76	16136.87
267.829	16158.03
267.898	16173.3
267.968	16150.89
268.037	16185.31
268.106	16238.71
268.176	16210.8
268.245	16225.26
268.314	16214.56
268.384	16270.66
268.453	16297.66
268.522	16321.46
268.592	16392.75
268.661	16381.04
268.73	16414.63
268.799	16398.39
268.869	16485.48
268.938	16438.68
269.007	16418.88
269.076	16440.18
269.146	16500.67
269.215	16525.34
269.284	16604.14
269.353	16601.59
269.422	16615.37
269.492	16621.11
269.561	16537.24
269.63	16575.7
269.699	16565.29
269.768	16582.02
269.838	16601.58
269.907	16642.6
269.976	16612.28
270.045	16556.13
270.114	16585.1
270.183	16595.22
270.253	16628.91
270.322	16583.75
270.391	16615.8
270.46	16686.5
270.529	16732.77
270.598	16771.85
270.667	16787.08
270.736	16752.19
270.806	16799.52
270.875	16860.73
270.944	16861.64
271.013	16992.16
271.082	17015.15
271.151	17055.29
271.22	17022.42
271.289	17036.25
271.358	17034.08
271.427	17076.11
271.496	17103.39
271.565	17104.55
271.634	17125.75
271.703	17259
271.772	17318.86
271.841	17336.74
271.91	17305.32
271.979	17324.74
272.048	17295.58
272.117	17341.51
272.186	17351.44
272.255	17401.51
272.324	17442.43
272.393	17484.64
272.462	17471.92
272.531	17500.74
272.6	17513.03
272.669	17583.01
272.738	17596.79
272.807	17637.71
272.876	17625.37
272.945	17770.77
273.013	17832.88
273.082	17903.24
273.151	17801.46
273.22	17847.97
273.289	17871.87
273.358	17965.36
273.427	17977.51
273.496	18041.03
273.564	18082.81
273.633	18132.49
273.702	18105.36
273.771	18120.97
273.84	18153.17
273.909	18196.25
273.977	18222.56
274.046	18241.07
274.115	18300.1
274.184	18286.32
274.253	18307.42
274.322	18383.33
274.39	18319.62
274.459	18308.53
274.528	18252.25
274.597	18279.43
274.665	18299.52
274.734	18375.18
274.803	18381.35
274.872	18409.3
274.94	18392.82
275.009	18625.92
275.078	18628.04
275.147	18669
275.215	18687.03
275.284	18753.48
275.353	18767.45
275.421	18735.36
275.49	18822.82
275.559	18834.05
275.627	18870.15
275.696	18894.63
275.765	18932.89
275.833	18948.36
275.902	18994.14
275.971	19082.33
276.039	19175.58
276.108	19232.54
276.177	19268.34
276.245	19270.32
276.314	19298.37
276.383	19366.41
276.451	19183.81
276.52	19236.24
276.588	19332
276.657	19399.37
276.725	19410.26
276.794	19456.23
276.863	19550.83
276.931	19522.11
277	19593.19
277.068	19675.74
277.137	19768.99
277.205	19805.52
277.274	19921.47
277.342	20002.81
277.411	19979.63
277.48	19983.68
277.548	19995.92
277.617	20033.18
277.685	20063.34
277.754	20124.93
277.822	20144.64
277.89	20241.08
277.959	20263.3
278.027	20233.56
278.096	20242.43
278.164	20384.95
278.233	20406.83
278.301	20404.95
278.37	20475.94
278.438	20469.19
278.507	20514.15
278.575	20479.94
278.643	20514.59
278.712	20492.37
278.78	20490.54
278.849	20574.68
278.917	20657.19
278.985	20680.37
279.054	20725.97
279.122	20803.03
279.191	20837.06
279.259	20870.98
279.327	20841.82
279.396	20939.13
279.464	20973.54
279.532	21046.85
279.601	21074.72
279.669	21104.22
279.737	21199.98
279.806	21250.98
279.874	21325.4
279.942	21361.54
280.011	21384.48
280.079	21451.48
280.147	21557.66
280.215	21610.97
280.284	21643.31
280.352	21636.03
280.42	21711.66
280.488	21731.09
280.557	21747.72
280.625	21808.31
280.693	21854.19
280.761	21903.5
280.83	21894.15
280.898	21984.33
280.966	21955.7
281.034	21879.68
281.102	21880.98
281.171	21900.21
281.239	21968.77
281.307	21982.65
281.375	22001.55
281.443	22146.71
281.512	22186.38
281.58	22250.71
281.648	22242.7
281.716	22275.87
281.784	22324.03
281.852	22342.92
281.92	22378.02
281.989	22465.57
282.057	22447.25
282.125	22634.76
282.193	22670.73
282.261	22710.16
282.329	22735.57
282.397	22799.83
282.465	22859.61
282.533	22957.81
282.601	22972.36
282.67	22931.14
282.738	22951.82
282.806	23025.06
282.874	23013.58
282.942	23068.89
283.01	23096.1
283.078	23152.12
283.146	23193.63
283.214	23262.06
283.282	23319.54
283.35	23413.19
283.418	23435.86
283.486	23501.09
283.554	23413.14
283.622	23450.9
283.69	23499.65
283.758	23527.43
283.826	23590.7
283.894	23663.81
283.962	23767.38
284.03	23864.22
284.098	23933.9
284.165	23964.86
284.233	24013.53
284.301	24041.89
284.369	24055.92
284.437	24062
284.505	24105.45
284.573	24199.5
284.641	24208.67
284.709	24286.15
284.777	24268.4
284.845	24339.42
284.912	24400.92
284.98	24468.41
285.048	24504.15
285.116	24567.97
285.184	24660.84
285.252	24703.44
285.319	24701.71
285.387	24715.07
285.455	24709.48
285.523	24776.54
285.591	24814.21
285.659	24862.94
285.726	24954.72
285.794	24948.69
285.862	24987.53
285.93	25031.19
285.997	25076.27
286.065	25107.48
286.133	25117.18
286.201	25164.85
286.269	25166.35
286.336	25178.36
286.404	25190.47
286.472	25279.85
286.539	25257.32
286.607	25238.31
286.675	25286.09
286.743	25364.21
286.81	25395.3
286.878	25488.69
286.946	25506.89
287.013	25557.02
287.081	25600.71
287.149	25588.35
287.216	25709.88
287.284	25747.87
287.352	25801.2
287.419	25821.09
287.487	25925.32
287.555	25980.11
287.622	26015.25
287.69	26076.18
287.758	26177.22
287.825	26216.7
287.893	26213.32
287.96	26279.25
288.028	26371.89
288.096	26437.62
288.163	26493.87
288.231	26494.4
288.298	26528.45
288.366	26611.66
288.433	26651.53
288.501	26680.65
288.569	26746.27
288.636	26759.16
288.704	26838.46
288.771	26912.6
288.839	26938.33
288.906	26950.94
288.974	27033.81
289.041	27069.97
289.109	27092.04
289.176	27165.25
289.244	27227.12
289.311	27313.58
289.379	27394.53
289.446	27440.23
289.514	27459.85
289.581	27498.45
289.649	27567.18
289.716	27613.28
289.783	27639.22
289.851	27748.06
289.918	27781.44
289.986	27853.97
290.053	27915.43
290.121	27956.9
290.188	27995.75
290.255	28131.76
290.323	28166.07
290.39	28174.19
290.458	28249.55
290.525	28337.66
290.592	28354.73
290.66	28405.66
290.727	28439.98
290.794	28524.97
290.862	28574.71
290.929	28639.53
290.996	28690.72
291.064	28757.33
291.131	28840.41
291.198	28926.86
291.266	28970.62
291.333	29019.14
291.4	29086.32
291.468	29191.66
291.535	29236.58
291.602	29304.67
291.669	29328.72
291.737	29395.49
291.804	29448.97
291.871	29548.55
291.938	29618.5
292.006	29756.52
292.073	29843.77
292.14	29926.25
292.207	29941.15
292.275	29995.81
292.342	30075.87
292.409	30208.76
292.476	30339.67
292.543	30355.78
292.611	30401.9
292.678	30502.9
292.745	30637.16
292.812	30706.18
292.879	30738.18
292.946	30795.52
293.014	30887.05
293.081	30957.38
293.148	31047.3
293.215	31153.36
293.282	31186.03
293.349	31267.72
293.416	31244.08
293.484	31317.23
293.551	31391.8
293.618	31501.49
293.685	31640.67
293.752	31662.75
293.819	31690.79
293.886	31699.08
293.953	31782.4
294.02	31866.28
294.087	31924.89
294.154	31942.42
294.221	32046.54
294.288	32105.48
294.356	32208.25
294.423	32269
294.49	32287.31
294.557	32366.81
294.624	32385.94
294.691	32495.18
294.758	32545.33
294.825	32620.9
294.892	32670.12
294.959	32715.03
295.026	32790.63
295.093	32805.17
295.16	32863.68
295.226	32922.41
295.293	33050.23
295.36	33100.91
295.427	33175.46
295.494	33277.85
295.561	33362.36
295.628	33482.8
295.695	33575.87
295.762	33637.05
295.829	33718.6
295.896	33832.44
295.963	33923.41
296.03	34011.19
296.096	34082.51
296.163	34158.01
296.23	34264.64
296.297	34357.39
296.364	34409.35
296.431	34472.1
296.498	34518.41
296.564	34660.86
296.631	34721.23
296.698	34725.98
296.765	34848.34
296.832	34877.48
296.899	34876.03
296.965	34986.62
297.032	34954.15
297.099	35062.6
297.166	35147.68
297.233	35191.73
297.299	35223.89
297.366	35272.84
297.433	35338.23
297.5	35417.37
297.566	35475.94
297.633	35525.28
297.7	35591.76
297.767	35632.3
297.833	35712.32
297.9	35781.06
297.967	35769.22
298.033	35865.5
298.1	36013.53
298.167	36044.98
298.234	36106.6
298.3	36196.76
298.367	36227.77
298.434	36316.3
298.5	36324.94
298.567	36361.49
298.634	36403.76
298.7	36514.65
298.767	36567.61
298.834	36656
298.9	36691.83
298.967	36718.18
299.033	36814.61
299.1	36898.55
299.167	37011.19
299.233	37054.93
299.3	37140.13
299.366	37252.44
299.433	37347.76
299.5	37322.22
299.566	37392.86
299.633	37501.37
299.699	37590.08
299.766	37644.95
299.832	37701.18
299.899	37784.61
299.965	37864.43
300.032	37902.2
300.099	37964.94
300.165	38027.68
300.232	38064.4
300.298	38106.69
300.365	38204
300.431	38245.82
300.498	38276.27
300.564	38337.03
300.631	38411.82
300.697	38515.04
300.763	38564.34
300.83	38601.79
300.896	38681.1
300.963	38746.82
301.029	38805.79
301.096	38864.48
301.162	38945.88
301.229	38976.49
301.295	38996.55
301.361	39061.59
301.428	39130.85
301.494	39135.75
301.561	39206.68
301.627	39260.26
301.693	39331.47
301.76	39390.01
301.826	39406.72
301.892	39493.6
301.959	39573.27
302.025	39615.83
302.092	39637.6
302.158	39715.92
302.224	39764.51
302.291	39793.96
302.357	39836.13
302.423	39875.34
302.49	39891.91
302.556	39968.06
302.622	40021.41
302.688	40115.19
302.755	40204.66
302.821	40274.63
302.887	40363.06
302.954	40399.6
303.02	40482.45
303.086	40543.98
303.152	40588.78
303.219	40639.75
303.285	40701.05
303.351	40771.86
303.417	40822.02
303.483	40852.93
303.55	40869.11
303.616	40921.41
303.682	40962.33
303.748	41004.12
303.815	41096.92
303.881	41186.74
303.947	41202.88
304.013	41263.2
304.079	41277.44
304.145	41252.4
304.212	41290.46
304.278	41308.39
304.344	41340.18
304.41	41348.4
304.476	41349.95
304.542	41378.05
304.608	41435.21
304.674	41414.69
304.741	41438.71
304.807	41484.02
304.873	41534.86
304.939	41632.04
305.005	41607.44
305.071	41649.58
305.137	41684.14
305.203	41633.39
305.269	41655.66
305.335	41739.24
305.401	41769.14
305.467	41803.75
305.533	41884.74
305.599	41968.12
305.666	42027.97
305.732	42075.61
305.798	42160.79
305.864	42290.96
305.93	42351.83
305.996	42403.56
306.062	42466.72
306.128	42501
306.194	42518.84
306.259	42561.05
306.325	42568.44
306.391	42656.45
306.457	42734.29
306.523	42791.08
306.589	42930.4
306.655	42951.41
306.721	42923.93
306.787	42927.39
306.853	43007.34
306.919	42997.12
306.985	43011.52
307.051	43037.78
307.117	43067.05
307.183	43080.48
307.248	43039.62
307.314	43096.62
307.38	43137.63
307.446	43200.81
307.512	43203.14
307.578	43252.45
307.644	43263.98
307.709	43318.11
307.775	43338.05
307.841	43353.42
307.907	43391.41
307.973	43363.68
308.039	43404.39
308.104	43459.74
308.17	43500.24
308.236	43490.03
308.302	43541.09
308.368	43539.54
308.433	43573.87
308.499	43599.16
308.565	43594.98
308.631	43649.21
308.696	43600.38
308.762	43594.83
308.828	43606.85
308.894	43587.59
308.959	43560.99
309.025	43578.74
309.091	43601.71
309.156	43626.91
309.222	43680.71
309.288	43684.6
309.354	43654.06
309.419	43690.01
309.485	43703.49
309.551	43759.43
309.616	43764.05
309.682	43781.46
309.748	43810.55
309.813	43852.29
309.879	43857.06
309.945	43875.05
310.01	43884.01
310.076	43947.48
310.141	43972
310.207	43969.67
310.273	44029.2
310.338	44078.62
310.404	44077.01
310.469	44070.78
310.535	44076.91
310.601	44036.24
310.666	44089.28
310.732	44168.62
310.797	44170.57
310.863	44166.82
310.928	44178.3
310.994	44221.12
311.059	44261.4
311.125	44296.72
311.191	44351.14
311.256	44352.6
311.322	44405.14
311.387	44383.74
311.453	45248.2
311.518	45265.18
311.584	45290.82
311.649	45344.1
311.715	45347.9
311.78	45388.03
311.846	45397.37
311.911	45451.63
311.976	45497.07
312.042	45483.69
312.107	45459.85
312.173	45463.06
312.238	45475.03
312.304	45516.2
312.369	45531.24
312.434	45533.96
312.5	45548.27
312.565	45476.44
312.631	45536.29
312.696	45548.31
312.761	45602.6
312.827	44774.01
312.892	44884.91
312.958	44911.24
313.023	44943.08
313.088	44981.42
313.154	44964.29
313.219	44966.29
313.284	44960.45
313.35	44987.7
313.415	44997.82
313.48	45022.83
313.546	45067.07
313.611	45135.99
313.676	45123.87
313.741	45130.05
313.807	45193.53
313.872	45237.14
313.937	45311.99
314.003	45387.21
314.068	45417.05
314.133	45461.83
314.198	45479.89
314.264	45434.25
314.329	45441.7
314.394	45450.81
314.459	45489.99
314.525	45585.87
314.59	45607.77
314.655	45600.76
314.72	45652.95
314.785	45702.21
314.851	45720.21
314.916	45701.23
314.981	45675.43
315.046	45687.89
315.111	45693.2
315.176	45667.2
315.242	45696.36
315.307	45725.43
315.372	45677.91
315.437	45673.58
315.502	45681.61
315.567	45738.63
315.632	45716.38
315.698	45747.25
315.763	45765.17
315.828	45751.34
315.893	45767.46
315.958	45782.94
316.023	45785.13
316.088	45740.97
316.153	45671.61
316.218	45660.37
316.283	45619.78
316.348	45588.25
316.413	45581.68
316.479	45531.75
316.544	45425.87
316.609	45310.47
316.674	45174.74
316.739	45059.04
316.804	44936.67
316.869	44796.28
316.934	44649.59
316.999	44532.82
317.064	44342.1
317.129	44163.48
317.194	44019.82
317.259	43828.5
317.324	43628.26
317.389	43450.25
317.454	43270.66
317.518	43134.05
317.583	43004.33
317.648	42873.75
317.713	42706.76
317.778	42474.59
317.843	42337.66
317.908	42183.79
317.973	42023.73
318.038	41884.44
318.103	41712.85
318.168	41574.16
318.233	41423.27
318.297	41203.13
318.362	41028.35
318.427	40861.42
318.492	40733.1
318.557	40518.66
318.622	40371.25
318.687	40242.4
318.751	40057.68
318.816	39904.23
318.881	39725.97
318.946	39497.85
319.011	39282.3
319.075	39079.94
319.14	38885.18
319.205	38659.51
319.27	38466.9
319.335	38244.14
319.399	38027.97
319.464	37850.5
319.529	37598.56
319.594	37390.55
319.658	37216.94
319.723	37000.29
319.788	36812.88
319.853	36541.76
319.917	36349.65
319.982	36083.44
320.047	35856.43
320.112	35670.36
320.176	35409.71
320.241	35187.51
320.306	34990.01
320.37	34761.78
320.435	34567.24
320.5	34382.67
320.564	34158.37
320.629	33922.53
320.694	33713.99
320.758	33486.21
320.823	33252.98
320.888	33061.92
320.952	32798.09
321.017	32559.41
321.082	32328.19
321.146	32108.45
321.211	31888.72
321.275	31656.69
321.34	31406.66
321.405	31165.63
321.469	30907.91
321.534	30663.73
321.598	30402.8
321.663	30197.64
321.727	29989.64
321.792	29735.36
321.857	29484.96
321.921	29256.83
321.986	29012.36
322.05	28721.51
322.115	28485.58
322.179	28236.66
322.244	27944.56
322.308	27734.52
322.373	27474.05
322.437	27226.04
322.502	27032.59
322.566	26783.75
322.631	26559.2
322.695	26323.18
322.76	26067.03
322.824	25845.4
322.889	25595.95
322.953	25341.65
323.018	25011.79
323.082	24689.77
323.146	24392.37
323.211	24107.3
323.275	23848.3
323.34	23582.28
323.404	23359.74
323.468	23094.53
323.533	22832.46
323.597	22560.85
323.662	22270.59
323.726	22032.09
323.79	21769.59
323.855	21427.25
323.919	21146.65
323.983	20876.81
324.048	20488.04
324.112	20633.75
324.177	19814.9
324.241	18736.13
324.305	17671.34
324.37	16621.35
324.434	15612.09
324.498	15337.62
324.562	15024.18
324.627	14660.24
324.691	14312.59
324.755	13910.35
324.82	13457.12
324.884	12976.51
324.948	12508.29
325.012	11925.44
325.077	11206.34
