Data from 20250701_urea_2M_exp3_MAYP1162681_04-29-49-200.txt Node
Date: Wed Jul 02 04:29:49 BST 2025
User: adleo
Spectrometer: MAYP116268
Trigger mode: 0
Integration Time (sec): 4.000000E0
Scans to average: 1
Electric dark correction enabled: true
Nonlinearity correction enabled: true
Boxcar width: 10
XAxis mode: Wavelengths
Number of Pixels in Spectrum: 2068
>>>>>Begin Spectral Data<<<<<
179.565	3602.85
179.642	3801.89
179.718	3953.18
179.795	4081.72
179.871	4194.59
179.948	4250.44
180.024	4322.34
180.101	4399.95
180.177	4450.8
180.254	4525.31
180.33	4600.92
180.407	4863.27
180.483	5144.75
180.56	5428.09
180.636	5689.82
180.712	5654.12
180.789	5689.75
180.865	5733.12
180.942	5765.49
181.018	5808.46
181.095	5851.51
181.171	5866.57
181.248	5861.39
181.324	5908.04
181.4	5935.2
181.477	5968.88
181.553	6020.62
181.63	6090.68
181.706	6142.28
181.782	6168.12
181.859	6167.59
181.935	6185.5
182.011	6170.81
182.088	6223.32
182.164	6293.15
182.24	6338.67
182.317	6367.03
182.393	6355.9
182.469	6403.8
182.546	6450.27
182.622	6463.28
182.698	6449.16
182.775	6494.58
182.851	6542.05
182.927	6523.66
183.003	6503.89
183.08	6488.25
183.156	6515.71
183.232	6501.54
183.308	6464.57
183.385	6490.78
183.461	6548.01
183.537	6553.15
183.613	6599.96
183.69	6571.92
183.766	6534.4
183.842	6557.3
183.918	6576.08
183.995	6619.62
184.071	6626.68
184.147	6610.69
184.223	6570
184.299	6611.41
184.375	6572.28
184.452	6591.55
184.528	6716.89
184.604	6753.99
184.68	6793.41
184.756	6813.78
184.832	6829.44
184.908	6845.09
184.985	6842.06
185.061	6794.28
185.137	6819.07
185.213	6779.74
185.289	6785.79
185.365	6765.19
185.441	6758.8
185.517	6800.28
185.593	6788.84
185.669	6781.83
185.745	6810.51
185.822	6865.51
185.898	6831.45
185.974	6861.98
186.05	6843.14
186.126	6765.83
186.202	6747.92
186.278	6736.64
186.354	6704.21
186.43	6724.4
186.506	6720.46
186.582	6724.49
186.658	6737.98
186.734	6676.05
186.81	6684.64
186.886	6694.87
186.962	6736.17
187.038	6726.03
187.114	6703.87
187.19	6734.57
187.266	6707.01
187.341	6712.97
187.417	6692.47
187.493	6696.6
187.569	6706.21
187.645	6682.05
187.721	6641.36
187.797	6663.93
187.873	6674.3
187.949	6655.68
188.025	6636.65
188.101	6644.76
188.176	6656.48
188.252	6649.33
188.328	6674.47
188.404	6675.81
188.48	6660.5
188.556	6633.41
188.632	6634.99
188.707	6636.29
188.783	6622.98
188.859	6606.95
188.935	6563.72
189.011	6587.78
189.086	6566.41
189.162	6539.09
189.238	6533.67
189.314	6525.31
189.39	6503.51
189.465	6478.35
189.541	6538.53
189.617	6487.35
189.693	6470.74
189.768	6486.88
189.844	6559.82
189.92	6532.99
189.996	6554.94
190.071	6592.74
190.147	6588.9
190.223	6621.66
190.298	6598.94
190.374	6556.3
190.45	6593.74
190.526	6626.4
190.601	6609.59
190.677	6613.91
190.753	6704.17
190.828	6722.75
190.904	6773.66
190.98	6826.65
191.055	6866.33
191.131	6834.28
191.207	6910.59
191.282	6942.23
191.358	6906.16
191.433	6866.08
191.509	6908.89
191.585	6905.33
191.66	6903.79
191.736	6927.37
191.811	6890.38
191.887	6942.43
191.963	7018.72
192.038	7035.48
192.114	7035.48
192.189	7046.33
192.265	7036.3
192.34	6968.08
192.416	6953.06
192.491	6941.57
192.567	6950.37
192.642	6952
192.718	6955.03
192.793	6903.24
192.869	6896.27
192.944	6905.49
193.02	6929.86
193.095	6943.5
193.171	6958.15
193.246	6959.54
193.322	6950.27
193.397	6954.45
193.473	6903.89
193.548	6849.06
193.624	6866.94
193.699	6862.71
193.775	6920.15
193.85	6922.84
193.925	6950.47
194.001	6955.32
194.076	6929.23
194.152	6893.62
194.227	6876.7
194.302	6844.35
194.378	6861.06
194.453	6853.38
194.529	6899.11
194.604	6848.77
194.679	6828.83
194.755	6767.14
194.83	6806.32
194.905	6803.49
194.981	6834.14
195.056	6816.52
195.131	6828.19
195.207	6821.12
195.282	6786.64
195.357	6718.54
195.433	6771.28
195.508	6734.19
195.583	6755.8
195.659	6798.08
195.734	6821.29
195.809	6812.69
195.884	6841.59
195.96	6839.09
196.035	6884.2
196.11	6865.17
196.185	6905.37
196.261	6917.72
196.336	7021.96
196.411	6974.37
196.486	6989.55
196.561	6966.25
196.637	6989.49
196.712	7047.94
196.787	7055.44
196.862	7105.92
196.937	7137.24
197.013	7155.94
197.088	7186.4
197.163	7257.75
197.238	7322.69
197.313	7330.19
197.388	7375.99
197.464	7481.26
197.539	7524.12
197.614	7500.29
197.689	7541.97
197.764	7591.06
197.839	7657.36
197.914	7634.03
197.989	7705.1
198.065	7748.99
198.14	7910.6
198.215	8000.96
198.29	8040.51
198.365	8085.96
198.44	8125.83
198.515	8224.88
198.59	8281.75
198.665	8369.16
198.74	8396.83
198.815	8399.09
198.89	8464.04
198.965	8561.26
199.04	8544.75
199.115	8598.68
199.19	8742.25
199.265	8754.04
199.34	8790.86
199.415	8902.47
199.49	8979.16
199.565	9012.28
199.64	9095.11
199.715	9091.45
199.79	9111.96
199.865	9127.99
199.94	9123.8
200.015	9224.09
200.09	9236.37
200.165	9247.93
200.24	9267.14
200.315	9396.49
200.39	9440.55
200.464	9462.98
200.539	9469.34
200.614	9519.03
200.689	9596.08
200.764	9613.23
200.839	9671.47
200.914	9686.88
200.989	9653.73
201.063	9698.09
201.138	9643.66
201.213	9642.31
201.288	9574.61
201.363	9593.83
201.438	9595.37
201.512	9650.43
201.587	9598.9
201.662	9611.85
201.737	9657.61
201.812	9688.62
201.886	9579.64
201.961	9611.05
202.036	9569.84
202.111	9558.57
202.186	9463.34
202.26	9401.11
202.335	9330.46
202.41	9312.02
202.485	9254.55
202.559	9183.64
202.634	9087.4
202.709	9112.27
202.784	9047.1
202.858	9046.04
202.933	8981.05
203.008	8959.15
203.082	8889.94
203.157	8880.89
203.232	8739.93
203.306	8666.11
203.381	8556.17
203.456	8478.25
203.53	8401.58
203.605	8336.71
203.68	8257
203.754	8239.4
203.829	8194.94
203.904	8125.91
203.978	8083.9
204.053	8100.45
204.127	8062.74
204.202	8064.66
204.277	8008.49
204.351	7987.52
204.426	7967.31
204.5	7939.56
204.575	7829.27
204.65	7867.28
204.724	7837.01
204.799	7862.91
204.873	7844.77
204.948	7838.61
205.022	7802.08
205.097	7769.02
205.171	7818.79
205.246	7844.96
205.32	7839.05
205.395	7830.25
205.469	7801.8
205.544	7816.28
205.618	7763.14
205.693	7800.6
205.767	7763.24
205.842	7835.39
205.916	7817.65
205.991	7781.49
206.065	7798.65
206.14	7847.61
206.214	7829.61
206.289	7812
206.363	7852.01
206.438	7860.38
206.512	7884.96
206.586	7949.78
206.661	7981.49
206.735	7905.69
206.81	7905.93
206.884	7954.68
206.958	7915.36
207.033	7975.83
207.107	8004.8
207.181	8102.19
207.256	8082.13
207.33	8138.21
207.405	8178.51
207.479	8237.82
207.553	8261.81
207.628	8210.28
207.702	8242.35
207.776	8219.65
207.851	8227.01
207.925	8274.13
207.999	8267.34
208.073	8266.04
208.148	8268.45
208.222	8233.22
208.296	8341.99
208.371	8398.85
208.445	8434.41
208.519	8528.5
208.593	8565.02
208.668	8546.44
208.742	8552.22
208.816	8557.94
208.89	8603.39
208.965	8596.07
209.039	8620.86
209.113	8677.79
209.187	8749.53
209.261	8740.97
209.336	8806.42
209.41	8879.78
209.484	8881.17
209.558	8951.21
209.632	8989.57
209.707	9035.11
209.781	9104.08
209.855	9157.34
209.929	9215.3
210.003	9241.3
210.077	9237.98
210.151	9395.27
210.226	9515.83
210.3	9612.58
210.374	9688.39
210.448	9704.57
210.522	9742.53
210.596	9781.3
210.67	9813.76
210.744	9971.32
210.818	10079.25
210.892	10149.05
210.966	10125.26
211.041	10181.95
211.115	10170.63
211.189	10250.44
211.263	10298.95
211.337	10320.72
211.411	10355.55
211.485	10332.23
211.559	10364.74
211.633	10369.99
211.707	10263.21
211.781	10280.36
211.855	10153.76
211.929	10121.64
212.003	10055.54
212.077	10088.31
212.151	10121.94
212.225	10151.47
212.299	10106.17
212.373	10067.63
212.447	10044.8
212.52	10142.06
212.594	10153.09
212.668	10190.23
212.742	10140.13
212.816	10118.4
212.89	10088.83
212.964	10085.7
213.038	10092.97
213.112	10127.66
213.186	10170.72
213.26	10095.9
213.333	9942.6
213.407	9955.02
213.481	9958.39
213.555	9993.43
213.629	9936.77
213.703	9871.45
213.777	9858.97
213.85	9786.91
213.924	9883.46
213.998	9877.1
214.072	9839.9
214.146	9780.36
214.219	9761.62
214.293	9737.74
214.367	9732.78
214.441	9760.52
214.515	9712.15
214.588	9624.45
214.662	9487.85
214.736	9411.63
214.81	9429.67
214.883	9443.96
214.957	9396.08
215.031	9343.29
215.105	9250.64
215.178	9189.88
215.252	9157.09
215.326	9055.99
215.4	8977.9
215.473	8802.56
215.547	8717.68
215.621	8652.27
215.694	8644.09
215.768	8541.28
215.842	8477.67
215.915	8405.99
215.989	8292.3
216.063	8233.91
216.136	8206.14
216.21	8191.28
216.284	8200.38
216.357	8166.12
216.431	8124.6
216.504	8124.65
216.578	8178.3
216.652	8186.19
216.725	8164.34
216.799	8165.31
216.873	8150.97
216.946	8152.22
217.02	8112.95
217.093	8077.55
217.167	7979.72
217.24	7894.41
217.314	7859.47
217.387	7810.26
217.461	7762.7
217.535	7785.44
217.608	7722.55
217.682	7695.42
217.755	7708.41
217.829	7648.38
217.902	7631.59
217.976	7612.89
218.049	7558.61
218.123	7484.81
218.196	7484.23
218.27	7445.57
218.343	7377.27
218.417	7370.45
218.49	7345.88
218.563	7390.3
218.637	7405.45
218.71	7475.32
218.784	7506.53
218.857	7542.52
218.931	7565.92
219.004	7578.04
219.077	7595.07
219.151	7613.28
219.224	7607.66
219.298	7600.06
219.371	7644.3
219.444	7607.16
219.518	7612.88
219.591	7634.46
219.665	7738.55
219.738	7750.66
219.811	7736.73
219.885	7783.76
219.958	7815.26
220.031	7817.09
220.105	7836.28
220.178	7841.38
220.251	7810.3
220.325	7828.92
220.398	7846.57
220.471	7867.29
220.544	7904.81
220.618	7884.84
220.691	7912.59
220.764	7928.31
220.838	7951.54
220.911	7940.43
220.984	8024.48
221.057	8062.42
221.131	8082.28
221.204	7982.61
221.277	8053.77
221.35	8171.49
221.424	8163.41
221.497	8169.56
221.57	8204.37
221.643	8230.02
221.716	8273.76
221.79	8284.01
221.863	8299.6
221.936	8305.09
222.009	8321.29
222.082	8349.64
222.155	8350.03
222.229	8416.88
222.302	8446.9
222.375	8459.51
222.448	8499.45
222.521	8508.4
222.594	8508.78
222.667	8485.66
222.74	8542.18
222.814	8541.03
222.887	8530.53
222.96	8586.5
223.033	8631.61
223.106	8650.08
223.179	8689.27
223.252	8698.85
223.325	8727.82
223.398	8740.29
223.471	8770.94
223.544	8793.21
223.617	8805.59
223.69	8833.16
223.763	8794.79
223.837	8818.76
223.91	8847.11
223.983	8795.38
224.056	8758.81
224.129	8782.73
224.202	8839.2
224.275	8825.15
224.348	8790.78
224.42	8751.6
224.493	8690.15
224.566	8670.21
224.639	8691.15
224.712	8655.85
224.785	8651.28
224.858	8646.37
224.931	8628.7
225.004	8591.08
225.077	8587.42
225.15	8496.97
225.223	8492.16
225.296	8564.87
225.369	8508.86
225.442	8474.6
225.514	8492.87
225.587	8517.17
225.66	8519.77
225.733	8520.68
225.806	8533.82
225.879	8524.34
225.952	8496.92
226.025	8541.48
226.097	8585.88
226.17	8580.39
226.243	8520.01
226.316	8508.12
226.389	8513.51
226.461	8535.75
226.534	8556.44
226.607	8546.05
226.68	8628.94
226.753	8625.23
226.825	8549.39
226.898	8610.74
226.971	8618.15
227.044	8639.18
227.117	8640.43
227.189	8655.5
227.262	8685.3
227.335	8702.63
227.407	8699.79
227.48	8730.72
227.553	8747.14
227.626	8731.15
227.698	8733.8
227.771	8774.3
227.844	8756.15
227.916	8770.93
227.989	8728.34
228.062	8725.45
228.134	8806.76
228.207	8806.23
228.28	8802.72
228.352	8812.92
228.425	8815.52
228.498	8852.93
228.57	8832.72
228.643	8892.13
228.716	8895.98
228.788	8888.32
228.861	8884.09
228.934	8949.93
229.006	8960.04
229.079	8957.82
229.151	8944.15
229.224	8910.95
229.296	8938.48
229.369	9038.79
229.442	9081.89
229.514	9069.43
229.587	9112.31
229.659	9036.58
229.732	9049.54
229.804	9092.66
229.877	9172.08
229.949	9202.71
230.022	9260.85
230.094	9266.28
230.167	9254.72
230.239	9210.35
230.312	9200.04
230.384	9266.8
230.457	9259.33
230.529	9262.7
230.602	9265.54
230.674	9274.98
230.747	9315.5
230.819	9339.81
230.892	9222.76
230.964	9221.8
231.037	9247.97
231.109	9237.33
231.181	9284.6
231.254	9254.27
231.326	9238.14
231.399	9212.8
231.471	9183.96
231.544	9101.6
231.616	9141.65
231.688	9148.05
231.761	9139.25
231.833	9125.38
231.905	9041.3
231.978	9035.76
232.05	9026.48
232.122	9028.98
232.195	9006.49
232.267	9039.91
232.339	9019.78
232.412	9085.77
232.484	9060.68
232.556	9035.66
232.629	9109.59
232.701	9122.26
232.773	9130.49
232.846	9121.73
232.918	9127.7
232.99	9146.67
233.062	9191.84
233.135	9206.14
233.207	9170.7
233.279	9216.52
233.351	9253.25
233.424	9259.8
233.496	9242.18
233.568	9327.02
233.64	9291.35
233.713	9307.05
233.785	9306.57
233.857	9319.28
233.929	9267.62
234.001	9338.73
234.074	9404.86
234.146	9326.4
234.218	9326.11
234.29	9331.36
234.362	9315.62
234.434	9268.52
234.507	9236.26
234.579	9184.65
234.651	9163.6
234.723	9199.57
234.795	9213.2
234.867	9206.41
234.939	9266.36
235.012	9286.29
235.084	9282.87
235.156	9322.3
235.228	9304.97
235.3	9289.22
235.372	9299.96
235.444	9366.01
235.516	9285.86
235.588	9291.01
235.66	9312.77
235.732	9284.99
235.804	9476.24
235.876	9522.45
235.948	9582.99
236.02	9598.25
236.092	9612.59
236.164	9626.6
236.236	9623.62
236.308	9628
236.38	9655.06
236.452	9636.42
236.524	9653.42
236.596	9715.25
236.668	9746.84
236.74	9770.15
236.812	9803.28
236.884	9836.42
236.956	9842.44
237.028	9837.87
237.1	9823.9
237.172	9891.06
237.244	9973.03
237.316	9854.71
237.388	9842.14
237.46	9820.7
237.532	9880.19
237.604	9871.33
237.675	9947.4
237.747	9992.39
237.819	9977.75
237.891	9973.8
237.963	9959.5
238.035	9957.67
238.107	9851.05
238.178	9914.32
238.25	9921.73
238.322	10006.78
238.394	9959
238.466	9956.21
238.538	9997.81
238.609	10040.39
238.681	9982.63
238.753	9957.77
238.825	9979.11
238.897	10010.56
238.968	10096.62
239.04	10074.6
239.112	10180.33
239.184	10130.85
239.255	10122.56
239.327	10156.9
239.399	10185.89
239.471	10230.26
239.542	10265.52
239.614	10338.83
239.686	10253.7
239.758	10308.42
239.829	10275.75
239.901	10342.95
239.973	10356.92
240.044	10387.51
240.116	10401.62
240.188	10419.59
240.259	10434.57
240.331	10422.24
240.403	10454.8
240.474	10400.35
240.546	10394.47
240.618	10341.81
240.689	10350.04
240.761	10368.07
240.833	10439.81
240.904	10440.68
240.976	10438.94
241.048	10448.96
241.119	10481.16
241.191	10534.53
241.262	10598.3
241.334	10597.14
241.405	10604.22
241.477	10611.59
241.549	10623.83
241.62	10645.32
241.692	10689.89
241.763	10752.93
241.835	10776.25
241.906	10790.27
241.978	10764.25
242.049	10829.35
242.121	10887.26
242.192	10955.93
242.264	10923.79
242.335	10868.81
242.407	10916.37
242.478	10923.98
242.55	10951.4
242.621	10935.16
242.693	10924.46
242.764	10911.06
242.836	10916.03
242.907	10946.49
242.979	10978.53
243.05	10996.5
243.122	11021.71
243.193	11019.92
243.264	10944.27
243.336	10943.5
243.407	10987.59
243.479	11075.54
243.55	11093.27
243.622	11105.32
243.693	11100.55
243.764	11166.42
243.836	11141.9
243.907	11129.08
243.978	11137.85
244.05	11155.2
244.121	11107.69
244.192	11148.51
244.264	11104.17
244.335	11118.96
244.407	11066.29
244.478	11085.86
244.549	11079.45
244.62	11030.39
244.692	11040.03
244.763	11083.06
244.834	11074.14
244.906	11052.79
244.977	11068.7
245.048	11120.47
245.119	11099.7
245.191	11081.09
245.262	11019.99
245.333	11101.52
245.405	11117.28
245.476	11147.2
245.547	11172.99
245.618	11226.57
245.689	11248.55
245.761	11284.84
245.832	11286.86
245.903	11333.94
245.974	11361.08
246.045	11377.71
246.117	11464.6
246.188	11445.18
246.259	11432.26
246.33	11446.72
246.401	11449.57
246.473	11407.1
246.544	11388.64
246.615	11449.37
246.686	11448.89
246.757	11524.69
246.828	11500.88
246.899	11580.51
246.97	11542.44
247.042	11524.56
247.113	11567.99
247.184	11647.04
247.255	11641.11
247.326	11667.91
247.397	11675.09
247.468	11674.28
247.539	11685.17
247.61	11640.49
247.681	11676.97
247.752	11726.37
247.823	11704.44
247.894	11722.61
247.965	11698.66
248.037	11682.85
248.108	11630.31
248.179	11641.78
248.25	11629.16
248.321	11658.99
248.392	11607.65
248.463	11695.89
248.534	11699.07
248.605	11722.69
248.675	11699.94
248.746	11721.24
248.817	11733.68
248.888	11751.32
248.959	11700.52
249.03	11722.02
249.101	11736.77
249.172	11726.5
249.243	11659.95
249.314	11726.99
249.385	11733.64
249.456	11764.53
249.527	11762.56
249.598	11788.82
249.669	11790.9
249.739	11809.84
249.81	11822.8
249.881	11776.87
249.952	11769.16
250.023	11768.97
250.094	11712.43
250.165	11684.66
250.235	11679.12
250.306	11690.83
250.377	11659.94
250.448	11691.31
250.519	11630.05
250.59	11679.94
250.66	11678.98
250.731	11750.83
250.802	11746.69
250.873	11766.55
250.944	11793.39
251.014	11786.69
251.085	11871.05
251.156	11891.58
251.227	11941.19
251.297	12000.09
251.368	12049.01
251.439	12082.8
251.51	12138.62
251.58	12130.09
251.651	12123.87
251.722	12172.46
251.792	12115.83
251.863	12122.43
251.934	12180.61
252.005	12296
252.075	12307.23
252.146	12353.36
252.217	12403.1
252.287	12446.68
252.358	12450.59
252.429	12515.08
252.499	12505.68
252.57	12517.88
252.641	12568.59
252.711	12580.93
252.782	12528.68
252.852	12599.54
252.923	12603.49
252.994	12610.72
253.064	12659.12
253.135	12637.38
253.205	12620.07
253.276	12697.53
253.347	12759.57
253.417	12740.86
253.488	12720.47
253.558	12710.2
253.629	12711.31
253.699	12711.8
253.77	12733.3
253.841	12725.63
253.911	12738.55
253.982	12758.26
254.052	12783.09
254.123	12790.18
254.193	12790.56
254.264	12920.81
254.334	12893.43
254.405	12856.56
254.475	12826.91
254.546	12832.69
254.616	12898.15
254.687	12923.17
254.757	12944.53
254.827	12944.48
254.898	12970.7
254.968	12981.65
255.039	12964.58
255.109	13003.15
255.18	12984.11
255.25	12918.06
255.321	12955.62
255.391	12915.07
255.461	12995.43
255.532	12915.41
255.602	12905.62
255.673	12858.86
255.743	12831.39
255.813	12760.24
255.884	12815.29
255.954	12849.61
256.024	12920.52
256.095	12928
256.165	12889.1
256.235	12914.74
256.306	12898.54
256.376	12937.78
256.446	12971.43
256.517	13006.09
256.587	13050.49
256.657	13072.95
256.728	13100.29
256.798	13110.36
256.868	13111.28
256.938	13081
257.009	13133.02
257.079	13170.52
257.149	13258.93
257.219	13194.29
257.29	13234.39
257.36	13174.66
257.43	13208.6
257.5	13130.75
257.571	13113.88
257.641	13162.08
257.711	13125.35
257.781	13159.28
257.852	13179.92
257.922	13117.88
257.992	13119.42
258.062	13110.16
258.132	13144.49
258.202	13148.2
258.273	13152.97
258.343	13220.75
258.413	13217.86
258.483	13224.99
258.553	13193.8
258.623	13165.6
258.693	13199.39
258.764	13262.45
258.834	13339.72
258.904	13353.89
258.974	13350.86
259.044	13360.11
259.114	13379.92
259.184	13401.86
259.254	13411.69
259.324	13354.81
259.394	13404.07
259.464	13481.83
259.535	13485.78
259.605	13488.34
259.675	13478.02
259.745	13516.88
259.815	13490.89
259.885	13486.03
259.955	13598.34
260.025	13585.23
260.095	13598.82
260.165	13620.76
260.235	13677.49
260.305	13661.49
260.375	13631.12
260.445	13723
260.515	13792.95
260.585	13836.33
260.655	13860.34
260.725	13897.36
260.795	13936.99
260.865	13997.49
260.934	13963.84
261.004	13999.37
261.074	13996.76
261.144	14062.18
261.214	14095.63
261.284	14094.04
261.354	14136.99
261.424	14081.51
261.494	14153.25
261.564	14159.03
261.634	14184
261.703	14128.81
261.773	14148.04
261.843	14186.32
261.913	14176
261.983	14120.9
262.053	14144.33
262.123	14131.07
262.192	14101.66
262.262	14143.27
262.332	14104.8
262.402	14134.16
262.472	14136.47
262.541	14073.85
262.611	14114.1
262.681	14093.85
262.751	14136.47
262.821	14138.11
262.89	14111.4
262.96	14139.6
263.03	14215.96
263.1	14242.52
263.169	14255.78
263.239	14299.98
263.309	14359.95
263.379	14395.23
263.448	14411.91
263.518	14433.75
263.588	14452.88
263.657	14520.08
263.727	14550.89
263.797	14567.9
263.867	14570.31
263.936	14536.28
264.006	14609.99
264.076	14600.78
264.145	14603
264.215	14590.42
264.285	14634.57
264.354	14591.09
264.424	14570.22
264.494	14524.42
264.563	14517.19
264.633	14598.13
264.702	14608.54
264.772	14559.71
264.842	14550.79
264.911	14586.9
264.981	14549.2
265.05	14569.02
265.12	14567.67
265.19	14589.69
265.259	14623.97
265.329	14654.43
265.398	14686.54
265.468	14778.6
265.537	14774.46
265.607	14806.9
265.676	14858.86
265.746	14878.96
265.815	14940.76
265.885	14953.59
265.955	14939.51
266.024	14941.58
266.094	14880.85
266.163	14938.74
266.232	15003.23
266.302	15016.92
266.371	15040.11
266.441	15065.17
266.51	15101.81
266.58	15094.63
266.649	15071.34
266.719	15131.26
266.788	15170.11
266.858	15234.36
266.927	15166.2
266.996	15198.74
267.066	15221.44
267.135	15185.87
267.205	15227.85
267.274	15245.06
267.343	15300.93
267.413	15321.37
267.482	15379.69
267.552	15448.09
267.621	15401.87
267.69	15361.14
267.76	15385.77
267.829	15411.75
267.898	15439.22
267.968	15421.68
268.037	15472.39
268.106	15531.57
268.176	15500.87
268.245	15508.29
268.314	15497.11
268.384	15558.91
268.453	15580.55
268.522	15608.94
268.592	15676.13
268.661	15657.62
268.73	15689.73
268.799	15677.72
268.869	15753.88
268.938	15714.21
269.007	15701.34
269.076	15726.46
269.146	15782.56
269.215	15812.78
269.284	15880.36
269.353	15875.01
269.422	15883.06
269.492	15877.61
269.561	15788.68
269.63	15826.08
269.699	15810.61
269.768	15836.01
269.838	15859.48
269.907	15896.64
269.976	15871.77
270.045	15818.27
270.114	15859.38
270.183	15867.19
270.253	15902.96
270.322	15860.73
270.391	15882.04
270.46	15942.29
270.529	15992.12
270.598	16025.28
270.667	16038.25
270.736	16008.12
270.806	16034.59
270.875	16104.72
270.944	16114.31
271.013	16248.15
271.082	16268.98
271.151	16308.16
271.22	16271.77
271.289	16286.37
271.358	16292.16
271.427	16334.52
271.496	16364.22
271.565	16374.87
271.634	16398.34
271.703	16526.82
271.772	16585.67
271.841	16601.29
271.91	16580.76
271.979	16598.83
272.048	16580.23
272.117	16618.73
272.186	16627.41
272.255	16683.61
272.324	16716.91
272.393	16763.13
272.462	16748.91
272.531	16769.68
272.6	16782.65
272.669	16857.74
272.738	16865.26
272.807	16899.72
272.876	16881.55
272.945	17021.89
273.013	17070.57
273.082	17131.53
273.151	17037.65
273.22	17078.76
273.289	17107.01
273.358	17192.26
273.427	17204.31
273.496	17257.42
273.564	17299.11
273.633	17356.94
273.702	17343.49
273.771	17354.87
273.84	17379.11
273.909	17423.83
273.977	17465.18
274.046	17483.16
274.115	17535.78
274.184	17529.85
274.253	17551.01
274.322	17627.21
274.39	17559.98
274.459	17549.95
274.528	17498.48
274.597	17523.83
274.665	17554.1
274.734	17622.48
274.803	17624.84
274.872	17648.07
274.94	17636.65
275.009	17859.89
275.078	17848.09
275.147	17883.75
275.215	17910.45
275.284	17974.44
275.353	17977.48
275.421	17939.79
275.49	18032.8
275.559	18048.27
275.627	18083.64
275.696	18109.67
275.765	18145.43
275.833	18167.69
275.902	18208.75
275.971	18290.48
276.039	18378.77
276.108	18429.42
276.177	18465.61
276.245	18473.22
276.314	18505.36
276.383	18567.72
276.451	18390.46
276.52	18450.36
276.588	18535.56
276.657	18599.41
276.725	18609.91
276.794	18662.25
276.863	18750.1
276.931	18716.08
277	18776.99
277.068	18850.77
277.137	18935.92
277.205	18976.88
277.274	19081.36
277.342	19164.05
277.411	19156.39
277.48	19161.45
277.548	19182.13
277.617	19224.1
277.685	19249.16
277.754	19306.94
277.822	19331.66
277.89	19433.58
277.959	19455.17
278.027	19433.68
278.096	19439.27
278.164	19565.15
278.233	19575.13
278.301	19584.23
278.37	19645.72
278.438	19644.52
278.507	19697.77
278.575	19665
278.643	19698.3
278.712	19686.73
278.78	19683.36
278.849	19767.12
278.917	19839.89
278.985	19865.62
279.054	19914.87
279.122	20001.04
279.191	20039.69
279.259	20069.76
279.327	20028.5
279.396	20124.89
279.464	20161.66
279.532	20235.01
279.601	20256.75
279.669	20294.91
279.737	20379.54
279.806	20432.36
279.874	20507.93
279.942	20535.35
280.011	20572.26
280.079	20631.59
280.147	20727.54
280.215	20785.71
280.284	20804.9
280.352	20802.05
280.42	20860.8
280.488	20879.84
280.557	20894.68
280.625	20949.05
280.693	20994.4
280.761	21055.61
280.83	21039.27
280.898	21130.41
280.966	21111.56
281.034	21057.53
281.102	21058.54
281.171	21079.56
281.239	21160.97
281.307	21181.31
281.375	21192.83
281.443	21319.6
281.512	21354.69
281.58	21414.42
281.648	21406.56
281.716	21458.37
281.784	21504.69
281.852	21532.21
281.92	21569.52
281.989	21655.42
282.057	21643.27
282.125	21843.18
282.193	21873.55
282.261	21925.99
282.329	21946.19
282.397	21994.05
282.465	22054.25
282.533	22148.34
282.601	22154.55
282.67	22115.7
282.738	22125.53
282.806	22210.13
282.874	22200.29
282.942	22258.2
283.01	22280.28
283.078	22352.73
283.146	22380.49
283.214	22449.48
283.282	22501.98
283.35	22586.31
283.418	22601.89
283.486	22661.37
283.554	22554.49
283.622	22606.95
283.69	22643.39
283.758	22666.87
283.826	22735.62
283.894	22811.03
283.962	22917.99
284.03	23017.79
284.098	23070.78
284.165	23103.08
284.233	23149.27
284.301	23177.77
284.369	23199.13
284.437	23222.47
284.505	23250.19
284.573	23352.95
284.641	23365.73
284.709	23433.39
284.777	23416.18
284.845	23488.52
284.912	23545.09
284.98	23602.18
285.048	23633.91
285.116	23698.73
285.184	23794.8
285.252	23835.07
285.319	23826.63
285.387	23837.68
285.455	23838.79
285.523	23914.31
285.591	23955.68
285.659	23995.53
285.726	24094.27
285.794	24087.9
285.862	24127.84
285.93	24179.68
285.997	24199.22
286.065	24230.14
286.133	24241.72
286.201	24294.05
286.269	24295.35
286.336	24319.27
286.404	24344.31
286.472	24414.07
286.539	24387.06
286.607	24374.32
286.675	24425.61
286.743	24502.79
286.81	24536.08
286.878	24618.78
286.946	24635.95
287.013	24691.9
287.081	24740.11
287.149	24723.12
287.216	24828.06
287.284	24858.31
287.352	24897.77
287.419	24937.53
287.487	25031.83
287.555	25101.52
287.622	25138.67
287.69	25205.17
287.758	25300.77
287.825	25341.25
287.893	25357.28
287.96	25430.02
288.028	25506.08
288.096	25553.52
288.163	25613.18
288.231	25625.93
288.298	25663.24
288.366	25748
288.433	25785.11
288.501	25807.12
288.569	25876.04
288.636	25907.81
288.704	25993.88
288.771	26069.82
288.839	26083.91
288.906	26099.17
288.974	26174.8
289.041	26218.19
289.109	26233.26
289.176	26292.08
289.244	26346.87
289.311	26432.39
289.379	26517.54
289.446	26576.41
289.514	26624.22
289.581	26653.19
289.649	26720.45
289.716	26761.02
289.783	26793.67
289.851	26892.95
289.918	26937.03
289.986	27008.32
290.053	27069.27
290.121	27109.37
290.188	27157.24
290.255	27299.16
290.323	27332.87
290.39	27360.22
290.458	27428.13
290.525	27520.78
290.592	27546.34
290.66	27612.52
290.727	27646.39
290.794	27742.5
290.862	27797.74
290.929	27862.15
290.996	27916.89
291.064	27987.77
291.131	28085.89
291.198	28167.57
291.266	28211.3
291.333	28271.64
291.4	28341.35
291.468	28444.28
291.535	28484.83
291.602	28548.39
291.669	28572.76
291.737	28634.8
291.804	28671.06
291.871	28765.32
291.938	28826.25
292.006	28962.69
292.073	29040.38
292.14	29111.11
292.207	29117.01
292.275	29161.11
292.342	29237.37
292.409	29360.94
292.476	29479.32
292.543	29491.27
292.611	29519.95
292.678	29625.77
292.745	29749.69
292.812	29815.72
292.879	29830.91
292.946	29881.35
293.014	29957.55
293.081	30034.18
293.148	30117.66
293.215	30218.39
293.282	30241.81
293.349	30317.54
293.416	30295.03
293.484	30389.79
293.551	30481.93
293.618	30588.28
293.685	30709.67
293.752	30726.27
293.819	30763.79
293.886	30760.16
293.953	30831.58
294.02	30919.23
294.087	30985.9
294.154	31007.73
294.221	31100.56
294.288	31163.24
294.356	31273.99
294.423	31344.25
294.49	31364.34
294.557	31472.75
294.624	31484.32
294.691	31604.01
294.758	31653.94
294.825	31734.65
294.892	31754.26
294.959	31786.37
295.026	31851.66
295.093	31876.66
295.16	31926.32
295.226	31968.46
295.293	32111.09
295.36	32184.71
295.427	32270.65
295.494	32359
295.561	32442.84
295.628	32558.9
295.695	32657.69
295.762	32705.51
295.829	32785.96
295.896	32884.3
295.963	32956.27
296.03	33042.65
296.096	33099.74
296.163	33194.83
296.23	33296.42
296.297	33385.63
296.364	33438.44
296.431	33509.02
296.498	33553.41
296.564	33685.36
296.631	33756.11
296.698	33751.22
296.765	33858.69
296.832	33877.6
296.899	33883.37
296.965	33990.14
297.032	33978.74
297.099	34092.86
297.166	34180.57
297.233	34219.46
297.299	34252.48
297.366	34288.99
297.433	34348
297.5	34433.21
297.566	34477.3
297.633	34522.31
297.7	34590.44
297.767	34641.84
297.833	34713.77
297.9	34779.23
297.967	34778.99
298.033	34873.28
298.1	35012.18
298.167	35034.4
298.234	35113.21
298.3	35197.02
298.367	35231.91
298.434	35293.82
298.5	35302.46
298.567	35334.62
298.634	35391.87
298.7	35495.68
298.767	35555.01
298.834	35648.56
298.9	35681.36
298.967	35712.17
299.033	35792.68
299.1	35900.96
299.167	36000.76
299.233	36039.63
299.3	36121.53
299.366	36243.56
299.433	36335.69
299.5	36286.96
299.566	36354.56
299.633	36455.76
299.699	36543.23
299.766	36576.09
299.832	36643.08
299.899	36717.74
299.965	36805.3
300.032	36835.34
300.099	36911.99
300.165	36995.15
300.232	37030.15
300.298	37078.26
300.365	37167.86
300.431	37213.65
300.498	37217.78
300.564	37279.05
300.631	37358.86
300.697	37458.16
300.763	37487.78
300.83	37533.43
300.896	37648.19
300.963	37725.44
301.029	37778.81
301.096	37834.81
301.162	37912.93
301.229	37951.88
301.295	37961.69
301.361	38023.46
301.428	38093.71
301.494	38090.17
301.561	38134.31
301.627	38199.09
301.693	38261.64
301.76	38325.21
301.826	38362.22
301.892	38461.11
301.959	38542.52
302.025	38584.44
302.092	38613.63
302.158	38696.83
302.224	38744.24
302.291	38763.23
302.357	38801.46
302.423	38833.62
302.49	38850.18
302.556	38942.29
302.622	38992.56
302.688	39081.41
302.755	39175.18
302.821	39241.43
302.887	39326.29
302.954	39384.73
303.02	39454.49
303.086	39519.59
303.152	39558.31
303.219	39588.96
303.285	39640.67
303.351	39692.12
303.417	39738.04
303.483	39761.65
303.55	39773.16
303.616	39815.63
303.682	39867.42
303.748	39891.17
303.815	39985.3
303.881	40071.75
303.947	40084.62
304.013	40135.74
304.079	40162.37
304.145	40135.83
304.212	40172.32
304.278	40191.61
304.344	40209.15
304.41	40219.94
304.476	40243.22
304.542	40274.76
304.608	40348.81
304.674	40336.66
304.741	40366.36
304.807	40415.1
304.873	40469.87
304.939	40571.97
305.005	40564.92
305.071	40601.32
305.137	40648.26
305.203	40598.88
305.269	40624.25
305.335	40685.45
305.401	40709.26
305.467	40746.54
305.533	40822.06
305.599	40897.64
305.666	40972.19
305.732	41025.7
305.798	41097.35
305.864	41224.03
305.93	41274.24
305.996	41308.12
306.062	41367.95
306.128	41412.19
306.194	41420.79
306.259	41457.59
306.325	41461.77
306.391	41530.79
306.457	41601.56
306.523	41651.14
306.589	41782.1
306.655	41808.55
306.721	41794.65
306.787	41805.34
306.853	41885.95
306.919	41868.54
306.985	41884.34
307.051	41911.86
307.117	41924.26
307.183	41956.93
307.248	41886.52
307.314	41940.59
307.38	41995.28
307.446	42045.12
307.512	42041.86
307.578	42095.09
307.644	42128.06
307.709	42179.45
307.775	42211.59
307.841	42240.03
307.907	42274.65
307.973	42240.7
308.039	42274.2
308.104	42333.81
308.17	42386.22
308.236	42375.71
308.302	42435.95
308.368	42445.92
308.433	42478.49
308.499	42512.72
308.565	42503.19
308.631	42568.73
308.696	42522.35
308.762	42507.71
308.828	42540.78
308.894	42523.67
308.959	42491.73
309.025	42502.04
309.091	42534.09
309.156	42544.44
309.222	42583.1
309.288	42600.32
309.354	42570.86
309.419	42602.13
309.485	42592.84
309.551	42638.84
309.616	42638.6
309.682	42667.58
309.748	42679.25
309.813	42706.24
309.879	42727.3
309.945	42741.15
310.01	42756.38
310.076	42825.86
310.141	42853.14
310.207	42825.37
310.273	42882.79
310.338	42945.32
310.404	42931.75
310.469	42915.95
310.535	42943.57
310.601	42908.26
310.666	42949.31
310.732	43040.2
310.797	43049.49
310.863	43070.15
310.928	43082.46
310.994	43127.98
311.059	43146.51
311.125	43180.74
311.191	43243.45
311.256	43226.97
311.322	43287.71
311.387	43256.83
311.453	44174.9
311.518	44219.01
311.584	44268.77
311.649	44311.57
311.715	44320.96
311.78	44376.34
311.846	44394.92
311.911	44436.27
311.976	44481.45
312.042	44479.41
312.107	44452.17
312.173	44447.94
312.238	44457.08
312.304	44492.35
312.369	44497.75
312.434	44489.48
312.5	44502.03
312.565	44437.14
312.631	44496.32
312.696	44503.04
312.761	44558.38
312.827	43664.93
312.892	43748.78
312.958	43770.38
313.023	43798.6
313.088	43830.26
313.154	43817.67
313.219	43821.46
313.284	43815.48
313.35	43842.38
313.415	43841.11
313.48	43877.93
313.546	43924.73
313.611	43994.98
313.676	43995.03
313.741	43993.62
313.807	44055.45
313.872	44104.97
313.937	44161.5
314.003	44224.41
314.068	44264.36
314.133	44316.03
314.198	44342.93
314.264	44291.44
314.329	44289.35
314.394	44310.22
314.459	44330.6
314.525	44422.7
314.59	44460.31
314.655	44460.01
314.72	44510.18
314.785	44546.13
314.851	44542.83
314.916	44521.22
314.981	44495
315.046	44500.74
315.111	44507.26
315.176	44515.97
315.242	44547.89
315.307	44562.1
315.372	44537.04
315.437	44530.47
315.502	44527.11
315.567	44591.01
315.632	44582.74
315.698	44623.96
315.763	44641.97
315.828	44640.07
315.893	44652.33
315.958	44645.23
316.023	44647.61
316.088	44602.07
316.153	44557.26
316.218	44558.68
316.283	44510.81
316.348	44472.73
316.413	44476.67
316.479	44438.15
316.544	44326.9
316.609	44227.55
316.674	44108.96
316.739	43990.48
316.804	43871.42
316.869	43749.67
316.934	43601.87
316.999	43485.04
317.064	43289.19
317.129	43116.91
317.194	42972.53
317.259	42768.4
317.324	42580.82
317.389	42405.05
317.454	42254.31
317.518	42114.49
317.583	41994.58
317.648	41880.14
317.713	41728.71
317.778	41491.79
317.843	41366.91
317.908	41200.98
317.973	41023.13
318.038	40888.26
318.103	40723.81
318.168	40578.94
318.233	40415.51
318.297	40194.85
318.362	40017.49
318.427	39846.19
318.492	39713.48
318.557	39505.97
318.622	39368.42
318.687	39232.41
318.751	39043.48
318.816	38867.76
318.881	38696.55
318.946	38461.51
319.011	38244.03
319.075	38045.36
319.14	37864.3
319.205	37632.38
319.27	37453.77
319.335	37243.85
319.399	37034.02
319.464	36864.03
319.529	36606.9
319.594	36401.39
319.658	36230.76
319.723	36022.72
319.788	35842.47
319.853	35576.02
319.917	35407.11
319.982	35144.99
320.047	34925.78
320.112	34745.56
320.176	34483.19
320.241	34273.63
320.306	34080.63
320.37	33866.99
320.435	33676.25
320.5	33478.67
320.564	33258.79
320.629	33029.49
320.694	32836.19
320.758	32607.46
320.823	32370.54
320.888	32192.51
320.952	31939.9
321.017	31707.24
321.082	31481.06
321.146	31279
321.211	31069.63
321.275	30828.84
321.34	30596.43
321.405	30365.42
321.469	30121.36
321.534	29899.45
321.598	29641.24
321.663	29428.7
321.727	29225.28
321.792	28960.57
321.857	28730.49
321.921	28513.16
321.986	28268.01
322.05	27978.36
322.115	27766.69
322.179	27520.77
322.244	27239.32
322.308	27031.39
322.373	26785.42
322.437	26541.98
322.502	26339.24
322.566	26091.5
322.631	25866.16
322.695	25631.9
322.76	25379.1
322.824	25164.77
322.889	24913.11
322.953	24648.76
323.018	24337.6
323.082	24021.4
323.146	23750.45
323.211	23456.76
323.275	23190.64
323.34	22937.64
323.404	22710.75
323.468	22434.93
323.533	22182.5
323.597	21923.02
323.662	21638.59
323.726	21401.41
323.79	21142.66
323.855	20816
323.919	20545.93
323.983	20286.38
324.048	19899.55
324.112	20070.81
324.177	19258.65
324.241	18211.15
324.305	17188.87
324.37	16173.88
324.434	15188.24
324.498	14911.15
324.562	14613.89
324.627	14275.22
324.691	13933.62
324.755	13547.8
324.82	13115.67
324.884	12649.2
324.948	12187.57
325.012	11628.42
325.077	10931.54
