Data from 20250701_urea_2M_exp3_MAYP1162681_18-39-52-060.txt Node
Date: Tue Jul 01 18:39:52 BST 2025
User: adleo
Spectrometer: MAYP116268
Trigger mode: 0
Integration Time (sec): 4.000000E0
Scans to average: 1
Electric dark correction enabled: true
Nonlinearity correction enabled: true
Boxcar width: 10
XAxis mode: Wavelengths
Number of Pixels in Spectrum: 2068
>>>>>Begin Spectral Data<<<<<
179.565	4031.3
179.642	4244.61
179.718	4403.55
179.795	4547.56
179.871	4674.51
179.948	4743.72
180.024	4820.13
180.101	4910
180.177	4967.97
180.254	5056.84
180.33	5144.5
180.407	5440.82
180.483	5749.55
180.56	6069.9
180.636	6360.55
180.712	6319.82
180.789	6356.98
180.865	6403.23
180.942	6435.58
181.018	6476.58
181.095	6531.44
181.171	6547.58
181.248	6548.25
181.324	6609.26
181.4	6638.56
181.477	6677.42
181.553	6724.5
181.63	6806.55
181.706	6862.38
181.782	6889.59
181.859	6883.83
181.935	6901.99
182.011	6885.52
182.088	6950.62
182.164	7019.79
182.24	7073.82
182.317	7104.8
182.393	7098.31
182.469	7150.78
182.546	7198.93
182.622	7215.84
182.698	7198.49
182.775	7236.4
182.851	7289.31
182.927	7265.33
183.003	7250.72
183.08	7227.28
183.156	7267.11
183.232	7252.98
183.308	7210.88
183.385	7244.13
183.461	7309.83
183.537	7309.35
183.613	7356.06
183.69	7324.15
183.766	7278.51
183.842	7302.4
183.918	7324.32
183.995	7370.98
184.071	7380.89
184.147	7362.67
184.223	7322.81
184.299	7369.01
184.375	7333.69
184.452	7354.9
184.528	7482.99
184.604	7527.1
184.68	7575.5
184.756	7596.37
184.832	7607.72
184.908	7626.26
184.985	7624.92
185.061	7563.59
185.137	7590.94
185.213	7554.7
185.289	7560.37
185.365	7541.87
185.441	7533.6
185.517	7582.57
185.593	7571.41
185.669	7567.18
185.745	7603.1
185.822	7659.84
185.898	7625.02
185.974	7659.23
186.05	7629.22
186.126	7554.41
186.202	7521.64
186.278	7503.7
186.354	7465.81
186.43	7497.17
186.506	7494.92
186.582	7492.61
186.658	7518.12
186.734	7451.9
186.81	7454.5
186.886	7465.89
186.962	7506.6
187.038	7493.62
187.114	7459.08
187.19	7488.46
187.266	7450.78
187.341	7447.41
187.417	7427.61
187.493	7425.11
187.569	7439.77
187.645	7421.94
187.721	7375.44
187.797	7405.86
187.873	7421.63
187.949	7404.67
188.025	7375.09
188.101	7377.64
188.176	7394.12
188.252	7382.49
188.328	7408.62
188.404	7409.68
188.48	7389.69
188.556	7367.62
188.632	7368.01
188.707	7375.41
188.783	7359.11
188.859	7341.29
188.935	7304.46
189.011	7330.61
189.086	7312.11
189.162	7282.35
189.238	7273.18
189.314	7270.29
189.39	7248.52
189.465	7226.93
189.541	7288.61
189.617	7233.78
189.693	7219.18
189.768	7233.56
189.844	7319.84
189.92	7293.76
189.996	7324.38
190.071	7368.31
190.147	7362.06
190.223	7400.72
190.298	7373.03
190.374	7331.36
190.45	7376.18
190.526	7406.09
190.601	7383.16
190.677	7389.98
190.753	7487.97
190.828	7502.68
190.904	7554.75
190.98	7609.62
191.055	7639.14
191.131	7603.45
191.207	7682.48
191.282	7717.51
191.358	7676.17
191.433	7618.78
191.509	7669.46
191.585	7660.71
191.66	7659.7
191.736	7690.28
191.811	7656.18
191.887	7716.17
191.963	7797.96
192.038	7814.59
192.114	7819.35
192.189	7835.07
192.265	7818.02
192.34	7737.91
192.416	7729.11
192.491	7715.16
192.567	7725.31
192.642	7739.55
192.718	7745.13
192.793	7698.82
192.869	7687.67
192.944	7699.92
193.02	7735.18
193.095	7748.26
193.171	7773.55
193.246	7771.29
193.322	7764.41
193.397	7766.72
193.473	7715.44
193.548	7652
193.624	7673.99
193.699	7664.51
193.775	7722.87
193.85	7731.47
193.925	7762.53
194.001	7766.76
194.076	7735.46
194.152	7694.04
194.227	7665.52
194.302	7624.63
194.378	7642.03
194.453	7628.96
194.529	7671.37
194.604	7616.26
194.679	7593.19
194.755	7523.26
194.83	7570.98
194.905	7561.27
194.981	7592.19
195.056	7562.15
195.131	7578.64
195.207	7569.26
195.282	7538.79
195.357	7472.5
195.433	7528.46
195.508	7486.87
195.583	7510.95
195.659	7564.43
195.734	7588.38
195.809	7580.78
195.884	7621.2
195.96	7619.42
196.035	7677.21
196.11	7662.44
196.185	7698.07
196.261	7712.4
196.336	7826.45
196.411	7767.14
196.486	7787.28
196.561	7761.31
196.637	7795.92
196.712	7860.63
196.787	7874.97
196.862	7932.04
196.937	7966.23
197.013	7987.74
197.088	8022.17
197.163	8102
197.238	8163.53
197.313	8168.43
197.388	8219.85
197.464	8327.51
197.539	8367.29
197.614	8339.44
197.689	8384.52
197.764	8446.6
197.839	8518.1
197.914	8487.73
197.989	8571.07
198.065	8616.4
198.14	8797.53
198.215	8896.15
198.29	8935.63
198.365	8980.69
198.44	9015.63
198.515	9112.98
198.59	9170.85
198.665	9266.7
198.74	9289.19
198.815	9297.62
198.89	9374.88
198.965	9488.16
199.04	9475.97
199.115	9532.49
199.19	9689.79
199.265	9705.33
199.34	9741.12
199.415	9859.73
199.49	9940.9
199.565	9970.28
199.64	10060.73
199.715	10048.34
199.79	10063.37
199.865	10090.06
199.94	10082.98
200.015	10198.31
200.09	10215.51
200.165	10232.08
200.24	10251.16
200.315	10395.64
200.39	10443.38
200.464	10466.89
200.539	10465.97
200.614	10520.17
200.689	10599.23
200.764	10620.39
200.839	10680.4
200.914	10696.59
200.989	10659.19
201.063	10713.2
201.138	10657.01
201.213	10654.7
201.288	10582.67
201.363	10600.69
201.438	10598.33
201.512	10657.09
201.587	10597.39
201.662	10612.08
201.737	10652.37
201.812	10688.75
201.886	10576.69
201.961	10614.28
202.036	10568.71
202.111	10559.27
202.186	10453.37
202.26	10394.92
202.335	10313.64
202.41	10298.32
202.485	10241.05
202.559	10174.19
202.634	10075.25
202.709	10106.73
202.784	10035.16
202.858	10035.59
202.933	9976.01
203.008	9951.58
203.082	9879.92
203.157	9868.65
203.232	9714.11
203.306	9639.15
203.381	9519.84
203.456	9433.64
203.53	9345.22
203.605	9277.36
203.68	9192.06
203.754	9169.78
203.829	9112.19
203.904	9038.1
203.978	8985.71
204.053	8997.51
204.127	8945.9
204.202	8941.76
204.277	8879.15
204.351	8858.64
204.426	8833.94
204.5	8799.91
204.575	8676.05
204.65	8710.72
204.724	8688.37
204.799	8722.42
204.873	8709.81
204.948	8707.84
205.022	8666.36
205.097	8632.8
205.171	8676.83
205.246	8707.45
205.32	8701.77
205.395	8699.51
205.469	8670.99
205.544	8693.38
205.618	8630.57
205.693	8673.51
205.767	8629.38
205.842	8703.75
205.916	8680.41
205.991	8646.62
206.065	8670.45
206.14	8722.52
206.214	8707.3
206.289	8675.24
206.363	8716.92
206.438	8723.61
206.512	8751.73
206.586	8821.02
206.661	8855.22
206.735	8780.61
206.81	8783.98
206.884	8833.1
206.958	8791.44
207.033	8851.33
207.107	8875.65
207.181	8993.09
207.256	8968.68
207.33	9036.74
207.405	9088.77
207.479	9152.36
207.553	9176.32
207.628	9111.99
207.702	9154.78
207.776	9127.24
207.851	9138.7
207.925	9192.98
207.999	9179.12
208.073	9161.64
208.148	9165.44
208.222	9118.98
208.296	9236.01
208.371	9292.28
208.445	9335.85
208.519	9442.34
208.593	9483.6
208.668	9470.74
208.742	9477.44
208.816	9483.46
208.89	9532.64
208.965	9524.45
209.039	9557.49
209.113	9621.88
209.187	9701.37
209.261	9685.34
209.336	9761.82
209.41	9840.62
209.484	9842.16
209.558	9924.38
209.632	9978.79
209.707	10022.33
209.781	10107.25
209.855	10157.3
209.929	10217.31
210.003	10235.85
210.077	10227.42
210.151	10404.24
210.226	10528.28
210.3	10624.91
210.374	10712.09
210.448	10725.58
210.522	10760.95
210.596	10799.98
210.67	10835.25
210.744	11000
210.818	11119.61
210.892	11187.65
210.966	11169.25
211.041	11221.05
211.115	11207.51
211.189	11286.49
211.263	11345.18
211.337	11365.47
211.411	11419.21
211.485	11400.55
211.559	11441.51
211.633	11447.14
211.707	11329.78
211.781	11357.44
211.855	11229.2
211.929	11202.27
212.003	11127.03
212.077	11156.04
212.151	11197.01
212.225	11224.05
212.299	11183.85
212.373	11135.95
212.447	11119.51
212.52	11217.63
212.594	11226.07
212.668	11261.97
212.742	11209.63
212.816	11188.76
212.89	11167.27
212.964	11152.38
213.038	11153.63
213.112	11192.86
213.186	11243.26
213.26	11157.47
213.333	10983.42
213.407	10994.02
213.481	10997.49
213.555	11037.61
213.629	10986.04
213.703	10912.6
213.777	10907.2
213.85	10829.9
213.924	10946.63
213.998	10934.73
214.072	10892.79
214.146	10832.46
214.219	10816.56
214.293	10792.47
214.367	10785
214.441	10803.65
214.515	10751.5
214.588	10654.8
214.662	10518.36
214.736	10427.84
214.81	10440.55
214.883	10460.1
214.957	10405.63
215.031	10336.39
215.105	10236.69
215.178	10173.19
215.252	10134.46
215.326	10015.67
215.4	9926.21
215.473	9733.39
215.547	9642.58
215.621	9573.38
215.694	9567.65
215.768	9463.52
215.842	9393.41
215.915	9310.71
215.989	9189.34
216.063	9126.77
216.136	9101.82
216.21	9074.1
216.284	9087.54
216.357	9063.17
216.431	9014.55
216.504	9011.52
216.578	9072.33
216.652	9078.35
216.725	9050.85
216.799	9056.83
216.873	9045.32
216.946	9046.57
217.02	8995.53
217.093	8960.29
217.167	8859.16
217.24	8772.58
217.314	8732.6
217.387	8683.01
217.461	8637
217.535	8660.2
217.608	8591.28
217.682	8560.14
217.755	8572.51
217.829	8509.55
217.902	8488.37
217.976	8470.95
218.049	8422.3
218.123	8343.58
218.196	8348.83
218.27	8304.36
218.343	8221.09
218.417	8207.19
218.49	8187.84
218.563	8236.39
218.637	8248.03
218.71	8317.28
218.784	8344.86
218.857	8375.27
218.931	8401.33
219.004	8410.71
219.077	8430.94
219.151	8457.63
219.224	8451.43
219.298	8447.91
219.371	8504.61
219.444	8465.65
219.518	8471.62
219.591	8491.1
219.665	8601.33
219.738	8616.39
219.811	8604.37
219.885	8656.92
219.958	8692.05
220.031	8695.03
220.105	8717.52
220.178	8716.5
220.251	8693.4
220.325	8716.55
220.398	8739.37
220.471	8760.54
220.544	8798.47
220.618	8769.53
220.691	8795.57
220.764	8814.68
220.838	8846.01
220.911	8824.2
220.984	8917.13
221.057	8959.58
221.131	8978.69
221.204	8874.33
221.277	8953.01
221.35	9080.44
221.424	9076.01
221.497	9089.35
221.57	9115.48
221.643	9148.71
221.716	9200.76
221.79	9202.54
221.863	9209.57
221.936	9219.1
222.009	9232.82
222.082	9263.93
222.155	9276.21
222.229	9344.84
222.302	9372.13
222.375	9377.33
222.448	9419.76
222.521	9424.43
222.594	9423.9
222.667	9398.63
222.74	9459.05
222.814	9443.74
222.887	9428.85
222.96	9484.81
223.033	9526.76
223.106	9556.7
223.179	9592.35
223.252	9606.85
223.325	9650.91
223.398	9667.1
223.471	9696.18
223.544	9721.84
223.617	9730.56
223.69	9752.76
223.763	9709.55
223.837	9735.61
223.91	9764.75
223.983	9707.16
224.056	9669.84
224.129	9692.33
224.202	9754.77
224.275	9739.02
224.348	9711.52
224.42	9672.99
224.493	9614.14
224.566	9594.44
224.639	9618.37
224.712	9586.72
224.785	9575.21
224.858	9553.25
224.931	9535.48
225.004	9494.16
225.077	9486.84
225.15	9395.76
225.223	9402.07
225.296	9494.95
225.369	9439.92
225.442	9409.58
225.514	9429.55
225.587	9450.01
225.66	9456.18
225.733	9454.59
225.806	9463.07
225.879	9449.34
225.952	9419.16
226.025	9464.13
226.097	9516.6
226.17	9497.43
226.243	9426.32
226.316	9423.05
226.389	9436.34
226.461	9466.39
226.534	9487.14
226.607	9476.07
226.68	9564.8
226.753	9551.12
226.825	9457.75
226.898	9515.72
226.971	9519.38
227.044	9547.94
227.117	9555.79
227.189	9583.97
227.262	9623.52
227.335	9641.72
227.407	9641.48
227.48	9677.93
227.553	9694.26
227.626	9672.76
227.698	9678.59
227.771	9725.67
227.844	9701.73
227.916	9712.48
227.989	9667.59
228.062	9663.74
228.134	9764.7
228.207	9765.04
228.28	9760.22
228.352	9772.36
228.425	9780.55
228.498	9828.81
228.57	9801.51
228.643	9863.46
228.716	9858.07
228.788	9847.18
228.861	9847.85
228.934	9922.89
229.006	9927.85
229.079	9936.43
229.151	9922.26
229.224	9893.86
229.296	9918.95
229.369	10027.55
229.442	10085.46
229.514	10061.77
229.587	10117.02
229.659	10037.34
229.732	10056.99
229.804	10106.22
229.877	10199.98
229.949	10233.56
230.022	10289.71
230.094	10295.05
230.167	10286.33
230.239	10239.13
230.312	10225.59
230.384	10300.66
230.457	10293.77
230.529	10308.66
230.602	10305.67
230.674	10322.82
230.747	10369.96
230.819	10402.72
230.892	10279.2
230.964	10278.38
231.037	10319.11
231.109	10303.65
231.181	10343.72
231.254	10305.04
231.326	10288.33
231.399	10257.58
231.471	10233.82
231.544	10147
231.616	10193.91
231.688	10197.18
231.761	10189.82
231.833	10172.14
231.905	10079.53
231.978	10075.68
232.05	10060.89
232.122	10061.28
232.195	10033.14
232.267	10073.18
232.339	10045.62
232.412	10110.74
232.484	10082.02
232.556	10054.77
232.629	10128.35
232.701	10147.96
232.773	10161.35
232.846	10154.89
232.918	10167.33
232.99	10179.52
233.062	10230.01
233.135	10249.81
233.207	10216.32
233.279	10266.41
233.351	10313.19
233.424	10318.44
233.496	10288.71
233.568	10376.11
233.64	10342.78
233.713	10358.68
233.785	10350.1
233.857	10372.31
233.929	10325.15
234.001	10393.2
234.074	10463.52
234.146	10385.75
234.218	10386.42
234.29	10389.12
234.362	10379.53
234.434	10326.58
234.507	10288.71
234.579	10233.07
234.651	10214.33
234.723	10251.28
234.795	10266.94
234.867	10257.83
234.939	10326.78
235.012	10353.8
235.084	10364.6
235.156	10403.9
235.228	10392
235.3	10381.6
235.372	10390.56
235.444	10456.08
235.516	10375.36
235.588	10388.95
235.66	10416.84
235.732	10389.23
235.804	10602.99
235.876	10648.56
235.948	10719.2
236.02	10734.91
236.092	10747.53
236.164	10762.17
236.236	10762.41
236.308	10762.27
236.38	10786.84
236.452	10766.94
236.524	10780.53
236.596	10845.02
236.668	10877.11
236.74	10900.48
236.812	10927.37
236.884	10971.13
236.956	10977.73
237.028	10970.26
237.1	10947.86
237.172	11021.16
237.244	11103.18
237.316	10974.04
237.388	10956.55
237.46	10934.91
237.532	11006.42
237.604	11005.12
237.675	11080.49
237.747	11128.35
237.819	11120.06
237.891	11128.2
237.963	11113.75
238.035	11121.12
238.107	11004.05
238.178	11082.62
238.25	11088.4
238.322	11187.06
238.394	11130.49
238.466	11144.56
238.538	11198.72
238.609	11247.39
238.681	11190.27
238.753	11170.22
238.825	11192.01
238.897	11226.56
238.968	11314.62
239.04	11299.39
239.112	11426.86
239.184	11387.19
239.255	11385.07
239.327	11416.05
239.399	11443.48
239.471	11493.11
239.542	11526.46
239.614	11604.63
239.686	11506.98
239.758	11572.86
239.829	11537.77
239.901	11613.29
239.973	11619.75
240.044	11658.5
240.116	11671.61
240.188	11686.64
240.259	11701.97
240.331	11693.92
240.403	11736.57
240.474	11684.03
240.546	11670.63
240.618	11600.36
240.689	11602.28
240.761	11624.79
240.833	11705.43
240.904	11706.78
240.976	11713
241.048	11743.17
241.119	11774.7
241.191	11834.31
241.262	11902.33
241.334	11907.63
241.405	11919.92
241.477	11931.49
241.549	11935.11
241.62	11963.01
241.692	12014.01
241.763	12088.49
241.835	12112.78
241.906	12131.82
241.978	12099.33
242.049	12177.22
242.121	12246.05
242.192	12321.1
242.264	12285.68
242.335	12232.99
242.407	12280.42
242.478	12284.71
242.55	12304.43
242.621	12295.85
242.693	12296.14
242.764	12285.58
242.836	12288.81
242.907	12319.47
242.979	12351.81
243.05	12380.88
243.122	12410.33
243.193	12413.65
243.264	12330.74
243.336	12339.71
243.407	12379.91
243.479	12473.76
243.55	12495.6
243.622	12511.85
243.693	12509.97
243.764	12588.54
243.836	12567.47
243.907	12559.76
243.978	12566.94
244.05	12595.87
244.121	12547.33
244.192	12592.35
244.264	12540.39
244.335	12550.46
244.407	12501.44
244.478	12527.76
244.549	12518.69
244.62	12472.51
244.692	12469.72
244.763	12517.15
244.834	12494.83
244.906	12471.16
244.977	12492.52
245.048	12546.08
245.119	12526.41
245.191	12502.35
245.262	12434.15
245.333	12520.67
245.405	12541.68
245.476	12573.35
245.547	12593.84
245.618	12644.74
245.689	12661.04
245.761	12706.97
245.832	12718.11
245.903	12771.09
245.974	12797.17
246.045	12815.97
246.117	12901.87
246.188	12887.79
246.259	12870.97
246.33	12900.18
246.401	12918.55
246.473	12884.37
246.544	12862.97
246.615	12925.39
246.686	12936.96
246.757	13025.9
246.828	13004.45
246.899	13080.81
246.97	13056.17
247.042	13043.35
247.113	13098.06
247.184	13188.35
247.255	13181.75
247.326	13218.72
247.397	13224.94
247.468	13233.38
247.539	13251.17
247.61	13213.52
247.681	13266.06
247.752	13333.07
247.823	13310.65
247.894	13326.03
247.965	13300.82
248.037	13298.5
248.108	13241.33
248.179	13253.24
248.25	13244.37
248.321	13271.12
248.392	13220.36
248.463	13314.22
248.534	13317.21
248.605	13340.34
248.675	13315.04
248.746	13340.54
248.817	13362.52
248.888	13388.84
248.959	13333.89
249.03	13356.88
249.101	13363.34
249.172	13348.83
249.243	13263.94
249.314	13331.96
249.385	13334.56
249.456	13367.49
249.527	13361.8
249.598	13390.19
249.669	13393.28
249.739	13403.59
249.81	13424.32
249.881	13387.93
249.952	13376.89
250.023	13377.08
250.094	13320.05
250.165	13281.3
250.235	13272.86
250.306	13272.76
250.377	13235.64
250.448	13269.58
250.519	13208.36
250.59	13274.21
250.66	13274.59
250.731	13357.41
250.802	13358.95
250.873	13387.15
250.944	13412.75
251.014	13410.44
251.085	13508.73
251.156	13529.84
251.227	13585.42
251.297	13644.33
251.368	13702.85
251.439	13740.36
251.51	13796.33
251.58	13785
251.651	13788.71
251.722	13852.05
251.792	13793.67
251.863	13795.65
251.934	13868.15
252.005	13990.69
252.075	13997.92
252.146	14050.23
252.217	14108.07
252.287	14154.93
252.358	14161.19
252.429	14239.43
252.499	14226.37
252.57	14235.72
252.641	14291.64
252.711	14302.53
252.782	14247.38
252.852	14330.39
252.923	14339.21
252.994	14347.65
253.064	14404.15
253.135	14382.5
253.205	14366.69
253.276	14454.81
253.347	14517.91
253.417	14489.47
253.488	14471.49
253.558	14457.22
253.629	14453.32
253.699	14462.91
253.77	14490.87
253.841	14489.42
253.911	14501.67
253.982	14522.68
254.052	14560.23
254.123	14567.22
254.193	14566.84
254.264	14715.3
254.334	14672.49
254.405	14633.54
254.475	14607.27
254.546	14613.64
254.616	14687.34
254.687	14710.19
254.757	14735.35
254.827	14743.26
254.898	14768.13
254.968	14771.07
255.039	14760.52
255.109	14810.07
255.18	14783.75
255.25	14708.22
255.321	14741.28
255.391	14689.03
255.461	14777.1
255.532	14677.42
255.602	14672.26
255.673	14612.97
255.743	14574.8
255.813	14507.26
255.884	14564.24
255.954	14599.38
256.024	14670.33
256.095	14671.68
256.165	14638.28
256.235	14661.08
256.306	14646.66
256.376	14697.52
256.446	14742.49
256.517	14777.05
256.587	14818.41
256.657	14838.51
256.728	14861.27
256.798	14872.35
256.868	14875.73
256.938	14844.59
257.009	14899.93
257.079	14942.92
257.149	15056.3
257.219	14992.04
257.29	15034.8
257.36	14978.93
257.43	15021.98
257.5	14951.84
257.571	14944.52
257.641	14987.42
257.711	14954.64
257.781	14993.54
257.852	15008.77
257.922	14941.53
257.992	14943.75
258.062	14937.91
258.132	14986.84
258.202	14998.79
258.273	15014.51
258.343	15095.92
258.413	15086.71
258.483	15096.98
258.553	15061.07
258.623	15030.17
258.693	15074.67
258.764	15146.1
258.834	15215.13
258.904	15235.9
258.974	15225.97
259.044	15234.22
259.114	15262.03
259.184	15287.67
259.254	15297.55
259.324	15244.1
259.394	15300.79
259.464	15387.35
259.535	15390.15
259.605	15383.55
259.675	15373.91
259.745	15415.98
259.815	15388.56
259.885	15386.87
259.955	15509.48
260.025	15506.78
260.095	15521.48
260.165	15546.26
260.235	15610.41
260.305	15601.44
260.375	15571.03
260.445	15675.15
260.515	15747.3
260.585	15799.26
260.655	15814.49
260.725	15863.37
260.795	15908.19
260.865	15979
260.934	15950.9
261.004	15988.4
261.074	15994.81
261.144	16062.48
261.214	16098.58
261.284	16098.92
261.354	16139.8
261.424	16084.71
261.494	16156.68
261.564	16166.32
261.634	16193.74
261.703	16123.32
261.773	16147.52
261.843	16175.77
261.913	16157.84
261.983	16100.29
262.053	16118.12
262.123	16110.36
262.192	16068.67
262.262	16107.42
262.332	16054.06
262.402	16080.04
262.472	16089.39
262.541	16017.95
262.611	16067.65
262.681	16038.25
262.751	16085.72
262.821	16095.55
262.89	16067.84
262.96	16090.54
263.03	16166.55
263.1	16188.48
263.169	16203.71
263.239	16235.08
263.309	16310.22
263.379	16348.63
263.448	16366.42
263.518	16390.61
263.588	16407.15
263.657	16482.43
263.727	16522.24
263.797	16533.37
263.867	16535.21
263.936	16498.33
264.006	16568.08
264.076	16555.26
264.145	16550.54
264.215	16526.3
264.285	16573.34
264.354	16530.87
264.424	16514.29
264.494	16463.84
264.563	16457.91
264.633	16543.36
264.702	16566.3
264.772	16504.85
264.842	16501.96
264.911	16541.15
264.981	16501.19
265.05	16518.06
265.12	16514.88
265.19	16526.21
265.259	16583.61
265.329	16620.62
265.398	16653.11
265.468	16765.83
265.537	16759.33
265.607	16801.11
265.676	16854.66
265.746	16873.02
265.815	16934.86
265.885	16947.24
265.955	16940.26
266.024	16940.93
266.094	16877.51
266.163	16939.77
266.232	17011.34
266.302	17022.38
266.371	17051.97
266.441	17077.46
266.51	17129.03
266.58	17124.74
266.649	17109.18
266.719	17160.26
266.788	17183.34
266.858	17251.3
266.927	17170.81
266.996	17205.75
267.066	17238.77
267.135	17209.37
267.205	17254.62
267.274	17274.77
267.343	17335.78
267.413	17346.91
267.482	17419.15
267.552	17486.87
267.621	17443.88
267.69	17395.97
267.76	17419.4
267.829	17441.47
267.898	17460.7
267.968	17433.57
268.037	17482.38
268.106	17534.48
268.176	17496.12
268.245	17515.3
268.314	17509.85
268.384	17574.96
268.453	17595.06
268.522	17614.19
268.592	17672.99
268.661	17664.84
268.73	17697.32
268.799	17674.53
268.869	17769.66
268.938	17712.99
269.007	17704.07
269.076	17729.28
269.146	17791.78
269.215	17820.99
269.284	17898.53
269.353	17900.12
269.422	17916.16
269.492	17906.86
269.561	17823.15
269.63	17863.59
269.699	17850.04
269.768	17868.12
269.838	17885.18
269.907	17925.03
269.976	17891.34
270.045	17839.73
270.114	17876.02
270.183	17878.76
270.253	17912.64
270.322	17858.04
270.391	17880.21
270.46	17940.3
270.529	17992.25
270.598	18030.37
270.667	18049.36
270.736	18009.02
270.806	18030.76
270.875	18088.35
270.944	18099.09
271.013	18232.49
271.082	18262.12
271.151	18308.24
271.22	18273.11
271.289	18293.16
271.358	18299.9
271.427	18346.84
271.496	18379.71
271.565	18370.46
271.634	18404.63
271.703	18551.18
271.772	18619.7
271.841	18634.06
271.91	18605.92
271.979	18626.26
272.048	18595.51
272.117	18639.99
272.186	18647.6
272.255	18713.53
272.324	18756.75
272.393	18801.48
272.462	18793.81
272.531	18810.54
272.6	18815.88
272.669	18885.95
272.738	18886
272.807	18926.58
272.876	18903.64
272.945	19049.22
273.013	19113.46
273.082	19174.37
273.151	19068.64
273.22	19098.32
273.289	19126.03
273.358	19211.28
273.427	19211.62
273.496	19268.53
273.564	19303.9
273.633	19363.61
273.702	19340.67
273.771	19349.92
273.84	19373.54
273.909	19410.55
273.977	19450.55
274.046	19467.03
274.115	19523.07
274.184	19521.19
274.253	19534.44
274.322	19622.39
274.39	19550.15
274.459	19540.52
274.528	19484.66
274.597	19505.34
274.665	19529.24
274.734	19600.08
274.803	19605.57
274.872	19635.11
274.94	19625.28
275.009	19865.43
275.078	19862.4
275.147	19897.77
275.215	19930.78
275.284	20001.82
275.353	20015.12
275.421	19978.68
275.49	20091.7
275.559	20102.74
275.627	20133.53
275.696	20151.99
275.765	20196.37
275.833	20222.3
275.902	20264.03
275.971	20353.38
276.039	20449.28
276.108	20513.96
276.177	20554.34
276.245	20563.45
276.314	20596.08
276.383	20666.78
276.451	20482.14
276.52	20531.2
276.588	20619.59
276.657	20680.41
276.725	20688.37
276.794	20727.74
276.863	20815.89
276.931	20768.41
277	20840.27
277.068	20909.57
277.137	21019.9
277.205	21042.36
277.274	21151.18
277.342	21239.73
277.411	21218.18
277.48	21213.6
277.548	21221.51
277.617	21267.78
277.685	21292.65
277.754	21346.68
277.822	21361.38
277.89	21456.78
277.959	21481.36
278.027	21452.78
278.096	21456.01
278.164	21595.52
278.233	21610.18
278.301	21618.85
278.37	21676.59
278.438	21661.65
278.507	21718.24
278.575	21663.77
278.643	21695.34
278.712	21664.97
278.78	21652.2
278.849	21733.27
278.917	21817.05
278.985	21839.37
279.054	21892.01
279.122	21989.58
279.191	22027.03
279.259	22063.18
279.327	22025.53
279.396	22116.3
279.464	22153.99
279.532	22220.23
279.601	22241.55
279.669	22278.62
279.737	22355.66
279.806	22408.06
279.874	22489.49
279.942	22520.73
280.011	22548.58
280.079	22627.61
280.147	22724.65
280.215	22785.25
280.284	22807.09
280.352	22793.49
280.42	22870.01
280.488	22872.18
280.557	22882.59
280.625	22936.21
280.693	22982.35
280.761	23026.32
280.83	23019.18
280.898	23102.74
280.966	23081.33
281.034	23011.79
281.102	23006.29
281.171	23027.75
281.239	23105.35
281.307	23121.12
281.375	23131.83
281.443	23271.24
281.512	23297.38
281.58	23376.96
281.648	23359.94
281.716	23413.94
281.784	23459.8
281.852	23485.31
281.92	23528.48
281.989	23605.74
282.057	23584.86
282.125	23791.3
282.193	23835.23
282.261	23886.45
282.329	23913.12
282.397	23972.43
282.465	24027.84
282.533	24136.19
282.601	24146.27
282.67	24106.96
282.738	24116.51
282.806	24198.25
282.874	24198.88
282.942	24255.42
283.01	24277.48
283.078	24356.28
283.146	24384.35
283.214	24459.37
283.282	24503.65
283.35	24589.25
283.418	24607.34
283.486	24671.44
283.554	24555.15
283.622	24597.65
283.69	24633.01
283.758	24667.21
283.826	24732.87
283.894	24820.2
283.962	24921.41
284.03	25024.85
284.098	25077
284.165	25109.08
284.233	25153.71
284.301	25178.08
284.369	25188.41
284.437	25194.54
284.505	25220.25
284.573	25321.44
284.641	25320.58
284.709	25394.52
284.777	25386.66
284.845	25460.95
284.912	25533.33
284.98	25589.41
285.048	25611.61
285.116	25677.68
285.184	25765.2
285.252	25808.25
285.319	25794.06
285.387	25818.64
285.455	25809.18
285.523	25877.67
285.591	25931.91
285.659	25992.74
285.726	26085.72
285.794	26093.73
285.862	26133.65
285.93	26186.99
285.997	26225.43
286.065	26270.22
286.133	26279.06
286.201	26317.05
286.269	26306.23
286.336	26314.92
286.404	26348.19
286.472	26436.12
286.539	26403.44
286.607	26396.63
286.675	26448.3
286.743	26515.02
286.81	26532.17
286.878	26619.95
286.946	26636.32
287.013	26671.08
287.081	26701.22
287.149	26680.5
287.216	26782.88
287.284	26813.64
287.352	26853.86
287.419	26871.74
287.487	26962.64
287.555	27022.45
287.622	27063.01
287.69	27129.62
287.758	27221.74
287.825	27246.61
287.893	27243.66
287.96	27316.57
288.028	27403
288.096	27456.48
288.163	27516.87
288.231	27521.32
288.298	27556.98
288.366	27649.02
288.433	27688.53
288.501	27711.19
288.569	27782.16
288.636	27797.62
288.704	27886.58
288.771	27951.43
288.839	27968.87
288.906	27989.02
288.974	28072.67
289.041	28108.86
289.109	28111.51
289.176	28177.7
289.244	28226.89
289.311	28318.43
289.379	28403
289.446	28451.25
289.514	28487.17
289.581	28531.01
289.649	28587.41
289.716	28644.51
289.783	28672.89
289.851	28785.66
289.918	28834.62
289.986	28899.75
290.053	28966.18
290.121	29005.35
290.188	29058.25
290.255	29206.81
290.323	29240.03
290.39	29252.27
290.458	29323.09
290.525	29423.62
290.592	29449.06
290.66	29523.62
290.727	29553.9
290.794	29638.55
290.862	29676.57
290.929	29732.2
290.996	29775.1
291.064	29857.38
291.131	29935.42
291.198	30014.34
291.266	30055.12
291.333	30098.07
291.4	30169.2
291.468	30270.93
291.535	30297.78
291.602	30362.62
291.669	30374.53
291.737	30435.53
291.804	30478.45
291.871	30573.3
291.938	30642.03
292.006	30783.14
292.073	30855.59
292.14	30933.65
292.207	30953.84
292.275	31000.79
292.342	31075.04
292.409	31211.64
292.476	31342.93
292.543	31363.36
292.611	31405.87
292.678	31508.38
292.745	31652.85
292.812	31728.6
292.879	31754.27
292.946	31812.55
293.014	31908.89
293.081	31984.34
293.148	32071.84
293.215	32170.16
293.282	32186.04
293.349	32265.58
293.416	32231.66
293.484	32320.26
293.551	32406.16
293.618	32514.57
293.685	32659.01
293.752	32682.01
293.819	32708.13
293.886	32702.22
293.953	32780.65
294.02	32870.05
294.087	32933.79
294.154	32941.68
294.221	33025.98
294.288	33080.45
294.356	33184.9
294.423	33239.05
294.49	33259.45
294.557	33353.34
294.624	33367.63
294.691	33491.65
294.758	33545.36
294.825	33630.96
294.892	33658
294.959	33702.51
295.026	33754.67
295.093	33771.65
295.16	33827.81
295.226	33889.97
295.293	34024.01
295.36	34084.76
295.427	34162.26
295.494	34246.65
295.561	34330.86
295.628	34467.9
295.695	34575.85
295.762	34640.3
295.829	34728.2
295.896	34832.35
295.963	34910.7
296.03	35008.02
296.096	35076.47
296.163	35168.74
296.23	35271.44
296.297	35362.71
296.364	35416.7
296.431	35501.26
296.498	35542.05
296.564	35683.06
296.631	35740.26
296.698	35725.99
296.765	35844.62
296.832	35873.64
296.899	35882.71
296.965	35990.54
297.032	35955.68
297.099	36067.18
297.166	36154.33
297.233	36195.01
297.299	36222.52
297.366	36277.36
297.433	36323.75
297.5	36408.7
297.566	36461.9
297.633	36504.23
297.7	36582.23
297.767	36625.95
297.833	36696.68
297.9	36753.41
297.967	36756.76
298.033	36852.34
298.1	37013.04
298.167	37029.21
298.234	37094.98
298.3	37182.55
298.367	37229.7
298.434	37310.39
298.5	37330.55
298.567	37364.53
298.634	37397.74
298.7	37505.22
298.767	37559.26
298.834	37663.99
298.9	37694.73
298.967	37721.73
299.033	37815.17
299.1	37899.72
299.167	38010.57
299.233	38042.62
299.3	38144.73
299.366	38242.67
299.433	38343.03
299.5	38302.57
299.566	38376.82
299.633	38484.98
299.699	38586.89
299.766	38621.47
299.832	38685.01
299.899	38764.24
299.965	38860.7
300.032	38916.75
300.099	38992.91
300.165	39053.15
300.232	39094.39
300.298	39143.45
300.365	39243.37
300.431	39291.71
300.498	39323.39
300.564	39384.5
300.631	39468.35
300.697	39561.34
300.763	39610.26
300.83	39639.81
300.896	39738.57
300.963	39813.78
301.029	39874.18
301.096	39912.96
301.162	40003.13
301.229	40035.01
301.295	40037.1
301.361	40096.14
301.428	40155.56
301.494	40147.59
301.561	40221.74
301.627	40282.19
301.693	40339.57
301.76	40394.29
301.826	40424.37
301.892	40503.1
301.959	40580.77
302.025	40633.16
302.092	40668.88
302.158	40752.76
302.224	40819.35
302.291	40840.25
302.357	40870.91
302.423	40897.11
302.49	40921.02
302.556	41000.4
302.622	41050.27
302.688	41149.81
302.755	41241.5
302.821	41309.44
302.887	41405.96
302.954	41442.8
303.02	41516.98
303.086	41594.9
303.152	41621.97
303.219	41658.23
303.285	41722.95
303.351	41789.51
303.417	41847.46
303.483	41853.73
303.55	41874.92
303.616	41907.84
303.682	41933.74
303.748	41958.78
303.815	42057.48
303.881	42146.55
303.947	42156.91
304.013	42209.27
304.079	42223.85
304.145	42195.21
304.212	42241.54
304.278	42259.82
304.344	42308.54
304.41	42306.06
304.476	42318.12
304.542	42357.31
304.608	42429.8
304.674	42415.17
304.741	42441.77
304.807	42496.19
304.873	42567.47
304.939	42660.1
305.005	42637.06
305.071	42697.63
305.137	42760.35
305.203	42715.41
305.269	42734.97
305.335	42803.59
305.401	42843.03
305.467	42858.44
305.533	42934.11
305.599	43017.77
305.666	43092.22
305.732	43124.41
305.798	43218.47
305.864	43356.43
305.93	43417.56
305.996	43451.08
306.062	43506.91
306.128	43540.76
306.194	43527.78
306.259	43568.88
306.325	43574.03
306.391	43681.52
306.457	43758.08
306.523	43812.84
306.589	43947.02
306.655	43972.99
306.721	43958.3
306.787	43971.87
306.853	44076.41
306.919	44071.21
306.985	44073.3
307.051	44087.36
307.117	44101.46
307.183	44109.64
307.248	44042.97
307.314	44089.34
307.38	44122.81
307.446	44179.25
307.512	44180.61
307.578	44231.93
307.644	44235.92
307.709	44279.9
307.775	44288.66
307.841	44302.43
307.907	44344.18
307.973	44304.76
308.039	44335.22
308.104	44404.79
308.17	44439.82
308.236	44424.88
308.302	44463.65
308.368	44469
308.433	44526.95
308.499	44547.63
308.565	44556.58
308.631	44609.03
308.696	44579.16
308.762	44586.75
308.828	44628.71
308.894	44611.19
308.959	44583.75
309.025	44620.39
309.091	44656.99
309.156	44676.99
309.222	44748.78
309.288	44742.12
309.354	44722.75
309.419	44765.29
309.485	44757.94
309.551	44827.68
309.616	44833.86
309.682	44868.66
309.748	44891.62
309.813	44904.86
309.879	44930.55
309.945	44943.21
310.01	44966.71
310.076	45015.13
310.141	45041.46
310.207	45020.53
310.273	45071.67
310.338	45135.07
310.404	45122.37
310.469	45110.34
310.535	45121.83
310.601	45066.78
310.666	45117.55
310.732	45190.55
310.797	45186.07
310.863	45189.47
310.928	45184.85
310.994	45229.39
311.059	45260.83
311.125	45286.33
311.191	45352.17
311.256	45357.62
311.322	45416.66
311.387	45387.7
311.453	46212.06
311.518	46245.07
311.584	46281.78
311.649	46348.28
311.715	46363.71
311.78	46412.03
311.846	46419
311.911	46476.16
311.976	46522.2
312.042	46511.88
312.107	46488.66
312.173	46498.59
312.238	46520.2
312.304	46545.18
312.369	46545.03
312.434	46550
312.5	46565.09
312.565	46490.94
312.631	46537.96
312.696	46524.32
312.761	46565.99
312.827	45781.54
312.892	45868.99
312.958	45893.04
313.023	45907.7
313.088	45937.84
313.154	45916.57
313.219	45923.29
313.284	45918.42
313.35	45930.73
313.415	45936.58
313.48	45965.44
313.546	46021.35
313.611	46088.5
313.676	46095.66
313.741	46105.05
313.807	46167.2
313.872	46205.33
313.937	46268.18
314.003	46338.03
314.068	46385.22
314.133	46447.56
314.198	46454.47
314.264	46417.15
314.329	46416.22
314.394	46434.05
314.459	46451.14
314.525	46552.53
314.59	46588.46
314.655	46576.19
314.72	46654.42
314.785	46691.87
314.851	46712.71
314.916	46687.28
314.981	46665.85
315.046	46672.62
315.111	46665.85
315.176	46644.9
315.242	46699.76
315.307	46724.31
315.372	46682.17
315.437	46684.9
315.502	46678.18
315.567	46753.05
315.632	46746.48
315.698	46770.59
315.763	46779.36
315.828	46771.57
315.893	46774.74
315.958	46784.23
316.023	46787.59
316.088	46732.59
316.153	46674.26
316.218	46668.76
316.283	46619.34
316.348	46573.86
316.413	46570.21
316.479	46534.19
316.544	46415.65
316.609	46304.07
316.674	46178.18
316.739	46069.68
316.804	45968.66
316.869	45838.53
316.934	45699.25
316.999	45566.99
317.064	45382.14
317.129	45217.7
317.194	45076.37
317.259	44882.98
317.324	44666.51
317.389	44470.29
317.454	44297.79
317.518	44154.33
317.583	44015.55
317.648	43901.12
317.713	43744.58
317.778	43497.59
317.843	43365.38
317.908	43203.41
317.973	43023.3
318.038	42880.62
318.103	42708.1
318.168	42538.24
318.233	42379.09
318.297	42148.42
318.362	41978.1
318.427	41798.16
318.492	41660.7
318.557	41451.26
318.622	41306.44
318.687	41185.23
318.751	41002.81
318.816	40837.03
318.881	40662.27
318.946	40427.34
319.011	40193.35
319.075	39981.79
319.14	39803.74
319.205	39569.65
319.27	39386.23
319.335	39161.99
319.399	38942.33
319.464	38766.98
319.529	38510.26
319.594	38291.31
319.658	38111.58
319.723	37873.78
319.788	37693.27
319.853	37414.44
319.917	37216.63
319.982	36936.7
320.047	36709.46
320.112	36529.59
320.176	36263.09
320.241	36040.09
320.306	35827.93
320.37	35599.32
320.435	35394.28
320.5	35198.04
320.564	34967.6
320.629	34725.07
320.694	34524.39
320.758	34291.05
320.823	34039.25
320.888	33854.94
320.952	33593.87
321.017	33340.46
321.082	33112.07
321.146	32886.85
321.211	32669.69
321.275	32429.28
321.34	32186.7
321.405	31929.82
321.469	31670.77
321.534	31419.82
321.598	31157.57
321.663	30959.84
321.727	30751.6
321.792	30489.14
321.857	30225.57
321.921	29995.66
321.986	29745.29
322.05	29435.93
322.115	29202.62
322.179	28955.49
322.244	28651.42
322.308	28440.27
322.373	28185.52
322.437	27935.13
322.502	27739.67
322.566	27475.13
322.631	27239.44
322.695	27000.25
322.76	26748.27
322.824	26513.62
322.889	26273.07
322.953	26009.71
323.018	25666.34
323.082	25328.17
323.146	25037.01
323.211	24748.31
323.275	24482.54
323.34	24229.15
323.404	23996.54
323.468	23723.89
323.533	23457.03
323.597	23184.32
323.662	22886.97
323.726	22644.52
323.79	22375.23
323.855	22030.27
323.919	21749.69
323.983	21484.44
324.048	21087.51
324.112	21290.76
324.177	20464.55
324.241	19347.68
324.305	18256.27
324.37	17186.04
324.434	16153.46
324.498	15869.61
324.562	15557.17
324.627	15193.25
324.691	14826.41
324.755	14430.86
324.82	13975.21
324.884	13485.27
324.948	13006.22
325.012	12414
325.077	11684.86
