Data from 20250701_urea_2M_exp3_MAYP1162681_23-59-50-501.txt Node
Date: Tue Jul 01 23:59:50 BST 2025
User: adleo
Spectrometer: MAYP116268
Trigger mode: 0
Integration Time (sec): 4.000000E0
Scans to average: 1
Electric dark correction enabled: true
Nonlinearity correction enabled: true
Boxcar width: 10
XAxis mode: Wavelengths
Number of Pixels in Spectrum: 2068
>>>>>Begin Spectral Data<<<<<
179.565	3731.14
179.642	3932.85
179.718	4081.91
179.795	4218.31
179.871	4339.95
179.948	4405.91
180.024	4477.38
180.101	4554
180.177	4605.86
180.254	4684.91
180.33	4766.23
180.407	5035.93
180.483	5330.12
180.56	5623.16
180.636	5891.51
180.712	5856.23
180.789	5889.09
180.865	5930.36
180.942	5959.57
181.018	5996.46
181.095	6044.42
181.171	6063.95
181.248	6060.78
181.324	6110.95
181.4	6136.67
181.477	6170.71
181.553	6213.11
181.63	6283.91
181.706	6343.11
181.782	6365.5
181.859	6363.68
181.935	6377.27
182.011	6367.71
182.088	6426.4
182.164	6496.05
182.24	6544.52
182.317	6569.67
182.393	6565.83
182.469	6616.62
182.546	6666.85
182.622	6681.02
182.698	6668.63
182.775	6705.17
182.851	6757.9
182.927	6736.86
183.003	6723.66
183.08	6701
183.156	6735.58
183.232	6723.76
183.308	6680.97
183.385	6712.55
183.461	6770.81
183.537	6778.83
183.613	6820.29
183.69	6781.95
183.766	6744.71
183.842	6774.92
183.918	6798.17
183.995	6838.75
184.071	6845.57
184.147	6825.68
184.223	6786.42
184.299	6826.74
184.375	6789.47
184.452	6811.24
184.528	6943.39
184.604	6979.75
184.68	7017.35
184.756	7040.95
184.832	7057.09
184.908	7072.55
184.985	7071.39
185.061	7018.13
185.137	7039.56
185.213	7000.89
185.289	7012.17
185.365	6986.05
185.441	6975.82
185.517	7017.45
185.593	7008.17
185.669	7001.3
185.745	7033.88
185.822	7096.82
185.898	7066.6
185.974	7100.69
186.05	7070.41
186.126	6988.23
186.202	6963.45
186.278	6954.41
186.354	6920.49
186.43	6940.15
186.506	6938.61
186.582	6937.27
186.658	6961.56
186.734	6895.44
186.81	6904.75
186.886	6912.68
186.962	6956.1
187.038	6943.37
187.114	6919.33
187.19	6946.86
187.266	6915.93
187.341	6918.82
187.417	6886.39
187.493	6889.71
187.569	6901.43
187.645	6883.85
187.721	6850.6
187.797	6874.42
187.873	6886.96
187.949	6869.91
188.025	6848.24
188.101	6855.68
188.176	6874.32
188.252	6855.25
188.328	6888.23
188.404	6885.68
188.48	6863.59
188.556	6836.02
188.632	6835.34
188.707	6836.11
188.783	6822.65
188.859	6811.76
188.935	6773.22
189.011	6803.34
189.086	6780.82
189.162	6749.54
189.238	6739.17
189.314	6724.28
189.39	6708.24
189.465	6690.03
189.541	6745.48
189.617	6694.34
189.693	6679.74
189.768	6687.81
189.844	6776.34
189.92	6748.07
189.996	6779.05
190.071	6816.08
190.147	6813.54
190.223	6846.02
190.298	6816.52
190.374	6776.85
190.45	6813.44
190.526	6841.06
190.601	6821.08
190.677	6825.35
190.753	6919.43
190.828	6936.58
190.904	6988.18
190.98	7033.54
191.055	7067.08
191.131	7036.76
191.207	7109.33
191.282	7140.17
191.358	7111.39
191.433	7059.32
191.509	7097.29
191.585	7090.03
191.66	7097.29
191.736	7125.49
191.811	7092.91
191.887	7156.31
191.963	7231.61
192.038	7248.76
192.114	7253.28
192.189	7269.04
192.265	7260.49
192.34	7186.44
192.416	7175.78
192.491	7166.21
192.567	7178.18
192.642	7183.71
192.718	7186.55
192.793	7148.1
192.869	7132.83
192.944	7146.03
193.02	7170.5
193.095	7192.03
193.171	7207.16
193.246	7205.38
193.322	7201.88
193.397	7201.54
193.473	7146.54
193.548	7092.04
193.624	7111.56
193.699	7104.68
193.775	7159.3
193.85	7161.99
193.925	7192.03
194.001	7196.59
194.076	7173.14
194.152	7138.24
194.227	7113.77
194.302	7080.16
194.378	7094.28
194.453	7089.48
194.529	7124.13
194.604	7075.6
194.679	7053.26
194.755	6991.97
194.83	7034.15
194.905	7023.19
194.981	7058.56
195.056	7035.79
195.131	7051.12
195.207	7045.64
195.282	7014.7
195.357	6951.58
195.433	7006.64
195.508	6964.4
195.583	6987.41
195.659	7029.13
195.734	7052.68
195.809	7052.73
195.884	7079.76
195.96	7078.37
196.035	7124.98
196.11	7110.84
196.185	7148.85
196.261	7160.33
196.336	7267.44
196.411	7219.99
196.486	7241.9
196.561	7216.52
196.637	7251.35
196.712	7313.14
196.787	7317.7
196.862	7369.65
196.937	7404.73
197.013	7420.31
197.088	7455.1
197.163	7531.14
197.238	7591.04
197.313	7586.72
197.388	7629.26
197.464	7732.43
197.539	7769.44
197.614	7749.21
197.689	7794.31
197.764	7853.96
197.839	7920.65
197.914	7896.02
197.989	7967.01
198.065	8008.71
198.14	8179.94
198.215	8270.23
198.29	8306.86
198.365	8352.85
198.44	8389.65
198.515	8478.72
198.59	8530.78
198.665	8622.83
198.74	8648.78
198.815	8651.14
198.89	8732.7
198.965	8838.51
199.04	8830.18
199.115	8881.91
199.19	9021.8
199.265	9029.5
199.34	9064.83
199.415	9181.23
199.49	9253.51
199.565	9285.72
199.64	9370.12
199.715	9362.31
199.79	9377.86
199.865	9398.33
199.94	9393.61
200.015	9496.37
200.09	9513.04
200.165	9537.98
200.24	9559.22
200.315	9688.83
200.39	9737.61
200.464	9754.23
200.539	9754.42
200.614	9801.9
200.689	9884.69
200.764	9911.09
200.839	9974.35
200.914	9984.8
200.989	9942.98
201.063	9992.5
201.138	9938.59
201.213	9935.89
201.288	9868.22
201.363	9888.98
201.438	9889.22
201.512	9944.11
201.587	9884.43
201.662	9902.83
201.737	9943.43
201.812	9974.51
201.886	9865.08
201.961	9902.37
202.036	9865.05
202.111	9859.37
202.186	9765.46
202.26	9704.62
202.335	9631.89
202.41	9605.88
202.485	9555.86
202.559	9491.44
202.634	9399.99
202.709	9431.27
202.784	9365.02
202.858	9364.01
202.933	9299.69
203.008	9273.2
203.082	9206.43
203.157	9206
203.232	9055.57
203.306	8982.18
203.381	8868.59
203.456	8790.42
203.53	8705.4
203.605	8636.18
203.68	8554.67
203.754	8530
203.829	8479.61
203.904	8411.09
203.978	8370.47
204.053	8382.26
204.127	8339.73
204.202	8339.63
204.277	8279.74
204.351	8256.35
204.426	8233.83
204.5	8210.5
204.575	8092.92
204.65	8126.66
204.724	8101.48
204.799	8129.07
204.873	8110.88
204.948	8103.71
205.022	8068.42
205.097	8038.48
205.171	8086.24
205.246	8109.34
205.32	8105.39
205.395	8098.95
205.469	8068.76
205.544	8088.35
205.618	8024.56
205.693	8065.11
205.767	8016.78
205.842	8087.65
205.916	8067.26
205.991	8030.27
206.065	8044.65
206.14	8099.91
206.214	8085.33
206.289	8053.66
206.363	8091.9
206.438	8107.11
206.512	8131.79
206.586	8191.29
206.661	8223.15
206.735	8149.79
206.81	8156.72
206.884	8212.65
206.958	8171.1
207.033	8227.93
207.107	8257.4
207.181	8363.61
207.256	8338.49
207.33	8405.84
207.405	8444.17
207.479	8513.02
207.553	8541.69
207.628	8487.11
207.702	8525.21
207.776	8505.72
207.851	8524.05
207.925	8575.9
207.999	8563.43
208.073	8554.82
208.148	8559.63
208.222	8522.67
208.296	8632.18
208.371	8684.87
208.445	8722.12
208.519	8820.52
208.593	8857.28
208.668	8839.47
208.742	8848.19
208.816	8862.43
208.89	8907.59
208.965	8906
209.039	8925.89
209.113	8981.15
209.187	9053.92
209.261	9041.17
209.336	9110.01
209.41	9171.92
209.484	9170.72
209.558	9245.74
209.632	9294.16
209.707	9336.91
209.781	9407.54
209.855	9460.81
209.929	9519.93
210.003	9531.3
210.077	9532.07
210.151	9694.39
210.226	9807.35
210.3	9898.62
210.374	9973.53
210.448	9985.77
210.522	10021.51
210.596	10062.74
210.67	10098.73
210.744	10259.24
210.818	10371.34
210.892	10433.3
210.966	10416.88
211.041	10472.61
211.115	10461.29
211.189	10543
211.263	10602.25
211.337	10626.82
211.411	10669.03
211.485	10645.46
211.559	10684.05
211.633	10690.69
211.707	10588.43
211.781	10616.57
211.855	10490.01
211.929	10460.87
212.003	10394.13
212.077	10428.01
212.151	10464.1
212.225	10491.08
212.299	10445.3
212.373	10400.54
212.447	10382.95
212.52	10478.88
212.594	10486.25
212.668	10522
212.742	10468.47
212.816	10438.88
212.89	10408.83
212.964	10395.86
213.038	10403.09
213.112	10446.65
213.186	10493.14
213.26	10411.42
213.333	10247.4
213.407	10258.18
213.481	10261.07
213.555	10301.56
213.629	10249.09
213.703	10182.12
213.777	10166.41
213.85	10099.88
213.924	10207.18
213.998	10202.12
214.072	10165.6
214.146	10110.87
214.219	10086.44
214.293	10066.89
214.367	10064.72
214.441	10095.02
214.515	10050.21
214.588	9956.48
214.662	9820.42
214.736	9733.54
214.81	9749.47
214.883	9766.85
214.957	9726.36
215.031	9664.85
215.105	9562.94
215.178	9496
215.252	9457
215.326	9352.61
215.4	9261.88
215.473	9076.16
215.547	8981.82
215.621	8917.7
215.694	8909.47
215.768	8812.75
215.842	8742.24
215.915	8664.24
215.989	8546.48
216.063	8486.82
216.136	8462.13
216.21	8438.22
216.284	8447.17
216.357	8421.09
216.431	8379.56
216.504	8370.18
216.578	8432.03
216.652	8449.86
216.725	8424.65
216.799	8428.79
216.873	8412.53
216.946	8420.7
217.02	8376.04
217.093	8346.6
217.167	8246.62
217.24	8164.9
217.314	8125.09
217.387	8075.53
217.461	8035.65
217.535	8058.16
217.608	7993.71
217.682	7963.02
217.755	7979.66
217.829	7919.91
217.902	7903.89
217.976	7880.71
218.049	7835.26
218.123	7755.38
218.196	7749.23
218.27	7709.5
218.343	7638.83
218.417	7634.35
218.49	7608.58
218.563	7657.14
218.637	7663.15
218.71	7728.56
218.784	7758
218.857	7789.44
218.931	7811.07
219.004	7820.4
219.077	7835.13
219.151	7858.35
219.224	7853.06
219.298	7843.87
219.371	7891.69
219.444	7846.45
219.518	7855.63
219.591	7874.48
219.665	7974.69
219.738	7988.2
219.811	7971.14
219.885	8018.47
219.958	8047.86
220.031	8053.68
220.105	8067.53
220.178	8076.29
220.251	8050.59
220.325	8071.48
220.398	8095.39
220.471	8119.86
220.544	8150.8
220.618	8127.75
220.691	8147.13
220.764	8166.32
220.838	8199.91
220.911	8186.1
220.984	8275.8
221.057	8312.6
221.131	8339.49
221.204	8242.6
221.277	8314.45
221.35	8446.63
221.424	8445.71
221.497	8460.44
221.57	8483.96
221.643	8525.11
221.716	8574.01
221.79	8578.49
221.863	8585.52
221.936	8589.65
222.009	8599.47
222.082	8631.09
222.155	8643.27
222.229	8720.87
222.302	8748.25
222.375	8754.41
222.448	8789.54
222.521	8792.62
222.594	8796.67
222.667	8768.09
222.74	8825.69
222.814	8819.77
222.887	8798.43
222.96	8843.44
223.033	8890.24
223.106	8913.29
223.179	8939.49
223.252	8947.14
223.325	8987.33
223.398	9003.22
223.471	9027.14
223.544	9051.87
223.617	9065.31
223.69	9086.92
223.763	9039.92
223.837	9065.82
223.91	9090.85
223.983	9038.88
224.056	9006.92
224.129	9028.06
224.202	9081.85
224.275	9076.36
224.348	9045.79
224.42	9012.19
224.493	8957.31
224.566	8930.63
224.639	8952.97
224.712	8927.4
224.785	8917.19
224.858	8903.66
224.931	8885.37
225.004	8850.43
225.077	8843.59
225.15	8752.21
225.223	8749.23
225.296	8835.49
225.369	8780.23
225.442	8744.42
225.514	8767.61
225.587	8788.25
225.66	8793.64
225.733	8789.65
225.806	8797.11
225.879	8788.74
225.952	8753.08
226.025	8799.96
226.097	8847.45
226.17	8835.75
226.243	8764.87
226.316	8757.46
226.389	8762.65
226.461	8781.77
226.534	8806.84
226.607	8804.38
226.68	8887.15
226.753	8884.4
226.825	8792.17
226.898	8847.28
226.971	8856.91
227.044	8875.58
227.117	8881.5
227.189	8902.54
227.262	8940.34
227.335	8957.87
227.407	8953.82
227.48	8989.24
227.553	8994.58
227.626	8975.7
227.698	8981.09
227.771	9024.63
227.844	9012.45
227.916	9030.94
227.989	8998.44
228.062	8991.71
228.134	9085.37
228.207	9090.95
228.28	9081.47
228.352	9098.46
228.425	9101.45
228.498	9142.52
228.57	9121.92
228.643	9176.29
228.716	9165.93
228.788	9152.35
228.861	9146.62
228.934	9204.78
229.006	9212.96
229.079	9217.15
229.151	9201.35
229.224	9170.5
229.296	9196.4
229.369	9300.06
229.442	9349.09
229.514	9331.38
229.587	9377.41
229.659	9293.85
229.732	9302.66
229.804	9341.95
229.877	9422.63
229.949	9455.67
230.022	9506.73
230.094	9509.77
230.167	9501.14
230.239	9466.43
230.312	9459.36
230.384	9532.1
230.457	9529.74
230.529	9540.23
230.602	9552.22
230.674	9569.42
230.747	9614.8
230.819	9646.25
230.892	9518.82
230.964	9512.61
231.037	9544.85
231.109	9534.02
231.181	9569.11
231.254	9536.37
231.326	9526.21
231.399	9495.13
231.471	9468.26
231.544	9388.78
231.616	9436.25
231.688	9438.37
231.761	9426.92
231.833	9419.6
231.905	9328.52
231.978	9331.26
232.05	9318.41
232.122	9319.66
232.195	9294.42
232.267	9333.19
232.339	9310.7
232.412	9377.47
232.484	9350.02
232.556	9317.39
232.629	9387.38
232.701	9414.88
232.773	9425.81
232.846	9417.39
232.918	9436.61
232.99	9453.66
233.062	9497.1
233.135	9512.99
233.207	9486.7
233.279	9532.47
233.351	9561.75
233.424	9569.69
233.496	9548.99
233.568	9629.66
233.64	9592
233.713	9607.65
233.785	9593.54
233.857	9606.35
233.929	9553.1
234.001	9623
234.074	9693.43
234.146	9623.15
234.218	9614.91
234.29	9611.78
234.362	9595.95
234.434	9544.6
234.507	9512.72
234.579	9463.12
234.651	9436
234.723	9465.09
234.795	9485.03
234.867	9477.04
234.939	9534.88
235.012	9548.94
235.084	9551.88
235.156	9582.89
235.228	9564.3
235.3	9558.04
235.372	9572.92
235.444	9636.48
235.516	9559.16
235.588	9560.8
235.66	9577.17
235.732	9552.17
235.804	9755.04
235.876	9808.2
235.948	9869.43
236.02	9883.77
236.092	9895.04
236.164	9909.05
236.236	9910.55
236.308	9909.34
236.38	9936.6
236.452	9918.63
236.524	9938.81
236.596	10008.31
236.668	10046.17
236.74	10069.14
236.812	10094.38
236.884	10126.61
236.956	10138.75
237.028	10136.01
237.1	10124.45
237.172	10194.12
237.244	10273.22
237.316	10150.02
237.388	10127.24
237.46	10103.72
237.532	10160.09
237.604	10154.07
237.675	10231.44
237.747	10269.12
237.819	10261.07
237.891	10268.11
237.963	10254.43
238.035	10253.18
238.107	10131.32
238.178	10198.64
238.25	10204.13
238.322	10299.55
238.394	10251.66
238.466	10251.85
238.538	10295.01
238.609	10337.54
238.681	10281.75
238.753	10262.33
238.825	10286.33
238.897	10314.02
238.968	10395.95
239.04	10378.65
239.112	10493.4
239.184	10457.12
239.255	10459.14
239.327	10492.86
239.399	10516.42
239.471	10568.98
239.542	10607.18
239.614	10682.09
239.686	10586.4
239.758	10641.95
239.829	10596.02
239.901	10663.71
239.973	10684.18
240.044	10716.8
240.116	10725.52
240.188	10743.01
240.259	10751.2
240.331	10743.16
240.403	10788.4
240.474	10741.89
240.546	10736.97
240.618	10677.99
240.689	10677.27
240.761	10694.33
240.833	10760.35
240.904	10757.21
240.976	10758.76
241.048	10778.37
241.119	10813.17
241.191	10870.88
241.262	10936
241.334	10950.31
241.405	10956.05
241.477	10949.78
241.549	10958.46
241.62	10990.89
241.692	11037.05
241.763	11103.71
241.835	11121.01
241.906	11135.56
241.978	11100.77
242.049	11165.68
242.121	11225.77
242.192	11295.84
242.264	11265.24
242.335	11216.81
242.407	11267.27
242.478	11266.93
242.55	11281.05
242.621	11268.47
242.693	11259.32
242.764	11245.63
242.836	11246.35
242.907	11277.24
242.979	11312.76
243.05	11330.59
243.122	11356.62
243.193	11356.09
243.264	11283.89
243.336	11291.41
243.407	11330.74
243.479	11424.67
243.55	11443.7
243.622	11460.33
243.693	11453.1
243.764	11523.8
243.836	11499.47
243.907	11485.4
243.978	11492
244.05	11518.03
244.121	11469.69
244.192	11517.31
244.264	11470.56
244.335	11483.04
244.407	11432.24
244.478	11451.23
244.549	11449.3
244.62	11401.35
244.692	11398.7
244.763	11443.32
244.834	11431.61
244.906	11411.27
244.977	11426.07
245.048	11482.28
245.119	11455.67
245.191	11430.66
245.262	11364.3
245.333	11443.23
245.405	11462.07
245.476	11496.05
245.547	11518.22
245.618	11575.86
245.689	11590.13
245.761	11625.46
245.832	11630.81
245.903	11677.55
245.974	11707.15
246.045	11719.54
246.117	11804.22
246.188	11794.24
246.259	11771.21
246.33	11786.53
246.401	11795.07
246.473	11757.23
246.544	11737.94
246.615	11803.4
246.686	11815.45
246.757	11891.12
246.828	11870.49
246.899	11943.47
246.97	11911.76
247.042	11898.79
247.113	11943.96
247.184	12029.38
247.255	12032.46
247.326	12062.44
247.397	12067.65
247.468	12076.95
247.539	12094.93
247.61	12046.87
247.681	12088.85
247.752	12152.38
247.823	12132.33
247.894	12147.8
247.965	12125.29
248.037	12114.21
248.108	12052.17
248.179	12059.5
248.25	12049.95
248.321	12084.99
248.392	12037.46
248.463	12123.79
248.534	12119.16
248.605	12138.44
248.675	12119.55
248.746	12138.3
248.817	12151.89
248.888	12176.23
248.959	12121.43
249.03	12144.33
249.101	12158.16
249.172	12143.41
249.243	12065.96
249.314	12126.69
249.385	12132.04
249.456	12161.63
249.527	12152.47
249.598	12184.29
249.669	12183.13
249.739	12204.48
249.81	12211.86
249.881	12172.09
249.952	12159.61
250.023	12156.33
250.094	12097.95
250.165	12060.35
250.235	12055.63
250.306	12067.01
250.377	12025.46
250.448	12053.03
250.519	11989.64
250.59	12048.07
250.66	12046.33
250.731	12124.46
250.802	12121.18
250.873	12143.98
250.944	12167.55
251.014	12153.57
251.085	12246.95
251.156	12278.42
251.227	12322.24
251.297	12372.42
251.368	12428.48
251.439	12467.91
251.51	12519.3
251.58	12507.92
251.651	12504.31
251.722	12560.18
251.792	12497.08
251.863	12507.25
251.934	12570.06
252.005	12689.65
252.075	12691.1
252.146	12743.78
252.217	12789.19
252.287	12841.35
252.358	12845.45
252.429	12911.83
252.499	12913.08
252.57	12920.36
252.641	12967.12
252.711	12973.05
252.782	12932.41
252.852	13004.77
252.923	13007.86
252.994	13029.02
253.064	13077.75
253.135	13057.6
253.205	13040.34
253.276	13119.01
253.347	13188.33
253.417	13160.8
253.488	13129.81
253.558	13114.72
253.629	13111.68
253.699	13122.77
253.77	13150.68
253.841	13150.01
253.911	13157.62
253.982	13179.41
254.052	13203.71
254.123	13203.13
254.193	13211.37
254.264	13352.76
254.334	13319.69
254.405	13285.75
254.475	13251.28
254.546	13260.35
254.616	13326.97
254.687	13354.44
254.757	13378.93
254.827	13374.79
254.898	13398.79
254.968	13410.99
255.039	13400.48
255.109	13436.44
255.18	13414.51
255.25	13335.02
255.321	13364.76
255.391	13331.21
255.461	13411.76
255.532	13333.38
255.602	13331.45
255.673	13278.9
255.743	13236.53
255.813	13159.74
255.884	13206.21
255.954	13242.85
256.024	13309.18
256.095	13312.17
256.165	13279.97
256.235	13298.38
256.306	13283.49
256.376	13337.29
256.446	13379.32
256.517	13412.73
256.587	13459.15
256.657	13474.87
256.728	13501
256.798	13508.85
256.868	13502.78
256.938	13474.92
257.009	13514.83
257.079	13554.41
257.149	13648.27
257.219	13580.68
257.29	13625.8
257.36	13572.58
257.43	13609.55
257.5	13540.23
257.571	13533.15
257.641	13566.02
257.711	13533.77
257.781	13575.52
257.852	13588.15
257.922	13521
257.992	13526.54
258.062	13520.61
258.132	13559.52
258.202	13566.26
258.273	13578.27
258.343	13656.75
258.413	13643.63
258.483	13651.64
258.553	13615.58
258.623	13593.02
258.693	13628.59
258.764	13694.97
258.834	13766.18
258.904	13782.03
258.974	13779.38
259.044	13784.4
259.114	13807.2
259.184	13836.99
259.254	13841.71
259.324	13787.19
259.394	13842.34
259.464	13916.58
259.535	13919.76
259.605	13920
259.675	13911.13
259.745	13938.75
259.815	13911.32
259.885	13917.64
259.955	14026.87
260.025	14019.63
260.095	14031.98
260.165	14068.52
260.235	14124.14
260.305	14112.72
260.375	14084.42
260.445	14173.22
260.515	14234.63
260.585	14284.96
260.655	14294.89
260.725	14329.21
260.795	14367
260.865	14435.16
260.934	14412.89
261.004	14451.7
261.074	14459.07
261.144	14517.98
261.214	14560.4
261.284	14567.63
261.354	14600.17
261.424	14565.32
261.494	14634.93
261.564	14638.07
261.634	14660.63
261.703	14597.09
261.773	14621.2
261.843	14652.63
261.913	14645.73
261.983	14595.31
262.053	14618.3
262.123	14620.38
262.192	14587.79
262.262	14632.67
262.332	14582.05
262.402	14611.26
262.472	14609.19
262.541	14543.87
262.611	14597.09
262.681	14574.39
262.751	14613.72
262.821	14621.67
262.89	14584.99
262.96	14608.37
263.03	14689.69
263.1	14706.61
263.169	14723.91
263.239	14755.29
263.309	14813.28
263.379	14843.02
263.448	14868.19
263.518	14886.02
263.588	14899.28
263.657	14970.91
263.727	15014.29
263.797	15026.77
263.867	15023.55
263.936	14994.33
264.006	15061.15
264.076	15048.95
264.145	15047.22
264.215	15024.71
264.285	15068.52
264.354	15030.49
264.424	15016.32
264.494	14961.66
264.563	14956.5
264.633	15042.64
264.702	15059.17
264.772	15007.06
264.842	15003.79
264.911	15031.7
264.981	14996.9
265.05	15006.25
265.12	15000.37
265.19	15007.84
265.259	15056.81
265.329	15088.29
265.398	15112.05
265.468	15208.79
265.537	15207.1
265.607	15240.7
265.676	15290.69
265.746	15310.59
265.815	15370.46
265.885	15386.85
265.955	15373.84
266.024	15378.27
266.094	15314.46
266.163	15376.01
266.232	15447.54
266.302	15460.26
266.371	15483.54
266.441	15508.56
266.51	15562.16
266.58	15560.95
266.649	15546.54
266.719	15594.93
266.788	15625.3
266.858	15695.29
266.927	15617.44
266.996	15638.56
267.066	15668.34
267.135	15637.25
267.205	15679.91
267.274	15695.09
267.343	15743.87
267.413	15764.79
267.482	15828.9
267.552	15892.14
267.621	15847.02
267.69	15797.62
267.76	15818.54
267.829	15851.79
267.898	15868.04
267.968	15850.93
268.037	15897.63
268.106	15947.08
268.176	15912.38
268.245	15919.61
268.314	15912.62
268.384	15979.57
268.453	16007.96
268.522	16037.36
268.592	16107.11
268.661	16097.95
268.73	16131.98
268.799	16126.05
268.869	16214.11
268.938	16159.98
269.007	16153.76
269.076	16181.67
269.146	16247.27
269.215	16284.05
269.284	16350.65
269.353	16344.1
269.422	16351.23
269.492	16348.87
269.561	16268.67
269.63	16306.65
269.699	16300.04
269.768	16318.17
269.838	16343.42
269.907	16381.06
269.976	16345.59
270.045	16289.24
270.114	16328.09
270.183	16340.91
270.253	16367.66
270.322	16310.11
270.391	16343.51
270.46	16406.41
270.529	16451.33
270.598	16490.17
270.667	16500.2
270.736	16480.53
270.806	16510.9
270.875	16567.92
270.944	16574.13
271.013	16697.13
271.082	16720.75
271.151	16755.4
271.22	16716.55
271.289	16722.33
271.358	16736.6
271.427	16773.23
271.496	16803.55
271.565	16793.09
271.634	16812.13
271.703	16944.08
271.772	17006.59
271.841	17020.37
271.91	16990.35
271.979	17009.87
272.048	16980.03
272.117	17020.08
272.186	17010.35
272.255	17062.73
272.324	17104.57
272.393	17147.31
272.462	17139.65
272.531	17159.75
272.6	17179.36
272.669	17253.68
272.738	17274.5
272.807	17300.53
272.876	17286.11
272.945	17427.51
273.013	17490.5
273.082	17553.68
273.151	17455.56
273.22	17498.36
273.289	17522.31
273.358	17607.18
273.427	17618.21
273.496	17678.07
273.564	17728.43
273.633	17795.37
273.702	17787.08
273.771	17801.63
273.84	17828.72
273.909	17876.14
273.977	17909.68
274.046	17925.63
274.115	17978.59
274.184	17969
274.253	17987.02
274.322	18077.97
274.39	18019.56
274.459	18010.11
274.528	17964.67
274.597	17994.64
274.665	18018.02
274.734	18087.8
274.803	18099.46
274.872	18128.9
274.94	18124.66
275.009	18346.33
275.078	18334.33
275.147	18373.46
275.215	18392.11
275.284	18456.4
275.353	18457.31
275.421	18432.88
275.49	18533.55
275.559	18546.61
275.627	18576.92
275.696	18596.82
275.765	18629.93
275.833	18647.42
275.902	18698.55
275.971	18775.32
276.039	18861.58
276.108	18920.47
276.177	18960.13
276.245	18967.69
276.314	18984.61
276.383	19045.47
276.451	18866.7
276.52	18924.96
276.588	19002.26
276.657	19067.84
276.725	19077.67
276.794	19122.59
276.863	19212.75
276.931	19171.88
277	19242.97
277.068	19311.93
277.137	19410.04
277.205	19447.82
277.274	19553.65
277.342	19625.21
277.411	19612.39
277.48	19620.39
277.548	19625.89
277.617	19664.87
277.685	19681.31
277.754	19748.53
277.822	19764.63
277.89	19862.75
277.959	19886.31
278.027	19872.63
278.096	19879.81
278.164	20017.98
278.233	20042.56
278.301	20046.18
278.37	20112.34
278.438	20108.97
278.507	20163.91
278.575	20127.81
278.643	20153.83
278.712	20126.85
278.78	20120.05
278.849	20198.75
278.917	20269.74
278.985	20305.06
279.054	20351.28
279.122	20437.78
279.191	20470.32
279.259	20497.11
279.327	20468.09
279.396	20552.48
279.464	20583.9
279.532	20652.44
279.601	20678.86
279.669	20709.84
279.737	20793.9
279.806	20847.73
279.874	20918.63
279.942	20957.23
280.011	20988.6
280.079	21060.51
280.147	21166.4
280.215	21232.24
280.284	21262.7
280.352	21265.44
280.42	21339.33
280.488	21348.15
280.557	21362.71
280.625	21420.55
280.693	21475.63
280.761	21527.35
280.83	21521.57
280.898	21606.83
280.966	21584.85
281.034	21519.97
281.102	21526.04
281.171	21553.85
281.239	21626.94
281.307	21653.21
281.375	21664.3
281.443	21799.46
281.512	21833.69
281.58	21898
281.648	21894.05
281.716	21938.44
281.784	21976.43
281.852	21985.2
281.92	22040.97
281.989	22133.15
282.057	22120.23
282.125	22301.21
282.193	22333.41
282.261	22381.85
282.329	22407.94
282.397	22469.92
282.465	22532.11
282.533	22628.85
282.601	22639.99
282.67	22602.72
282.738	22608.94
282.806	22681.54
282.874	22665.67
282.942	22713.36
283.01	22733.86
283.078	22793.73
283.146	22826.71
283.214	22911.72
283.282	22975.65
283.35	23051.7
283.418	23071.47
283.486	23134.14
283.554	23043.7
283.622	23082.85
283.69	23123.64
283.758	23155.42
283.826	23222.34
283.894	23295.16
283.962	23400.99
284.03	23491.55
284.098	23553.12
284.165	23594.58
284.233	23644.45
284.301	23684.38
284.369	23703.81
284.437	23717.99
284.505	23748.52
284.573	23843.23
284.641	23840.39
284.709	23917.96
284.777	23909.47
284.845	23971.84
284.912	24035.65
284.98	24101.29
285.048	24140.12
285.116	24208.56
285.184	24295.24
285.252	24336.73
285.319	24334.85
285.387	24346.24
285.455	24337.7
285.523	24403.64
285.591	24440.05
285.659	24490.22
285.726	24576.58
285.794	24569.98
285.862	24612.91
285.93	24661.82
285.997	24695.69
286.065	24734.91
286.133	24743.69
286.201	24787.88
286.269	24792.85
286.336	24804.53
286.404	24826.96
286.472	24910.25
286.539	24887.53
286.607	24880.73
286.675	24926.71
286.743	24996.67
286.81	25022.45
286.878	25115.14
286.946	25131.26
287.013	25178.2
287.081	25217.78
287.149	25208.41
287.216	25328.03
287.284	25358.2
287.352	25402.35
287.419	25434.98
287.487	25531.9
287.555	25590.89
287.622	25623.56
287.69	25690.41
287.758	25792.31
287.825	25819.09
287.893	25816.05
287.96	25876.7
288.028	25949.93
288.096	25998.98
288.163	26052.71
288.231	26060.92
288.298	26094.33
288.366	26181.09
288.433	26215.3
288.501	26234.13
288.569	26295.73
288.636	26316.35
288.704	26400.99
288.771	26470.13
288.839	26482.49
288.906	26498.67
288.974	26569.2
289.041	26608.45
289.109	26622.69
289.176	26681.63
289.244	26743.34
289.311	26838.29
289.379	26922.21
289.446	26995.2
289.514	27039.97
289.581	27084.22
289.649	27150.24
289.716	27202.79
289.783	27233.47
289.851	27344.31
289.918	27392.65
289.986	27475.99
290.053	27552.57
290.121	27599.15
290.188	27658.09
290.255	27802.57
290.323	27824.84
290.39	27848.28
290.458	27922.95
290.525	28009.93
290.592	28042.26
290.66	28109.81
290.727	28131.99
290.794	28221.94
290.862	28259.98
290.929	28328.56
290.996	28376.55
291.064	28442.57
291.131	28526.93
291.198	28602.73
291.266	28656.58
291.333	28715.2
291.4	28765.05
291.468	28855.97
291.535	28891.21
291.602	28953.15
291.669	28972.74
291.737	29045.67
291.804	29097.56
291.871	29188.8
291.938	29263.18
292.006	29390.09
292.073	29464.41
292.14	29547.83
292.207	29556.88
292.275	29596.29
292.342	29663.14
292.409	29784.13
292.476	29908.29
292.543	29919.27
292.611	29968.86
292.678	30066.79
292.745	30193.63
292.812	30279.43
292.879	30305.18
292.946	30360.08
293.014	30446.41
293.081	30522.24
293.148	30614.9
293.215	30705.26
293.282	30745.66
293.349	30812.85
293.416	30797.07
293.484	30884.48
293.551	30961.45
293.618	31080.22
293.685	31220.13
293.752	31244.43
293.819	31285.78
293.886	31291.98
293.953	31372.42
294.02	31458.7
294.087	31521.32
294.154	31546.79
294.221	31645.37
294.288	31701.44
294.356	31809.42
294.423	31864.97
294.49	31882.21
294.557	31952.67
294.624	31975.48
294.691	32080.14
294.758	32133.23
294.825	32202.87
294.892	32224.72
294.959	32272.48
295.026	32339.01
295.093	32359.26
295.16	32415.53
295.226	32471.34
295.293	32601.8
295.36	32664.09
295.427	32742.12
295.494	32827.04
295.561	32899.32
295.628	33008.97
295.695	33105.66
295.762	33170.4
295.829	33258.04
295.896	33360.81
295.963	33459.07
296.03	33532.73
296.096	33602.97
296.163	33686.83
296.23	33789.7
296.297	33892.16
296.364	33943.15
296.431	34007.73
296.498	34043.5
296.564	34171.47
296.631	34225.09
296.698	34220.77
296.765	34341.85
296.832	34373.9
296.899	34390.53
296.965	34505.17
297.032	34487.32
297.099	34595.69
297.166	34672.86
297.233	34699.1
297.299	34733.33
297.366	34780.38
297.433	34848.37
297.5	34926.33
297.566	34984.54
297.633	35032.91
297.7	35078.79
297.767	35122.73
297.833	35195.65
297.9	35262.48
297.967	35259.81
298.033	35356.94
298.1	35506.15
298.167	35530.75
298.234	35596.05
298.3	35675.13
298.367	35704
298.434	35786.6
298.5	35810.05
298.567	35835.57
298.634	35905
298.7	36023.11
298.767	36082.8
298.834	36184.96
298.9	36226.65
298.967	36258.39
299.033	36343.82
299.1	36459.87
299.167	36572.45
299.233	36612.45
299.3	36708.2
299.366	36814.86
299.433	36901.77
299.5	36873.41
299.566	36919.62
299.633	37022.2
299.699	37110.41
299.766	37147.79
299.832	37205.28
299.899	37271.36
299.965	37361.07
300.032	37374.52
300.099	37437.79
300.165	37505.67
300.232	37544.32
300.298	37581.85
300.365	37678.08
300.431	37731.4
300.498	37744.85
300.564	37802.3
300.631	37882.08
300.697	37974.75
300.763	38030.44
300.83	38081.97
300.896	38179.38
300.963	38278.84
301.029	38333.34
301.096	38386.04
301.162	38475.68
301.229	38512.01
301.295	38519.44
301.361	38574.62
301.428	38658.77
301.494	38661.83
301.561	38721.04
301.627	38770.34
301.693	38836.92
301.76	38895.56
301.826	38916.49
301.892	39021.23
301.959	39097.79
302.025	39139.32
302.092	39163.03
302.158	39234
302.224	39272
302.291	39294.83
302.357	39321.79
302.423	39352.25
302.49	39377.95
302.556	39462.84
302.622	39513.56
302.688	39604.6
302.755	39697.51
302.821	39772.08
302.887	39855.54
302.954	39892.51
303.02	39963.94
303.086	40030.6
303.152	40058.59
303.219	40100.71
303.285	40146.98
303.351	40216.57
303.417	40270.8
303.483	40289.17
303.55	40310.64
303.616	40370.81
303.682	40410.07
303.748	40429.26
303.815	40523.55
303.881	40599.46
303.947	40611.56
304.013	40664.34
304.079	40685.33
304.145	40676.05
304.212	40711.58
304.278	40730.09
304.344	40768.78
304.41	40764.98
304.476	40777.81
304.542	40807.12
304.608	40869.62
304.674	40853.19
304.741	40872.97
304.807	40924.98
304.873	41001.77
304.939	41117.12
305.005	41090.14
305.071	41136.12
305.137	41191.91
305.203	41151.9
305.269	41189.29
305.335	41256.76
305.401	41287.29
305.467	41337.16
305.533	41398.89
305.599	41470.98
305.666	41537.62
305.732	41593.87
305.798	41703
305.864	41832.09
305.93	41900.92
305.996	41955.42
306.062	42008.01
306.128	42042.48
306.194	42045.21
306.259	42075.11
306.325	42065.33
306.391	42156.48
306.457	42222.6
306.523	42290.03
306.589	42423.5
306.655	42436.77
306.721	42430.45
306.787	42440.22
306.853	42522.79
306.919	42526.87
306.985	42542.34
307.051	42565.97
307.117	42564.95
307.183	42557.51
307.248	42499.1
307.314	42548.75
307.38	42586.39
307.446	42640.9
307.512	42638.17
307.578	42707.81
307.644	42741.6
307.709	42793.54
307.775	42826.02
307.841	42845.48
307.907	42890.31
307.973	42855.1
308.039	42895.56
308.104	42967.24
308.17	43004.58
308.236	42987.27
308.302	43034.24
308.368	43037.01
308.433	43082.14
308.499	43117.49
308.565	43144.39
308.631	43208.48
308.696	43165.4
308.762	43177.85
308.828	43209.61
308.894	43207.32
308.959	43170.17
309.025	43174.59
309.091	43203.78
309.156	43216.62
309.222	43277.03
309.288	43271.97
309.354	43241.19
309.419	43274.71
309.485	43251.6
309.551	43300.87
309.616	43298.25
309.682	43328.65
309.748	43343.87
309.813	43362.2
309.879	43369.06
309.945	43365.9
310.01	43382.15
310.076	43440.55
310.141	43449.5
310.207	43439.97
310.273	43472.55
310.338	43518.7
310.404	43510.87
310.469	43495.6
310.535	43489.71
310.601	43439.81
310.666	43490.54
310.732	43570.65
310.797	43556.83
310.863	43560.43
310.928	43578.72
310.994	43635.88
311.059	43661.52
311.125	43696.15
311.191	43763.15
311.256	43767.14
311.322	43826.58
311.387	43789.71
311.453	44685.25
311.518	44709.92
311.584	44737.65
311.649	44803.76
311.715	44812.02
311.78	44848.7
311.846	44855.26
311.911	44914.81
311.976	44972.21
312.042	44955.67
312.107	44950.9
312.173	44971.04
312.238	44996.19
312.304	45015.75
312.369	45006.31
312.434	45001.74
312.5	45008.89
312.565	44937.37
312.631	44998.08
312.696	45011.6
312.761	45070.71
312.827	44212.28
312.892	44310.06
312.958	44344.51
313.023	44371.04
313.088	44405.19
313.154	44401.29
313.219	44419.59
313.284	44422.6
313.35	44443.43
313.415	44445.33
313.48	44451.26
313.546	44492.91
313.611	44556.85
313.676	44549.6
313.741	44547.8
313.807	44599.48
313.872	44661.38
313.937	44725.89
314.003	44790.82
314.068	44812.87
314.133	44854.81
314.198	44860.07
314.264	44817.23
314.329	44819.66
314.394	44830.37
314.459	44852.41
314.525	44940.44
314.59	44964.81
314.655	44961.11
314.72	45002.34
314.785	45050.9
314.851	45070.07
314.916	45046.62
314.981	45020.97
315.046	45029.14
315.111	45044.42
315.176	45046.61
315.242	45071.58
315.307	45094.31
315.372	45058.58
315.437	45048.46
315.502	45061.65
315.567	45124.39
315.632	45108.82
315.698	45147.07
315.763	45173.7
315.828	45179.98
315.893	45198.33
315.958	45210.6
316.023	45199.11
316.088	45162.27
316.153	45110.64
316.218	45087.68
316.283	45036.4
316.348	45008.57
316.413	45010.42
316.479	44971.7
316.544	44870.79
316.609	44767.38
316.674	44643.22
316.739	44517.86
316.804	44423
316.869	44294.17
316.934	44159.78
316.999	44046.67
317.064	43864.44
317.129	43687.89
317.194	43529.04
317.259	43337.76
317.324	43132.44
317.389	42963.99
317.454	42800.87
317.518	42650.72
317.583	42543.34
317.648	42438.07
317.713	42269.98
317.778	42044.08
317.843	41907.37
317.908	41739.08
317.973	41565.38
318.038	41417.95
318.103	41251.25
318.168	41090.17
318.233	40928.95
318.297	40707.91
318.362	40528.48
318.427	40341.12
318.492	40207.08
318.557	40006.77
318.622	39864.24
318.687	39736.52
318.751	39542.31
318.816	39365.46
318.881	39188.89
318.946	38950.94
319.011	38725.46
319.075	38525.7
319.14	38346.4
319.205	38128.19
319.27	37949.98
319.335	37722.71
319.399	37518.87
319.464	37357.59
319.529	37115.4
319.594	36904.17
319.658	36736.71
319.723	36516.64
319.788	36344.07
319.853	36069.32
319.917	35874.87
319.982	35609.63
320.047	35399.28
320.112	35229.89
320.176	34974.26
320.241	34764.81
320.306	34567.8
320.37	34347.81
320.435	34157.28
320.5	33960.09
320.564	33733.32
320.629	33485.93
320.694	33292.28
320.758	33055.94
320.823	32809.14
320.888	32623
320.952	32362.1
321.017	32122.01
321.082	31901.94
321.146	31679.33
321.211	31476.36
321.275	31260.06
321.34	31009.6
321.405	30758.96
321.469	30505.39
321.534	30273.66
321.598	30014.19
321.663	29803.49
321.727	29597.91
321.792	29327.97
321.857	29092.03
321.921	28870.14
321.986	28631.95
322.05	28347.93
322.115	28129.47
322.179	27886.21
322.244	27595.71
322.308	27389.62
322.373	27140.7
322.437	26903.53
322.502	26711.86
322.566	26456.83
322.631	26226.31
322.695	26001.91
322.76	25754.19
322.824	25532.2
322.889	25290.06
322.953	25027.79
323.018	24705.06
323.082	24390.61
323.146	24125.31
323.211	23839.79
323.275	23572.71
323.34	23324.17
323.404	23103.09
323.468	22833.91
323.533	22573.06
323.597	22321.76
323.662	22040.73
323.726	21803.06
323.79	21534.2
323.855	21206.73
323.919	20931.26
323.983	20663.35
324.048	20263.31
324.112	20409.21
324.177	19596.46
324.241	18526.4
324.305	17486
324.37	16460.89
324.434	15460.99
324.498	15175.97
324.562	14863.39
324.627	14517.83
324.691	14160.19
324.755	13765.88
324.82	13328.71
324.884	12862.04
324.948	12377.61
325.012	11795.58
325.077	11080.58
