Data from 20250701_urea_2M_exp3_MAYP1162681_03-29-49-449.txt Node
Date: Wed Jul 02 03:29:49 BST 2025
User: adleo
Spectrometer: MAYP116268
Trigger mode: 0
Integration Time (sec): 4.000000E0
Scans to average: 1
Electric dark correction enabled: true
Nonlinearity correction enabled: true
Boxcar width: 10
XAxis mode: Wavelengths
Number of Pixels in Spectrum: 2068
>>>>>Begin Spectral Data<<<<<
179.565	3640.55
179.642	3834.09
179.718	3981.34
179.795	4111.16
179.871	4229.78
179.948	4290.15
180.024	4359.29
180.101	4441.22
180.177	4493.91
180.254	4574.11
180.33	4649.8
180.407	4913.63
180.483	5197.03
180.56	5488.05
180.636	5751.8
180.712	5711.97
180.789	5747.32
180.865	5788.53
180.942	5815.1
181.018	5855.82
181.095	5905.07
181.171	5928.14
181.248	5929.53
181.324	5981.66
181.4	6008
181.477	6041.21
181.553	6088.06
181.63	6156.92
181.706	6209.58
181.782	6235.62
181.859	6229.91
181.935	6248.97
182.011	6240.42
182.088	6296.3
182.164	6359.27
182.24	6407.78
182.317	6441.89
182.393	6435.56
182.469	6481.69
182.546	6528.54
182.622	6543.13
182.698	6526.66
182.775	6559.89
182.851	6612.13
182.927	6591.48
183.003	6573
183.08	6551.74
183.156	6583.43
183.232	6570.17
183.308	6528.21
183.385	6558.16
183.461	6618.9
183.537	6620.2
183.613	6662.37
183.69	6631.68
183.766	6596.51
183.842	6618.84
183.918	6636.51
183.995	6680.3
184.071	6691.88
184.147	6676.51
184.223	6638.17
184.299	6680.44
184.375	6646.16
184.452	6660.82
184.528	6786.79
184.604	6829.66
184.68	6868.22
184.756	6890.56
184.832	6911.07
184.908	6936.95
184.985	6929.5
185.061	6871.88
185.137	6900.61
185.213	6861.8
185.289	6867.56
185.365	6840.24
185.441	6837.55
185.517	6881.34
185.593	6867.55
185.669	6863.27
185.745	6894.12
185.822	6943.89
185.898	6915.06
185.974	6946.65
186.05	6923.15
186.126	6844.54
186.202	6817.99
186.278	6807.23
186.354	6770.77
186.43	6792.01
186.506	6779.77
186.582	6779.43
186.658	6809.77
186.734	6746.49
186.81	6754.46
186.886	6763
186.962	6805.21
187.038	6788.02
187.114	6757.73
187.19	6783.92
187.266	6750.21
187.341	6748.38
187.417	6730.9
187.493	6730.52
187.569	6737.1
187.645	6715.3
187.721	6683.58
187.797	6712.44
187.873	6725.03
187.949	6710.34
188.025	6688.28
188.101	6699.23
188.176	6723.33
188.252	6707.83
188.328	6732.59
188.404	6732.44
188.48	6717.61
188.556	6699.02
188.632	6703.96
188.707	6711.8
188.783	6704.25
188.859	6690.24
188.935	6653.11
189.011	6677.32
189.086	6660.18
189.162	6632.66
189.238	6621.33
189.314	6603.23
189.39	6581.57
189.465	6559.52
189.541	6618.41
189.617	6569.68
189.693	6549.33
189.768	6556.92
189.844	6635.49
189.92	6613.7
189.996	6638.48
190.071	6671.91
190.147	6667.01
190.223	6694.15
190.298	6666.29
190.374	6622.06
190.45	6660.13
190.526	6693.55
190.601	6678.86
190.677	6680.63
190.753	6781.53
190.828	6799.72
190.904	6854.92
190.98	6911.62
191.055	6950.19
191.131	6916.56
191.207	6985.76
191.282	7019.61
191.358	6985.94
191.433	6936.77
191.509	6976.03
191.585	6968.63
191.66	6973.53
191.736	6996.35
191.811	6967.91
191.887	7025.72
191.963	7103.32
192.038	7123.83
192.114	7128.16
192.189	7136.42
192.265	7127.49
192.34	7046.95
192.416	7041.96
192.491	7026.05
192.567	7026.68
192.642	7029.32
192.718	7033.69
192.793	6989.92
192.869	6975.61
192.944	6981.9
193.02	7005.83
193.095	7017.31
193.171	7037.2
193.246	7038.65
193.322	7027.84
193.397	7030.53
193.473	6975.54
193.548	6913.07
193.624	6929.17
193.699	6920.14
193.775	6973.98
193.85	6975.94
193.925	7005.16
194.001	7005.69
194.076	6983.25
194.152	6952.59
194.227	6931.35
194.302	6894.09
194.378	6908.5
194.453	6901.34
194.529	6943.14
194.604	6898.08
194.679	6877.66
194.755	6812.12
194.83	6852.41
194.905	6848.71
194.981	6875.47
195.056	6857.95
195.131	6876.44
195.207	6868.55
195.282	6840.79
195.357	6773.61
195.433	6824.95
195.508	6785.8
195.583	6809.14
195.659	6856.33
195.734	6878.1
195.809	6874.4
195.884	6908.34
195.96	6908.44
196.035	6955.18
196.11	6941.58
196.185	6977.9
196.261	6993.89
196.336	7100.45
196.411	7048.39
196.486	7063.76
196.561	7040.55
196.637	7068.12
196.712	7128.79
196.787	7142.97
196.862	7192.93
196.937	7228.92
197.013	7248.24
197.088	7283.46
197.163	7354.48
197.238	7410.63
197.313	7410.44
197.388	7451
197.464	7551.94
197.539	7587.89
197.614	7567.8
197.689	7607.85
197.764	7658.01
197.839	7722.58
197.914	7700.36
197.989	7777.1
198.065	7823.88
198.14	7989.54
198.215	8076.64
198.29	8107.68
198.365	8145.97
198.44	8181.51
198.515	8276.67
198.59	8328.3
198.665	8414.36
198.74	8441.22
198.815	8445.03
198.89	8515.22
198.965	8616.96
199.04	8598.63
199.115	8654.24
199.19	8789.1
199.265	8799.78
199.34	8836.55
199.415	8945.13
199.49	9014.23
199.565	9046.04
199.64	9123.88
199.715	9117.76
199.79	9144.09
199.865	9169.13
199.94	9166.67
200.015	9272.46
200.09	9286.81
200.165	9306.21
200.24	9324.99
200.315	9455.21
200.39	9506.02
200.464	9528.79
200.539	9530.67
200.614	9588.3
200.689	9665.06
200.764	9690.69
200.839	9750.28
200.914	9771.28
200.989	9739.1
201.063	9787.3
201.138	9728.74
201.213	9734.13
201.288	9670.13
201.363	9684
201.438	9680.1
201.512	9733.34
201.587	9675.01
201.662	9690.48
201.737	9735.36
201.812	9763.93
201.886	9656.24
201.961	9687.55
202.036	9647.98
202.111	9645.67
202.186	9542.58
202.26	9486.76
202.335	9418.52
202.41	9400.41
202.485	9342.02
202.559	9273.51
202.634	9182.95
202.709	9212.3
202.784	9143.89
202.858	9141.24
202.933	9080.49
203.008	9058.92
203.082	8998.85
203.157	8998.37
203.232	8848.98
203.306	8769.91
203.381	8664.2
203.456	8589.6
203.53	8508.54
203.605	8440.92
203.68	8359.61
203.754	8345.86
203.829	8294.27
203.904	8224.42
203.978	8176.87
204.053	8188.37
204.127	8145.61
204.202	8142.58
204.277	8084.19
204.351	8062.16
204.426	8035.93
204.5	8004.38
204.575	7891.92
204.65	7918.97
204.724	7886
204.799	7914.54
204.873	7904.96
204.948	7897.65
205.022	7856.02
205.097	7829.41
205.171	7870.08
205.246	7901.7
205.32	7898.43
205.395	7896.74
205.469	7864.84
205.544	7887.5
205.618	7830.41
205.693	7869.75
205.767	7830.27
205.842	7904.3
205.916	7882.28
205.991	7853.38
206.065	7877.57
206.14	7930.32
206.214	7915.89
206.289	7893.13
206.363	7935.21
206.438	7941.42
206.512	7969.94
206.586	8032.26
206.661	8061.47
206.735	7991.31
206.81	7988.71
206.884	8035.78
206.958	7992.08
207.033	8055.53
207.107	8078.25
207.181	8186.23
207.256	8166.21
207.33	8227.68
207.405	8264.81
207.479	8334.22
207.553	8354.37
207.628	8300.23
207.702	8336.88
207.776	8309.6
207.851	8315.62
207.925	8366.35
207.999	8353.02
208.073	8337.63
208.148	8342.3
208.222	8299.61
208.296	8409.48
208.371	8459.5
208.445	8499.26
208.519	8595.71
208.593	8634.83
208.668	8624.58
208.742	8632
208.816	8640.8
208.89	8686.34
208.965	8681.14
209.039	8706.52
209.113	8767.83
209.187	8833.18
209.261	8817.35
209.336	8885.26
209.41	8954.96
209.484	8952.89
209.558	9030.93
209.632	9080.06
209.707	9127.04
209.781	9193.18
209.855	9245.91
209.929	9300.78
210.003	9310.99
210.077	9307.43
210.151	9471.1
210.226	9583.81
210.3	9672.47
210.374	9749.63
210.448	9763.89
210.522	9799.15
210.596	9832.33
210.67	9857.04
210.744	10014.55
210.818	10126.24
210.892	10193.44
210.966	10175.48
211.041	10229
211.115	10210.36
211.189	10291.76
211.263	10342.39
211.337	10370.47
211.411	10419.9
211.485	10406.84
211.559	10446.77
211.633	10453.85
211.707	10344.65
211.781	10367.64
211.855	10243.73
211.929	10216.47
212.003	10149.07
212.077	10176.82
212.151	10210.93
212.225	10239.6
212.299	10195.84
212.373	10156.53
212.447	10143.66
212.52	10245.8
212.594	10251
212.668	10287.41
212.742	10231.72
212.816	10205.56
212.89	10180.42
212.964	10161.29
213.038	10164.86
213.112	10207.79
213.186	10251.52
213.26	10166.25
213.333	10011.73
213.407	10025.41
213.481	10023.58
213.555	10056.5
213.629	10012.03
213.703	9951.04
213.777	9941.31
213.85	9872.67
213.924	9976.4
213.998	9965.61
214.072	9923.4
214.146	9873.83
214.219	9856.34
214.293	9839.15
214.367	9834.19
214.441	9859.14
214.515	9818.24
214.588	9725.86
214.662	9595.98
214.736	9512.34
214.81	9527.84
214.883	9544.2
214.957	9496.26
215.031	9440.87
215.105	9352.45
215.178	9288.12
215.252	9253.98
215.326	9155.96
215.4	9074.78
215.473	8888.6
215.547	8801.3
215.621	8739.12
215.694	8732.62
215.768	8633.8
215.842	8565.52
215.915	8500.47
215.989	8385.96
216.063	8326.93
216.136	8302.05
216.21	8274.15
216.284	8291.53
216.357	8266.85
216.431	8219.6
216.504	8210.17
216.578	8262.91
216.652	8267.19
216.725	8245.25
216.799	8247.61
216.873	8228.99
216.946	8235.53
217.02	8203.61
217.093	8169.99
217.167	8071.37
217.24	7987.02
217.314	7954.72
217.387	7907.9
217.461	7853.46
217.535	7871.93
217.608	7808.06
217.682	7779.15
217.755	7797
217.829	7732.1
217.902	7711.09
217.976	7692.82
218.049	7645.51
218.123	7574.49
218.196	7576.17
218.27	7541.02
218.343	7465.4
218.417	7458.09
218.49	7432.57
218.563	7469.58
218.637	7479.49
218.71	7542.73
218.784	7569.13
218.857	7600.09
218.931	7624.5
219.004	7642.43
219.077	7663.31
219.151	7682.87
219.224	7679.22
219.298	7667.58
219.371	7721.21
219.444	7689.3
219.518	7697.52
219.591	7724
219.665	7825.45
219.738	7839.83
219.811	7817.96
219.885	7866.05
219.958	7900.87
220.031	7906.74
220.105	7928.29
220.178	7931.42
220.251	7909.19
220.325	7931.56
220.398	7954.22
220.471	7972.54
220.544	8005.29
220.618	7977.97
220.691	8000.91
220.764	8021.25
220.838	8055.02
220.911	8027.64
220.984	8110.55
221.057	8151.34
221.131	8167.06
221.204	8071.87
221.277	8145.97
221.35	8270.62
221.424	8263.74
221.497	8277.02
221.57	8297.46
221.643	8328.84
221.716	8377.92
221.79	8384.03
221.863	8393.9
221.936	8403.42
222.009	8423.96
222.082	8449.66
222.155	8462.8
222.229	8528.49
222.302	8552.94
222.375	8557.07
222.448	8604.23
222.521	8606.25
222.594	8603.08
222.667	8576.82
222.74	8624.07
222.814	8616.41
222.887	8599.65
222.96	8653.7
223.033	8689.95
223.106	8716.22
223.179	8747.13
223.252	8757.53
223.325	8786.98
223.398	8798.92
223.471	8822.07
223.544	8839.2
223.617	8854.51
223.69	8881.84
223.763	8848.38
223.837	8872.54
223.91	8899.5
223.983	8847.15
224.056	8813.13
224.129	8833.29
224.202	8892.94
224.275	8888.32
224.348	8854.53
224.42	8821.66
224.493	8762.36
224.566	8741.13
224.639	8761.92
224.712	8737.22
224.785	8728.41
224.858	8719.36
224.931	8702.17
225.004	8667.38
225.077	8662.14
225.15	8574.47
225.223	8564.03
225.296	8646.43
225.369	8589.93
225.442	8554.89
225.514	8576.78
225.587	8598.43
225.66	8606.32
225.733	8610.32
225.806	8621.58
225.879	8616.39
225.952	8586.17
226.025	8634.59
226.097	8683.17
226.17	8676.87
226.243	8602.87
226.316	8594.78
226.389	8603.06
226.461	8626.55
226.534	8643.01
226.607	8636.17
226.68	8717
226.753	8709.45
226.825	8619.49
226.898	8677.52
226.971	8682.48
227.044	8701.97
227.117	8707.65
227.189	8727.63
227.262	8760.71
227.335	8779.82
227.407	8772.22
227.48	8799.35
227.553	8813.22
227.626	8795.83
227.698	8800.11
227.771	8845.38
227.844	8825.98
227.916	8841.38
227.989	8807.74
228.062	8802.88
228.134	8889.11
228.207	8889.25
228.28	8889.64
228.352	8901.52
228.425	8906.92
228.498	8951.98
228.57	8931.72
228.643	8992.72
228.716	8994.79
228.788	8981.55
228.861	8970.67
228.934	9037.19
229.006	9052.2
229.079	9049.12
229.151	9036.07
229.224	9005.8
229.296	9031.07
229.369	9131.15
229.442	9177.04
229.514	9153.75
229.587	9197.17
229.659	9119.46
229.732	9129.72
229.804	9165.29
229.877	9246.25
229.949	9276.05
230.022	9324.22
230.094	9326.73
230.167	9310.5
230.239	9262.7
230.312	9248.11
230.384	9319.73
230.457	9316.74
230.529	9319.29
230.602	9322.09
230.674	9340.1
230.747	9386.64
230.819	9415.24
230.892	9299.63
230.964	9300.54
231.037	9328.5
231.109	9318.67
231.181	9363.39
231.254	9332.44
231.326	9327.82
231.399	9299.92
231.471	9273.43
231.544	9200.56
231.616	9242.87
231.688	9253.37
231.761	9245.19
231.833	9234.36
231.905	9153.36
231.978	9147.24
232.05	9135.4
232.122	9137.28
232.195	9100.88
232.267	9132.8
232.339	9107.43
232.412	9172.17
232.484	9147.46
232.556	9123.16
232.629	9193.73
232.701	9207.31
232.773	9219.39
232.846	9205.57
232.918	9219.74
232.99	9236.06
233.062	9279.59
233.135	9290.52
233.207	9252.96
233.279	9295.56
233.351	9333.16
233.424	9336.96
233.496	9317.32
233.568	9398.6
233.64	9359.94
233.713	9383.49
233.785	9375.69
233.857	9393.17
233.929	9343.15
234.001	9408.47
234.074	9472.2
234.146	9402.93
234.218	9403.61
234.29	9400.38
234.362	9384.89
234.434	9331.43
234.507	9298.49
234.579	9239.51
234.651	9223.28
234.723	9260.84
234.795	9278.37
234.867	9265.17
234.939	9321.42
235.012	9335.33
235.084	9339.62
235.156	9378.86
235.228	9357.77
235.3	9345.44
235.372	9354.69
235.444	9412.65
235.516	9331.1
235.588	9343.86
235.66	9361.29
235.732	9334.66
235.804	9537.33
235.876	9588.65
235.948	9655.98
236.02	9674.85
236.092	9691.84
236.164	9705.57
236.236	9702.05
236.308	9700.66
236.38	9732.34
236.452	9710.57
236.524	9733.93
236.596	9796.24
236.668	9836.02
236.74	9861.16
236.812	9886.83
236.884	9915.87
236.956	9931.48
237.028	9925.32
237.1	9903.74
237.172	9971.14
237.244	10046.91
237.316	9923.37
237.388	9904.84
237.46	9880.94
237.532	9933.68
237.604	9929.25
237.675	10004.26
237.747	10047.28
237.819	10035.82
237.891	10044.88
237.963	10042.71
238.035	10038.86
238.107	9926.84
238.178	9979.31
238.25	9982.64
238.322	10070.82
238.394	10024.39
238.466	10020.92
238.538	10070.18
238.609	10117.05
238.681	10057.6
238.753	10033.94
238.825	10052.64
238.897	10077.34
238.968	10162.15
239.04	10147.7
239.112	10255.07
239.184	10214.02
239.255	10211.75
239.327	10246.47
239.399	10260.49
239.471	10305.44
239.542	10341.66
239.614	10416.62
239.686	10338.47
239.758	10394.01
239.829	10352.13
239.901	10426.8
239.973	10442.79
240.044	10466.3
240.116	10479.26
240.188	10502.63
240.259	10520.45
240.331	10508.21
240.403	10551.52
240.474	10502.94
240.546	10485.36
240.618	10422.48
240.689	10422.05
240.761	10437.42
240.833	10507
240.904	10508.59
240.976	10510.18
241.048	10525.02
241.119	10559.62
241.191	10609.05
241.262	10671.61
241.334	10684.14
241.405	10686.45
241.477	10687.51
241.549	10700.47
241.62	10718.97
241.692	10760.32
241.763	10822.53
241.835	10846.58
241.906	10857.42
241.978	10825.91
242.049	10903.53
242.121	10969.35
242.192	11039.51
242.264	11012.48
242.335	10960.1
242.407	11007.42
242.478	11002.17
242.55	11026.31
242.621	11009.2
242.693	11007.32
242.764	10997.39
242.836	11002.36
242.907	11028.04
242.979	11064.57
243.05	11087.27
243.122	11115.27
243.193	11118.49
243.264	11042.64
243.336	11042.55
243.407	11078.79
243.479	11161.67
243.55	11173.43
243.622	11190.01
243.693	11182.4
243.764	11242.92
243.836	11219.03
243.907	11204.23
243.978	11204.28
244.05	11226.98
244.121	11177.16
244.192	11224.39
244.264	11175.23
244.335	11181.16
244.407	11140.72
244.478	11156.1
244.549	11150.22
244.62	11106.08
244.692	11097.45
244.763	11146.36
244.834	11137.2
244.906	11122.94
244.977	11141.16
245.048	11194.85
245.119	11173.94
245.191	11148.4
245.262	11088.11
245.333	11171.71
245.405	11200.96
245.476	11242.79
245.547	11259.85
245.618	11317.73
245.689	11326.93
245.761	11362.64
245.832	11364.28
245.903	11406.84
245.974	11432.48
246.045	11450.12
246.117	11533.64
246.188	11521.93
246.259	11503.62
246.33	11522.32
246.401	11530.85
246.473	11492.24
246.544	11479.56
246.615	11540.44
246.686	11548.68
246.757	11631.86
246.828	11608.96
246.899	11671.48
246.97	11636.59
247.042	11627.87
247.113	11666.96
247.184	11753.01
247.255	11752.52
247.326	11782.94
247.397	11790.7
247.468	11802.51
247.539	11813.35
247.61	11770.16
247.681	11809.58
247.752	11863.32
247.823	11839.81
247.894	11856.58
247.965	11832.58
248.037	11813.59
248.108	11750.73
248.179	11754.64
248.25	11739.7
248.321	11767.07
248.392	11721.52
248.463	11805.43
248.534	11800.03
248.605	11828.18
248.675	11803.55
248.746	11821.62
248.817	11838.2
248.888	11854.88
248.959	11797.48
249.03	11822.59
249.101	11826.93
249.172	11816.13
249.243	11736.52
249.314	11799.08
249.385	11801
249.456	11822.64
249.527	11816.43
249.598	11846.74
249.669	11855.46
249.739	11871.76
249.81	11889.25
249.881	11840.52
249.952	11828.47
250.023	11829
250.094	11768.9
250.165	11735.54
250.235	11732.98
250.306	11736.36
250.377	11708.84
250.448	11735.39
250.519	11667.29
250.59	11721.85
250.66	11725.47
250.731	11805.76
250.802	11803.25
250.873	11827.69
250.944	11864.51
251.014	11859.4
251.085	11951.47
251.156	11976.92
251.227	12025.46
251.297	12068.46
251.368	12126.64
251.439	12170.55
251.51	12220.01
251.58	12207.19
251.651	12199.23
251.722	12250.76
251.792	12204.1
251.863	12207.29
251.934	12274.34
252.005	12388.72
252.075	12397.15
252.146	12447.47
252.217	12495.77
252.287	12536.75
252.358	12536.7
252.429	12596.96
252.499	12591.27
252.57	12598.89
252.641	12641.79
252.711	12643.43
252.782	12604.96
252.852	12679.24
252.923	12684.55
252.994	12702.24
253.064	12750.29
253.135	12723.54
253.205	12698.67
253.276	12765.81
253.347	12828.33
253.417	12797.77
253.488	12778.73
253.558	12762.68
253.629	12757.47
253.699	12765.38
253.77	12795.6
253.841	12789.96
253.911	12808.09
253.982	12827.46
254.052	12850.46
254.123	12860.58
254.193	12869.02
254.264	13007.9
254.334	12974.92
254.405	12937.13
254.475	12894.9
254.546	12907.2
254.616	12980.71
254.687	13011.85
254.757	13041.11
254.827	13037.83
254.898	13068.44
254.968	13079.87
255.039	13069.98
255.109	13106.52
255.18	13079.96
255.25	13008.62
255.321	13045.64
255.391	13001.87
255.461	13081.17
255.532	13001.63
255.602	12995.84
255.673	12939.39
255.743	12900.35
255.813	12829.2
255.884	12876.25
255.954	12919.73
256.024	12986.83
256.095	12987.17
256.165	12952.85
256.235	12970.44
256.306	12954.92
256.376	13000.33
256.446	13034.8
256.517	13067.38
256.587	13116.22
256.657	13134.63
256.728	13165.82
256.798	13178.07
256.868	13175.03
256.938	13146.83
257.009	13199.03
257.079	13230.03
257.149	13328.9
257.219	13261.8
257.29	13305.32
257.36	13242.27
257.43	13282.72
257.5	13207.13
257.571	13196.96
257.641	13235.52
257.711	13203.8
257.781	13238.08
257.852	13254.81
257.922	13189.53
257.992	13196.14
258.062	13181.82
258.132	13228.15
258.202	13224.1
258.273	13227.42
258.343	13295.93
258.413	13281.99
258.483	13280.93
258.553	13252.25
258.623	13225.4
258.693	13257.94
258.764	13319.11
258.834	13397.4
258.904	13412
258.974	13406.89
259.044	13416.63
259.114	13448.21
259.184	13476.12
259.254	13485.57
259.324	13430.23
259.394	13479.01
259.464	13559.42
259.535	13574.22
259.605	13561.11
259.675	13555.85
259.745	13592.44
259.815	13578.27
259.885	13583.81
259.955	13702.01
260.025	13692.56
260.095	13703.26
260.165	13732.76
260.235	13790.56
260.305	13775.18
260.375	13740.18
260.445	13832.5
260.515	13901.05
260.585	13940.87
260.655	13947.13
260.725	13988.98
260.795	14031.06
260.865	14102.55
260.934	14068.13
261.004	14087.27
261.074	14092.47
261.144	14152.06
261.214	14193.51
261.284	14191.49
261.354	14230.49
261.424	14179.88
261.494	14254.5
261.564	14259.47
261.634	14291.23
261.703	14223.99
261.773	14254.65
261.843	14289.6
261.913	14287.33
261.983	14229.43
262.053	14254.11
262.123	14258.4
262.192	14221.04
262.262	14251.22
262.332	14204.46
262.402	14237
262.472	14249.92
262.541	14192.51
262.611	14239.89
262.681	14202.77
262.751	14239.46
262.821	14240.28
262.89	14215.12
262.96	14238.3
263.03	14316.01
263.1	14327.91
263.169	14352.79
263.239	14379.98
263.309	14442.64
263.379	14467.71
263.448	14491.18
263.518	14512.73
263.588	14523.19
263.657	14589.14
263.727	14633
263.797	14649.58
263.867	14649.63
263.936	14610.44
264.006	14679.38
264.076	14670.84
264.145	14681.01
264.215	14658.84
264.285	14703.53
264.354	14654.45
264.424	14632.52
264.494	14587.02
264.563	14586.29
264.633	14666.41
264.702	14691.28
264.772	14639.41
264.842	14634.5
264.911	14668.72
264.981	14630.79
265.05	14639.85
265.12	14638.84
265.19	14653.06
265.259	14682.27
265.329	14713.55
265.398	14746.81
265.468	14836.66
265.537	14831.75
265.607	14859.27
265.676	14919.29
265.746	14946.91
265.815	15004.66
265.885	15022.64
265.955	15007.65
266.024	15008.13
266.094	14942.86
266.163	14999.98
266.232	15069.29
266.302	15081.44
266.371	15097.59
266.441	15116.82
266.51	15164.98
266.58	15168.79
266.649	15140.64
266.719	15203.54
266.788	15234.14
266.858	15296.23
266.927	15232.89
266.996	15257.86
267.066	15287.41
267.135	15250.25
267.205	15289.53
267.274	15319.22
267.343	15372.34
267.413	15396.06
267.482	15457.7
267.552	15525.19
267.621	15473.37
267.69	15428.84
267.76	15457.23
267.829	15489.33
267.898	15510.25
267.968	15492.61
268.037	15536.86
268.106	15594.55
268.176	15559.46
268.245	15571.41
268.314	15571.51
268.384	15628.49
268.453	15655.57
268.522	15687.1
268.592	15756.75
268.661	15739.25
268.73	15768.85
268.799	15753.33
268.869	15827.94
268.938	15781.81
269.007	15769.91
269.076	15796.18
269.146	15848.91
269.215	15874.84
269.284	15945.4
269.353	15936.34
269.422	15957.07
269.492	15950.32
269.561	15872.86
269.63	15904.77
269.699	15892.43
269.768	15908.58
269.838	15934.94
269.907	15972.82
269.976	15944.19
270.045	15882.54
270.114	15918.55
270.183	15917.97
270.253	15953.78
270.322	15909.34
270.391	15937.88
270.46	16002.7
270.529	16057.6
270.598	16097.36
270.667	16113.56
270.736	16086.81
270.806	16126.28
270.875	16179.59
270.944	16190.58
271.013	16317.92
271.082	16347.18
271.151	16388.72
271.22	16354.88
271.289	16362.74
271.358	16375.9
271.427	16411.08
271.496	16442.32
271.565	16436.05
271.634	16465.79
271.703	16590.85
271.772	16649.07
271.841	16652.98
271.91	16615.72
271.979	16639.68
272.048	16611.24
272.117	16657.17
272.186	16662.91
272.255	16719.15
272.324	16751.49
272.393	16795.15
272.462	16782.67
272.531	16808.55
272.6	16817.08
272.669	16878.29
272.738	16887.26
272.807	16917.62
272.876	16903.88
272.945	17041.48
273.013	17109.53
273.082	17171.41
273.151	17077.77
273.22	17121.68
273.289	17157.06
273.358	17247.85
273.427	17244.72
273.496	17305.83
273.564	17343.9
273.633	17394.22
273.702	17376.63
273.771	17400.34
273.84	17428.38
273.909	17465.44
273.977	17504.67
274.046	17523.08
274.115	17588.48
274.184	17585.25
274.253	17605.49
274.322	17688.82
274.39	17631.95
274.459	17629.93
274.528	17580.43
274.597	17608.05
274.665	17642.12
274.734	17712.87
274.803	17724.63
274.872	17754.99
274.94	17752
275.009	17968.93
275.078	17964.83
275.147	18009.89
275.215	18037.17
275.284	18103.33
275.353	18112.97
275.421	18076.54
275.49	18180.49
275.559	18190.46
275.627	18216.97
275.696	18233.4
275.765	18268.05
275.833	18286.84
275.902	18322.02
275.971	18410.65
276.039	18498.6
276.108	18549.68
276.177	18588.37
276.245	18586.45
276.314	18622.11
276.383	18685.57
276.451	18515.68
276.52	18567.82
276.588	18655.14
276.657	18712.1
276.725	18722.32
276.794	18771.71
276.863	18857.78
276.931	18815.9
277	18880.67
277.068	18967.37
277.137	19073.43
277.205	19109.91
277.274	19227.21
277.342	19296.36
277.411	19273.37
277.48	19267.01
277.548	19277.23
277.617	19311.3
277.685	19346.91
277.754	19396.89
277.822	19408.21
277.89	19500.06
277.959	19526.71
278.027	19494.62
278.096	19509.17
278.164	19647.92
278.233	19669.75
278.301	19678.04
278.37	19738.09
278.438	19742.86
278.507	19785.31
278.575	19742.42
278.643	19772.69
278.712	19743.05
278.78	19745.36
278.849	19828.63
278.917	19916.49
278.985	19946.85
279.054	19996.63
279.122	20083.52
279.191	20118.8
279.259	20147.61
279.327	20111.08
279.396	20206.36
279.464	20243.13
279.532	20295.76
279.601	20309.98
279.669	20343.18
279.737	20423.18
279.806	20484.97
279.874	20554.99
279.942	20597.64
280.011	20626.41
280.079	20691.43
280.147	20793.74
280.215	20856.59
280.284	20884.16
280.352	20876.59
280.42	20939.48
280.488	20952.11
280.557	20964.83
280.625	21023.49
280.693	21068.02
280.761	21138.43
280.83	21123.11
280.898	21208.51
280.966	21204.66
281.034	21139.01
281.102	21134.67
281.171	21161.37
281.239	21231.17
281.307	21245.39
281.375	21252.96
281.443	21392.21
281.512	21422.97
281.58	21485.15
281.648	21474.79
281.716	21520.09
281.784	21570.46
281.852	21585.69
281.92	21638.76
281.989	21715.7
282.057	21697.38
282.125	21888.99
282.193	21919.07
282.261	21968
282.329	21992
282.397	22039.91
282.465	22104.11
282.533	22203.5
282.601	22214.97
282.67	22175.06
282.738	22198.05
282.806	22272.48
282.874	22257.63
282.942	22308.97
283.01	22332.69
283.078	22402.25
283.146	22436.24
283.214	22507.21
283.282	22560.72
283.35	22640.32
283.418	22671.71
283.486	22739.06
283.554	22646.99
283.622	22691.73
283.69	22734.44
283.758	22757.15
283.826	22821.18
283.894	22899.63
283.962	23007.89
284.03	23098.39
284.098	23151.62
284.165	23181.75
284.233	23238.98
284.301	23264.2
284.369	23284.79
284.437	23301.29
284.505	23327.03
284.573	23432.83
284.641	23439.78
284.709	23515.06
284.777	23510.48
284.845	23577.29
284.912	23642.19
284.98	23706.77
285.048	23731.22
285.116	23793.91
285.184	23893.89
285.252	23946.27
285.319	23940.58
285.387	23956.36
285.455	23951.29
285.523	24031.55
285.591	24085.17
285.659	24119.85
285.726	24221.35
285.794	24226.7
285.862	24257.09
285.93	24310.19
285.997	24329.19
286.065	24360.3
286.133	24370.29
286.201	24405.98
286.269	24402.03
286.336	24415.44
286.404	24437.53
286.472	24516.07
286.539	24495.04
286.607	24482.55
286.675	24524.57
286.743	24595
286.81	24619.37
286.878	24708.34
286.946	24721.94
287.013	24762.75
287.081	24802.37
287.149	24788.86
287.216	24895.29
287.284	24935.43
287.352	24982.66
287.419	25021.71
287.487	25115.76
287.555	25178.45
287.622	25206.63
287.69	25268.3
287.758	25363.18
287.825	25397.87
287.893	25398.55
287.96	25469.47
288.028	25558.27
288.096	25622.04
288.163	25674.65
288.231	25681.8
288.298	25727.42
288.366	25809.19
288.433	25832.69
288.501	25857.16
288.569	25906.29
288.636	25927.29
288.704	26013.75
288.771	26090.85
288.839	26098.19
288.906	26117.93
288.974	26190.52
289.041	26238.26
289.109	26252.26
289.176	26320.6
289.244	26376.16
289.311	26468.87
289.379	26547.76
289.446	26590.74
289.514	26623.34
289.581	26660.04
289.649	26724.74
289.716	26771.44
289.783	26792.98
289.851	26910.8
289.918	26956.91
289.986	27041.72
290.053	27106.93
290.121	27156.35
290.188	27201.37
290.255	27344.41
290.323	27388.22
290.39	27415.18
290.458	27489.85
290.525	27592.41
290.592	27622.76
290.66	27674.97
290.727	27703.96
290.794	27799.93
290.862	27843.81
290.929	27902.28
290.996	27951.56
291.064	28026.74
291.131	28107.22
291.198	28193.92
291.266	28243.89
291.333	28292.05
291.4	28354.9
291.468	28458.98
291.535	28488.85
291.602	28540.09
291.669	28552.56
291.737	28612.25
291.804	28657.98
291.871	28749.79
291.938	28804.57
292.006	28923.08
292.073	29010.19
292.14	29084.4
292.207	29101.28
292.275	29155.86
292.342	29229.51
292.409	29364.55
292.476	29480.8
292.543	29504.06
292.611	29555.96
292.678	29646.22
292.745	29782.94
292.812	29861.26
292.879	29879.26
292.946	29926.51
293.014	30026.31
293.081	30101.44
293.148	30183.91
293.215	30289.35
293.282	30305.12
293.349	30381.48
293.416	30370.3
293.484	30461.33
293.551	30550.08
293.618	30644.2
293.685	30769.41
293.752	30789.93
293.819	30819.75
293.886	30807.41
293.953	30872.35
294.02	30954.88
294.087	31009.49
294.154	31032.78
294.221	31125.47
294.288	31195.66
294.356	31313.68
294.423	31371.59
294.49	31382.92
294.557	31470.07
294.624	31475.21
294.691	31613.15
294.758	31662.01
294.825	31734.4
294.892	31764.47
294.959	31816.59
295.026	31893.71
295.093	31924.23
295.16	31976.36
295.226	32026.45
295.293	32169.4
295.36	32240.98
295.427	32323.3
295.494	32412.75
295.561	32484.82
295.628	32602.29
295.695	32695.08
295.762	32751.48
295.829	32821.41
295.896	32953.27
295.963	33025.14
296.03	33117.58
296.096	33158.53
296.163	33245.53
296.23	33341.93
296.297	33423.72
296.364	33460.31
296.431	33526.24
296.498	33557.64
296.564	33697.79
296.631	33763.27
296.698	33768.7
296.765	33879.47
296.832	33897.75
296.899	33907.79
296.965	34033.7
297.032	34008.48
297.099	34124.79
297.166	34203.1
297.233	34261.29
297.299	34280.2
297.366	34335.24
297.433	34384.65
297.5	34468.65
297.566	34527.72
297.633	34582.63
297.7	34641.69
297.767	34700.55
297.833	34763.66
297.9	34843.96
297.967	34849.49
298.033	34936.31
298.1	35086.13
298.167	35117.62
298.234	35192.31
298.3	35287.43
298.367	35305.72
298.434	35399.9
298.5	35408.15
298.567	35437.74
298.634	35466.17
298.7	35578.33
298.767	35644.52
298.834	35757.81
298.9	35791.68
298.967	35814.83
299.033	35898.25
299.1	36007.35
299.167	36099.14
299.233	36137.97
299.3	36213.18
299.366	36315.51
299.433	36407.3
299.5	36363.72
299.566	36414.04
299.633	36508.49
299.699	36582.86
299.766	36629.69
299.832	36688
299.899	36758.39
299.965	36853.33
300.032	36910.36
300.099	36974.97
300.165	37043.86
300.232	37068.87
300.298	37126.73
300.365	37217.94
300.431	37258.14
300.498	37278.83
300.564	37349.27
300.631	37429.62
300.697	37533.88
300.763	37577.04
300.83	37615.94
300.896	37711.38
300.963	37801.21
301.029	37859.29
301.096	37923.98
301.162	38008.37
301.229	38030.13
301.295	38041.1
301.361	38104.04
301.428	38160.27
301.494	38163.13
301.561	38214.08
301.627	38269.1
301.693	38334.27
301.76	38396.49
301.826	38435.58
301.892	38519.37
301.959	38592.37
302.025	38644.54
302.092	38656.1
302.158	38723.56
302.224	38789.63
302.291	38826.64
302.357	38854.23
302.423	38878.28
302.49	38889.64
302.556	38970
302.622	39019.16
302.688	39110.87
302.755	39196.67
302.821	39270.5
302.887	39350.94
302.954	39404.72
303.02	39483.18
303.086	39545.9
303.152	39587.78
303.219	39618.38
303.285	39680.87
303.351	39745.21
303.417	39780.97
303.483	39808.95
303.55	39838.98
303.616	39877.66
303.682	39907.58
303.748	39939.36
303.815	40047.29
303.881	40136.3
303.947	40141.55
304.013	40198.26
304.079	40214.83
304.145	40187.27
304.212	40226.58
304.278	40238.05
304.344	40259.96
304.41	40270.8
304.476	40285.23
304.542	40324.64
304.608	40393.35
304.674	40389.8
304.741	40415.47
304.807	40476.65
304.873	40552.56
304.939	40653.31
305.005	40632.17
305.071	40679.11
305.137	40727.6
305.203	40685.51
305.269	40718.08
305.335	40801.29
305.401	40829.48
305.467	40875.85
305.533	40951.72
305.599	41029.73
305.666	41115.31
305.732	41169.21
305.798	41239.3
305.864	41365.02
305.93	41414.64
305.996	41467.97
306.062	41511.23
306.128	41547.15
306.194	41542.97
306.259	41565.97
306.325	41553.52
306.391	41644.81
306.457	41699.63
306.523	41756.7
306.589	41875.03
306.655	41891.22
306.721	41881.2
306.787	41891.31
306.853	41978
306.919	41965.8
306.985	41966.53
307.051	41984.17
307.117	41989.86
307.183	42017.28
307.248	41968.75
307.314	42023.94
307.38	42062.84
307.446	42119.72
307.512	42123.76
307.578	42180.98
307.644	42203.54
307.709	42258.57
307.775	42274.13
307.841	42316.63
307.907	42364.71
307.973	42347.69
308.039	42390.48
308.104	42450.58
308.17	42482.81
308.236	42467.2
308.302	42511.59
308.368	42518.93
308.433	42554.67
308.499	42580.82
308.565	42590.01
308.631	42639.32
308.696	42599.44
308.762	42593.56
308.828	42622.06
308.894	42598.38
308.959	42584.67
309.025	42610.64
309.091	42638.8
309.156	42669.72
309.222	42713.78
309.288	42703.82
309.354	42671.04
309.419	42690.55
309.485	42672.5
309.551	42740.1
309.616	42734.89
309.682	42768.11
309.748	42783.62
309.813	42804.97
309.879	42824.32
309.945	42817.27
310.01	42834.24
310.076	42877.52
310.141	42893.32
310.207	42877.71
310.273	42946.56
310.338	42993.92
310.404	42980.74
310.469	42984.73
310.535	42979.82
310.601	42947.53
310.666	42998.84
310.732	43071.68
310.797	43080.2
310.863	43091.62
310.928	43100.67
310.994	43162.2
311.059	43181.6
311.125	43225.27
311.191	43299.02
311.256	43309.13
311.322	43369.54
311.387	43335.2
311.453	44215.22
311.518	44212.89
311.584	44258.37
311.649	44310.46
311.715	44319.99
311.78	44365.27
311.846	44360.99
311.911	44423.25
311.976	44473.25
312.042	44467.51
312.107	44452.14
312.173	44462.89
312.238	44486.43
312.304	44514.5
312.369	44515.57
312.434	44526.76
312.5	44537.46
312.565	44470.03
312.631	44516.39
312.696	44528.06
312.761	44572.76
312.827	43748.58
312.892	43871.77
312.958	43889.58
313.023	43894.64
313.088	43927.71
313.154	43903.45
313.219	43923.1
313.284	43917.69
313.35	43932.19
313.415	43935.79
313.48	43956.37
313.546	44006.72
313.611	44061.84
313.676	44062.28
313.741	44057.12
313.807	44118.14
313.872	44167.22
313.937	44221.17
314.003	44277.27
314.068	44314.79
314.133	44387.28
314.198	44395.36
314.264	44372.77
314.329	44373.21
314.394	44395.01
314.459	44397.74
314.525	44504.18
314.59	44525.49
314.655	44523.49
314.72	44575.56
314.785	44608.4
314.851	44625.67
314.916	44597.6
314.981	44582.27
315.046	44580.32
315.111	44583.68
315.176	44570.25
315.242	44594.43
315.307	44629.62
315.372	44606.06
315.437	44594.63
315.502	44594.04
315.567	44653.37
315.632	44634.29
315.698	44670.11
315.763	44686.46
315.828	44701.74
315.893	44713.86
315.958	44718.53
316.023	44718.67
316.088	44671.52
316.153	44609.89
316.218	44604.54
316.283	44563.97
316.348	44521.21
316.413	44520.62
316.479	44482.78
316.544	44383.06
316.609	44288.92
316.674	44156.22
316.739	44040.46
316.804	43927.53
316.869	43791.67
316.934	43637.3
316.999	43522.71
317.064	43327.83
317.129	43158.37
317.194	43016.13
317.259	42826.72
317.324	42625.63
317.389	42434.64
317.454	42277.24
317.518	42155.46
317.583	42033.31
317.648	41916.04
317.713	41756.39
317.778	41533.58
317.843	41396.79
317.908	41221.14
317.973	41062.53
318.038	40923.82
318.103	40755.92
318.168	40615.17
318.233	40451.45
318.297	40251.88
318.362	40066.53
318.427	39894.9
318.492	39757.24
318.557	39550.05
318.622	39398.65
318.687	39279.4
318.751	39109.7
318.816	38940.06
318.881	38757.77
318.946	38519.18
319.011	38300.37
319.075	38100.84
319.14	37909.2
319.205	37690.14
319.27	37523.52
319.335	37291.65
319.399	37079.3
319.464	36920.32
319.529	36669.19
319.594	36477.21
319.658	36296.23
319.723	36089.15
319.788	35914.73
319.853	35663.84
319.917	35483.48
319.982	35220
320.047	35005.14
320.112	34828.59
320.176	34576.97
320.241	34367.46
320.306	34179.21
320.37	33956.49
320.435	33768.87
320.5	33590.57
320.564	33377.02
320.629	33135.51
320.694	32942.6
320.758	32720.93
320.823	32462.22
320.888	32280.15
320.952	32020.54
321.017	31793.97
321.082	31564.73
321.146	31355.44
321.211	31140.78
321.275	30909.47
321.34	30678.65
321.405	30430.79
321.469	30173.52
321.534	29935.88
321.598	29679.46
321.663	29479.03
321.727	29281.61
321.792	29018.55
321.857	28766.61
321.921	28537.45
321.986	28305.49
322.05	28013.68
322.115	27789.55
322.179	27551.86
322.244	27262
322.308	27055.89
322.373	26788.28
322.437	26552.32
322.502	26363.52
322.566	26115.87
322.631	25890.9
322.695	25657.93
322.76	25421.59
322.824	25207.89
322.889	24966.9
322.953	24720.66
323.018	24389.08
323.082	24068.33
323.146	23790.44
323.211	23510.61
323.275	23260.96
323.34	23008.48
323.404	22786.95
323.468	22522.9
323.533	22271.09
323.597	22011.66
323.662	21725.63
323.726	21495.51
323.79	21225.08
323.855	20891.75
323.919	20622.41
323.983	20360.25
324.048	19964.26
324.112	20124.43
324.177	19319.66
324.241	18265.85
324.305	17225.69
324.37	16212.97
324.434	15228.39
324.498	14960.09
324.562	14660.57
324.627	14302.41
324.691	13951.7
324.755	13566.71
324.82	13129.84
324.884	12667.29
324.948	12210.25
325.012	11642.55
325.077	10958.01
