Data from 20250701_urea_2M_exp3_MAYP1162681_15-39-48-922.txt Node
Date: Tue Jul 01 15:39:48 BST 2025
User: adleo
Spectrometer: MAYP116268
Trigger mode: 0
Integration Time (sec): 4.000000E0
Scans to average: 1
Electric dark correction enabled: true
Nonlinearity correction enabled: true
Boxcar width: 10
XAxis mode: Wavelengths
Number of Pixels in Spectrum: 2068
>>>>>Begin Spectral Data<<<<<
179.565	4183.97
179.642	4405.14
179.718	4570.25
179.795	4721.64
179.871	4848.07
179.948	4918
180.024	4998.91
180.101	5091.56
180.177	5149.09
180.254	5234.49
180.33	5318.49
180.407	5625.19
180.483	5948.71
180.56	6277.86
180.636	6582.76
180.712	6543.65
180.789	6576.4
180.865	6620.22
180.942	6655.41
181.018	6693.92
181.095	6742.65
181.171	6760.9
181.248	6758.98
181.324	6817.9
181.4	6840
181.477	6881.36
181.553	6935.19
181.63	7014.18
181.706	7071.09
181.782	7098.6
181.859	7098.07
181.935	7121.76
182.011	7109.56
182.088	7171.84
182.164	7245.37
182.24	7295.76
182.317	7328
182.393	7322.04
182.469	7377.89
182.546	7430.57
182.622	7451.09
182.698	7434.94
182.775	7478.44
182.851	7534.92
182.927	7507.52
183.003	7496.13
183.08	7473.93
183.156	7507.82
183.232	7494.88
183.308	7454.89
183.385	7489.05
183.461	7556.89
183.537	7559.63
183.613	7604.43
183.69	7568.47
183.766	7525.61
183.842	7556.97
183.918	7573.94
183.995	7624.27
184.071	7639.9
184.147	7614.13
184.223	7569.54
184.299	7618.36
184.375	7577.78
184.452	7599.48
184.528	7735.33
184.604	7777.39
184.68	7821.57
184.756	7841.24
184.832	7863.27
184.908	7878.55
184.985	7876.44
185.061	7818.98
185.137	7851.35
185.213	7809.38
185.289	7819.81
185.365	7799.95
185.441	7786.82
185.517	7837.68
185.593	7822.05
185.669	7804.06
185.745	7843.97
185.822	7904.72
185.898	7869.75
185.974	7904.65
186.05	7880.69
186.126	7802.59
186.202	7778.26
186.278	7761.87
186.354	7730.17
186.43	7748.65
186.506	7744.71
186.582	7744.56
186.658	7763.79
186.734	7685.44
186.81	7696.59
186.886	7707.88
186.962	7747.21
187.038	7735.14
187.114	7706.17
187.19	7732.63
187.266	7703.4
187.341	7706
187.417	7682.68
187.493	7684.22
187.569	7698.5
187.645	7672.15
187.721	7629.01
187.797	7657.37
187.873	7679.4
187.949	7659.12
188.025	7638.81
188.101	7651.55
188.176	7667.99
188.252	7654.44
188.328	7690.76
188.404	7694.75
188.48	7673.98
188.556	7648.35
188.632	7647.25
188.707	7650.18
188.783	7639.02
188.859	7622.69
188.935	7581.52
189.011	7606.47
189.086	7579.41
189.162	7548.78
189.238	7540.51
189.314	7531.57
189.39	7509.84
189.465	7481.18
189.541	7541.14
189.617	7480.48
189.693	7461.73
189.768	7477.32
189.844	7571.79
189.92	7535.91
189.996	7558.94
190.071	7595.91
190.147	7594.28
190.223	7621.79
190.298	7584.61
190.374	7538.27
190.45	7580.27
190.526	7614.75
190.601	7601.38
190.677	7613.49
190.753	7713.53
190.828	7731.36
190.904	7786.05
190.98	7842.61
191.055	7878.44
191.131	7849.77
191.207	7929.39
191.282	7957.85
191.358	7921.98
191.433	7859.52
191.509	7916.03
191.585	7907.95
191.66	7915.6
191.736	7944.69
191.811	7916.7
191.887	7986.51
191.963	8077.51
192.038	8092.75
192.114	8094.25
192.189	8101.99
192.265	8091.94
192.34	8011.28
192.416	8003.11
192.491	7985.98
192.567	7998.59
192.642	8013.46
192.718	8008.27
192.793	7959.93
192.869	7949.69
192.944	7956.8
193.02	7990.62
193.095	8001.01
193.171	8027.61
193.246	8022.22
193.322	8011.83
193.397	8016.02
193.473	7961.5
193.548	7893.28
193.624	7914.79
193.699	7902.09
193.775	7960.55
193.85	7965.79
193.925	7999.51
194.001	8000.76
194.076	7977.48
194.152	7934.47
194.227	7897.76
194.302	7869.98
194.378	7888.01
194.453	7870.9
194.529	7920.15
194.604	7864.45
194.679	7840.84
194.755	7765.08
194.83	7814.26
194.905	7805.08
194.981	7842.26
195.056	7814.57
195.131	7833.99
195.207	7827.83
195.282	7798.31
195.357	7727.4
195.433	7782.08
195.508	7740.66
195.583	7763.74
195.659	7819.21
195.734	7841.73
195.809	7845
195.884	7874.89
195.96	7876.96
196.035	7940.3
196.11	7925.24
196.185	7974.68
196.261	7989.15
196.336	8105.59
196.411	8052.61
196.486	8076.56
196.561	8045.87
196.637	8081.11
196.712	8143.67
196.787	8158.68
196.862	8216.59
196.937	8258.29
197.013	8279.32
197.088	8315.54
197.163	8396.3
197.238	8454.04
197.313	8459.53
197.388	8508.17
197.464	8622.49
197.539	8664.11
197.614	8641.98
197.689	8685.92
197.764	8739.5
197.839	8810.68
197.914	8790.02
197.989	8874.5
198.065	8914.59
198.14	9099.75
198.215	9193.14
198.29	9235.08
198.365	9281.4
198.44	9316.78
198.515	9420.41
198.59	9473.52
198.665	9563.08
198.74	9593.57
198.815	9598.15
198.89	9673.75
198.965	9780.68
199.04	9761.12
199.115	9818.19
199.19	9971.56
199.265	9980.86
199.34	10019.92
199.415	10147.07
199.49	10224.42
199.565	10257.7
199.64	10351.58
199.715	10342.42
199.79	10366.9
199.865	10390.22
199.94	10379.24
200.015	10499.49
200.09	10515.92
200.165	10537.31
200.24	10564.87
200.315	10704.64
200.39	10757.55
200.464	10785.54
200.539	10794.89
200.614	10856.61
200.689	10944.84
200.764	10968.6
200.839	11038.02
200.914	11055.89
200.989	11013.43
201.063	11061.47
201.138	10991.78
201.213	10990.34
201.288	10918.88
201.363	10937.53
201.438	10937.77
201.512	11001.6
201.587	10937.45
201.662	10951.67
201.737	11003.71
201.812	11032.29
201.886	10917.48
201.961	10962.3
202.036	10912.49
202.111	10895.72
202.186	10787.06
202.26	10719.88
202.335	10636.18
202.41	10599.9
202.485	10530.92
202.559	10462.7
202.634	10366.2
202.709	10404.39
202.784	10335.45
202.858	10332.94
202.933	10263.38
203.008	10237.03
203.082	10168.53
203.157	10159.09
203.232	9997.78
203.306	9915
203.381	9799.72
203.456	9714.18
203.53	9620.88
203.605	9553.77
203.68	9469.76
203.754	9445.7
203.829	9388.77
203.904	9319.72
203.978	9279.8
204.053	9297.28
204.127	9249.86
204.202	9239.22
204.277	9171.29
204.351	9150.44
204.426	9126.45
204.5	9094.49
204.575	8964.89
204.65	8997.15
204.724	8970.85
204.799	9001.69
204.873	8988.49
204.948	8977.23
205.022	8933.29
205.097	8901.07
205.171	8951.08
205.246	8985.22
205.32	8980.46
205.395	8984.41
205.469	8951.7
205.544	8976.64
205.618	8913.05
205.693	8954.21
205.767	8916.52
205.842	8995.77
205.916	8970.84
205.991	8932.23
206.065	8957.94
206.14	9019.12
206.214	8999.37
206.289	8971.39
206.363	9014.67
206.438	9022.42
206.512	9052.03
206.586	9123.46
206.661	9149.23
206.735	9066.89
206.81	9066.03
206.884	9126.48
206.958	9070.65
207.033	9131.95
207.107	9159.17
207.181	9280.05
207.256	9259.87
207.33	9322.6
207.405	9372.66
207.479	9440.69
207.553	9471.79
207.628	9406.58
207.702	9448.18
207.776	9425.21
207.851	9441.58
207.925	9498.47
207.999	9482.33
208.073	9473.95
208.148	9485.8
208.222	9447.27
208.296	9564.81
208.371	9628.6
208.445	9662.46
208.519	9773.98
208.593	9815.78
208.668	9798.97
208.742	9804.94
208.816	9807.83
208.89	9860.1
208.965	9855.33
209.039	9886.79
209.113	9950.76
209.187	10028.68
209.261	10015.24
209.336	10090
209.41	10163.7
209.484	10164.96
209.558	10250.76
209.632	10299.83
209.707	10337.56
209.781	10416.65
209.855	10471.2
209.929	10532.32
210.003	10557.13
210.077	10552.5
210.151	10733.87
210.226	10857.96
210.3	10960.68
210.374	11047.43
210.448	11063.48
210.522	11099.29
210.596	11141.98
210.67	11173.5
210.744	11350.79
210.818	11472.93
210.892	11547.58
210.966	11524.07
211.041	11587.78
211.115	11576.36
211.189	11662.33
211.263	11716.69
211.337	11741.99
211.411	11798.63
211.485	11772.93
211.559	11816.07
211.633	11819.58
211.707	11700.67
211.781	11732.1
211.855	11599.55
211.929	11566.74
212.003	11492.26
212.077	11519.64
212.151	11556.32
212.225	11585.77
212.299	11537.99
212.373	11486.28
212.447	11465.17
212.52	11565.52
212.594	11569.37
212.668	11606.48
212.742	11553.03
212.816	11532.45
212.89	11503.15
212.964	11483.68
213.038	11493.03
213.112	11525.13
213.186	11581.08
213.26	11494.4
213.333	11318.89
213.407	11329.59
213.481	11334.17
213.555	11371.79
213.629	11320.55
213.703	11245.7
213.777	11234.38
213.85	11150.95
213.924	11267.11
213.998	11257.23
214.072	11226.28
214.146	11162.14
214.219	11139.87
214.293	11117.08
214.367	11106.19
214.441	11129.27
214.515	11079.68
214.588	10974.09
214.662	10841.44
214.736	10745.7
214.81	10760.01
214.883	10780.19
214.957	10723.97
215.031	10668.29
215.105	10570.94
215.178	10506.71
215.252	10466.77
215.326	10348.35
215.4	10260.47
215.473	10057.66
215.547	9962.6
215.621	9883.28
215.694	9878.36
215.768	9763.58
215.842	9683.49
215.915	9613.82
215.989	9493.06
216.063	9427.21
216.136	9403.89
216.21	9374.38
216.284	9387.05
216.357	9357.53
216.431	9304.08
216.504	9301.09
216.578	9360.77
216.652	9371.31
216.725	9338.66
216.799	9348.82
216.873	9334.28
216.946	9347.47
217.02	9305.8
217.093	9271.71
217.167	9160.7
217.24	9066.5
217.314	9029.21
217.387	8977.78
217.461	8924.29
217.535	8946.77
217.608	8881.5
217.682	8856.71
217.755	8871.53
217.829	8804.71
217.902	8788.15
217.976	8769.38
218.049	8715.71
218.123	8625.94
218.196	8624.93
218.27	8586.67
218.343	8503.62
218.417	8498.9
218.49	8471.51
218.563	8522.76
218.637	8532.34
218.71	8622.12
218.784	8658.03
218.857	8697.39
218.931	8726.06
219.004	8736.89
219.077	8757.35
219.151	8777.66
219.224	8764.9
219.298	8753.2
219.371	8806.16
219.444	8761.56
219.518	8775.66
219.591	8796.64
219.665	8910.73
219.738	8931.62
219.811	8916.56
219.885	8971.2
219.958	9007.07
220.031	9009.19
220.105	9034.99
220.178	9038.65
220.251	9004.7
220.325	9026.71
220.398	9047.12
220.471	9075.62
220.544	9119.62
220.618	9095.45
220.691	9125.63
220.764	9144.89
220.838	9180.47
220.911	9167.27
220.984	9264.12
221.057	9298.98
221.131	9322.28
221.204	9224.93
221.277	9293.32
221.35	9431.04
221.424	9425.21
221.497	9437.54
221.57	9464.25
221.643	9497.63
221.716	9560.15
221.79	9567.03
221.863	9584.23
221.936	9592.32
222.009	9603.54
222.082	9635.76
222.155	9641.2
222.229	9718.28
222.302	9756.47
222.375	9761.57
222.448	9798.8
222.521	9800.82
222.594	9805.54
222.667	9778.49
222.74	9833.1
222.814	9831.75
222.887	9816.38
222.96	9873.94
223.033	9920.96
223.106	9952.65
223.179	9983.92
223.252	9996.59
223.325	10034.3
223.398	10046.78
223.471	10083.43
223.544	10111.22
223.617	10119.79
223.69	10152.3
223.763	10104.94
223.837	10128.4
223.91	10166.31
223.983	10116.71
224.056	10087.96
224.129	10111.17
224.202	10175.6
224.275	10165.24
224.348	10131.52
224.42	10087.25
224.493	10025.55
224.566	9999.24
224.639	10020.19
224.712	9989.64
224.785	9965.22
224.858	9951.78
224.931	9934.39
225.004	9888.82
225.077	9890.27
225.15	9799.49
225.223	9801.03
225.296	9895.24
225.369	9833.54
225.442	9795.25
225.514	9821.87
225.587	9844.41
225.66	9858.19
225.733	9855.88
225.806	9871.44
225.879	9865.03
225.952	9838.64
226.025	9887.24
226.097	9946.99
226.17	9941.7
226.243	9877.35
226.316	9881.79
226.389	9891.8
226.461	9917.92
226.534	9942.24
226.607	9926.54
226.68	10012.93
226.753	10007.58
226.825	9905.72
226.898	9968.95
226.971	9975.31
227.044	9999.2
227.117	10007.87
227.189	10029.8
227.262	10081.06
227.335	10098.12
227.407	10097.54
227.48	10136.31
227.553	10153.94
227.626	10137.36
227.698	10141.26
227.771	10189.8
227.844	10167.74
227.916	10187.97
227.989	10149.15
228.062	10147.36
228.134	10251.58
228.207	10256.69
228.28	10252.01
228.352	10279.28
228.425	10288.24
228.498	10344.08
228.57	10322.16
228.643	10388.22
228.716	10387.41
228.788	10373.14
228.861	10377.38
228.934	10449.6
229.006	10459.71
229.079	10470.02
229.151	10453.25
229.224	10424.74
229.296	10448.83
229.369	10561.35
229.442	10619.03
229.514	10597.31
229.587	10657.1
229.659	10576.34
229.732	10590.08
229.804	10640.18
229.877	10723.02
229.949	10759.6
230.022	10819.36
230.094	10821.19
230.167	10814.69
230.239	10767.71
230.312	10755.62
230.384	10835.19
230.457	10834.61
230.529	10841.17
230.602	10836.06
230.674	10851.91
230.747	10905.81
230.819	10947.26
230.892	10821.97
230.964	10821.35
231.037	10855.06
231.109	10836.46
231.181	10881.17
231.254	10847.73
231.326	10829.81
231.399	10807.3
231.471	10780.26
231.544	10693.42
231.616	10746.85
231.688	10749.11
231.761	10740.68
231.833	10730.08
231.905	10635.43
231.978	10630.71
232.05	10620.78
232.122	10636.88
232.195	10613.27
232.267	10652.45
232.339	10625.12
232.412	10700.04
232.484	10676.9
232.556	10652
232.629	10735.19
232.701	10761.4
232.773	10779.95
232.846	10772.68
232.918	10782.41
232.99	10807.62
233.062	10857.11
233.135	10873.93
233.207	10839.38
233.279	10890.68
233.351	10936.12
233.424	10939.39
233.496	10919.11
233.568	11018.24
233.64	10977.86
233.713	10994.87
233.785	10990.24
233.857	11007.06
233.929	10954.64
234.001	11033.4
234.074	11121.13
234.146	11045.65
234.218	11044.55
234.29	11051.05
234.362	11035.01
234.434	10990.33
234.507	10954.38
234.579	10901.52
234.651	10884.32
234.723	10921.57
234.795	10944.31
234.867	10935.44
234.939	11002.91
235.012	11022.62
235.084	11024.98
235.156	11067.96
235.228	11053.99
235.3	11040.59
235.372	11057.51
235.444	11125.21
235.516	11032.38
235.588	11037
235.66	11060.57
235.732	11036.67
235.804	11247.89
235.876	11309.9
235.948	11388.03
236.02	11407.35
236.092	11430.62
236.164	11447.63
236.236	11451.39
236.308	11460.4
236.38	11496.07
236.452	11479.63
236.524	11511.78
236.596	11589.68
236.668	11631.42
236.74	11660.19
236.812	11695.95
236.884	11742.03
236.956	11756.78
237.028	11760.05
237.1	11741.59
237.172	11824.74
237.244	11913.52
237.316	11786.79
237.388	11772
237.46	11742.01
237.532	11813.97
237.604	11808.53
237.675	11893.99
237.747	11950.87
237.819	11946.39
237.891	11953.81
237.963	11947.01
238.035	11950.97
238.107	11827.42
238.178	11905.27
238.25	11915.25
238.322	12023.56
238.394	11972.95
238.466	11980.43
238.538	12032.67
238.609	12088.58
238.681	12023.84
238.753	11999.6
238.825	12026.2
238.897	12064.91
238.968	12163.48
239.04	12148.64
239.112	12273.81
239.184	12230.43
239.255	12227.54
239.327	12260.41
239.399	12285.43
239.471	12344.04
239.542	12386.74
239.614	12465.6
239.686	12372.71
239.758	12443.18
239.829	12396.42
239.901	12470.94
239.973	12490.95
240.044	12531.34
240.116	12542.38
240.188	12566.87
240.259	12587.16
240.331	12583.83
240.403	12632.57
240.474	12585.13
240.546	12574.77
240.618	12510.66
240.689	12514.71
240.761	12542.33
240.833	12619.21
240.904	12625.34
240.976	12627.84
241.048	12644.28
241.119	12689.74
241.191	12749.22
241.262	12831.56
241.334	12852.09
241.405	12865.16
241.477	12874.12
241.549	12890.51
241.62	12932.02
241.692	12988.47
241.763	13060.34
241.835	13081.27
241.906	13101.56
241.978	13075.1
242.049	13156.37
242.121	13237.02
242.192	13324.85
242.264	13288.93
242.335	13244.68
242.407	13299.83
242.478	13309.86
242.55	13340.27
242.621	13330.05
242.693	13328.22
242.764	13310.92
242.836	13310.68
242.907	13348.76
242.979	13387.56
243.05	13416.34
243.122	13442.23
243.193	13453.8
243.264	13374.69
243.336	13388.53
243.407	13435.63
243.479	13532.04
243.55	13554.12
243.622	13564.39
243.693	13565.93
243.764	13652.22
243.836	13633.95
243.907	13625.61
243.978	13633.85
244.05	13670.58
244.121	13623.87
244.192	13671.4
244.264	13619.73
244.335	13636.7
244.407	13584.01
244.478	13612.06
244.549	13604.3
244.62	13559.81
244.692	13554.07
244.763	13614.86
244.834	13606.08
244.906	13583.81
244.977	13601.7
245.048	13666.48
245.119	13657.66
245.191	13638.28
245.262	13566.55
245.333	13659.78
245.405	13692.71
245.476	13739.61
245.547	13759.76
245.618	13820.5
245.689	13840.89
245.761	13886.59
245.832	13897.97
245.903	13959.53
245.974	13991.92
246.045	14014.87
246.117	14115.23
246.188	14101.69
246.259	14086.45
246.33	14116.58
246.401	14142.18
246.473	14117.21
246.544	14103.13
246.615	14167.68
246.686	14176.31
246.757	14269.35
246.828	14246.84
246.899	14328.78
246.97	14296.14
247.042	14295.23
247.113	14357.51
247.184	14461.86
247.255	14467.17
247.326	14508.77
247.397	14520.24
247.468	14538.27
247.539	14555.62
247.61	14508.33
247.681	14559.1
247.752	14631.07
247.823	14601.13
247.894	14616.56
247.965	14588.74
248.037	14582.86
248.108	14518.17
248.179	14534.99
248.25	14527.67
248.321	14564.78
248.392	14504.53
248.463	14595.45
248.534	14592.31
248.605	14616.08
248.675	14594.92
248.746	14621
248.817	14641.19
248.888	14665.92
248.959	14606.49
249.03	14638.59
249.101	14655.61
249.172	14650.16
249.243	14560.54
249.314	14649.68
249.385	14655.61
249.456	14694.89
249.527	14688.29
249.598	14727.24
249.669	14720.01
249.739	14739.68
249.81	14760.84
249.881	14725.6
249.952	14725.84
250.023	14724.59
250.094	14664.43
250.165	14620.13
250.235	14611.55
250.306	14616.52
250.377	14583.5
250.448	14619.7
250.519	14555.49
250.59	14626.88
250.66	14628.62
250.731	14716.64
250.802	14712.06
250.873	14738.14
250.944	14757.71
251.014	14749.71
251.085	14859.75
251.156	14901.59
251.227	14962.27
251.297	15017.42
251.368	15075.5
251.439	15119.46
251.51	15185.5
251.58	15172.68
251.651	15184.87
251.722	15258.19
251.792	15200.34
251.863	15208.44
251.934	15284.98
252.005	15415.56
252.075	15421.54
252.146	15478.95
252.217	15538
252.287	15589.19
252.358	15601.53
252.429	15693.88
252.499	15692
252.57	15696.72
252.641	15754.56
252.711	15765.5
252.782	15723.08
252.852	15814.47
252.923	15820.25
252.994	15830.81
253.064	15890.39
253.135	15868.99
253.205	15842.14
253.276	15936.42
253.347	16012.68
253.417	15982.89
253.488	15957.59
253.558	15947.42
253.629	15947.13
253.699	15966.65
253.77	15999.18
253.841	15990.17
253.911	15994.41
253.982	16018.75
254.052	16049.21
254.123	16050.61
254.193	16054.7
254.264	16201.89
254.334	16165.36
254.405	16132.44
254.475	16108.29
254.546	16119.76
254.616	16190.71
254.687	16233.8
254.757	16260.31
254.827	16263.4
254.898	16297.62
254.968	16308.8
255.039	16290.63
255.109	16339.45
255.18	16310.05
255.25	16226.43
255.321	16263.16
255.391	16224.41
255.461	16320.08
255.532	16235.45
255.602	16230.39
255.673	16177.27
255.743	16137.37
255.813	16067.14
255.884	16125.85
255.954	16166.72
256.024	16248.27
256.095	16254.58
256.165	16209.03
256.235	16232.99
256.306	16227.15
256.376	16279.4
256.446	16326.58
256.517	16372.66
256.587	16420.76
256.657	16442.69
256.728	16480.33
256.798	16497.4
256.868	16498.55
256.938	16464.82
257.009	16524.53
257.079	16573.89
257.149	16680.93
257.219	16627.29
257.29	16673.27
257.36	16609.46
257.43	16650.86
257.5	16585.07
257.571	16579.82
257.641	16634.96
257.711	16602.71
257.781	16632.16
257.852	16648.79
257.922	16587.87
257.992	16592.74
258.062	16588.3
258.132	16637.75
258.202	16646.14
258.273	16665.27
258.343	16749.32
258.413	16739.39
258.483	16746.67
258.553	16709.37
258.623	16682.52
258.693	16714.57
258.764	16792.51
258.834	16875.99
258.904	16893.14
258.974	16877.77
259.044	16897.24
259.114	16927.17
259.184	16958.73
259.254	16977.53
259.324	16921.14
259.394	16983.51
259.464	17076.62
259.535	17096.47
259.605	17093.92
259.675	17089.19
259.745	17132.91
259.815	17107.7
259.885	17124.14
259.955	17248.61
260.025	17248.37
260.095	17271.5
260.165	17311.07
260.235	17376.37
260.305	17363.36
260.375	17337.62
260.445	17439.46
260.515	17519.79
260.585	17579.31
260.655	17598.83
260.725	17643.41
260.795	17695.12
260.865	17762.44
260.934	17722.88
261.004	17748.66
261.074	17757.58
261.144	17824.52
261.214	17868.52
261.284	17868.47
261.354	17909.43
261.424	17856.52
261.494	17940.57
261.564	17949.44
261.634	17977.29
261.703	17901.01
261.773	17932.28
261.843	17968.52
261.913	17962.74
261.983	17891.75
262.053	17911.22
262.123	17909.2
262.192	17867.03
262.262	17897.29
262.332	17851.22
262.402	17893.63
262.472	17909.97
262.541	17844.38
262.611	17896.76
262.681	17860.47
262.751	17907.31
262.821	17911.22
262.89	17885
262.96	17904.52
263.03	17989.29
263.1	18013.38
263.169	18039.45
263.239	18075.07
263.309	18155.45
263.379	18187.3
263.448	18212.07
263.518	18229.08
263.588	18243.16
263.657	18320.41
263.727	18372.4
263.797	18386.72
263.867	18382.96
263.936	18341.42
264.006	18419.88
264.076	18412.36
264.145	18420.75
264.215	18402.87
264.285	18448.36
264.354	18397.52
264.424	18382.19
264.494	18322.2
264.563	18310.24
264.633	18406.29
264.702	18431.25
264.772	18361.28
264.842	18359.45
264.911	18399.4
264.981	18366.87
265.05	18386.29
265.12	18383.88
265.19	18403.88
265.259	18456.89
265.329	18502.43
265.398	18531.68
265.468	18628.73
265.537	18624.4
265.607	18662.47
265.676	18719.43
265.746	18749.21
265.815	18820.53
265.885	18831.23
265.955	18817.4
266.024	18817.83
266.094	18740.49
266.163	18803.96
266.232	18879.71
266.302	18895.56
266.371	18917.11
266.441	18939.8
266.51	18992.81
266.58	19000.43
266.649	18985.68
266.719	19037.24
266.788	19065.05
266.858	19138.3
266.927	19057.53
266.996	19092.18
267.066	19131.74
267.135	19102.44
267.205	19143.7
267.274	19165.72
267.343	19230.49
267.413	19254.53
267.482	19328.26
267.552	19400.6
267.621	19349.76
267.69	19296.22
267.76	19325.32
267.829	19360.79
267.898	19378.67
267.968	19351.25
268.037	19383.15
268.106	19437.8
268.176	19405.9
268.245	19406.67
268.314	19400.98
268.384	19481.75
268.453	19500.98
268.522	19521.46
268.592	19583.04
268.661	19567.04
268.73	19592.49
268.799	19578.42
268.869	19667.28
268.938	19624.01
269.007	19615.43
269.076	19649.16
269.146	19717.93
269.215	19750.26
269.284	19820.96
269.353	19814.22
269.422	19828.43
269.492	19838.55
269.561	19748.58
269.63	19787.37
269.699	19796.39
269.768	19810.94
269.838	19831.9
269.907	19874.36
269.976	19835.28
270.045	19778.07
270.114	19821.21
270.183	19839.9
270.253	19874.31
270.322	19829.11
270.391	19854.31
270.46	19925.64
270.529	19968.34
270.598	20015.66
270.667	20016.91
270.736	19989.64
270.806	20033.49
270.875	20095.61
270.944	20100.91
271.013	20242.93
271.082	20266.36
271.151	20291.03
271.22	20257.97
271.289	20264.14
271.358	20276.53
271.427	20324.52
271.496	20363.61
271.565	20357.58
271.634	20377.34
271.703	20433.78
271.772	20500.76
271.841	20508.86
271.91	20475.85
271.979	20496.57
272.048	20465.1
272.117	20525.44
272.186	20523.56
272.255	20579.23
272.324	20634.27
272.393	20674.41
272.462	20655.27
272.531	20683.13
272.6	20698.22
272.669	20782.36
272.738	20799.86
272.807	20829.93
272.876	20808.15
272.945	20962.14
273.013	21025.18
273.082	21097.29
273.151	21079.02
273.22	21111.31
273.289	21133.29
273.358	21225.15
273.427	21235.47
273.496	21291.37
273.564	21335.58
273.633	21403.39
273.702	21381.85
273.771	21390.04
273.84	21424.02
273.909	21463.74
273.977	21500.8
274.046	21520.47
274.115	21581.11
274.184	21580.48
274.253	21606.99
274.322	21698.71
274.39	21629.58
274.459	21629.2
274.528	21572.51
274.597	21593.53
274.665	21620.47
274.734	21702.46
274.803	21704.77
274.872	21734.22
274.94	21728.34
275.009	21960.03
275.078	21950.87
275.147	21991.5
275.215	22021.58
275.284	22100.69
275.353	22109.61
275.421	22070.61
275.49	22175.52
275.559	22185.88
275.627	22211.48
275.696	22235.19
275.765	22271.35
275.833	22284.75
275.902	22332.57
275.971	22426.52
276.039	22523.18
276.108	22585.56
276.177	22622.93
276.245	22632.47
276.314	22667.09
276.383	22733.71
276.451	22549.8
276.52	22600.81
276.588	22688.94
276.657	22746.56
276.725	22747.91
276.794	22796.66
276.863	22884.69
276.931	22835.99
277	22895.2
277.068	22968.38
277.137	23077.65
277.205	23121.58
277.274	23235.03
277.342	23310.02
277.411	23278.01
277.48	23278.73
277.548	23285.82
277.617	23326.57
277.685	23357.37
277.754	23413.65
277.822	23434.48
277.89	23531.72
277.959	23563.94
278.027	23537.56
278.096	23538.57
278.164	23679.29
278.233	23706.54
278.301	23705.67
278.37	23777.04
278.438	23777.28
278.507	23833.51
278.575	23775.68
278.643	23805.39
278.712	23779.2
278.78	23777.76
278.849	23872.17
278.917	23953.21
278.985	23983.49
279.054	24044.23
279.122	24128.01
279.191	24165.2
279.259	24199.78
279.327	24166.58
279.396	24271.18
279.464	24314.82
279.532	24393.17
279.601	24418.71
279.669	24442.63
279.737	24552.18
279.806	24604.91
279.874	24682.93
279.942	24714.96
280.011	24745.78
280.079	24812.26
280.147	24915.4
280.215	24966.21
280.284	24999.49
280.352	25001.76
280.42	25075.49
280.488	25087.74
280.557	25103.47
280.625	25157.52
280.693	25197.75
280.761	25249.14
280.83	25231.14
280.898	25313.51
280.966	25283.16
281.034	25208.83
281.102	25214.66
281.171	25235.32
281.239	25316.09
281.307	25327.48
281.375	25345.62
281.443	25492.39
281.512	25524.3
281.58	25604.88
281.648	25603.53
281.716	25642.33
281.784	25683.69
281.852	25716.42
281.92	25757.74
281.989	25848.11
282.057	25833.83
282.125	26035.23
282.193	26076.8
282.261	26128.21
282.329	26166.49
282.397	26223.63
282.465	26283.62
282.533	26376.86
282.601	26386.52
282.67	26336.06
282.738	26354.17
282.806	26435.22
282.874	26423.53
282.942	26482.83
283.01	26502.16
283.078	26565.3
283.146	26605.61
283.214	26678.68
283.282	26722.04
283.35	26798.41
283.418	26813.14
283.486	26876.53
283.554	26780.35
283.622	26827.35
283.69	26859.51
283.758	26877.33
283.826	26948.12
283.894	27031.59
283.962	27148.46
284.03	27242.75
284.098	27304.41
284.165	27335.45
284.233	27379.27
284.301	27408.44
284.369	27417.52
284.437	27425.83
284.505	27448.05
284.573	27543.32
284.641	27548.05
284.709	27622.28
284.777	27614.45
284.845	27691.44
284.912	27758.21
284.98	27819.04
285.048	27831.84
285.116	27896.1
285.184	27993.43
285.252	28043.98
285.319	28036.2
285.387	28052.88
285.455	28044.47
285.523	28118.98
285.591	28163.08
285.659	28207.55
285.726	28294.99
285.794	28290.98
285.862	28337.52
285.93	28388.25
285.997	28413.83
286.065	28454.28
286.133	28462.98
286.201	28510.53
286.269	28501.78
286.336	28504.49
286.404	28523.44
286.472	28618.34
286.539	28590.75
286.607	28577.5
286.675	28618.93
286.743	28693.42
286.81	28719.3
286.878	28806.57
286.946	28828.42
287.013	28887.34
287.081	28929.02
287.149	28918.43
287.216	29040.75
287.284	29061.21
287.352	29117.43
287.419	29153.27
287.487	29254.94
287.555	29324.69
287.622	29346.79
287.69	29417.4
287.758	29519.06
287.825	29538.98
287.893	29531.77
287.96	29602.83
288.028	29683.95
288.096	29737.69
288.163	29795.46
288.231	29799.47
288.298	29852.46
288.366	29933.25
288.433	29966.96
288.501	29988.63
288.569	30052.2
288.636	30074.21
288.704	30168.03
288.771	30243.71
288.839	30252.36
288.906	30266.01
288.974	30334.62
289.041	30392.42
289.109	30396.58
289.176	30469.11
289.244	30538.38
289.311	30639.53
289.379	30722.56
289.446	30785.6
289.514	30824.37
289.581	30870.35
289.649	30927.8
289.716	30963.19
289.783	30991.22
289.851	31102.45
289.918	31147.4
289.986	31221.23
290.053	31285
290.121	31322.67
290.188	31379.23
290.255	31540.81
290.323	31573.69
290.39	31596.89
290.458	31672.7
290.525	31772.64
290.592	31794.34
290.66	31855.15
290.727	31871.57
290.794	31967.52
290.862	32016.26
290.929	32090.85
290.996	32129.59
291.064	32206.45
291.131	32308.59
291.198	32402.24
291.266	32448.89
291.333	32500.27
291.4	32569.07
291.468	32676.85
291.535	32721.42
291.602	32784.85
291.669	32794.26
291.737	32861.5
291.804	32906.51
291.871	33000.48
291.938	33075.45
292.006	33233.91
292.073	33330.68
292.14	33434.68
292.207	33457.46
292.275	33500.6
292.342	33568.61
292.409	33714
292.476	33861.36
292.543	33869.27
292.611	33913.97
292.678	34021.51
292.745	34168.19
292.812	34257.08
292.879	34286.52
292.946	34352.83
293.014	34442.55
293.081	34531.58
293.148	34626.03
293.215	34728.7
293.282	34750.57
293.349	34822.98
293.416	34787.13
293.484	34878.08
293.551	34953.85
293.618	35053.56
293.685	35209.14
293.752	35241.01
293.819	35282.69
293.886	35281.57
293.953	35348.31
294.02	35444.9
294.087	35503.81
294.154	35528.07
294.221	35624.36
294.288	35688.16
294.356	35790.13
294.423	35857.06
294.49	35872.68
294.557	35958.96
294.624	35981.86
294.691	36108.21
294.758	36173.24
294.825	36263.31
294.892	36282.87
294.959	36342.81
295.026	36427.46
295.093	36446.44
295.16	36501.51
295.226	36556.56
295.293	36682.53
295.36	36757.46
295.427	36833.44
295.494	36934.14
295.561	37024.52
295.628	37154.55
295.695	37254.27
295.762	37323.5
295.829	37408.57
295.896	37528.91
295.963	37626.18
296.03	37716.37
296.096	37789.06
296.163	37878.61
296.23	37978.45
296.297	38077.11
296.364	38119.01
296.431	38194.38
296.498	38231.87
296.564	38378.26
296.631	38427.31
296.698	38441.49
296.765	38571.84
296.832	38602.15
296.899	38611.04
296.965	38719.21
297.032	38683.45
297.099	38797.42
297.166	38879.37
297.233	38911.91
297.299	38932.65
297.366	38978.75
297.433	39041.12
297.5	39122.01
297.566	39175.4
297.633	39231.08
297.7	39296.37
297.767	39354.26
297.833	39430.4
297.9	39499.86
297.967	39488.5
298.033	39604.62
298.1	39756.52
298.167	39771.58
298.234	39840.57
298.3	39925.16
298.367	39968.11
298.434	40067.73
298.5	40088.29
298.567	40119.34
298.634	40179.35
298.7	40303.3
298.767	40364.72
298.834	40478.34
298.9	40527.67
298.967	40560.62
299.033	40633.38
299.1	40748.42
299.167	40845.65
299.233	40875.54
299.3	40974.78
299.366	41103.17
299.433	41194.37
299.5	41153.93
299.566	41225.32
299.633	41335.27
299.699	41427.38
299.766	41464.81
299.832	41517.99
299.899	41595.39
299.965	41701.75
300.032	41733.34
300.099	41805.05
300.165	41867.71
300.232	41893.28
300.298	41930.66
300.365	42030.12
300.431	42090.9
300.498	42106.31
300.564	42198.69
300.631	42295.16
300.697	42392.7
300.763	42441.32
300.83	42491.03
300.896	42598.14
300.963	42688.14
301.029	42749.41
301.096	42818.09
301.162	42920.25
301.229	42961.73
301.295	42972.23
301.361	43035.26
301.428	43110.13
301.494	43106.15
301.561	43175.64
301.627	43255.64
301.693	43322.8
301.76	43397.17
301.826	43439.34
301.892	43536.03
301.959	43608.86
302.025	43650.59
302.092	43682.9
302.158	43764.8
302.224	43829.91
302.291	43841.63
302.357	43879.82
302.423	43905.7
302.49	43919.41
302.556	43997.12
302.622	44048.78
302.688	44158.29
302.755	44256.6
302.821	44350.53
302.887	44440.37
302.954	44495.2
303.02	44567.03
303.086	44648.91
303.152	44682.44
303.219	44735.52
303.285	44804.39
303.351	44868.55
303.417	44935.51
303.483	44954.68
303.55	44983.29
303.616	45015.37
303.682	45078.28
303.748	45114.19
303.815	45231.9
303.881	45326.12
303.947	45342.24
304.013	45396.65
304.079	45398.59
304.145	45373.04
304.212	45402.82
304.278	45444.14
304.344	45481.91
304.41	45493.21
304.476	45515.21
304.542	45546.8
304.608	45600.54
304.674	45588.61
304.741	45603.85
304.807	45658.05
304.873	45729.03
304.939	45827.29
305.005	45811.66
305.071	45841.4
305.137	45892.31
305.203	45849.31
305.269	45881.07
305.335	45968.84
305.401	46013.44
305.467	46058.67
305.533	46129.66
305.599	46204.95
305.666	46275.02
305.732	46316.75
305.798	46398.28
305.864	46529.05
305.93	46601.81
305.996	46650.27
306.062	46708.47
306.128	46750.07
306.194	46732.63
306.259	46762.4
306.325	46763.76
306.391	46849.28
306.457	46924.28
306.523	46975.61
306.589	47107.27
306.655	47120.86
306.721	47089.92
306.787	47097.57
306.853	47189.9
306.919	47183.77
306.985	47207.3
307.051	47222.11
307.117	47244.67
307.183	47267.33
307.248	47207.23
307.314	47257.14
307.38	47297.93
307.446	47354.66
307.512	47365.77
307.578	47435.49
307.644	47471.3
307.709	47522.62
307.775	47550.7
307.841	47588.61
307.907	47635.74
307.973	47604.97
308.039	47653.61
308.104	47720.72
308.17	47768.38
308.236	47762.82
308.302	47823.53
308.368	47811.99
308.433	47841.47
308.499	47873.1
308.565	47873.68
308.631	47928.86
308.696	47884.99
308.762	47884.26
308.828	47910.94
308.894	47885.26
308.959	47857.72
309.025	47873.57
309.091	47901.46
309.156	47906.43
309.222	47943.98
309.288	47943.83
309.354	47903.38
309.419	47933.18
309.485	47927.13
309.551	47977.7
309.616	47979.11
309.682	47998.23
309.748	48039.61
309.813	48086.47
309.879	48091.88
309.945	48090.17
310.01	48100.51
310.076	48159.79
310.141	48181.14
310.207	48168.85
310.273	48223.15
310.338	48273.16
310.404	48253.66
310.469	48244.58
310.535	48259.16
310.601	48228.44
310.666	48296.79
310.732	48383.32
310.797	48383.07
310.863	48382.98
310.928	48403.13
310.994	48448.92
311.059	48485.02
311.125	48506.28
311.191	48570.95
311.256	48579.44
311.322	48643.61
311.387	48620.55
311.453	49284.19
311.518	49324.39
311.584	49366.83
311.649	49436.69
311.715	49443.57
311.78	49496.91
311.846	49499.4
311.911	49565.8
311.976	49620.77
312.042	49591.59
312.107	49592.13
312.173	49602.37
312.238	49626.85
312.304	49642.03
312.369	49645.49
312.434	49641.15
312.5	49649.44
312.565	49565.31
312.631	49617.94
312.696	49622.87
312.761	49677.79
312.827	49057.37
312.892	49144.55
312.958	49166.22
313.023	49192.35
313.088	49233.52
313.154	49215.52
313.219	49229.37
313.284	49232.94
313.35	49242.89
313.415	49247.63
313.48	49252.99
313.546	49299.85
313.611	49360.07
313.676	49369.69
313.741	49376.91
313.807	49427.58
313.872	49488.19
313.937	49564.27
314.003	49632.48
314.068	49678.57
314.133	49725.14
314.198	49720.95
314.264	49691.82
314.329	49700.27
314.394	49716.04
314.459	49740.69
314.525	49847.84
314.59	49877.9
314.655	49868.28
314.72	49924.48
314.785	49979.54
314.851	49997.4
314.916	49962.75
314.981	49949.71
315.046	49944.78
315.111	49940.78
315.176	49943.12
315.242	49985.23
315.307	50001.69
315.372	49963.4
315.437	49954.8
315.502	49963.25
315.567	50032.6
315.632	50010.77
315.698	50052.93
315.763	50069.25
315.828	50069.73
315.893	50061.38
315.958	50068.31
316.023	50054.55
316.088	50017.09
316.153	49941.59
316.218	49934.36
316.283	49888.07
316.348	49840.84
316.413	49835.13
316.479	49792.35
316.544	49674.14
316.609	49544.25
316.674	49401.65
316.739	49279.96
316.804	49159.13
316.869	49006.98
316.934	48853.65
316.999	48724.24
317.064	48500.96
317.129	48296.72
317.194	48135.97
317.259	47946.73
317.324	47739.06
317.389	47549.2
317.454	47370.14
317.518	47226.75
317.583	47088.75
317.648	46960.87
317.713	46795.33
317.778	46550.11
317.843	46397.5
317.908	46210.74
317.973	46015.91
318.038	45868.82
318.103	45681.66
318.168	45515.84
318.233	45350.42
318.297	45108.33
318.362	44906.62
318.427	44716.15
318.492	44570.63
318.557	44327.92
318.622	44160.47
318.687	44000.49
318.751	43793.69
318.816	43588.44
318.881	43377.35
318.946	43109.48
319.011	42868.84
319.075	42635.47
319.14	42421.45
319.205	42177.83
319.27	41972.01
319.335	41734.35
319.399	41511.64
319.464	41315.17
319.529	41042.88
319.594	40812.92
319.658	40624.99
319.723	40378.71
319.788	40183.52
319.853	39897.97
319.917	39695.59
319.982	39403.91
320.047	39178.39
320.112	38980.54
320.176	38710.04
320.241	38484.57
320.306	38271.89
320.37	38022.73
320.435	37808.14
320.5	37601.05
320.564	37363.93
320.629	37112.54
320.694	36898.28
320.758	36629.43
320.823	36371.27
320.888	36163.96
320.952	35875.11
321.017	35611.25
321.082	35358.57
321.146	35118.46
321.211	34886.03
321.275	34632.36
321.34	34366.67
321.405	34093.05
321.469	33816.95
321.534	33550.35
321.598	33265.65
321.663	33039.1
321.727	32817.41
321.792	32521.34
321.857	32248.57
321.921	31990.63
321.986	31734.3
322.05	31413.62
322.115	31171.73
322.179	30894.57
322.244	30573.53
322.308	30341.11
322.373	30054.46
322.437	29796.76
322.502	29579.11
322.566	29301.76
322.631	29055.38
322.695	28791.31
322.76	28508.63
322.824	28250.61
322.889	27978.12
322.953	27687.2
323.018	27326.07
323.082	26970.83
323.146	26666.82
323.211	26356.13
323.275	26063.5
323.34	25761.97
323.404	25519.61
323.468	25221.1
323.533	24935.33
323.597	24646.62
323.662	24329.33
323.726	24079.48
323.79	23785.42
323.855	23415.73
323.919	23108.94
323.983	22814.93
324.048	22385.63
324.112	22531.25
324.177	21645.64
324.241	20467.33
324.305	19310.91
324.37	18172.89
324.434	17069.24
324.498	16765.34
324.562	16423.95
324.627	16034.96
324.691	15657.74
324.755	15215.34
324.82	14724.74
324.884	14202.61
324.948	13672.79
325.012	13039.06
325.077	12244.47
