Data from 20250701_urea_2M_exp3_MAYP1162681_05-59-48-793.txt Node
Date: Wed Jul 02 05:59:48 BST 2025
User: adleo
Spectrometer: MAYP116268
Trigger mode: 0
Integration Time (sec): 4.000000E0
Scans to average: 1
Electric dark correction enabled: true
Nonlinearity correction enabled: true
Boxcar width: 10
XAxis mode: Wavelengths
Number of Pixels in Spectrum: 2068
>>>>>Begin Spectral Data<<<<<
179.565	3580.11
179.642	3766.97
179.718	3911.84
179.795	4041.48
179.871	4146.98
179.948	4205.52
180.024	4274.69
180.101	4352.06
180.177	4396.92
180.254	4476.71
180.33	4551.49
180.407	4809.46
180.483	5087.68
180.56	5369.82
180.636	5626.47
180.712	5584.06
180.789	5619.79
180.865	5658.36
180.942	5687.22
181.018	5723.43
181.095	5768.92
181.171	5784.6
181.248	5787.29
181.324	5838.78
181.4	5864.59
181.477	5903.98
181.553	5949.86
181.63	6018.38
181.706	6073.19
181.782	6101.86
181.859	6099.22
181.935	6108.39
182.011	6096.48
182.088	6154.51
182.164	6217.9
182.24	6266.63
182.317	6304.58
182.393	6298.54
182.469	6344.9
182.546	6390.55
182.622	6407.06
182.698	6392.89
182.775	6437.49
182.851	6484.82
182.927	6458.85
183.003	6441.28
183.08	6421.61
183.156	6456.08
183.232	6447.24
183.308	6404.8
183.385	6432.78
183.461	6484
183.537	6498.17
183.613	6540.42
183.69	6507.14
183.766	6469.81
183.842	6496.32
183.918	6505.4
183.995	6547.55
184.071	6559.17
184.147	6541.45
184.223	6504.85
184.299	6541.4
184.375	6504.04
184.452	6524.71
184.528	6651.9
184.604	6685.4
184.68	6723.62
184.756	6741.01
184.832	6752.06
184.908	6772.45
184.985	6771.54
185.061	6722.09
185.137	6749.8
185.213	6711.97
185.289	6715.23
185.365	6696.61
185.441	6689.21
185.517	6736.92
185.593	6727.37
185.669	6712.47
185.745	6749.08
185.822	6801.82
185.898	6775.21
185.974	6806.74
186.05	6782.14
186.126	6709.65
186.202	6689.25
186.278	6679.02
186.354	6645.59
186.43	6666.93
186.506	6658.05
186.582	6656.03
186.658	6678.87
186.734	6612.58
186.81	6616.95
186.886	6633.41
186.962	6674.42
187.038	6660.78
187.114	6628.77
187.19	6651.83
187.266	6624.99
187.341	6626.24
187.417	6604.2
187.493	6606.94
187.569	6618.04
187.645	6598.16
187.721	6556.03
187.797	6586.42
187.873	6599.39
187.949	6585.61
188.025	6566.54
188.101	6578.49
188.176	6597.17
188.252	6583.87
188.328	6607.71
188.404	6613.43
188.48	6590.05
188.556	6570.36
188.632	6566.23
188.707	6571.85
188.783	6561.23
188.859	6545.06
188.935	6505.29
189.011	6528.1
189.086	6505.63
189.162	6474.66
189.238	6466.84
189.314	6460.02
189.39	6432.89
189.465	6411.76
189.541	6464.25
189.617	6416.58
189.693	6395.85
189.768	6407.86
189.844	6490.88
189.92	6470.54
189.996	6495.37
190.071	6530.22
190.147	6520.57
190.223	6555.68
190.298	6530.71
190.374	6491
190.45	6530.64
190.526	6557.44
190.601	6539
190.677	6542.79
190.753	6634.39
190.828	6642.26
190.904	6693.52
190.98	6752.6
191.055	6783.68
191.131	6755.62
191.207	6820.68
191.282	6858.7
191.358	6823.79
191.433	6768.81
191.509	6805.9
191.585	6799.18
191.66	6805.23
191.736	6829.39
191.811	6800.04
191.887	6855.15
191.963	6930.32
192.038	6950.59
192.114	6953
192.189	6969.85
192.265	6958.67
192.34	6884.83
192.416	6883.63
192.491	6865.08
192.567	6863.98
192.642	6872.92
192.718	6876.18
192.793	6833.82
192.869	6816.67
192.944	6828.34
193.02	6853.95
193.095	6869.99
193.171	6888.24
193.246	6888.34
193.322	6880.85
193.397	6880.7
193.473	6834.71
193.548	6778.21
193.624	6793.78
193.699	6789.41
193.775	6839.82
193.85	6848.65
193.925	6880.65
194.001	6880.31
194.076	6859.47
194.152	6829.53
194.227	6805.7
194.302	6772.91
194.378	6783.81
194.453	6777.81
194.529	6817.64
194.604	6770.95
194.679	6748.95
194.755	6683.52
194.83	6729.33
194.905	6726.88
194.981	6753.98
195.056	6731.8
195.131	6750.33
195.207	6742.11
195.282	6709.75
195.357	6644.11
195.433	6694.88
195.508	6654.09
195.583	6678.92
195.659	6727.54
195.734	6749.74
195.809	6747.68
195.884	6779.94
195.96	6788.2
196.035	6834.02
196.11	6818.64
196.185	6858.26
196.261	6870.08
196.336	6975.84
196.411	6920.33
196.486	6934.59
196.561	6909.08
196.637	6937.75
196.712	6992.45
196.787	7003.22
196.862	7055.96
196.937	7092.75
197.013	7108.61
197.088	7145.03
197.163	7217.82
197.238	7273.62
197.313	7271.07
197.388	7310
197.464	7403.9
197.539	7436.44
197.614	7414.96
197.689	7451.92
197.764	7508.57
197.839	7578.08
197.914	7557.64
197.989	7630.23
198.065	7676.72
198.14	7849.97
198.215	7935.8
198.29	7969.58
198.365	8016.42
198.44	8049.69
198.515	8139.6
198.59	8193.77
198.665	8272.51
198.74	8297.2
198.815	8301.15
198.89	8376.19
198.965	8476.24
199.04	8468.2
199.115	8522.46
199.19	8659.75
199.265	8674.95
199.34	8709.37
199.415	8810.33
199.49	8883.02
199.565	8913.01
199.64	8988.14
199.715	8976.77
199.79	9000.07
199.865	9026.64
199.94	9020.48
200.015	9122.21
200.09	9137.61
200.165	9154.03
200.24	9177.72
200.315	9305.62
200.39	9348.14
200.464	9365.85
200.539	9371.05
200.614	9417.08
200.689	9492.96
200.764	9519.41
200.839	9577.74
200.914	9585.59
200.989	9563
201.063	9602.39
201.138	9549.51
201.213	9549.37
201.288	9486.96
201.363	9499.82
201.438	9495.82
201.512	9544.53
201.587	9491.56
201.662	9505.86
201.737	9543.37
201.812	9571.84
201.886	9467.24
201.961	9506.65
202.036	9468.28
202.111	9458.27
202.186	9364.05
202.26	9310.3
202.335	9233.59
202.41	9215.1
202.485	9159.85
202.559	9086.24
202.634	9005.99
202.709	9041.59
202.784	8978.68
202.858	8969.25
202.933	8907.74
203.008	8884.97
203.082	8825.43
203.157	8819.03
203.232	8674.81
203.306	8605
203.381	8495.12
203.456	8419.61
203.53	8336.82
203.605	8273.3
203.68	8196.63
203.754	8179.03
203.829	8129.61
203.904	8065.69
203.978	8018.77
204.053	8034.36
204.127	7992.96
204.202	7985.55
204.277	7917.31
204.351	7898.02
204.426	7880.17
204.5	7859.3
204.575	7745.27
204.65	7774.96
204.724	7754.89
204.799	7781.84
204.873	7768.17
204.948	7765
205.022	7727.99
205.097	7699.59
205.171	7748.34
205.246	7776.63
205.32	7770.72
205.395	7766.73
205.469	7736.8
205.544	7758.45
205.618	7700.21
205.693	7740.42
205.767	7697.34
205.842	7773.86
205.916	7748.67
205.991	7718.18
206.065	7731.84
206.14	7782.37
206.214	7768.75
206.289	7740.7
206.363	7784.89
206.438	7794.47
206.512	7816.25
206.586	7876.89
206.661	7905.9
206.735	7829.59
206.81	7832.33
206.884	7882.42
206.958	7844.11
207.033	7904.28
207.107	7925.02
207.181	8030.09
207.256	8009.36
207.33	8075.29
207.405	8115.79
207.479	8181.68
207.553	8204.95
207.628	8153.04
207.702	8194.73
207.776	8169.67
207.851	8178.9
207.925	8225.83
207.999	8215.34
208.073	8209.66
208.148	8214.28
208.222	8172.71
208.296	8279.25
208.371	8330.76
208.445	8361.41
208.519	8450.93
208.593	8485.62
208.668	8477.25
208.742	8487.99
208.816	8494.81
208.89	8536.94
208.965	8528.85
209.039	8556
209.113	8610.57
209.187	8675.9
209.261	8658.97
209.336	8724.46
209.41	8790.31
209.484	8793.78
209.558	8871.13
209.632	8912.08
209.707	8949.62
209.781	9028.66
209.855	9082.34
209.929	9133.02
210.003	9156.13
210.077	9151.65
210.151	9306.96
210.226	9417.07
210.3	9504.66
210.374	9581.38
210.448	9595.59
210.522	9633.44
210.596	9664.36
210.67	9698.31
210.744	9855.42
210.818	9962.15
210.892	10033.53
210.966	10018.7
211.041	10068.65
211.115	10054.01
211.189	10143.3
211.263	10194.21
211.337	10211.26
211.411	10251.68
211.485	10230.96
211.559	10270.94
211.633	10277.82
211.707	10182.22
211.781	10204.29
211.855	10077.7
211.929	10048.81
212.003	9984.01
212.077	10012.77
212.151	10053.24
212.225	10076.89
212.299	10039.21
212.373	10001.93
212.447	9983.28
212.52	10072.21
212.594	10075.15
212.668	10109.15
212.742	10053.22
212.816	10035.25
212.89	10007.7
212.964	9999.03
213.038	10007.46
213.112	10044.51
213.186	10090.02
213.26	10006.98
213.333	9851.76
213.407	9872.6
213.481	9874.91
213.555	9907.3
213.629	9856.09
213.703	9798.57
213.777	9786.43
213.85	9713.75
213.924	9810.87
213.998	9801.43
214.072	9772.42
214.146	9722.52
214.219	9701.62
214.293	9682.89
214.367	9671.71
214.441	9693.62
214.515	9641.12
214.588	9554.53
214.662	9427.07
214.736	9346.38
214.81	9363.55
214.883	9380.35
214.957	9327.36
215.031	9271.73
215.105	9181.11
215.178	9120.16
215.252	9076.4
215.326	8974.73
215.4	8885.39
215.473	8711.56
215.547	8623.3
215.621	8546.3
215.694	8541.82
215.768	8439.94
215.842	8371.95
215.915	8306.53
215.989	8194.87
216.063	8143.03
216.136	8120.9
216.21	8093.24
216.284	8100.51
216.357	8073.71
216.431	8027.49
216.504	8021.14
216.578	8076.95
216.652	8088.92
216.725	8064.43
216.799	8068.57
216.873	8050.54
216.946	8064.05
217.02	8021.46
217.093	7988.28
217.167	7894.26
217.24	7810.74
217.314	7783.01
217.387	7732.89
217.461	7684.85
217.535	7706
217.608	7643.45
217.682	7614.88
217.755	7627.91
217.829	7576.02
217.902	7555.53
217.976	7539.04
218.049	7495.01
218.123	7417.89
218.196	7415.39
218.27	7377.8
218.343	7305.75
218.417	7303.16
218.49	7275.66
218.563	7319.83
218.637	7329.55
218.71	7405.08
218.784	7430.9
218.857	7461.76
218.931	7481.93
219.004	7494.72
219.077	7519.64
219.151	7536.31
219.224	7527.47
219.298	7518.48
219.371	7558.63
219.444	7523.46
219.518	7533.17
219.591	7550.85
219.665	7655.27
219.738	7667.09
219.811	7650.42
219.885	7698.07
219.958	7734.33
220.031	7739.28
220.105	7762.66
220.178	7767.95
220.251	7740.19
220.325	7763.38
220.398	7778.92
220.471	7800.4
220.544	7834.35
220.618	7805.2
220.691	7834.29
220.764	7852.51
220.838	7887.34
220.911	7868.58
220.984	7946.08
221.057	7981.67
221.131	8006.14
221.204	7907.78
221.277	7976.87
221.35	8102.32
221.424	8091.35
221.497	8098.57
221.57	8123.13
221.643	8149.26
221.716	8194.35
221.79	8195.36
221.863	8205.95
221.936	8214.89
222.009	8233.5
222.082	8256.12
222.155	8264.3
222.229	8330.95
222.302	8356.93
222.375	8359
222.448	8401.29
222.521	8413.27
222.594	8413.37
222.667	8385.24
222.74	8442.1
222.814	8436.71
222.887	8417.06
222.96	8471.2
223.033	8511.97
223.106	8540.2
223.179	8568.17
223.252	8584.16
223.325	8623.37
223.398	8635.31
223.471	8664.42
223.544	8685.01
223.617	8701.18
223.69	8726.97
223.763	8687.4
223.837	8717.58
223.91	8741.4
223.983	8693.29
224.056	8658.84
224.129	8679.29
224.202	8731.52
224.275	8719.11
224.348	8693.45
224.42	8657.12
224.493	8604.09
224.566	8580.5
224.639	8600.03
224.712	8573.03
224.785	8558.49
224.858	8544.53
224.931	8524.36
225.004	8484.91
225.077	8482.7
225.15	8392.17
225.223	8395.01
225.296	8477.49
225.369	8416.82
225.442	8389.82
225.514	8410.12
225.587	8423.92
225.66	8432.73
225.733	8438.79
225.806	8450.68
225.879	8441.92
225.952	8415.23
226.025	8461.9
226.097	8511.93
226.17	8496.1
226.243	8433.22
226.316	8428.27
226.389	8436.59
226.461	8455.84
226.534	8475.33
226.607	8464.74
226.68	8549.4
226.753	8534.72
226.825	8448.15
226.898	8501.07
226.971	8503.52
227.044	8520.17
227.117	8542.26
227.189	8563.2
227.262	8592.37
227.335	8606.91
227.407	8596.52
227.48	8633.36
227.553	8643.71
227.626	8617.71
227.698	8625.94
227.771	8665.67
227.844	8641.84
227.916	8650.51
227.989	8618.74
228.062	8612.54
228.134	8692.69
228.207	8695.77
228.28	8693.51
228.352	8712.81
228.425	8721.9
228.498	8766.91
228.57	8750.31
228.643	8793.21
228.716	8790.03
228.788	8781.7
228.861	8778.09
228.934	8846.87
229.006	8850.81
229.079	8844.84
229.151	8837.52
229.224	8801.3
229.296	8823.1
229.369	8929.61
229.442	8976.94
229.514	8959.34
229.587	9005.25
229.659	8938.96
229.732	8942.96
229.804	8982.13
229.877	9056.73
229.949	9086.49
230.022	9133.26
230.094	9132.68
230.167	9122.18
230.239	9075.93
230.312	9062.55
230.384	9132.48
230.457	9120.25
230.529	9129.15
230.602	9134.45
230.674	9144.66
230.747	9192.29
230.819	9222.28
230.892	9103.94
230.964	9108.7
231.037	9133.34
231.109	9122.89
231.181	9160.34
231.254	9130.78
231.326	9114.85
231.399	9088.11
231.471	9063.36
231.544	8984.48
231.616	9029.82
231.688	9040.36
231.761	9035.7
231.833	9023.23
231.905	8938.29
231.978	8935.11
232.05	8921.39
232.122	8929
232.195	8902.95
232.267	8942.67
232.339	8917.4
232.412	8982.52
232.484	8955.11
232.556	8932.31
232.629	9004.89
232.701	9024.2
232.773	9036.28
232.846	9031.08
232.918	9028.91
232.99	9042.3
233.062	9087.36
233.135	9096.13
233.207	9056.17
233.279	9096.06
233.351	9132.54
233.424	9130.43
233.496	9115.17
233.568	9192.01
233.64	9155.33
233.713	9171.12
233.785	9168.09
233.857	9183.25
233.929	9133.43
234.001	9198.56
234.074	9263
234.146	9186.95
234.218	9185.65
234.29	9187.77
234.362	9174.87
234.434	9136.45
234.507	9104.09
234.579	9054.5
234.651	9036.02
234.723	9067.89
234.795	9085.8
234.867	9077.18
234.939	9140.11
235.012	9153.35
235.084	9156.38
235.156	9194.03
235.228	9173.14
235.3	9147.76
235.372	9163.17
235.444	9219.83
235.516	9139.83
235.588	9148.98
235.66	9167.75
235.732	9130.68
235.804	9317.47
235.876	9361.86
235.948	9421.33
236.02	9432.89
236.092	9446.89
236.164	9461.67
236.236	9460.27
236.308	9462.39
236.38	9488.11
236.452	9462.77
236.524	9485.45
236.596	9549.64
236.668	9581.71
236.74	9613.44
236.812	9648.78
236.884	9677.59
236.956	9680.96
237.028	9674.12
237.1	9654.28
237.172	9722.93
237.244	9806.77
237.316	9692.02
237.388	9670.88
237.46	9652.82
237.532	9712.87
237.604	9704.36
237.675	9775.16
237.747	9822.56
237.819	9809.9
237.891	9811.73
237.963	9808.89
238.035	9805.08
238.107	9696.06
238.178	9749.49
238.25	9753.78
238.322	9834.97
238.394	9789.31
238.466	9797.59
238.538	9841.41
238.609	9885.33
238.681	9826.7
238.753	9801.7
238.825	9821.5
238.897	9856.31
238.968	9936.25
239.04	9924.74
239.112	10035.52
239.184	9997.46
239.255	9989.6
239.327	10020.71
239.399	10045.52
239.471	10091.56
239.542	10121.62
239.614	10189.34
239.686	10105.81
239.758	10161.15
239.829	10125.01
239.901	10196.78
239.973	10216.58
240.044	10251.02
240.116	10267.84
240.188	10283.92
240.259	10297.22
240.331	10286.52
240.403	10325.49
240.474	10266.12
240.546	10250.9
240.618	10188.95
240.689	10184.32
240.761	10204.12
240.833	10268.92
240.904	10263.67
240.976	10259.63
241.048	10279.52
241.119	10314.61
241.191	10370.05
241.262	10435.4
241.334	10443.49
241.405	10445.81
241.477	10447.49
241.549	10458.91
241.62	10469.8
241.692	10519.71
241.763	10584.96
241.835	10605.83
241.906	10617.73
241.978	10600.77
242.049	10665.66
242.121	10728.39
242.192	10804.52
242.264	10776.24
242.335	10731.48
242.407	10782.74
242.478	10790.55
242.55	10807.61
242.621	10789.73
242.693	10781.49
242.764	10763.99
242.836	10759.22
242.907	10785.44
242.979	10814.2
243.05	10832.08
243.122	10862.49
243.193	10857.28
243.264	10781.77
243.336	10782.45
243.407	10818.2
243.479	10894.72
243.55	10914.82
243.622	10922.58
243.693	10919.35
243.764	10979.87
243.836	10955.4
243.907	10945.47
243.978	10944.85
244.05	10974
244.121	10934.16
244.192	10985.04
244.264	10936.95
244.335	10961.67
244.407	10910.35
244.478	10923.89
244.549	10915.03
244.62	10872.28
244.692	10868.04
244.763	10917
244.834	10911.89
244.906	10889.58
244.977	10910.54
245.048	10959.61
245.119	10943.08
245.191	10911.9
245.262	10850.42
245.333	10924.81
245.405	10941.68
245.476	10977.24
245.547	10998.25
245.618	11049.33
245.689	11054.92
245.761	11089.47
245.832	11083.11
245.903	11130.23
245.974	11157.7
246.045	11171.87
246.117	11255.63
246.188	11242.86
246.259	11224.84
246.33	11244.5
246.401	11254.09
246.473	11219.29
246.544	11202.42
246.615	11258.09
246.686	11262.52
246.757	11338.17
246.828	11312.54
246.899	11377.27
246.97	11341.52
247.042	11325.22
247.113	11370.1
247.184	11452.86
247.255	11450.65
247.326	11487.03
247.397	11495.18
247.468	11501.73
247.539	11511.57
247.61	11462.12
247.681	11507.12
247.752	11553.1
247.823	11523.32
247.894	11535.8
247.965	11505.68
248.037	11499.03
248.108	11441.24
248.179	11450.5
248.25	11442.3
248.321	11478.11
248.392	11430.2
248.463	11514.72
248.534	11501.76
248.605	11514.24
248.675	11492.26
248.746	11512.79
248.817	11526.29
248.888	11544.8
248.959	11488.32
249.03	11516.42
249.101	11535.12
249.172	11521.24
249.243	11454.83
249.314	11523.46
249.385	11533.68
249.456	11563.31
249.527	11550.15
249.598	11578.11
249.669	11580.27
249.739	11595.75
249.81	11607.26
249.881	11565.1
249.952	11554.4
250.023	11557.58
250.094	11511.01
250.165	11479.2
250.235	11471.63
250.306	11467.87
250.377	11432.5
250.448	11464.21
250.519	11406.57
250.59	11450.38
250.66	11453.27
250.731	11519.63
250.802	11512.16
250.873	11533.7
250.944	11556.93
251.014	11551.1
251.085	11642.73
251.156	11668.28
251.227	11715.71
251.297	11764.78
251.368	11825.31
251.439	11870.57
251.51	11928.66
251.58	11908.61
251.651	11905.33
251.722	11957.77
251.792	11911.65
251.863	11918.25
251.934	11981.54
252.005	12088.54
252.075	12100.35
252.146	12144.07
252.217	12192.03
252.287	12237.15
252.358	12239.56
252.429	12311.91
252.499	12305.55
252.57	12311
252.641	12362.43
252.711	12368.31
252.782	12324.11
252.852	12394.24
252.923	12390
252.994	12396.7
253.064	12441.67
253.135	12421.47
253.205	12401.37
253.276	12475.36
253.347	12542.26
253.417	12516.81
253.488	12498.83
253.558	12477.91
253.629	12476.9
253.699	12492.47
253.77	12520.23
253.841	12514.59
253.911	12524.62
253.982	12536.28
254.052	12569.16
254.123	12577.93
254.193	12584.97
254.264	12720.04
254.334	12683.21
254.405	12653.62
254.475	12625.51
254.546	12636.7
254.616	12695.5
254.687	12727.08
254.757	12749.3
254.827	12747.28
254.898	12767.09
254.968	12772.15
255.039	12764.34
255.109	12805.8
255.18	12776.2
255.25	12697.29
255.321	12730.16
255.391	12690.3
255.461	12779.96
255.532	12688.94
255.602	12676.17
255.673	12614.32
255.743	12576
255.813	12512.37
255.884	12563.04
255.954	12593.55
256.024	12662.68
256.095	12668.41
256.165	12633.61
256.235	12653.62
256.306	12637.85
256.376	12688.04
256.446	12723.52
256.517	12761.98
256.587	12795.39
256.657	12818.24
256.728	12844.65
256.798	12855.74
256.868	12847.79
256.938	12815.34
257.009	12866.64
257.079	12893.87
257.149	12996.11
257.219	12937.98
257.29	12981.84
257.36	12922.5
257.43	12963.72
257.5	12891.84
257.571	12883.79
257.641	12918.55
257.711	12888.75
257.781	12921.15
257.852	12934.74
257.922	12874.34
257.992	12872.85
258.062	12875.26
258.132	12914.26
258.202	12919.85
258.273	12926.36
258.343	12989.65
258.413	12981.31
258.483	12990.47
258.553	12961.45
258.623	12936.05
258.693	12967.86
258.764	13031.01
258.834	13094.98
258.904	13113.15
258.974	13109.54
259.044	13113.01
259.114	13138.8
259.184	13166.61
259.254	13177.89
259.324	13130.41
259.394	13180.16
259.464	13251.65
259.535	13249.38
259.605	13239.4
259.675	13234.49
259.745	13273.29
259.815	13259.22
259.885	13251.12
259.955	13358.28
260.025	13350.52
260.095	13360.25
260.165	13394.53
260.235	13452.37
260.305	13434.68
260.375	13396.7
260.445	13483.76
260.515	13550.91
260.585	13602.78
260.655	13610.49
260.725	13650.79
260.795	13682.27
260.865	13756.75
260.934	13731.15
261.004	13758.48
261.074	13761.13
261.144	13824.28
261.214	13852.34
261.284	13853.01
261.354	13901.8
261.424	13853.02
261.494	13929.52
261.564	13933.18
261.634	13956.81
261.703	13886.09
261.773	13921.28
261.843	13950.73
261.913	13944.56
261.983	13884.64
262.053	13902.81
262.123	13902.09
262.192	13865.6
262.262	13913.61
262.332	13854.95
262.402	13883.68
262.472	13895.25
262.541	13843.18
262.611	13882.76
262.681	13858.66
262.751	13900.69
262.821	13901.85
262.89	13875.39
262.96	13900.21
263.03	13978.26
263.1	13991.32
263.169	14012.05
263.239	14036.1
263.309	14106.53
263.379	14131.45
263.448	14161.39
263.518	14181.63
263.588	14195.04
263.657	14263.83
263.727	14300.36
263.797	14318.83
263.867	14321.29
263.936	14285.76
264.006	14352.57
264.076	14351.08
264.145	14353.97
264.215	14328.66
264.285	14370.75
264.354	14328.85
264.424	14306.25
264.494	14256.79
264.563	14254.76
264.633	14331.07
264.702	14353.25
264.772	14303.16
264.842	14302.05
264.911	14324.95
264.981	14286.44
265.05	14296.51
265.12	14284.89
265.19	14287.3
265.259	14330.3
265.329	14359.61
265.398	14382.7
265.468	14471.54
265.537	14469.81
265.607	14499.65
265.676	14555.85
265.746	14577.5
265.815	14640.02
265.885	14658
265.955	14645.52
266.024	14639.83
266.094	14574.85
266.163	14637.8
266.232	14705.24
266.302	14715.65
266.371	14747.22
266.441	14769.06
266.51	14817.84
266.58	14825.03
266.649	14812.78
266.719	14869.13
266.788	14899.06
266.858	14972.91
266.927	14903.59
266.996	14922.06
267.066	14957.87
267.135	14924.95
267.205	14964.14
267.274	14983.08
267.343	15034.13
267.413	15051.48
267.482	15112.89
267.552	15182.64
267.621	15136.47
267.69	15088.26
267.76	15106.63
267.829	15127.98
267.898	15140.52
267.968	15120.75
268.037	15162.3
268.106	15210.55
268.176	15167.56
268.245	15175.41
268.314	15162.98
268.384	15222.17
268.453	15242.47
268.522	15262.13
268.592	15322.48
268.661	15303.06
268.73	15334.39
268.799	15326.58
268.869	15409.15
268.938	15366.83
269.007	15348.66
269.076	15367.31
269.146	15421.39
269.215	15456.92
269.284	15530.42
269.353	15536.45
269.422	15548.45
269.492	15541.99
269.561	15465.45
269.63	15508.44
269.699	15504.78
269.768	15524.3
269.838	15550.47
269.907	15592.79
269.976	15571.63
270.045	15523.43
270.114	15569.17
270.183	15574.76
270.253	15590.57
270.322	15534.76
270.391	15558.57
270.46	15625.61
270.529	15672.27
270.598	15712.9
270.667	15721.82
270.736	15696.37
270.806	15734.01
270.875	15791.71
270.944	15802.36
271.013	15917.75
271.082	15940.31
271.151	15976.12
271.22	15944.31
271.289	15951.06
271.358	15951.15
271.427	15987.88
271.496	16019.26
271.565	16016.61
271.634	16032.08
271.703	16121.87
271.772	16190.56
271.841	16208.59
271.91	16190.51
271.979	16213.12
272.048	16183.81
272.117	16224.59
272.186	16224.78
272.255	16262.71
272.324	16297.32
272.393	16335.59
272.462	16333.75
272.531	16348.55
272.6	16359.93
272.669	16423.5
272.738	16435.21
272.807	16471.46
272.876	16446.83
272.945	16582.31
273.013	16639.51
273.082	16707.37
273.151	16653.97
273.22	16686.89
273.289	16707.66
273.358	16784.1
273.427	16790.46
273.496	16844.88
273.564	16886.9
273.633	16941.89
273.702	16932.25
273.771	16947.29
273.84	16984.54
273.909	17023.53
273.977	17064.4
274.046	17076.06
274.115	17140.98
274.184	17140.88
274.253	17171.34
274.322	17243.93
274.39	17191.16
274.459	17187.45
274.528	17143.35
274.597	17172.55
274.665	17203.98
274.734	17280.46
274.803	17285.86
274.872	17315.59
274.94	17307.98
275.009	17532.8
275.078	17525.72
275.147	17559.65
275.215	17589.04
275.284	17650.49
275.353	17660.27
275.421	17627.89
275.49	17726.53
275.559	17733.91
275.627	17765.23
275.696	17772.94
275.765	17828.17
275.833	17840.08
275.902	17877.67
275.971	17957.33
276.039	18047.69
276.108	18099.54
276.177	18133.47
276.245	18139.68
276.314	18154.91
276.383	18229.27
276.451	18062.81
276.52	18117.12
276.588	18200.92
276.657	18260.53
276.725	18262.65
276.794	18301.74
276.863	18379.71
276.931	18344.48
277	18409.68
277.068	18478.94
277.137	18584.76
277.205	18615.02
277.274	18714.59
277.342	18790.24
277.411	18774.34
277.48	18771.74
277.548	18782.92
277.617	18822.72
277.685	18852.99
277.754	18919.39
277.822	18928.94
277.89	19022.43
277.959	19045.65
278.027	19028.98
278.096	19033.85
278.164	19153.36
278.233	19176.11
278.301	19194.56
278.37	19260.15
278.438	19250.37
278.507	19297.21
278.575	19249.93
278.643	19279.52
278.712	19258.99
278.78	19259.52
278.849	19338.07
278.917	19425.83
278.985	19456.09
279.054	19505.58
279.122	19588.71
279.191	19628.9
279.259	19661.09
279.327	19617.67
279.396	19713.43
279.464	19744.7
279.532	19801.09
279.601	19839.74
279.669	19866.92
279.737	19955.88
279.806	20009.47
279.874	20100.03
279.942	20136.22
280.011	20175.4
280.079	20243.88
280.147	20354
280.215	20409.66
280.284	20437.42
280.352	20418.91
280.42	20480.98
280.488	20495.1
280.557	20504.98
280.625	20566.14
280.693	20606.86
280.761	20656.94
280.83	20645.66
280.898	20728.21
280.966	20713.85
281.034	20648.69
281.102	20652.93
281.171	20668.21
281.239	20743.11
281.307	20750.39
281.375	20757.38
281.443	20881.63
281.512	20908.14
281.58	20961.84
281.648	20955.62
281.716	20999.62
281.784	21051.43
281.852	21073.17
281.92	21110.28
281.989	21195.88
282.057	21179.3
282.125	21372
282.193	21413.5
282.261	21457.6
282.329	21483.39
282.397	21545.8
282.465	21596.45
282.533	21687.64
282.601	21692.99
282.67	21651.19
282.738	21664.3
282.806	21746.58
282.874	21742.34
282.942	21795.51
283.01	21816.58
283.078	21882.9
283.146	21920.45
283.214	22001.53
283.282	22051.42
283.35	22131.93
283.418	22151.89
283.486	22199.27
283.554	22108.28
283.622	22162.9
283.69	22206.28
283.758	22239.88
283.826	22299.61
283.894	22371.87
283.962	22484.45
284.03	22576.29
284.098	22632.88
284.165	22666.39
284.233	22717.78
284.301	22746.37
284.369	22762.67
284.437	22781.04
284.505	22803.94
284.573	22890.05
284.641	22892.07
284.709	22971.39
284.777	22963.34
284.845	23033.27
284.912	23100.86
284.98	23156.89
285.048	23176.66
285.116	23235.78
285.184	23323.3
285.252	23374.51
285.319	23382.42
285.387	23395.15
285.455	23394.72
285.523	23455.96
285.591	23506.15
285.659	23553.08
285.726	23643.22
285.794	23647.07
285.862	23690
285.93	23746.56
285.997	23767.2
286.065	23798.98
286.133	23810.65
286.201	23847.98
286.269	23849.71
286.336	23872.77
286.404	23904.89
286.472	23980.57
286.539	23962.97
286.607	23957.42
286.675	24000.93
286.743	24066.76
286.81	24091.37
286.878	24177.66
286.946	24195.6
287.013	24235.34
287.081	24279.25
287.149	24270.27
287.216	24372.58
287.284	24403.6
287.352	24447.83
287.419	24487.2
287.487	24576.17
287.555	24628.52
287.622	24668.17
287.69	24725
287.758	24801.57
287.825	24822.41
287.893	24817.35
287.96	24870.21
288.028	24948.38
288.096	24996.39
288.163	25057.48
288.231	25066.31
288.298	25107.43
288.366	25203.37
288.433	25232.75
288.501	25242.45
288.569	25289.16
288.636	25318.02
288.704	25397.41
288.771	25452.91
288.839	25474.14
288.906	25494.61
288.974	25573.6
289.041	25612.58
289.109	25629.53
289.176	25707.36
289.244	25765.9
289.311	25856.2
289.379	25943.51
289.446	25987.2
289.514	26034.47
289.581	26072.32
289.649	26133.47
289.716	26180.55
289.783	26203.24
289.851	26314.89
289.918	26365.14
289.986	26445.87
290.053	26512.08
290.121	26551.29
290.188	26611.99
290.255	26744.4
290.323	26774.29
290.39	26804.92
290.458	26872.36
290.525	26957.45
290.592	26966.83
290.66	27031.34
290.727	27074.42
290.794	27172.15
290.862	27226.98
290.929	27278.42
290.996	27330.83
291.064	27404.05
291.131	27483.83
291.198	27561.76
291.266	27598.47
291.333	27646.82
291.4	27706.64
291.468	27807.46
291.535	27833.45
291.602	27890.03
291.669	27908.64
291.737	27971.54
291.804	28010.78
291.871	28113.42
291.938	28181.19
292.006	28330.54
292.073	28402.98
292.14	28480.66
292.207	28476.64
292.275	28512.94
292.342	28584
292.409	28694.91
292.476	28814.06
292.543	28833.01
292.611	28876.48
292.678	28985.22
292.745	29113.29
292.812	29182.53
292.879	29197.62
292.946	29264.28
293.014	29353.85
293.081	29419.71
293.148	29508.53
293.215	29597.52
293.282	29613.82
293.349	29685.9
293.416	29657.79
293.484	29736.63
293.551	29813.5
293.618	29926.68
293.685	30062.15
293.752	30088.66
293.819	30134.48
293.886	30141.6
293.953	30217.88
294.02	30294.67
294.087	30353.38
294.154	30372.2
294.221	30471.44
294.288	30535.31
294.356	30644.57
294.423	30705.95
294.49	30734.06
294.557	30811.79
294.624	30829.99
294.691	30950.02
294.758	30996.59
294.825	31070.83
294.892	31098.18
294.959	31138.6
295.026	31204.01
295.093	31215.59
295.16	31273.71
295.226	31311.96
295.293	31438.02
295.36	31491.71
295.427	31582.04
295.494	31654.36
295.561	31739.43
295.628	31855.6
295.695	31940.84
295.762	31990.44
295.829	32063.2
295.896	32168.38
295.963	32249.09
296.03	32333.54
296.096	32393.38
296.163	32488.14
296.23	32590.52
296.297	32681.38
296.364	32721.83
296.431	32795.38
296.498	32838.11
296.564	32964.01
296.631	33039.45
296.698	33035.04
296.765	33157.11
296.832	33177.37
296.899	33189.19
296.965	33290.59
297.032	33269.69
297.099	33372.33
297.166	33452.98
297.233	33492.68
297.299	33516.13
297.366	33567.52
297.433	33639.89
297.5	33718
297.566	33768.37
297.633	33809.88
297.7	33871.59
297.767	33919.42
297.833	33984.15
297.9	34046.97
297.967	34050.85
298.033	34135.66
298.1	34285.86
298.167	34303.17
298.234	34368.77
298.3	34459.25
298.367	34492.18
298.434	34572.89
298.5	34584.15
298.567	34620.13
298.634	34657.71
298.7	34776.87
298.767	34842.35
298.834	34926.66
298.9	34952.42
298.967	34983.6
299.033	35069.28
299.1	35166.79
299.167	35265.58
299.233	35298.43
299.3	35394.23
299.366	35504.09
299.433	35601.49
299.5	35558.4
299.566	35623.46
299.633	35721.76
299.699	35805.66
299.766	35841.37
299.832	35895.63
299.899	35981.82
299.965	36063.83
300.032	36099.53
300.099	36164.76
300.165	36218.1
300.232	36240.47
300.298	36299.53
300.365	36380.91
300.431	36424.31
300.498	36452.85
300.564	36534.1
300.631	36614.47
300.697	36707.87
300.763	36734.81
300.83	36767.78
300.896	36870.87
300.963	36949.46
301.029	37012.09
301.096	37075.26
301.162	37164.09
301.229	37189.34
301.295	37194.39
301.361	37257.41
301.428	37336.85
301.494	37337.97
301.561	37388.8
301.627	37453.27
301.693	37502.79
301.76	37565.04
301.826	37602.48
301.892	37689.74
301.959	37765.25
302.025	37809.83
302.092	37827.02
302.158	37907.62
302.224	37960.56
302.291	37970.27
302.357	37994.02
302.423	38006.4
302.49	38019.47
302.556	38098.73
302.622	38165.46
302.688	38252.24
302.755	38333.41
302.821	38405.81
302.887	38476.22
302.954	38535.96
303.02	38607.26
303.086	38682.11
303.152	38714.07
303.219	38738.59
303.285	38784.6
303.351	38827.64
303.417	38882.43
303.483	38912.6
303.55	38949.66
303.616	38999.26
303.682	39054
303.748	39080.81
303.815	39185.84
303.881	39264.1
303.947	39258.71
304.013	39301.61
304.079	39320.16
304.145	39298.2
304.212	39343.72
304.278	39373.69
304.344	39391.09
304.41	39398.52
304.476	39420.23
304.542	39449.19
304.608	39514.87
304.674	39510.54
304.741	39543.1
304.807	39589.65
304.873	39647.17
304.939	39718.94
305.005	39691.78
305.071	39724.81
305.137	39769.36
305.203	39729.08
305.269	39773.4
305.335	39862.03
305.401	39885.31
305.467	39928.35
305.533	40003.62
305.599	40055.37
305.666	40107.12
305.732	40160.52
305.798	40240.36
305.864	40348.79
305.93	40405.44
305.996	40439.31
306.062	40492.43
306.128	40518.38
306.194	40513.32
306.259	40540.98
306.325	40555.7
306.391	40642.05
306.457	40714.07
306.523	40773.94
306.589	40904.01
306.655	40904.01
306.721	40882.57
306.787	40898.36
306.853	40985.76
306.919	40966.37
306.985	40989.21
307.051	41024.44
307.117	41046.32
307.183	41066.49
307.248	41021.18
307.314	41079.71
307.38	41141.97
307.446	41196.8
307.512	41204.33
307.578	41262.37
307.644	41299.11
307.709	41344.8
307.775	41363.42
307.841	41389.33
307.907	41433.51
307.973	41397.44
308.039	41447.8
308.104	41511.48
308.17	41562.85
308.236	41533.25
308.302	41596.77
308.368	41596.14
308.433	41627.74
308.499	41646.21
308.565	41653.01
308.631	41701.14
308.696	41667.64
308.762	41650.82
308.828	41667.06
308.894	41660.69
308.959	41633.42
309.025	41640.33
309.091	41663.42
309.156	41690.55
309.222	41730.22
309.288	41736.25
309.354	41706.36
309.419	41733.34
309.485	41731.1
309.551	41774.66
309.616	41788.37
309.682	41812.58
309.748	41842.92
309.813	41870.73
309.879	41884.92
309.945	41882.88
310.01	41900.14
310.076	41948.51
310.141	41976.12
310.207	41978.7
310.273	42024.34
310.338	42080.68
310.404	42080.59
310.469	42066.44
310.535	42075.19
310.601	42043.44
310.666	42088.13
310.732	42166.79
310.797	42152.39
310.863	42148.5
310.928	42151.32
310.994	42198.63
311.059	42226.88
311.125	42256.88
311.191	42321.46
311.256	42331.62
311.322	42383.06
311.387	42361.28
311.453	43324.71
311.518	43355.83
311.584	43386.61
311.649	43435.24
311.715	43436.84
311.78	43472.67
311.846	43495.14
311.911	43540.65
311.976	43592.48
312.042	43581.15
312.107	43571.57
312.173	43595.55
312.238	43623.45
312.304	43653.46
312.369	43650.78
312.434	43646.26
312.5	43658.22
312.565	43590.38
312.631	43642.31
312.696	43658.94
312.761	43705.67
312.827	42784.83
312.892	42876.77
312.958	42905.61
313.023	42930.37
313.088	42974.33
313.154	42961.98
313.219	42967.08
313.284	42965.87
313.35	42977.39
313.415	42982.64
313.48	42995.63
313.546	43040.71
313.611	43100.82
313.676	43120.23
313.741	43130.54
313.807	43189.63
313.872	43220.66
313.937	43284.95
314.003	43339.28
314.068	43372.35
314.133	43409.95
314.198	43411.65
314.264	43376.91
314.329	43367.23
314.394	43384.01
314.459	43402.01
314.525	43505.8
314.59	43524.62
314.655	43509.73
314.72	43568.4
314.785	43620.39
314.851	43637.02
314.916	43609.88
314.981	43593.25
315.046	43581.28
315.111	43577.98
315.176	43567.42
315.242	43600.2
315.307	43601.37
315.372	43567.9
315.437	43576.95
315.502	43592.86
315.567	43651.57
315.632	43635.18
315.698	43682.22
315.763	43693.41
315.828	43690.78
315.893	43685.92
315.958	43707.22
316.023	43717.58
316.088	43664.8
316.153	43599.04
316.218	43597.39
316.283	43555.62
316.348	43509.47
316.413	43512.97
316.479	43479.03
316.544	43380.12
316.609	43296.04
316.674	43194.65
316.739	43088.75
316.804	42965.73
316.869	42839.25
316.934	42707.56
316.999	42580.99
317.064	42403.32
317.129	42246.41
317.194	42095.32
317.259	41928.05
317.324	41741.29
317.389	41568.67
317.454	41422.64
317.518	41289.27
317.583	41178.86
317.648	41068.48
317.713	40915.58
317.778	40686.9
317.843	40558.69
317.908	40397.32
317.973	40225.39
318.038	40094.58
318.103	39926.82
318.168	39793.49
318.233	39649.77
318.297	39442.61
318.362	39285.79
318.427	39094.23
318.492	38966.41
318.557	38776.09
318.622	38625.3
318.687	38491.99
318.751	38313.64
318.816	38144.19
318.881	37979.18
318.946	37731.46
319.011	37517.18
319.075	37320.62
319.14	37142.71
319.205	36923.58
319.27	36743.03
319.335	36525.94
319.399	36316.66
319.464	36155.93
319.529	35903.37
319.594	35697.51
319.658	35516.84
319.723	35295.67
319.788	35130.81
319.853	34868.64
319.917	34685.88
319.982	34430.13
320.047	34207.55
320.112	34023.46
320.176	33764.18
320.241	33544.32
320.306	33356.15
320.37	33131.14
320.435	32952.11
320.5	32768.11
320.564	32543.52
320.629	32319.79
320.694	32143.03
320.758	31919.61
320.823	31686.84
320.888	31507.9
320.952	31261.35
321.017	31034.74
321.082	30811.38
321.146	30602.23
321.211	30398.78
321.275	30174.44
321.34	29942.01
321.405	29713.07
321.469	29473.85
321.534	29245.02
321.598	28992.73
321.663	28797.08
321.727	28603.9
321.792	28344.26
321.857	28110.34
321.921	27893.62
321.986	27666.66
322.05	27373.76
322.115	27159.85
322.179	26918.45
322.244	26627.82
322.308	26421.66
322.373	26177.12
322.437	25944.34
322.502	25764.59
322.566	25521.4
322.631	25302.53
322.695	25074.2
322.76	24837.58
322.824	24620.51
322.889	24396.07
322.953	24158.71
323.018	23845.77
323.082	23539.51
323.146	23272.84
323.211	22998.44
323.275	22757.87
323.34	22504.99
323.404	22288.06
323.468	22027.42
323.533	21774.92
323.597	21531.75
323.662	21253.46
323.726	21031.4
323.79	20775.27
323.855	20442.21
323.919	20177.51
323.983	19919.95
324.048	19542.76
324.112	19685.77
324.177	18903.47
324.241	17869.03
324.305	16852.4
324.37	15856.01
324.434	14891.77
324.498	14622.05
324.562	14320.05
324.627	13976.12
324.691	13636.49
324.755	13257
324.82	12828.94
324.884	12380.06
324.948	11927.9
325.012	11364.71
325.077	10673.82
