Data from 20250701_urea_2M_exp3_MAYP1162681_19-09-51-901.txt Node
Date: Tue Jul 01 19:09:51 BST 2025
User: adleo
Spectrometer: MAYP116268
Trigger mode: 0
Integration Time (sec): 4.000000E0
Scans to average: 1
Electric dark correction enabled: true
Nonlinearity correction enabled: true
Boxcar width: 10
XAxis mode: Wavelengths
Number of Pixels in Spectrum: 2068
>>>>>Begin Spectral Data<<<<<
179.565	3998.42
179.642	4211.85
179.718	4374.93
179.795	4519.81
179.871	4645.52
179.948	4708.66
180.024	4785.64
180.101	4871.04
180.177	4923.47
180.254	5014.25
180.33	5097.4
180.407	5388.38
180.483	5700.99
180.56	6016.31
180.636	6301.3
180.712	6258.84
180.789	6292.78
180.865	6340.09
180.942	6372.53
181.018	6415.68
181.095	6465.45
181.171	6480.81
181.248	6484.51
181.324	6538.94
181.4	6566.17
181.477	6603.11
181.553	6657.1
181.63	6729.53
181.706	6787.56
181.782	6817.55
181.859	6812.41
181.935	6831.49
182.011	6819.24
182.088	6877.32
182.164	6952.55
182.24	7014.45
182.317	7051
182.393	7043.94
182.469	7085.78
182.546	7130.37
182.622	7145.17
182.698	7125.51
182.775	7177.07
182.851	7221.8
182.927	7200.56
183.003	7180.82
183.08	7159.2
183.156	7190.48
183.232	7182.6
183.308	7139.16
183.385	7173.12
183.461	7234.45
183.537	7240.17
183.613	7283.42
183.69	7247.28
183.766	7203.52
183.842	7224.57
183.918	7239.28
183.995	7285.12
184.071	7300.17
184.147	7285.56
184.223	7245.27
184.299	7290.31
184.375	7250.76
184.452	7276.73
184.528	7403.65
184.604	7448.09
184.68	7492.11
184.756	7515.82
184.832	7528.46
184.908	7550.36
184.985	7547.53
185.061	7490.29
185.137	7521.92
185.213	7483.67
185.289	7492.6
185.365	7468.82
185.441	7459.78
185.517	7510.81
185.593	7503.5
185.669	7492.16
185.745	7528.93
185.822	7593.6
185.898	7566.34
185.974	7604.49
186.05	7580.78
186.126	7506.36
186.202	7479.45
186.278	7466.81
186.354	7431.37
186.43	7457.35
186.506	7453.21
186.582	7454.08
186.658	7475.26
186.734	7402.8
186.81	7410.92
186.886	7423.22
186.962	7468.64
187.038	7454.79
187.114	7422.95
187.19	7447.71
187.266	7410.57
187.341	7413.41
187.417	7379.24
187.493	7377.7
187.569	7380.58
187.645	7355.11
187.721	7313.37
187.797	7339.61
187.873	7352.78
187.949	7334.91
188.025	7315.24
188.101	7321
188.176	7334.89
188.252	7318.08
188.328	7347.57
188.404	7344.49
188.48	7323.64
188.556	7297.15
188.632	7297.58
188.707	7302.49
188.783	7291.28
188.859	7278.8
188.935	7235.48
189.011	7269.56
189.086	7249.04
189.162	7220.77
189.238	7211.98
189.314	7204.77
189.39	7185.64
189.465	7162.43
189.541	7222.8
189.617	7164.9
189.693	7148.52
189.768	7163.95
189.844	7256.95
189.92	7226.02
189.996	7262.84
190.071	7311
190.147	7308.07
190.223	7341.49
190.298	7308.74
190.374	7260.35
190.45	7308.34
190.526	7341.8
190.601	7323.53
190.677	7328.77
190.753	7431.09
190.828	7443.24
190.904	7498.78
190.98	7553.5
191.055	7592.97
191.131	7560.99
191.207	7640.78
191.282	7676.58
191.358	7636.93
191.433	7580.16
191.509	7628.87
191.585	7617.24
191.66	7615.02
191.736	7644.35
191.811	7608.24
191.887	7668.89
191.963	7755.09
192.038	7770.38
192.114	7769.52
192.189	7782.97
192.265	7769.62
192.34	7687.3
192.416	7683.69
192.491	7668.06
192.567	7675.8
192.642	7681.24
192.718	7688.5
192.793	7643.15
192.869	7625.71
192.944	7639.11
193.02	7671.77
193.095	7684.32
193.171	7706.39
193.246	7703.36
193.322	7693.6
193.397	7699.84
193.473	7655.06
193.548	7590.09
193.624	7611.93
193.699	7608.03
193.775	7660.8
193.85	7666.33
193.925	7694.56
194.001	7694.31
194.076	7664.79
194.152	7625.5
194.227	7596.98
194.302	7557.67
194.378	7569.4
194.453	7560.27
194.529	7607.73
194.604	7553.44
194.679	7531.38
194.755	7461.12
194.83	7504.9
194.905	7493.51
194.981	7524.91
195.056	7495.64
195.131	7518.52
195.207	7513.42
195.282	7477.04
195.357	7407.44
195.433	7464.94
195.508	7427.38
195.583	7453.53
195.659	7502.59
195.734	7527.74
195.809	7529.32
195.884	7559.5
195.96	7554.83
196.035	7606.03
196.11	7581.7
196.185	7626.94
196.261	7638.19
196.336	7757.04
196.411	7706.58
196.486	7730.72
196.561	7704.8
196.637	7740.6
196.712	7796.27
196.787	7802.09
196.862	7860.17
196.937	7898.77
197.013	7915.13
197.088	7950.13
197.163	8027.32
197.238	8088.07
197.313	8089.99
197.388	8137.61
197.464	8247.47
197.539	8291.48
197.614	8269.79
197.689	8319.87
197.764	8378.44
197.839	8453.16
197.914	8419.04
197.989	8497.95
198.065	8541.54
198.14	8723.63
198.215	8815.36
198.29	8863.03
198.365	8909.47
198.44	8949.75
198.515	9045.6
198.59	9105.92
198.665	9197.87
198.74	9231.05
198.815	9237.99
198.89	9321.65
198.965	9427.46
199.04	9414.36
199.115	9469.82
199.19	9622.38
199.265	9632.68
199.34	9665.24
199.415	9789.1
199.49	9869.25
199.565	9905.52
199.64	9992.69
199.715	9979.34
199.79	10006.27
199.865	10022.74
199.94	10021.2
200.015	10127.85
200.09	10151.03
200.165	10171.74
200.24	10196.31
200.315	10328.6
200.39	10379.33
200.464	10394.89
200.539	10404.62
200.614	10464.64
200.689	10552.42
200.764	10582.01
200.839	10647.99
200.914	10662.16
200.989	10614.16
201.063	10665.47
201.138	10595.08
201.213	10593.53
201.288	10525.03
201.363	10540.16
201.438	10540.59
201.512	10599.06
201.587	10537.53
201.662	10550.25
201.737	10588.41
201.812	10616.65
201.886	10504.98
201.961	10540.5
202.036	10501.15
202.111	10483.94
202.186	10371.46
202.26	10303.52
202.335	10218.38
202.41	10192.37
202.485	10125.67
202.559	10063.39
202.634	9966.61
202.709	10001.32
202.784	9930.18
202.858	9929.46
202.933	9863.86
203.008	9834.48
203.082	9758.39
203.157	9754.44
203.232	9598.27
203.306	9521.63
203.381	9407.28
203.456	9318.83
203.53	9230.17
203.605	9158.03
203.68	9071.24
203.754	9048.92
203.829	9002.35
203.904	8927.51
203.978	8883.88
204.053	8906.89
204.127	8856.55
204.202	8848.6
204.277	8789.98
204.351	8771.79
204.426	8747.66
204.5	8721.48
204.575	8605.77
204.65	8643.66
204.724	8612.45
204.799	8643.33
204.873	8629.8
204.948	8625.37
205.022	8585.73
205.097	8557.46
205.171	8609.38
205.246	8637.5
205.32	8634.18
205.395	8630.62
205.469	8601.86
205.544	8622.08
205.618	8559.52
205.693	8604.13
205.767	8567.8
205.842	8646.17
205.916	8621.29
205.991	8586.3
206.065	8605.22
206.14	8661.72
206.214	8642.51
206.289	8617.71
206.363	8660.4
206.438	8669.98
206.512	8696.7
206.586	8764.59
206.661	8795.94
206.735	8715.56
206.81	8721.38
206.884	8781.15
206.958	8727.07
207.033	8791.05
207.107	8814.74
207.181	8925.43
207.256	8903.57
207.33	8967.58
207.405	9010.94
207.479	9081.32
207.553	9105.14
207.628	9038.07
207.702	9076
207.776	9055.2
207.851	9075.13
207.925	9127.38
207.999	9118.14
208.073	9111.4
208.148	9123.19
208.222	9081.4
208.296	9197.08
208.371	9257.24
208.445	9290.76
208.519	9398.92
208.593	9438.35
208.668	9426.41
208.742	9434.35
208.816	9446.87
208.89	9492.63
208.965	9480.68
209.039	9506.16
209.113	9568.57
209.187	9643.53
209.261	9628.66
209.336	9698.87
209.41	9767.65
209.484	9767.17
209.558	9847.94
209.632	9889.79
209.707	9934.1
209.781	10007.84
209.855	10057.17
209.929	10118.04
210.003	10142.65
210.077	10136.54
210.151	10307.23
210.226	10430.78
210.3	10529.78
210.374	10600.91
210.448	10615.32
210.522	10656.37
210.596	10694.2
210.67	10729.37
210.744	10900.62
210.818	11017.14
210.892	11088.26
210.966	11064.03
211.041	11122.86
211.115	11109.04
211.189	11188.59
211.263	11241.4
211.337	11269.69
211.411	11321.59
211.485	11300.05
211.559	11333.92
211.633	11345.29
211.707	11231.2
211.781	11258.39
211.855	11126.82
211.929	11104.33
212.003	11035.45
212.077	11065.67
212.151	11106.25
212.225	11137.57
212.299	11102.48
212.373	11054.77
212.447	11034.15
212.52	11139.01
212.594	11151.83
212.668	11183.44
212.742	11137.9
212.816	11112.17
212.89	11082.1
212.964	11077.66
213.038	11080.17
213.112	11124.22
213.186	11168.4
213.26	11081.56
213.333	10908.43
213.407	10924.81
213.481	10923.08
213.555	10965.17
213.629	10916.97
213.703	10847.92
213.777	10828.93
213.85	10743.2
213.924	10851.15
213.998	10849.13
214.072	10806.81
214.146	10744.69
214.219	10724.98
214.293	10698.1
214.367	10694.39
214.441	10716.84
214.515	10658.82
214.588	10557.98
214.662	10420.34
214.736	10338.29
214.81	10356.01
214.883	10377.25
214.957	10322.78
215.031	10259.27
215.105	10157.79
215.178	10088.95
215.252	10049.16
215.326	9948.39
215.4	9861.97
215.473	9670.9
215.547	9572.72
215.621	9504.64
215.694	9495.77
215.768	9391.46
215.842	9318.32
215.915	9242.12
215.989	9122.45
216.063	9060.75
216.136	9043.31
216.21	9016.41
216.284	9023.73
216.357	8991.96
216.431	8941.41
216.504	8929.47
216.578	8989.75
216.652	8999.61
216.725	8968.46
216.799	8974.34
216.873	8951.86
216.946	8953.98
217.02	8913.57
217.093	8878.53
217.167	8777.11
217.24	8691.22
217.314	8652.59
217.387	8605.16
217.461	8553.23
217.535	8579.9
217.608	8513.44
217.682	8479.84
217.755	8493.41
217.829	8430.84
217.902	8418.09
217.976	8396.34
218.049	8348.13
218.123	8271.1
218.196	8270
218.27	8235.54
218.343	8155.55
218.417	8147.85
218.49	8128.85
218.563	8176.52
218.637	8187.73
218.71	8256.84
218.784	8282.92
218.857	8316.93
218.931	8343.18
219.004	8355.16
219.077	8367.39
219.151	8388.8
219.224	8377.06
219.298	8367.14
219.371	8413.11
219.444	8367.46
219.518	8376.84
219.591	8399.45
219.665	8507.36
219.738	8517.66
219.811	8499.77
219.885	8552.94
219.958	8590.05
220.031	8587.45
220.105	8609.16
220.178	8616.62
220.251	8591.3
220.325	8614.6
220.398	8635.25
220.471	8654.49
220.544	8695.17
220.618	8676.68
220.691	8701.99
220.764	8726.39
220.838	8760.66
220.911	8752.91
220.984	8846.74
221.057	8885.63
221.131	8905.84
221.204	8805.92
221.277	8888.2
221.35	9018.94
221.424	9004.94
221.497	9017.21
221.57	9047.67
221.643	9084.75
221.716	9133.1
221.79	9136.46
221.863	9142.97
221.936	9150.91
222.009	9160.34
222.082	9189.67
222.155	9195.2
222.229	9268.55
222.302	9296.33
222.375	9296.95
222.448	9338.37
222.521	9342.36
222.594	9344
222.667	9322.63
222.74	9375.2
222.814	9364.85
222.887	9341.72
222.96	9402.74
223.033	9448.01
223.106	9475.55
223.179	9503.87
223.252	9517.99
223.325	9555.98
223.398	9577.89
223.471	9609.14
223.544	9637.88
223.617	9649.92
223.69	9676.69
223.763	9637.92
223.837	9665.42
223.91	9700.24
223.983	9645.35
224.056	9615.93
224.129	9644.82
224.202	9709.76
224.275	9702.05
224.348	9670.41
224.42	9641.27
224.493	9578.19
224.566	9552.71
224.639	9574.14
224.712	9545.04
224.785	9527.03
224.858	9509.69
224.931	9490.91
225.004	9448.1
225.077	9447.96
225.15	9354.66
225.223	9354.18
225.296	9434.78
225.369	9371.8
225.442	9339
225.514	9353.64
225.587	9376.79
225.66	9380.31
225.733	9378.53
225.806	9386.14
225.879	9379.25
225.952	9350.32
226.025	9403.67
226.097	9458.93
226.17	9445.78
226.243	9374.63
226.316	9372.27
226.389	9386.67
226.461	9406.51
226.534	9435.25
226.607	9423.12
226.68	9513.53
226.753	9509.53
226.825	9421.61
226.898	9486.37
226.971	9483.72
227.044	9509.14
227.117	9511.02
227.189	9532.99
227.262	9569.55
227.335	9588.72
227.407	9586.89
227.48	9618.57
227.553	9634.9
227.626	9613.69
227.698	9619.23
227.771	9664.62
227.844	9642.42
227.916	9657.55
227.989	9622.24
228.062	9617.53
228.134	9714.92
228.207	9711.75
228.28	9701.63
228.352	9712.04
228.425	9718.1
228.498	9777.11
228.57	9757.94
228.643	9818.88
228.716	9821.43
228.788	9806.31
228.861	9797.64
228.934	9863.38
229.006	9869.59
229.079	9869.49
229.151	9853.11
229.224	9824.71
229.296	9853.12
229.369	9965.72
229.442	10016.4
229.514	9993.29
229.587	10038.61
229.659	9959.75
229.732	9974.49
229.804	10016.15
229.877	10108.18
229.949	10144.84
230.022	10197.18
230.094	10198.19
230.167	10186.14
230.239	10132.83
230.312	10122.76
230.384	10200.86
230.457	10199.76
230.529	10209.48
230.602	10209.15
230.674	10218.49
230.747	10264
230.819	10294.44
230.892	10163.65
230.964	10157.77
231.037	10190.03
231.109	10179.14
231.181	10216.71
231.254	10179
231.326	10168.45
231.399	10134.23
231.471	10099.4
231.544	10012.76
231.616	10061.55
231.688	10069.79
231.761	10067.53
231.833	10055.1
231.905	9969.97
231.978	9963.8
232.05	9951.81
232.122	9955.76
232.195	9934.18
232.267	9971.95
232.339	9947.91
232.412	10023.18
232.484	10003.47
232.556	9975.21
232.629	10050.05
232.701	10071.49
232.773	10091.47
232.846	10080.92
232.918	10097.16
232.99	10115.86
233.062	10165.48
233.135	10177.48
233.207	10135.18
233.279	10181.8
233.351	10217.3
233.424	10221.34
233.496	10197.59
233.568	10291.35
233.64	10257.92
233.713	10273.19
233.785	10271.31
233.857	10286.3
233.929	10233.46
234.001	10305.55
234.074	10382.12
234.146	10310.86
234.218	10309.7
234.29	10305.46
234.362	10295.2
234.434	10245.38
234.507	10211.66
234.579	10156.89
234.651	10138.92
234.723	10176.01
234.795	10198.75
234.867	10191.91
234.939	10259.12
235.012	10280.27
235.084	10281.33
235.156	10316.2
235.228	10306.76
235.3	10285.22
235.372	10297.12
235.444	10360.9
235.516	10276.52
235.588	10280.62
235.66	10291.55
235.732	10263.56
235.804	10472.64
235.876	10523.98
235.948	10597.13
236.02	10615.2
236.092	10632.44
236.164	10642.99
236.236	10652.1
236.308	10645.45
236.38	10677.49
236.452	10655.85
236.524	10683.12
236.596	10749.21
236.668	10788.67
236.74	10810.01
236.812	10848.65
236.884	10889.13
236.956	10900.89
237.028	10899.78
237.1	10887.74
237.172	10970.39
237.244	11057.61
237.316	10934.16
237.388	10912.81
237.46	10882.21
237.532	10949.24
237.604	10938.55
237.675	11020.57
237.747	11066.3
237.819	11055.03
237.891	11057.34
237.963	11043.51
238.035	11036.04
238.107	10917.43
238.178	10990.07
238.25	11001.2
238.322	11100.98
238.394	11054.52
238.466	11057.56
238.538	11100.44
238.609	11152.14
238.681	11094.94
238.753	11069.68
238.825	11098.5
238.897	11133.39
238.968	11220.58
239.04	11200.1
239.112	11326.02
239.184	11282.2
239.255	11283.65
239.327	11316.17
239.399	11345.96
239.471	11396.41
239.542	11432.94
239.614	11511.06
239.686	11414.28
239.758	11475.48
239.829	11429.11
239.901	11497.26
239.973	11512.48
240.044	11550.08
240.116	11554.66
240.188	11570.65
240.259	11585.5
240.331	11578.7
240.403	11627.23
240.474	11581.44
240.546	11578.21
240.618	11513.77
240.689	11521
240.761	11540.57
240.833	11623.76
240.904	11624.87
240.976	11628.48
241.048	11641.25
241.119	11678.32
241.191	11735.58
241.262	11803.26
241.334	11814.97
241.405	11822.78
241.477	11824.27
241.549	11838.44
241.62	11874.11
241.692	11921.97
241.763	11988.73
241.835	12002.09
241.906	12016.4
241.978	11985.27
242.049	12062.48
242.121	12130.06
242.192	12206.55
242.264	12173.92
242.335	12123.55
242.407	12172.18
242.478	12179.41
242.55	12206.41
242.621	12188.86
242.693	12190.4
242.764	12180.38
242.836	12179.89
242.907	12212.67
242.979	12256.15
243.05	12284.15
243.122	12309.75
243.193	12315.39
243.264	12236.92
243.336	12248.29
243.407	12291.49
243.479	12381.28
243.55	12395.36
243.622	12409.39
243.693	12405.87
243.764	12476.49
243.836	12448.73
243.907	12441.25
243.978	12445.06
244.05	12475.82
244.121	12431.13
244.192	12481.17
244.264	12427.04
244.335	12443.86
244.407	12400.67
244.478	12419.23
244.549	12409.35
244.62	12365.14
244.692	12361.05
244.763	12411.17
244.834	12401.44
244.906	12374.39
244.977	12395.85
245.048	12456.78
245.119	12436.48
245.191	12407.61
245.262	12346.2
245.333	12430.16
245.405	12443.28
245.476	12483.14
245.547	12508.01
245.618	12567.16
245.689	12572.89
245.761	12615.36
245.832	12622.01
245.903	12668.92
245.974	12696.54
246.045	12708.25
246.117	12795.89
246.188	12776.85
246.259	12765.13
246.33	12781.86
246.401	12799.12
246.473	12757.47
246.544	12734.67
246.615	12802.93
246.686	12816.23
246.757	12894.75
246.828	12868.87
246.899	12950.68
246.97	12914.52
247.042	12902.52
247.113	12956.61
247.184	13053.6
247.255	13051.86
247.326	13078.95
247.397	13083.68
247.468	13102.24
247.539	13121.81
247.61	13074.37
247.681	13130.77
247.752	13193.44
247.823	13165.58
247.894	13180.42
247.965	13155.94
248.037	13145.72
248.108	13084.5
248.179	13096.79
248.25	13089.7
248.321	13129.71
248.392	13080.83
248.463	13172.9
248.534	13171.65
248.605	13191.85
248.675	13163.12
248.746	13185.1
248.817	13207.66
248.888	13226.7
248.959	13170.88
249.03	13209.25
249.101	13224.1
249.172	13213.54
249.243	13135.84
249.314	13214.17
249.385	13223.71
249.456	13260.83
249.527	13251
249.598	13283.54
249.669	13281.75
249.739	13301.23
249.81	13320.66
249.881	13279.25
249.952	13275.25
250.023	13270.96
250.094	13208.87
250.165	13180.76
250.235	13173.14
250.306	13179.46
250.377	13144.8
250.448	13161.33
250.519	13076.97
250.59	13133.57
250.66	13127.49
250.731	13198.89
250.802	13193.39
250.873	13216.19
250.944	13240.58
251.014	13232.87
251.085	13327.93
251.156	13354.45
251.227	13404.77
251.297	13460.02
251.368	13516.8
251.439	13556.91
251.51	13612.2
251.58	13607.43
251.651	13604.73
251.722	13667.59
251.792	13613.55
251.863	13627.05
251.934	13705.05
252.005	13830.62
252.075	13839.16
252.146	13895.51
252.217	13954.51
252.287	14004.17
252.358	14007.64
252.429	14082.79
252.499	14081.63
252.57	14087.27
252.641	14151
252.711	14158.95
252.782	14110.6
252.852	14190.53
252.923	14193.56
252.994	14215.3
253.064	14267.08
253.135	14249.43
253.205	14220.51
253.276	14303.57
253.347	14368.46
253.417	14340.54
253.488	14319.24
253.558	14316.88
253.629	14312.83
253.699	14322.42
253.77	14353.75
253.841	14349.7
253.911	14360.21
253.982	14378.38
254.052	14405.52
254.123	14402.48
254.193	14410.34
254.264	14553.74
254.334	14516.43
254.405	14483.51
254.475	14453.82
254.546	14459.79
254.616	14526.61
254.687	14568.5
254.757	14596.02
254.827	14602.34
254.898	14633.09
254.968	14648.61
255.039	14628.56
255.109	14671.37
255.18	14653.34
255.25	14573.03
255.321	14613.91
255.391	14573.8
255.461	14664.81
255.532	14581.57
255.602	14583.2
255.673	14519.91
255.743	14487.28
255.813	14417.19
255.884	14468.91
255.954	14503.33
256.024	14571.59
256.095	14568.17
256.165	14530.95
256.235	14555.24
256.306	14536.01
256.376	14584.5
256.446	14626.78
256.517	14658.79
256.587	14706.27
256.657	14725.93
256.728	14753.51
256.798	14762.42
256.868	14765.9
256.938	14734.08
257.009	14792.7
257.079	14829.81
257.149	14939.24
257.219	14869.83
257.29	14913.5
257.36	14854.79
257.43	14900.34
257.5	14835.26
257.571	14829.04
257.641	14861
257.711	14823.36
257.781	14861.1
257.852	14881.44
257.922	14810.49
257.992	14815.02
258.062	14802.58
258.132	14841.72
258.202	14850.16
258.273	14860.04
258.343	14933.5
258.413	14926.37
258.483	14925.5
258.553	14887.23
258.623	14866.31
258.693	14894.8
258.764	14959.63
258.834	15037.34
258.904	15048.52
258.974	15046.06
259.044	15061.29
259.114	15089.59
259.184	15119.33
259.254	15126.32
259.324	15068.19
259.394	15129.17
259.464	15215.59
259.535	15226.29
259.605	15216.79
259.675	15202.96
259.745	15240.85
259.815	15217.85
259.885	15218.43
259.955	15341.82
260.025	15334.63
260.095	15343.89
260.165	15378.11
260.235	15452.87
260.305	15433.63
260.375	15406.54
260.445	15498.71
260.515	15568.5
260.585	15629.71
260.655	15641.86
260.725	15695.94
260.795	15737.25
260.865	15803
260.934	15773.84
261.004	15815.29
261.074	15825.36
261.144	15891.5
261.214	15934.3
261.284	15935.16
261.354	15982.06
261.424	15929.1
261.494	16011.19
261.564	16020.97
261.634	16054.71
261.703	15982.56
261.773	16012.69
261.843	16045.37
261.913	16031.29
261.983	15969.26
262.053	15984.83
262.123	15978.56
262.192	15927.9
262.262	15975.66
262.332	15919.47
262.402	15947.57
262.472	15950.65
262.541	15894.49
262.611	15941.05
262.681	15911.03
262.751	15956.57
262.821	15953.83
262.89	15924.23
262.96	15940.04
263.03	16017.11
263.1	16025.4
263.169	16037.35
263.239	16069.79
263.309	16144.01
263.379	16183.15
263.448	16200.4
263.518	16221.18
263.588	16229.71
263.657	16308.47
263.727	16341.24
263.797	16355.26
263.867	16363.17
263.936	16320.56
264.006	16384.67
264.076	16381.73
264.145	16384.91
264.215	16358.45
264.285	16411.9
264.354	16365.97
264.424	16353.39
264.494	16301.82
264.563	16307.22
264.633	16400.19
264.702	16420.04
264.772	16351.13
264.842	16343.56
264.911	16388.38
264.981	16352.48
265.05	16373.73
265.12	16369.98
265.19	16386.17
265.259	16440.97
265.329	16462.8
265.398	16496.4
265.468	16598.66
265.537	16596.3
265.607	16626.52
265.676	16680.12
265.746	16696.5
265.815	16763.74
265.885	16779.84
265.955	16763.36
266.024	16763.36
266.094	16685.09
266.163	16749.66
266.232	16827.84
266.302	16843.45
266.371	16875.31
266.441	16896.9
266.51	16953.58
266.58	16956.04
266.649	16936.9
266.719	16985.19
266.788	17016.66
266.858	17091.51
266.927	17018.3
266.996	17050.98
267.066	17092.76
267.135	17068.66
267.205	17115.17
267.274	17136.13
267.343	17197.53
267.413	17217.83
267.482	17283.42
267.552	17364.82
267.621	17316.77
267.69	17266.5
267.76	17288.82
267.829	17307.95
267.898	17330.5
267.968	17309.59
268.037	17360.24
268.106	17415.32
268.176	17388.1
268.245	17393.69
268.314	17378.84
268.384	17442.41
268.453	17464.53
268.522	17484.77
268.592	17546.22
268.661	17531.42
268.73	17560.58
268.799	17536.39
268.869	17627.76
268.938	17576.29
269.007	17557.64
269.076	17581.83
269.146	17644.24
269.215	17677.11
269.284	17755.95
269.353	17753.2
269.422	17758.84
269.492	17744.1
269.561	17654.94
269.63	17690.55
269.699	17701.06
269.768	17722.79
269.838	17744.43
269.907	17778.31
269.976	17737.83
270.045	17681.06
270.114	17714.31
270.183	17722.45
270.253	17759.8
270.322	17704.67
270.391	17729.83
270.46	17803.51
270.529	17854.35
270.598	17902.54
270.667	17908.95
270.736	17876.71
270.806	17910.78
270.875	17971.55
270.944	17980.32
271.013	18116.13
271.082	18137.04
271.151	18171.74
271.22	18131.93
271.289	18140.13
271.358	18145.86
271.427	18192.37
271.496	18227.84
271.565	18228.51
271.634	18252.85
271.703	18299.4
271.772	18362.15
271.841	18378.29
271.91	18342.24
271.979	18361.42
272.048	18330.82
272.117	18387.06
272.186	18379.69
272.255	18429.8
272.324	18479.2
272.393	18529.56
272.462	18511.1
272.531	18540.5
272.6	18544.11
272.669	18615.72
272.738	18629.84
272.807	18674.95
272.876	18656.3
272.945	18801.74
273.013	18861.83
273.082	18930.69
273.151	18912.29
273.22	18955.03
273.289	18989.63
273.358	19075.46
273.427	19083.02
273.496	19123.55
273.564	19157.77
273.633	19219.02
273.702	19207.4
273.771	19212.7
273.84	19243.64
273.909	19296.89
273.977	19334.14
274.046	19359.25
274.115	19430.91
274.184	19422.47
274.253	19438.96
274.322	19521.65
274.39	19457.56
274.459	19450.04
274.528	19391.1
274.597	19418.04
274.665	19436.4
274.734	19499.43
274.803	19502.37
274.872	19533.74
274.94	19535.53
275.009	19679.26
275.078	19680.61
275.147	19717.52
275.215	19742.44
275.284	19805.95
275.353	19819.3
275.421	19784.27
275.49	19875.74
275.559	19870.68
275.627	19903.64
275.696	19920.03
275.765	19967.16
275.833	19979.2
275.902	20023.73
275.971	20107.34
276.039	20201.32
276.108	20263.1
276.177	20303.68
276.245	20319.1
276.314	20346.67
276.383	20409.6
276.451	20322.35
276.52	20377.63
276.588	20459.66
276.657	20516.86
276.725	20521.78
276.794	20560.82
276.863	20639.56
276.931	20596.24
277	20667.56
277.068	20742.26
277.137	20842.17
277.205	20865.6
277.274	20973.17
277.342	21050.43
277.411	21033.95
277.48	21036.16
277.548	21038.62
277.617	21084.79
277.685	21114.43
277.754	21166.44
277.822	21185.43
277.89	21279.96
277.959	21297.07
278.027	21280.53
278.096	21298.32
278.164	21438.65
278.233	21454.9
278.301	21467.48
278.37	21534.66
278.438	21540.06
278.507	21593.56
278.575	21553.65
278.643	21588.5
278.712	21569.32
278.78	21561.75
278.849	21649.27
278.917	21723.55
278.985	21750.83
279.054	21797.16
279.122	21875.97
279.191	21911.55
279.259	21941.57
279.327	21909.85
279.396	22008.39
279.464	22039.52
279.532	22101.81
279.601	22119.56
279.669	22145.92
279.737	22228.11
279.806	22281.77
279.874	22348.54
279.942	22385.37
280.011	22412.31
280.079	22484.87
280.147	22586.3
280.215	22649.17
280.284	22673.99
280.352	22672.55
280.42	22748.77
280.488	22762.17
280.557	22777.99
280.625	22839.7
280.693	22893.55
280.761	22946.01
280.83	22930.44
280.898	23023.1
280.966	22997.84
281.034	22931.44
281.102	22932.88
281.171	22956.9
281.239	23032.23
281.307	23052
281.375	23063.19
281.443	23198.35
281.512	23224.58
281.58	23292.16
281.648	23281.5
281.716	23322.15
281.784	23363.81
281.852	23390.24
281.92	23436.24
281.989	23524.6
282.057	23510.42
282.125	23723.08
282.193	23758.43
282.261	23799.37
282.329	23821.7
282.397	23890.75
282.465	23953.68
282.533	24055.62
282.601	24066.76
282.67	24026.63
282.738	24032.8
282.806	24108.52
282.874	24106.68
282.942	24168.24
283.01	24185.08
283.078	24261.67
283.146	24301.98
283.214	24382.98
283.282	24433.39
283.35	24518.65
283.418	24538.34
283.486	24598.53
283.554	24484.55
283.622	24528.36
283.69	24578.48
283.758	24613.26
283.826	24671.24
283.894	24740.96
283.962	24849.11
284.03	24946.13
284.098	25015.16
284.165	25052.88
284.233	25096.89
284.301	25120
284.369	25132.06
284.437	25149.48
284.505	25166.95
284.573	25262.34
284.641	25268.91
284.709	25336.77
284.777	25313.46
284.845	25377.46
284.912	25447.87
284.98	25502.74
285.048	25532.13
285.116	25605.5
285.184	25688.66
285.252	25737.94
285.319	25735.72
285.387	25753.78
285.455	25741.33
285.523	25801.76
285.591	25848.28
285.659	25904.56
285.726	25994.07
285.794	25994.84
285.862	26024.43
285.93	26070.18
285.997	26096.06
286.065	26117.34
286.133	26132.21
286.201	26177.2
286.269	26181.35
286.336	26195.06
286.404	26220.27
286.472	26291.63
286.539	26260.35
286.607	26249.87
286.675	26301.54
286.743	26375.07
286.81	26396.66
286.878	26491.68
286.946	26509.07
287.013	26557.73
287.081	26585.88
287.149	26580.33
287.216	26694
287.284	26733.21
287.352	26782.8
287.419	26829.74
287.487	26930.64
287.555	26996.29
287.622	27027.62
287.69	27087.62
287.758	27177.8
287.825	27207.26
287.893	27202.24
287.96	27266.74
288.028	27348.91
288.096	27403.51
288.163	27477.68
288.231	27487.77
288.298	27528.41
288.366	27627.61
288.433	27650.89
288.501	27673.25
288.569	27729.68
288.636	27756.02
288.704	27844.4
288.771	27915.57
288.839	27921.56
288.906	27943.36
288.974	28008.81
289.041	28054.03
289.109	28062.54
289.176	28132.59
289.244	28191.98
289.311	28294.05
289.379	28372.91
289.446	28420.24
289.514	28459.59
289.581	28486.91
289.649	28544.66
289.716	28597.75
289.783	28612.11
289.851	28738.01
289.918	28791.9
289.986	28866.74
290.053	28930.42
290.121	28974.67
290.188	29035.55
290.255	29184.64
290.323	29214.03
290.39	29246.98
290.458	29315.14
290.525	29418.37
290.592	29441.55
290.66	29501.89
290.727	29527.09
290.794	29624.8
290.862	29680.82
290.929	29736.64
290.996	29783.22
291.064	29858.62
291.131	29936.43
291.198	30021.33
291.266	30061.05
291.333	30109.27
291.4	30186.75
291.468	30289.21
291.535	30313.45
291.602	30363.96
291.669	30373.4
291.737	30438.51
291.804	30474.61
291.871	30585.72
291.938	30653.25
292.006	30804.15
292.073	30881.38
292.14	30965.94
292.207	30978.67
292.275	31022.33
292.342	31088.89
292.409	31229.12
292.476	31355.17
292.543	31372.69
292.611	31419.66
292.678	31520.08
292.745	31644.6
292.812	31702.91
292.879	31724.32
292.946	31785.84
293.014	31878.92
293.081	31954.86
293.148	32043.9
293.215	32146.82
293.282	32155.54
293.349	32227.67
293.416	32187.5
293.484	32279.34
293.551	32356.95
293.618	32456.59
293.685	32587.11
293.752	32614.72
293.819	32629.55
293.886	32642.78
293.953	32711.56
294.02	32794.23
294.087	32858.59
294.154	32888.88
294.221	32995.47
294.288	33053.67
294.356	33162.69
294.423	33227.59
294.49	33251
294.557	33337.02
294.624	33360.82
294.691	33488.28
294.758	33536.85
294.825	33624.63
294.892	33657.55
294.959	33700.5
295.026	33778.75
295.093	33784.86
295.16	33841.36
295.226	33905.99
295.293	34030.83
295.36	34096.36
295.427	34180.41
295.494	34271.3
295.561	34349.26
295.628	34462.67
295.695	34561.26
295.762	34625.52
295.829	34708.51
295.896	34815.63
295.963	34909.74
296.03	34985.68
296.096	35049.08
296.163	35146.1
296.23	35246.72
296.297	35334.61
296.364	35392.81
296.431	35460.88
296.498	35522.38
296.564	35662.71
296.631	35725.05
296.698	35719.18
296.765	35852.17
296.832	35879.92
296.899	35889.43
296.965	36011.19
297.032	35991.09
297.099	36092.29
297.166	36171.3
297.233	36211.19
297.299	36238.36
297.366	36282.68
297.433	36358.09
297.5	36444.68
297.566	36495.6
297.633	36541.82
297.7	36601.9
297.767	36645.23
297.833	36721.5
297.9	36780.41
297.967	36775.32
298.033	36862.5
298.1	37026.66
298.167	37039.43
298.234	37099.47
298.3	37185.49
298.367	37214.53
298.434	37296.29
298.5	37324.26
298.567	37359.07
298.634	37406.12
298.7	37523.41
298.767	37588.62
298.834	37677.82
298.9	37702.25
298.967	37723.32
299.033	37804.23
299.1	37927.88
299.167	38033.48
299.233	38075.93
299.3	38181.98
299.366	38288.21
299.433	38396.97
299.5	38348.79
299.566	38416.19
299.633	38525.23
299.699	38611.3
299.766	38644.03
299.832	38715.49
299.899	38781.5
299.965	38875.1
300.032	38917.01
300.099	38983.61
300.165	39060.75
300.232	39104.81
300.298	39166.02
300.365	39267.63
300.431	39322.19
300.498	39332.79
300.564	39406.05
300.631	39486.79
300.697	39578.92
300.763	39628.08
300.83	39667.15
300.896	39769.56
300.963	39868.53
301.029	39930.48
301.096	39985.73
301.162	40079.94
301.229	40115.99
301.295	40129.6
301.361	40193.64
301.428	40242.56
301.494	40248.34
301.561	40290.72
301.627	40342.37
301.693	40387.32
301.76	40451.81
301.826	40478.58
301.892	40562.37
301.959	40638.43
302.025	40671.23
302.092	40690.04
302.158	40775.09
302.224	40825.74
302.291	40828.32
302.357	40830.94
302.423	40862.68
302.49	40872.84
302.556	40952.6
302.622	40994.89
302.688	41087.23
302.755	41179.55
302.821	41270.09
302.887	41347.66
302.954	41384.6
303.02	41466.6
303.086	41539.37
303.152	41570.23
303.219	41601.63
303.285	41648.6
303.351	41718.27
303.417	41774.71
303.483	41809.95
303.55	41828.52
303.616	41874.81
303.682	41931.97
303.748	41974.06
303.815	42068.73
303.881	42155.85
303.947	42160.72
304.013	42209.58
304.079	42230.39
304.145	42196.64
304.212	42237.28
304.278	42262.71
304.344	42305.88
304.41	42304.23
304.476	42324.02
304.542	42353.77
304.608	42420.43
304.674	42419.6
304.741	42431.37
304.807	42478.64
304.873	42535.63
304.939	42628.46
305.005	42613.58
305.071	42663.12
305.137	42715.58
305.203	42676.48
305.269	42709.26
305.335	42812.18
305.401	42846.95
305.467	42876.42
305.533	42953.83
305.599	43032.33
305.666	43099.05
305.732	43147.58
305.798	43225.2
305.864	43360.82
305.93	43429.98
305.996	43483.34
306.062	43541.84
306.128	43575.89
306.194	43581.63
306.259	43630.42
306.325	43634.95
306.391	43703.04
306.457	43773.81
306.523	43824.73
306.589	43952.63
306.655	43961.97
306.721	43926.65
306.787	43936.71
306.853	44040.38
306.919	44037.9
306.985	44046.03
307.051	44065.73
307.117	44076.82
307.183	44089.71
307.248	44019.4
307.314	44071.03
307.38	44115.79
307.446	44171.06
307.512	44174.42
307.578	44229.49
307.644	44248.71
307.709	44308.07
307.775	44335.36
307.841	44355.21
307.907	44411.27
307.973	44374.43
308.039	44431.54
308.104	44495.87
308.17	44542.13
308.236	44527.58
308.302	44580.76
308.368	44587.08
308.433	44635.15
308.499	44678.16
308.565	44706.34
308.631	44765.4
308.696	44732.36
308.762	44718.78
308.828	44744.05
308.894	44743.7
308.959	44723.08
309.025	44729.6
309.091	44738.45
309.156	44760.99
309.222	44811.21
309.288	44795.06
309.354	44769.85
309.419	44790.49
309.485	44777.5
309.551	44840.72
309.616	44833.18
309.682	44861.94
309.748	44879.89
309.813	44898.68
309.879	44896.2
309.945	44882.14
310.01	44894.79
310.076	44945.3
310.141	44976.64
310.207	44974.84
310.273	45010.7
310.338	45063.16
310.404	45052.26
310.469	45059.8
310.535	45073.97
310.601	45029.05
310.666	45100.55
310.732	45193.32
310.797	45208.11
310.863	45220.28
310.928	45221.94
310.994	45261.55
311.059	45279.91
311.125	45303.95
311.191	45375.48
311.256	45392.46
311.322	45462.84
311.387	45459.92
311.453	46275.67
311.518	46301.86
311.584	46332.82
311.649	46386.37
311.715	46388.36
311.78	46438.1
311.846	46445.94
311.911	46496.53
311.976	46549.68
312.042	46531.47
312.107	46501.19
312.173	46503.62
312.238	46515.89
312.304	46535.22
312.369	46544.9
312.434	46533.75
312.5	46560.04
312.565	46483.45
312.631	46537.97
312.696	46544.64
312.761	46584.76
312.827	45805.42
312.892	45904.17
312.958	45923.07
313.023	45958.86
313.088	46006.04
313.154	45999.66
313.219	45997.52
313.284	45981.35
313.35	46006.38
313.415	45991.33
313.48	46009.74
313.546	46057.56
313.611	46124.21
313.676	46125.19
313.741	46135.12
313.807	46200.47
313.872	46247.46
313.937	46306.91
314.003	46370.58
314.068	46399.17
314.133	46438.37
314.198	46442.51
314.264	46410.93
314.329	46413.9
314.394	46423.55
314.459	46440.54
314.525	46537.41
314.59	46589.17
314.655	46601.3
314.72	46653.96
314.785	46713.66
314.851	46722.72
314.916	46694.37
314.981	46678.93
315.046	46677.62
315.111	46677.23
315.176	46683.76
315.242	46719.37
315.307	46756.44
315.372	46725.31
315.437	46722.05
315.502	46728.91
315.567	46802.09
315.632	46771.98
315.698	46820.61
315.763	46844.09
315.828	46838.68
315.893	46834.15
315.958	46821.93
316.023	46807.9
316.088	46766.3
316.153	46714.19
316.218	46720.38
316.283	46681.38
316.348	46635.08
316.413	46644.82
316.479	46611.62
316.544	46486.3
316.609	46369.86
316.674	46234.95
316.739	46093.59
316.804	45987.03
316.869	45870.23
316.934	45713.58
316.999	45600.31
317.064	45402.42
317.129	45233.68
317.194	45084.32
317.259	44890.49
317.324	44703.79
317.389	44544.87
317.454	44374.16
317.518	44221.35
317.583	44090.84
317.648	43970.67
317.713	43813.21
317.778	43575.55
317.843	43442.95
317.908	43278.92
317.973	43126.97
318.038	42990.95
318.103	42825.35
318.168	42668.62
318.233	42501.49
318.297	42293.97
318.362	42107.56
318.427	41919.63
318.492	41768.9
318.557	41548.82
318.622	41407.7
318.687	41270.49
318.751	41055.06
318.816	40874.79
318.881	40685.5
318.946	40438.27
319.011	40209.39
319.075	39996.33
319.14	39805.99
319.205	39571.83
319.27	39375.98
319.335	39128.27
319.399	38903.21
319.464	38733.89
319.529	38472.56
319.594	38264.57
319.658	38074.45
319.723	37848.35
319.788	37660.6
319.853	37386.97
319.917	37202.47
319.982	36922.54
320.047	36685.64
320.112	36505.39
320.176	36244.57
320.241	36031.42
320.306	35835.95
320.37	35604.09
320.435	35405.07
320.5	35203.4
320.564	34971.88
320.629	34740.52
320.694	34548.18
320.758	34315.13
320.823	34059.07
320.888	33870.98
320.952	33588.38
321.017	33339.09
321.082	33108.61
321.146	32876.86
321.211	32654.04
321.275	32411.16
321.34	32160.3
321.405	31908.79
321.469	31656.49
321.534	31411.77
321.598	31134.87
321.663	30924.49
321.727	30716.55
321.792	30446.69
321.857	30200.39
321.921	29965.1
321.986	29719.85
322.05	29406.66
322.115	29166.83
322.179	28919.76
322.244	28623.38
322.308	28404.28
322.373	28150.78
322.437	27899.43
322.502	27714.07
322.566	27466.54
322.631	27237.37
322.695	27001.46
322.76	26744.22
322.824	26515.12
322.889	26251.79
322.953	26001.72
323.018	25667.04
323.082	25330.08
323.146	25043.85
323.211	24746.7
323.275	24476.24
323.34	24203.9
323.404	23970.08
323.468	23699.86
323.533	23434.84
323.597	23163.24
323.662	22878.14
323.726	22640.56
323.79	22366.02
323.855	22020.96
323.919	21729.04
323.983	21452.61
324.048	21046.23
324.112	21250.73
324.177	20413.49
324.241	19314.74
324.305	18220.74
324.37	17144.63
324.434	16112.91
324.498	15828.41
324.562	15512.69
324.627	15151.2
324.691	14798.09
324.755	14401.16
324.82	13947.33
324.884	13460.4
324.948	12975.24
325.012	12379.7
325.077	11635.49
