Data from 20250701_urea_2M_exp3_MAYP1162681_19-49-51-720.txt Node
Date: Tue Jul 01 19:49:51 BST 2025
User: adleo
Spectrometer: MAYP116268
Trigger mode: 0
Integration Time (sec): 4.000000E0
Scans to average: 1
Electric dark correction enabled: true
Nonlinearity correction enabled: true
Boxcar width: 10
XAxis mode: Wavelengths
Number of Pixels in Spectrum: 2068
>>>>>Begin Spectral Data<<<<<
179.565	3998.6
179.642	4210.28
179.718	4379.62
179.795	4518.44
179.871	4636.6
179.948	4701.26
180.024	4779.47
180.101	4865.11
180.177	4923.55
180.254	5005.87
180.33	5090.35
180.407	5381.18
180.483	5692.69
180.56	6012.27
180.636	6300.96
180.712	6260.9
180.789	6296.91
180.865	6345.26
180.942	6379.53
181.018	6423.98
181.095	6469.86
181.171	6489.16
181.248	6489.98
181.324	6544.12
181.4	6577.36
181.477	6622.94
181.553	6672.08
181.63	6746.86
181.706	6808.31
181.782	6829.33
181.859	6829.52
181.935	6851.43
182.011	6836.59
182.088	6898.09
182.164	6965.67
182.24	7021.57
182.317	7054.27
182.393	7048.13
182.469	7096.07
182.546	7142.87
182.622	7156.33
182.698	7142.48
182.775	7185.68
182.851	7236.42
182.927	7207.3
183.003	7189.34
183.08	7162.1
183.156	7195.63
183.232	7184.58
183.308	7141.23
183.385	7176.1
183.461	7237.52
183.537	7240.07
183.613	7286.87
183.69	7250.92
183.766	7213.32
183.842	7227.93
183.918	7250.23
183.995	7296.03
184.071	7309.83
184.147	7288.24
184.223	7247.42
184.299	7289.34
184.375	7245.33
184.452	7269.9
184.528	7407.65
184.604	7441.38
184.68	7487.17
184.756	7512.27
184.832	7527.18
184.908	7543.17
184.985	7542.35
185.061	7489.2
185.137	7519.73
185.213	7476.86
185.289	7486.76
185.365	7456.1
185.441	7461.15
185.517	7504.34
185.593	7487.76
185.669	7476.65
185.745	7512.56
185.822	7573.82
185.898	7543.28
185.974	7578.16
186.05	7550.08
186.126	7469.16
186.202	7447.53
186.278	7428.11
186.354	7390.81
186.43	7411.87
186.506	7402.22
186.582	7393.76
186.658	7417.88
186.734	7345.17
186.81	7358.96
186.886	7367.27
186.962	7416.82
187.038	7401.05
187.114	7374.02
187.19	7403.88
187.266	7367.79
187.341	7366.35
187.417	7338.42
187.493	7337.99
187.569	7353.38
187.645	7332.13
187.721	7289.05
187.797	7316.39
187.873	7336.68
187.949	7323.85
188.025	7299.66
188.101	7312.92
188.176	7336.66
188.252	7317.49
188.328	7342.65
188.404	7343.42
188.48	7326.94
188.556	7297.23
188.632	7293.43
188.707	7295.41
188.783	7282.04
188.859	7272.77
188.935	7234.6
189.011	7262.33
189.086	7242.73
189.162	7209.7
189.238	7205.62
189.314	7196.44
189.39	7179.72
189.465	7158.95
189.541	7216.59
189.617	7162.34
189.693	7144.95
189.768	7159.62
189.844	7245.98
189.92	7218.7
189.996	7250.28
190.071	7288.3
190.147	7288.21
190.223	7322.78
190.298	7295.8
190.374	7252.74
190.45	7293.29
190.526	7324.73
190.601	7308.62
190.677	7314.25
190.753	7412.42
190.828	7422.08
190.904	7478.23
190.98	7526.94
191.055	7562.85
191.131	7528.71
191.207	7606.52
191.282	7642.85
191.358	7608.24
191.433	7553.55
191.509	7602.11
191.585	7587.35
191.66	7589.09
191.736	7612.88
191.811	7580.57
191.887	7642.81
191.963	7726.61
192.038	7744.93
192.114	7747.81
192.189	7760.5
192.265	7747.73
192.34	7670.75
192.416	7664.21
192.491	7652.33
192.567	7661.62
192.642	7669.79
192.718	7676.76
192.793	7634.64
192.869	7619.7
192.944	7630.51
193.02	7660.37
193.095	7675.32
193.171	7695.76
193.246	7696.53
193.322	7688.45
193.397	7690.52
193.473	7636.02
193.548	7570.95
193.624	7592.12
193.699	7585.43
193.775	7642.29
193.85	7644.21
193.925	7678.74
194.001	7678.26
194.076	7640.71
194.152	7606.42
194.227	7576.89
194.302	7537.44
194.378	7548.3
194.453	7537.01
194.529	7571.2
194.604	7520.81
194.679	7495.43
194.755	7431.99
194.83	7470.67
194.905	7461.16
194.981	7491.74
195.056	7466.99
195.131	7486.89
195.207	7475.29
195.282	7441.89
195.357	7370.9
195.433	7433.15
195.508	7387.28
195.583	7412.13
195.659	7466.9
195.734	7488.54
195.809	7488.3
195.884	7524.19
195.96	7525.54
196.035	7580.83
196.11	7569.38
196.185	7609.43
196.261	7623.8
196.336	7740.11
196.411	7694.22
196.486	7717.82
196.561	7693.54
196.637	7724.49
196.712	7783.67
196.787	7795.16
196.862	7852.08
196.937	7883.91
197.013	7900.85
197.088	7936.81
197.163	8016.25
197.238	8083.36
197.313	8082.25
197.388	8129.34
197.464	8234.44
197.539	8275.42
197.614	8246.42
197.689	8292.56
197.764	8353.87
197.839	8423
197.914	8397.2
197.989	8473.95
198.065	8518.69
198.14	8704.64
198.215	8802.52
198.29	8843.35
198.365	8894.13
198.44	8935.33
198.515	9036.08
198.59	9091.11
198.665	9181.36
198.74	9205.06
198.815	9208.96
198.89	9291.08
198.965	9395.39
199.04	9379.16
199.115	9436.54
199.19	9594.83
199.265	9611.05
199.34	9641.49
199.415	9764.96
199.49	9841.7
199.565	9876.57
199.64	9965.76
199.715	9948.9
199.79	9968.55
199.865	9992.63
199.94	9981.94
200.015	10090.43
200.09	10111.05
200.165	10136.33
200.24	10168.76
200.315	10313.71
200.39	10363.82
200.464	10389.59
200.539	10399.18
200.614	10461.51
200.689	10544.86
200.764	10565.49
200.839	10624.58
200.914	10650.45
200.989	10610.69
201.063	10654.15
201.138	10591.27
201.213	10589.1
201.288	10522.95
201.363	10541.55
201.438	10539.23
201.512	10596.79
201.587	10533.23
201.662	10547.5
201.737	10588.16
201.812	10609.32
201.886	10489.5
201.961	10523.43
202.036	10473.92
202.111	10458.31
202.186	10351.74
202.26	10292.71
202.335	10212.4
202.41	10192.17
202.485	10129.55
202.559	10059.95
202.634	9965.2
202.709	10001.55
202.784	9935.52
202.858	9941.34
202.933	9871.36
203.008	9842.08
203.082	9777.11
203.157	9770.56
203.232	9615.79
203.306	9535.77
203.381	9423.5
203.456	9342.65
203.53	9257.9
203.605	9189.8
203.68	9105.91
203.754	9079.74
203.829	9018.73
203.904	8948.79
203.978	8900.88
204.053	8908.05
204.127	8864.97
204.202	8859.39
204.277	8796.33
204.351	8765.43
204.426	8730.04
204.5	8704.77
204.575	8587.24
204.65	8621.71
204.724	8597.92
204.799	8629.62
204.873	8616.66
204.948	8607.57
205.022	8564.32
205.097	8531.24
205.171	8577.53
205.246	8609.73
205.32	8605.7
205.395	8608.54
205.469	8578.43
205.544	8597.83
205.618	8539.22
205.693	8582.63
205.767	8540.43
205.842	8609.02
205.916	8590.64
205.991	8560.18
206.065	8575.48
206.14	8633.42
206.214	8615.36
206.289	8584.5
206.363	8624.5
206.438	8636.39
206.512	8664.93
206.586	8736.24
206.661	8766.15
206.735	8691.64
206.81	8697.66
206.884	8756.31
206.958	8710.36
207.033	8767.84
207.107	8796.31
207.181	8911.61
207.256	8885.67
207.33	8950.88
207.405	8999.29
207.479	9071.74
207.553	9090.07
207.628	9034.02
207.702	9071.23
207.776	9045.42
207.851	9061.16
207.925	9118.04
207.999	9101.48
208.073	9094.54
208.148	9101.72
208.222	9064.5
208.296	9177.76
208.371	9227.09
208.445	9263.83
208.519	9365.79
208.593	9409.89
208.668	9398.57
208.742	9408.06
208.816	9418.32
208.89	9468.94
208.965	9458.96
209.039	9486.04
209.113	9552.97
209.187	9622.74
209.261	9610.94
209.336	9684.96
209.41	9756.14
209.484	9752
209.558	9825.64
209.632	9875.67
209.707	9913.72
209.781	9988.66
209.855	10045.17
209.929	10109.9
210.003	10133.5
210.077	10131.62
210.151	10300.63
210.226	10421.87
210.3	10514.89
210.374	10592.72
210.448	10606.59
210.522	10648.9
210.596	10688.56
210.67	10721.8
210.744	10898.59
210.818	11017.91
210.892	11088.6
210.966	11068.08
211.041	11129.22
211.115	11126.48
211.189	11203.29
211.263	11262.12
211.337	11281.35
211.411	11329.73
211.485	11307.47
211.559	11341.77
211.633	11347.02
211.707	11239.39
211.781	11260.31
211.855	11133.71
211.929	11107.65
212.003	11036.07
212.077	11069.23
212.151	11103.16
212.225	11132.7
212.299	11085.27
212.373	11041.95
212.447	11021.81
212.52	11122.04
212.594	11128.35
212.668	11160.64
212.742	11117.27
212.816	11096.79
212.89	11074.38
212.964	11060.84
213.038	11067.05
213.112	11111.3
213.186	11160.97
213.26	11073.4
213.333	10906.11
213.407	10918.06
213.481	10912.61
213.555	10953.07
213.629	10903.67
213.703	10838.66
213.777	10826.18
213.85	10746.18
213.924	10852.84
213.998	10845.18
214.072	10809.65
214.146	10747.64
214.219	10725.76
214.293	10693.96
214.367	10683.89
214.441	10706.3
214.515	10653.67
214.588	10548.49
214.662	10406.52
214.736	10316.63
214.81	10331.65
214.883	10351.49
214.957	10298.51
215.031	10241.07
215.105	10141.57
215.178	10069.16
215.252	10033.71
215.326	9925.04
215.4	9836.4
215.473	9637.77
215.547	9540.75
215.621	9469.78
215.694	9467.42
215.768	9362.53
215.842	9293.82
215.915	9216.56
215.989	9093.47
216.063	9038.37
216.136	9019.06
216.21	8992.01
216.284	9005.11
216.357	8976.27
216.431	8924.23
216.504	8916.14
216.578	8977.29
216.652	8990.62
216.725	8963.8
216.799	8962.16
216.873	8944.12
216.946	8952.49
217.02	8909.97
217.093	8880.65
217.167	8776.16
217.24	8684.01
217.314	8643.65
217.387	8593.96
217.461	8544.01
217.535	8569.61
217.608	8495.12
217.682	8467.16
217.755	8484.58
217.829	8419.64
217.902	8400.49
217.976	8381.29
218.049	8332.79
218.123	8251.72
218.196	8243.64
218.27	8208.37
218.343	8133.09
218.417	8119.85
218.49	8099.36
218.563	8153.24
218.637	8159.3
218.71	8234.8
218.784	8266.9
218.857	8306.63
218.931	8325.72
219.004	8337.56
219.077	8355.28
219.151	8380.19
219.224	8368.35
219.298	8353.44
219.371	8405.42
219.444	8363.96
219.518	8376.9
219.591	8394.36
219.665	8501.98
219.738	8516.46
219.811	8493.13
219.885	8544.34
219.958	8580.05
220.031	8582.16
220.105	8605.12
220.178	8615.62
220.251	8592.65
220.325	8614.85
220.398	8632.17
220.471	8655.75
220.544	8697.96
220.618	8674.95
220.691	8703.29
220.764	8721.96
220.838	8757.24
220.911	8738.95
220.984	8834.66
221.057	8873.26
221.131	8899
221.204	8795.72
221.277	8876.36
221.35	9010.47
221.424	9000.27
221.497	9013.31
221.57	9038.28
221.643	9070.31
221.716	9121.11
221.79	9120.15
221.863	9127.47
221.936	9137.91
222.009	9154.76
222.082	9182.21
222.155	9187.55
222.229	9258.1
222.302	9288.86
222.375	9293.15
222.448	9335.43
222.521	9334.37
222.594	9336.68
222.667	9311.12
222.74	9368.7
222.814	9355.07
222.887	9343.02
222.96	9404.04
223.033	9452.39
223.106	9478.92
223.179	9509.22
223.252	9516.3
223.325	9554
223.398	9574.42
223.471	9604.85
223.544	9626.85
223.617	9638.99
223.69	9667.06
223.763	9627.61
223.837	9655.4
223.91	9693.78
223.983	9640.53
224.056	9606.01
224.129	9628.55
224.202	9687.13
224.275	9674.13
224.348	9641.09
224.42	9597.22
224.493	9534.08
224.566	9505.09
224.639	9529.36
224.712	9496.5
224.785	9482.82
224.858	9468.9
224.931	9447.47
225.004	9405.39
225.077	9404.19
225.15	9311.95
225.223	9304.96
225.296	9386.63
225.369	9324.95
225.442	9283.77
225.514	9311.11
225.587	9334.66
225.66	9338.46
225.733	9339.28
225.806	9353.2
225.879	9348.67
225.952	9316.52
226.025	9362.84
226.097	9419.06
226.17	9400.62
226.243	9330.57
226.316	9326.04
226.389	9332.06
226.461	9355.76
226.534	9381.51
226.607	9375.16
226.68	9459.88
226.753	9456.56
226.825	9365.41
226.898	9425.07
226.971	9431.57
227.044	9444.23
227.117	9447.89
227.189	9468.94
227.262	9505.84
227.335	9527.41
227.407	9522.41
227.48	9559.38
227.553	9580.24
227.626	9558.26
227.698	9562.98
227.771	9610.3
227.844	9584.78
227.916	9601.68
227.989	9557.62
228.062	9548.03
228.134	9637.29
228.207	9639.22
228.28	9633.49
228.352	9650.34
228.425	9656.89
228.498	9707.9
228.57	9693.99
228.643	9756.32
228.716	9753.91
228.788	9742.49
228.861	9731.37
228.934	9803.94
229.006	9805.48
229.079	9803.94
229.151	9785.83
229.224	9760.31
229.296	9784.82
229.369	9898.81
229.442	9951.23
229.514	9940.88
229.587	9995.01
229.659	9916.73
229.732	9934.12
229.804	9976.02
229.877	10067.57
229.949	10107.27
230.022	10164.08
230.094	10162.64
230.167	10160.28
230.239	10121.07
230.312	10105.9
230.384	10186.27
230.457	10178.32
230.529	10193.2
230.602	10185.06
230.674	10199.95
230.747	10249.25
230.819	10283.99
230.892	10161.38
230.964	10164.08
231.037	10193.55
231.109	10181.6
231.181	10222.83
231.254	10183.43
231.326	10172.83
231.399	10140.88
231.471	10100.51
231.544	10011.7
231.616	10061.5
231.688	10062.03
231.761	10044.61
231.833	10034.25
231.905	9941.22
231.978	9946.37
232.05	9936.06
232.122	9946.28
232.195	9922.72
232.267	9957.12
232.339	9930.67
232.412	10003.11
232.484	9976.65
232.556	9946.08
232.629	10017.54
232.701	10036.62
232.773	10047.98
232.846	10036.52
232.918	10048.42
232.99	10077.43
233.062	10125.79
233.135	10140.39
233.207	10101.61
233.279	10149.57
233.351	10187.63
233.424	10197.21
233.496	10166.19
233.568	10251.27
233.64	10215.53
233.713	10232.1
233.785	10221.31
233.857	10238.12
233.929	10182.24
234.001	10254.68
234.074	10329.56
234.146	10249.96
234.218	10244.81
234.29	10248.52
234.362	10232.63
234.434	10178.95
234.507	10137.76
234.579	10082.56
234.651	10053.51
234.723	10090.6
234.795	10110.88
234.867	10100.67
234.939	10164.22
235.012	10187.34
235.084	10184.01
235.156	10221.25
235.228	10202.51
235.3	10192.68
235.372	10203.67
235.444	10263.49
235.516	10181.57
235.588	10186.24
235.66	10210.86
235.732	10192.74
235.804	10403.79
235.876	10461.3
235.948	10528.33
236.02	10546.58
236.092	10565.61
236.164	10584.44
236.236	10584.06
236.308	10582.9
236.38	10614.65
236.452	10588.39
236.524	10604.44
236.596	10684.45
236.668	10721.84
236.74	10751.95
236.812	10788.47
236.884	10828.81
236.956	10843.21
237.028	10831.36
237.1	10813.1
237.172	10887.8
237.244	10959.45
237.316	10832.1
237.388	10813.6
237.46	10791.72
237.532	10861.97
237.604	10855.23
237.675	10933.73
237.747	10984.86
237.819	10978.65
237.891	10984.09
237.963	10973.35
238.035	10978.27
238.107	10856.62
238.178	10931.86
238.25	10934.41
238.322	11032.64
238.394	10979.06
238.466	10983.88
238.538	11036.78
238.609	11084.29
238.681	11023.18
238.753	11011.32
238.825	11034.94
238.897	11069.15
238.968	11161.31
239.04	11140.58
239.112	11256
239.184	11215.94
239.255	11210.21
239.327	11244.9
239.399	11273.72
239.471	11328.36
239.542	11368.22
239.614	11444.45
239.686	11353.89
239.758	11417.5
239.829	11374.65
239.901	11460.58
239.973	11474.55
240.044	11500.67
240.116	11518.51
240.188	11539.56
240.259	11547.37
240.331	11538.99
240.403	11581.39
240.474	11527.55
240.546	11517.43
240.618	11451.74
240.689	11453.62
240.761	11476.47
240.833	11548.91
240.904	11539.8
240.976	11542.93
241.048	11562.11
241.119	11593.4
241.191	11635.57
241.262	11708.35
241.334	11717.56
241.405	11712.5
241.477	11723.83
241.549	11740.6
241.62	11764.75
241.692	11813.96
241.763	11887.03
241.835	11905.4
241.906	11922.85
241.978	11890.07
242.049	11962.18
242.121	12036.64
242.192	12109.42
242.264	12079.54
242.335	12035.2
242.407	12087.11
242.478	12090.58
242.55	12106.34
242.621	12094.53
242.693	12097.32
242.764	12084.31
242.836	12083.97
242.907	12111.83
242.979	12138.92
243.05	12163.79
243.122	12194.4
243.193	12191.12
243.264	12116.56
243.336	12126.39
243.407	12167.55
243.479	12257.98
243.55	12276.3
243.622	12285.41
243.693	12287.48
243.764	12357.04
243.836	12326.14
243.907	12320.12
243.978	12328.84
244.05	12361.09
244.121	12315.69
244.192	12363.6
244.264	12313.71
244.335	12328.07
244.407	12287.73
244.478	12305.42
244.549	12296.31
244.62	12243.38
244.692	12252.64
244.763	12299.87
244.834	12282.76
244.906	12259.24
244.977	12283.73
245.048	12337
245.119	12320.03
245.191	12295.49
245.262	12227.67
245.333	12312.26
245.405	12336.41
245.476	12375.55
245.547	12391.94
245.618	12460.19
245.689	12483.28
245.761	12519
245.832	12527.29
245.903	12576.99
245.974	12611.27
246.045	12625.1
246.117	12724.83
246.188	12704.01
246.259	12684.34
246.33	12709.65
246.401	12724.07
246.473	12684.73
246.544	12669.06
246.615	12728.26
246.686	12731.78
246.757	12814.69
246.828	12793.48
246.899	12870.56
246.97	12829.68
247.042	12822.74
247.113	12859.52
247.184	12948.61
247.255	12943.98
247.326	12974.97
247.397	12979.12
247.468	12995.08
247.539	13016.05
247.61	12969.62
247.681	13018.02
247.752	13077.6
247.823	13056.58
247.894	13067.43
247.965	13037.11
248.037	13027.95
248.108	12973
248.179	12985.19
248.25	12977
248.321	13011.75
248.392	12954.82
248.463	13046.55
248.534	13045.06
248.605	13073.12
248.675	13040.58
248.746	13072.06
248.817	13090.42
248.888	13108.11
248.959	13043.04
249.03	13068.54
249.101	13074.23
249.172	13063.09
249.243	12986.54
249.314	13060.06
249.385	13074.86
249.456	13113.85
249.527	13115.49
249.598	13147.21
249.669	13151.26
249.739	13168.66
249.81	13179.7
249.881	13146.59
249.952	13139.98
250.023	13139.55
250.094	13084.3
250.165	13052.97
250.235	13045.5
250.306	13047.52
250.377	13012.04
250.448	13048.82
250.519	12979.65
250.59	13044.68
250.66	13036.39
250.731	13120.5
250.802	13109.17
250.873	13128.26
250.944	13153.04
251.014	13137.18
251.085	13228.05
251.156	13253.89
251.227	13304.5
251.297	13365.92
251.368	13418.99
251.439	13464.65
251.51	13516.9
251.58	13499.31
251.651	13498.54
251.722	13557.83
251.792	13506.2
251.863	13522.3
251.934	13590.42
252.005	13718.69
252.075	13726.5
252.146	13785.31
252.217	13831.54
252.287	13885.72
252.358	13889.1
252.429	13957.36
252.499	13953.65
252.57	13964.64
252.641	14012.46
252.711	14016.36
252.782	13961.46
252.852	14044.66
252.923	14045.91
252.994	14058.78
253.064	14110.07
253.135	14084.72
253.205	14058.83
253.276	14142.23
253.347	14205.18
253.417	14174.81
253.488	14151.82
253.558	14132.2
253.629	14127.48
253.699	14144.4
253.77	14161.12
253.841	14153.89
253.911	14171.97
253.982	14192.84
254.052	14221.14
254.123	14235.26
254.193	14245.96
254.264	14394.28
254.334	14358.81
254.405	14323.04
254.475	14288.76
254.546	14294.31
254.616	14366.04
254.687	14402.87
254.757	14420.7
254.827	14423.93
254.898	14446.25
254.968	14456.04
255.039	14443.84
255.109	14479.61
255.18	14441.38
255.25	14371.77
255.321	14411.01
255.391	14365.99
255.461	14464.57
255.532	14378.53
255.602	14372.89
255.673	14309.59
255.743	14274.74
255.813	14191.83
255.884	14239.6
255.954	14282.12
256.024	14350.57
256.095	14355.05
256.165	14314.41
256.235	14348.93
256.306	14334.13
256.376	14390.96
256.446	14432.9
256.517	14471.03
256.587	14525.45
256.657	14563
256.728	14594.48
256.798	14606.34
256.868	14604.32
256.938	14562.86
257.009	14611.11
257.079	14645.82
257.149	14758.67
257.219	14693.54
257.29	14739.82
257.36	14684.68
257.43	14727.77
257.5	14666.16
257.571	14660.19
257.641	14703.72
257.711	14656.62
257.781	14691.43
257.852	14707
257.922	14641.39
257.992	14654.65
258.062	14645.73
258.132	14685.21
258.202	14690.75
258.273	14706.37
258.343	14785.85
258.413	14776.12
258.483	14784.17
258.553	14749.27
258.623	14722.37
258.693	14758.28
258.764	14832.61
258.834	14911.43
258.904	14931.63
258.974	14922.47
259.044	14931.77
259.114	14954.91
259.184	14988.84
259.254	14998.39
259.324	14934.86
259.394	14985.52
259.464	15060.18
259.535	15072.52
259.605	15060.86
259.675	15049.43
259.745	15088.43
259.815	15054.21
259.885	15056.71
259.955	15180.58
260.025	15172.82
260.095	15180.19
260.165	15212.92
260.235	15273.99
260.305	15253.31
260.375	15220.68
260.445	15322.77
260.515	15393.34
260.585	15449.3
260.655	15456.96
260.725	15506.47
260.795	15558.33
260.865	15633.23
260.934	15601.42
261.004	15624.8
261.074	15625.96
261.144	15695.66
261.214	15724.92
261.284	15734.27
261.354	15768.06
261.424	15722.56
261.494	15800.94
261.564	15814.25
261.634	15840.23
261.703	15767.25
261.773	15795.02
261.843	15826.83
261.913	15814.25
261.983	15747.44
262.053	15771.4
262.123	15770.53
262.192	15723.77
262.262	15757.08
262.332	15703.77
262.402	15740.69
262.472	15755.68
262.541	15698.56
262.611	15744.06
262.681	15720.68
262.751	15766.91
262.821	15778.43
262.89	15739.39
262.96	15767.82
263.03	15848.99
263.1	15863.06
263.169	15888.03
263.239	15925.34
263.309	15995.22
263.379	16027.47
263.448	16053.16
263.518	16074.51
263.588	16098.51
263.657	16179.2
263.727	16224.55
263.797	16231.2
263.867	16227.49
263.936	16182.67
264.006	16252.71
264.076	16246.15
264.145	16254.3
264.215	16231.07
264.285	16283.12
264.354	16228.94
264.424	16200.7
264.494	16146
264.563	16145.08
264.633	16226.97
264.702	16239.11
264.772	16179.16
264.842	16178.96
264.911	16215.59
264.981	16168.46
265.05	16180.51
265.12	16171.35
265.19	16183.4
265.259	16238.68
265.329	16276.81
265.398	16311.99
265.468	16416.34
265.537	16403.23
265.607	16427.95
265.676	16480.15
265.746	16493.74
265.815	16570.52
265.885	16586.43
265.955	16572.16
266.024	16573.46
266.094	16504.3
266.163	16574.47
266.232	16644.84
266.302	16646.86
266.371	16674.57
266.441	16699.49
266.51	16737.37
266.58	16743.5
266.649	16727.64
266.719	16780.75
266.788	16816.75
266.858	16885.96
266.927	16806.82
266.996	16846.63
267.066	16886.54
267.135	16857.18
267.205	16902.82
267.274	16922.05
267.343	16986.01
267.413	17001.72
267.482	17071.65
267.552	17141.87
267.621	17085.73
267.69	17035.7
267.76	17066.35
267.829	17089.34
267.898	17111.46
267.968	17091.94
268.037	17130.21
268.106	17183.8
268.176	17140.96
268.245	17140.28
268.314	17136.09
268.384	17202.7
268.453	17222.02
268.522	17243.42
268.592	17308.38
268.661	17295.81
268.73	17330.17
268.799	17317.01
268.869	17409.4
268.938	17352.68
269.007	17345.88
269.076	17377.35
269.146	17442.46
269.215	17476.92
269.284	17551.71
269.353	17535.76
269.422	17548.97
269.492	17537.3
269.561	17451.57
269.63	17496.53
269.699	17489.01
269.768	17512.58
269.838	17528.53
269.907	17568.19
269.976	17536.14
270.045	17481.3
270.114	17523.61
270.183	17533.49
270.253	17563.18
270.322	17507.32
270.391	17535.9
270.46	17601.78
270.529	17653.68
270.598	17693.73
270.667	17696.96
270.736	17665.92
270.806	17719.41
270.875	17784.76
270.944	17792.72
271.013	17925.68
271.082	17945.39
271.151	17986.78
271.22	17940.13
271.289	17958.64
271.358	17971.7
271.427	18009.53
271.496	18040.81
271.565	18030.4
271.634	18045.53
271.703	18087.41
271.772	18155.79
271.841	18175.45
271.91	18143.02
271.979	18159.94
272.048	18129.34
272.117	18179.94
272.186	18184.71
272.255	18234.29
272.324	18275.55
272.393	18321.13
272.462	18311.74
272.531	18333.13
272.6	18354.29
272.669	18435.54
272.738	18441.52
272.807	18469.42
272.876	18456.94
272.945	18601.6
273.013	18669.55
273.082	18740.92
273.151	18736.15
273.22	18773.11
273.289	18800.24
273.358	18886.17
273.427	18896.05
273.496	18950.36
273.564	18990.11
273.633	19041.82
273.702	19022.35
273.771	19037.34
273.84	19076.95
273.909	19123.65
273.977	19166.63
274.046	19171.64
274.115	19229.38
274.184	19225.76
274.253	19240.75
274.322	19328.98
274.39	19262.77
274.459	19252.17
274.528	19200.17
274.597	19211.59
274.665	19237.04
274.734	19301.61
274.803	19310.91
274.872	19337.61
274.94	19328.45
275.009	19475.75
275.078	19476.71
275.147	19513.77
275.215	19543.6
275.284	19607.7
275.353	19612.42
275.421	19580.42
275.49	19684.76
275.559	19692.81
275.627	19724.13
275.696	19753.48
275.765	19791.69
275.833	19814.29
275.902	19856.8
275.971	19945.08
276.039	20042.48
276.108	20104.84
276.177	20146.14
276.245	20150.19
276.314	20181.03
276.383	20249.8
276.451	20150.16
276.52	20198.64
276.588	20285.68
276.657	20345.1
276.725	20357.3
276.794	20400.28
276.863	20479.27
276.931	20442.11
277	20510.55
277.068	20596.33
277.137	20692.53
277.205	20722.12
277.274	20829.78
277.342	20911.62
277.411	20894.71
277.48	20914.9
277.548	20921.36
277.617	20962.33
277.685	20991.53
277.754	21046.14
277.822	21071.63
277.89	21170.4
277.959	21192.13
278.027	21173.29
278.096	21178.78
278.164	21306.43
278.233	21324.26
278.301	21333.37
278.37	21402.15
278.438	21388.27
278.507	21433.91
278.575	21393.52
278.643	21431.79
278.712	21404.9
278.78	21393.91
278.849	21472.32
278.917	21532.14
278.985	21560
279.054	21613.22
279.122	21703.36
279.191	21741
279.259	21767.94
279.327	21738.2
279.396	21841.69
279.464	21876.74
279.532	21943.6
279.601	21961.1
279.669	21995.32
279.737	22094.77
279.806	22128.9
279.874	22217.27
279.942	22237.99
280.011	22271.01
280.079	22329.01
280.147	22441.91
280.215	22514.22
280.284	22539.05
280.352	22539.34
280.42	22612.38
280.488	22622.89
280.557	22630.94
280.625	22684.21
280.693	22722.34
280.761	22776.97
280.83	22761.01
280.898	22842
280.966	22825.37
281.034	22769.19
281.102	22768.66
281.171	22779.85
281.239	22866.03
281.307	22877.02
281.375	22903.11
281.443	23032.43
281.512	23067.34
281.58	23117.98
281.648	23102.17
281.716	23150.57
281.784	23189.68
281.852	23214.13
281.92	23258.39
281.989	23343.85
282.057	23333.53
282.125	23549.43
282.193	23581.12
282.261	23630.16
282.329	23653.07
282.397	23704.66
282.465	23761.94
282.533	23855.96
282.601	23868.41
282.67	23827.12
282.738	23846.02
282.806	23927.33
282.874	23925.59
282.942	23982.52
283.01	24008.18
283.078	24071.12
283.146	24098.75
283.214	24188.52
283.282	24233.43
283.35	24320.13
283.418	24343.77
283.486	24407.24
283.554	24289.42
283.622	24337.32
283.69	24374.13
283.758	24410.06
283.826	24471.61
283.894	24559.08
283.962	24671.66
284.03	24760.42
284.098	24813.92
284.165	24840.73
284.233	24881.74
284.301	24911.37
284.369	24923.43
284.437	24945.92
284.505	24981.18
284.573	25082.65
284.641	25081.2
284.709	25160.07
284.777	25142.79
284.845	25214.66
284.912	25285.69
284.98	25363.04
285.048	25393.3
285.116	25460.28
285.184	25549.04
285.252	25598.79
285.319	25579.1
285.387	25597.11
285.455	25594.32
285.523	25667.43
285.591	25711.87
285.659	25752.8
285.726	25842.25
285.794	25849.58
285.862	25876.66
285.93	25913.1
285.997	25936.75
286.065	25965.81
286.133	25974.21
286.201	26014.37
286.269	26009.54
286.336	26013.3
286.404	26022.19
286.472	26099.1
286.539	26074.78
286.607	26054.6
286.675	26104.57
286.743	26183.69
286.81	26204.7
286.878	26302.85
286.946	26312.32
287.013	26362.28
287.081	26415.35
287.149	26395.89
287.216	26503.85
287.284	26541.61
287.352	26598.39
287.419	26636.97
287.487	26739.07
287.555	26788.24
287.622	26827.35
287.69	26894.78
287.758	26988.33
287.825	27022.91
287.893	27019.91
287.96	27083.78
288.028	27176.18
288.096	27228.25
288.163	27284.82
288.231	27289.27
288.298	27320.63
288.366	27422.61
288.433	27454.97
288.501	27469.46
288.569	27541.29
288.636	27556.89
288.704	27660.01
288.771	27727.12
288.839	27744.85
288.906	27754.71
288.974	27842.4
289.041	27870.56
289.109	27874.04
289.176	27944.08
289.244	28001.86
289.311	28089.29
289.379	28181.52
289.446	28241.66
289.514	28270.47
289.581	28318.71
289.649	28379.79
289.716	28433.01
289.783	28451.82
289.851	28571.77
289.918	28610.38
289.986	28681.02
290.053	28743.33
290.121	28769.97
290.188	28828.09
290.255	28970.49
290.323	29007.42
290.39	29028.9
290.458	29105.31
290.525	29207.91
290.592	29235.29
290.66	29295.53
290.727	29325.08
290.794	29411.66
290.862	29450.26
290.929	29513.66
290.996	29560.14
291.064	29637.9
291.131	29722.76
291.198	29814.29
291.266	29846.46
291.333	29912.9
291.4	29976.38
291.468	30090.97
291.535	30129.39
291.602	30186.29
291.669	30204.92
291.737	30267.08
291.804	30313.24
291.871	30417.75
291.938	30481.25
292.006	30617.74
292.073	30700.05
292.14	30782.56
292.207	30800.37
292.275	30848.81
292.342	30920.25
292.409	31044.87
292.476	31171.59
292.543	31186.84
292.611	31225.57
292.678	31343.03
292.745	31472.19
292.812	31550.64
292.879	31569.24
292.946	31626.51
293.014	31715.71
293.081	31786.26
293.148	31869.63
293.215	31973.57
293.282	31998.26
293.349	32075.57
293.416	32039.72
293.484	32128.94
293.551	32214.68
293.618	32315.08
293.685	32441.91
293.752	32476.3
293.819	32509.74
293.886	32505.28
293.953	32566.84
294.02	32659.91
294.087	32711.33
294.154	32729.46
294.221	32827.52
294.288	32879.75
294.356	32988.86
294.423	33049.54
294.49	33078.61
294.557	33167.59
294.624	33180.19
294.691	33294.26
294.758	33344.72
294.825	33437.04
294.892	33466.9
294.959	33512.66
295.026	33587.27
295.093	33621.02
295.16	33682.56
295.226	33726.38
295.293	33867.29
295.36	33946.98
295.427	34028.26
295.494	34116.33
295.561	34198.07
295.628	34318.45
295.695	34414.7
295.762	34466.98
295.829	34552.93
295.896	34665.33
295.963	34766.22
296.03	34854.18
296.096	34930.82
296.163	35010.85
296.23	35115.49
296.297	35213.99
296.364	35260.7
296.431	35330.31
296.498	35367.81
296.564	35508.62
296.631	35585.7
296.698	35588.17
296.765	35711.21
296.832	35722.81
296.899	35733.58
296.965	35839.06
297.032	35814.4
297.099	35937.39
297.166	36028.77
297.233	36063.61
297.299	36091.51
297.366	36129.76
297.433	36187.35
297.5	36273.22
297.566	36353.65
297.633	36398.65
297.7	36459.65
297.767	36512.44
297.833	36588.36
297.9	36651.3
297.967	36642.27
298.033	36743.34
298.1	36902.54
298.167	36932.55
298.234	37007.1
298.3	37095.49
298.367	37141.61
298.434	37216.14
298.5	37225.66
298.567	37251.14
298.634	37306.2
298.7	37419.41
298.767	37491.42
298.834	37592.26
298.9	37612.36
298.967	37623.58
299.033	37709.68
299.1	37808.22
299.167	37911.87
299.233	37946.3
299.3	38042.34
299.366	38149.93
299.433	38233.09
299.5	38189.23
299.566	38240.76
299.633	38353.68
299.699	38431.92
299.766	38450.81
299.832	38512.16
299.899	38586.13
299.965	38674.28
300.032	38710.75
300.099	38773.22
300.165	38837.54
300.232	38883.59
300.298	38945.76
300.365	39044.56
300.431	39089.3
300.498	39111.94
300.564	39178.05
300.631	39261.81
300.697	39379.87
300.763	39434.18
300.83	39471.21
300.896	39558.99
300.963	39645.57
301.029	39696.54
301.096	39768.55
301.162	39880.53
301.229	39918.23
301.295	39931.74
301.361	40000.79
301.428	40081.28
301.494	40072.15
301.561	40129.2
301.627	40180.27
301.693	40243
301.76	40308.6
301.826	40344.66
301.892	40430.53
301.959	40512.56
302.025	40552.75
302.092	40553.24
302.158	40616.9
302.224	40678.92
302.291	40695.97
302.357	40720.08
302.423	40757.74
302.49	40761.05
302.556	40842.47
302.622	40887.71
302.688	40990.31
302.755	41089.48
302.821	41152.61
302.887	41246.79
302.954	41292.15
303.02	41369.29
303.086	41429.56
303.152	41465.92
303.219	41487.79
303.285	41556.29
303.351	41614
303.417	41664.22
303.483	41680.06
303.55	41709.71
303.616	41749.82
303.682	41801.39
303.748	41842.9
303.815	41925.12
303.881	42017.83
303.947	42019.97
304.013	42081.66
304.079	42099.5
304.145	42066.68
304.212	42100.52
304.278	42113.5
304.344	42147.09
304.41	42144.08
304.476	42161.82
304.542	42177.96
304.608	42254.97
304.674	42232.9
304.741	42278.32
304.807	42322.91
304.873	42398.12
304.939	42499.8
305.005	42481.28
305.071	42523.38
305.137	42567.04
305.203	42538.05
305.269	42571.42
305.335	42651.42
305.401	42692.36
305.467	42723.97
305.533	42799.2
305.599	42863.15
305.666	42942.84
305.732	42976.45
305.798	43069.38
305.864	43204.47
305.93	43283.69
305.996	43328.29
306.062	43385.13
306.128	43404.54
306.194	43419.28
306.259	43462.28
306.325	43465.54
306.391	43558.09
306.457	43633.03
306.523	43696.94
306.589	43825.17
306.655	43846.43
306.721	43823.67
306.787	43822.06
306.853	43922.03
306.919	43909.58
306.985	43928.16
307.051	43944.02
307.117	43966.49
307.183	43985.37
307.248	43925.67
307.314	43967.31
307.38	44020
307.446	44078.82
307.512	44079.36
307.578	44137.44
307.644	44158.94
307.709	44199.47
307.775	44218.79
307.841	44237.13
307.907	44283.11
307.973	44252.16
308.039	44287.53
308.104	44359.29
308.17	44412.22
308.236	44397.52
308.302	44443.05
308.368	44447.87
308.433	44483.43
308.499	44519.04
308.565	44523.86
308.631	44570.28
308.696	44542.78
308.762	44541.76
308.828	44580.21
308.894	44570
308.959	44547.52
309.025	44560.7
309.091	44588.64
309.156	44603.09
309.222	44668.01
309.288	44659.35
309.354	44626.95
309.419	44663.5
309.485	44648.02
309.551	44708.13
309.616	44698.69
309.682	44738.35
309.748	44769.24
309.813	44800.83
309.879	44799.42
309.945	44813.19
310.01	44830.61
310.076	44876.4
310.141	44903.26
310.207	44889.63
310.273	44940.87
310.338	44993.52
310.404	44978.48
310.469	44984.66
310.535	44987.44
310.601	44943.15
310.666	45003.02
310.732	45082.63
310.797	45078.64
310.863	45092.99
310.928	45089
310.994	45134.36
311.059	45165.76
311.125	45186.49
311.191	45270.43
311.256	45288.54
311.322	45333.7
311.387	45314.43
311.453	46140.55
311.518	46152.28
311.584	46192.73
311.649	46248.86
311.715	46251.73
311.78	46299.08
311.846	46297.72
311.911	46368.51
311.976	46405.2
312.042	46368.59
312.107	46345.33
312.173	46352.19
312.238	46379.06
312.304	46410.61
312.369	46420.88
312.434	46411.73
312.5	46427.01
312.565	46346.03
312.631	46401.04
312.696	46403.62
312.761	46445.09
312.827	45658.16
312.892	45765.81
312.958	45798.88
313.023	45819.68
313.088	45848.64
313.154	45839.49
313.219	45843.48
313.284	45841.34
313.35	45880.87
313.415	45902.88
313.48	45934.27
313.546	45985.93
313.611	46038.28
313.676	46033.8
313.741	46040.81
313.807	46101.68
313.872	46158.55
313.937	46208.06
314.003	46266.32
314.068	46304.06
314.133	46356.7
314.198	46359.04
314.264	46311.18
314.329	46301.88
314.394	46318.3
314.459	46352.82
314.525	46449.48
314.59	46475.87
314.655	46464.71
314.72	46509.97
314.785	46551.31
314.851	46562.26
314.916	46547.75
314.981	46522.72
315.046	46533.63
315.111	46535.28
315.176	46520.96
315.242	46541.47
315.307	46574.35
315.372	46528.9
315.437	46539.96
315.502	46541.56
315.567	46615.51
315.632	46597.63
315.698	46626.03
315.763	46640.55
315.828	46634.32
315.893	46646.79
315.958	46665.44
316.023	46655.07
316.088	46613.13
316.153	46556.36
316.218	46551.88
316.283	46485.91
316.348	46461.33
316.413	46468.05
316.479	46429.3
316.544	46325.81
316.609	46237.04
316.674	46112.9
316.739	46002.03
316.804	45876.43
316.869	45738.29
316.934	45591.62
316.999	45473.93
317.064	45266.93
317.129	45095.39
317.194	44941.08
317.259	44745.93
317.324	44535.6
317.389	44372.32
317.454	44197.48
317.518	44052.66
317.583	43929.46
317.648	43827.93
317.713	43651.45
317.778	43402.9
317.843	43258.82
317.908	43091.74
317.973	42914.07
318.038	42757.1
318.103	42591.11
318.168	42436.09
318.233	42285.9
318.297	42063.27
318.362	41880.95
318.427	41702.53
318.492	41571.5
318.557	41351.62
318.622	41198.01
318.687	41068.44
318.751	40863.62
318.816	40694.24
318.881	40510.98
318.946	40264.34
319.011	40035.31
319.075	39829.79
319.14	39641.35
319.205	39413.97
319.27	39230.44
319.335	39006.8
319.399	38810.21
319.464	38630.99
319.529	38377.39
319.594	38156.89
319.658	37978.92
319.723	37756.23
319.788	37566.17
319.853	37272.6
319.917	37091.61
319.982	36830.7
320.047	36601.69
320.112	36430.17
320.176	36155.58
320.241	35931.58
320.306	35723.84
320.37	35498.62
320.435	35305.62
320.5	35098.97
320.564	34871.34
320.629	34615.6
320.694	34407.27
320.758	34176.1
320.823	33927.86
320.888	33736.58
320.952	33481.96
321.017	33234.42
321.082	33002.59
321.146	32787.69
321.211	32585.56
321.275	32347.87
321.34	32084.81
321.405	31835.79
321.469	31570.11
321.534	31328.38
321.598	31064.37
321.663	30857.31
321.727	30637.7
321.792	30364.41
321.857	30122.69
321.921	29887.75
321.986	29654.08
322.05	29366.82
322.115	29122.04
322.179	28866.87
322.244	28570.6
322.308	28345.54
322.373	28083.41
322.437	27839.02
322.502	27656.95
322.566	27393.77
322.631	27163.06
322.695	26929.48
322.76	26683.68
322.824	26454.35
322.889	26208.99
322.953	25947.77
323.018	25605.07
323.082	25280.13
323.146	24988.7
323.211	24699.56
323.275	24433.84
323.34	24166.08
323.404	23928.39
323.468	23654.69
323.533	23398.18
323.597	23116.03
323.662	22825.58
323.726	22593.07
323.79	22311.1
323.855	21958.81
323.919	21678.82
323.983	21408.7
324.048	21005.89
324.112	21166.47
324.177	20332.95
324.241	19227.03
324.305	18143.19
324.37	17083.85
324.434	16045.1
324.498	15764.43
324.562	15443.78
324.627	15078.11
324.691	14718.3
324.755	14306.81
324.82	13849.57
324.884	13358.3
324.948	12888.38
325.012	12296.2
325.077	11550.9
