Data from 20250701_urea_2M_exp3_MAYP1162681_05-19-48-977.txt Node
Date: Wed Jul 02 05:19:48 BST 2025
User: adleo
Spectrometer: MAYP116268
Trigger mode: 0
Integration Time (sec): 4.000000E0
Scans to average: 1
Electric dark correction enabled: true
Nonlinearity correction enabled: true
Boxcar width: 10
XAxis mode: Wavelengths
Number of Pixels in Spectrum: 2068
>>>>>Begin Spectral Data<<<<<
179.565	3588.5
179.642	3773.58
179.718	3919.65
179.795	4046.23
179.871	4155.92
179.948	4217.81
180.024	4285.27
180.101	4365.25
180.177	4416.57
180.254	4488.93
180.33	4566.16
180.407	4825.92
180.483	5101.45
180.56	5381.1
180.636	5639.2
180.712	5603.3
180.789	5636.64
180.865	5677.75
180.942	5706.47
181.018	5745.5
181.095	5788.26
181.171	5802.99
181.248	5802.41
181.324	5852.22
181.4	5875.78
181.477	5906.29
181.553	5947.19
181.63	6022.33
181.706	6073.35
181.782	6100.49
181.859	6103.61
181.935	6119.49
182.011	6108.02
182.088	6163.5
182.164	6231.35
182.24	6282.63
182.317	6309.6
182.393	6305.38
182.469	6352.46
182.546	6395.47
182.622	6407.42
182.698	6395.85
182.775	6437.94
182.851	6489.21
182.927	6470.05
183.003	6460.07
183.08	6448.41
183.156	6479.94
183.232	6463.33
183.308	6426.79
183.385	6450.21
183.461	6501.58
183.537	6504.89
183.613	6545.71
183.69	6522.08
183.766	6482.16
183.842	6500.55
183.918	6516.69
183.995	6557.4
184.071	6565.23
184.147	6549.72
184.223	6512.58
184.299	6550.67
184.375	6513.8
184.452	6535.24
184.528	6650.8
184.604	6684.55
184.68	6723.87
184.756	6747.31
184.832	6760.52
184.908	6776.4
184.985	6774.53
185.061	6728.34
185.137	6755
185.213	6716.16
185.289	6718.75
185.365	6702.76
185.441	6694.31
185.517	6744.62
185.593	6729.35
185.669	6726.08
185.745	6756.63
185.822	6817.2
185.898	6791.59
185.974	6824.38
186.05	6800.98
186.126	6731.96
186.202	6711.5
186.278	6702.91
186.354	6670.58
186.43	6693.79
186.506	6685.15
186.582	6684.72
186.658	6707.9
186.734	6643.62
186.81	6651.97
186.886	6661.29
186.962	6699.99
187.038	6688.99
187.114	6655.87
187.19	6684.7
187.266	6651.91
187.341	6658.25
187.417	6632.65
187.493	6633.42
187.569	6645.05
187.645	6623.63
187.721	6585.34
187.797	6606.23
187.873	6618.62
187.949	6603.5
188.025	6582.26
188.101	6598.29
188.176	6614.96
188.252	6602.09
188.328	6629.72
188.404	6628.96
188.48	6611.87
188.556	6587.81
188.632	6591.6
188.707	6598.85
188.783	6585.31
188.859	6565.4
188.935	6524.62
189.011	6548.72
189.086	6528.94
189.162	6499.31
189.238	6487.32
189.314	6481.89
189.39	6461.1
189.465	6434.21
189.541	6486.84
189.617	6441.43
189.693	6421.27
189.768	6433.28
189.844	6509.1
189.92	6483.28
189.996	6516.13
190.071	6551.09
190.147	6549.12
190.223	6582.12
190.298	6556.61
190.374	6520.55
190.45	6563.7
190.526	6594.29
190.601	6574.46
190.677	6576.18
190.753	6670.24
190.828	6684.88
190.904	6733.88
190.98	6792.48
191.055	6829.27
191.131	6803.62
191.207	6870.32
191.282	6899.27
191.358	6869.4
191.433	6821.43
191.509	6864.91
191.585	6853.48
191.66	6857.13
191.736	6882.87
191.811	6849.2
191.887	6901.48
191.963	6975.36
192.038	6992.08
192.114	6990.35
192.189	7002.64
192.265	6993.67
192.34	6916.75
192.416	6914.11
192.491	6897.72
192.567	6901.42
192.642	6906.13
192.718	6902.53
192.793	6860.11
192.869	6850.27
192.944	6856.08
193.02	6881.79
193.095	6895.91
193.171	6912.24
193.246	6908.21
193.322	6897.25
193.397	6898.55
193.473	6852.03
193.548	6793.07
193.624	6815.09
193.699	6806.01
193.775	6862.29
193.85	6866.65
193.925	6894.42
194.001	6895.96
194.076	6871.13
194.152	6835.56
194.227	6809.95
194.302	6779.33
194.378	6793.93
194.453	6785.96
194.529	6833.18
194.604	6784.28
194.679	6762.38
194.755	6702.8
194.83	6748.66
194.905	6741.65
194.981	6766.96
195.056	6744.97
195.131	6763.37
195.207	6756.54
195.282	6732.24
195.357	6666.89
195.433	6716.36
195.508	6681.1
195.583	6700.35
195.659	6748.3
195.734	6769.49
195.809	6767.09
195.884	6796.03
195.96	6795.55
196.035	6844.12
196.11	6818.02
196.185	6859.47
196.261	6875.85
196.336	6975.28
196.411	6927.26
196.486	6944.36
196.561	6925.92
196.637	6948.63
196.712	7002.46
196.787	7008.04
196.862	7060.83
196.937	7097.14
197.013	7115.03
197.088	7143.65
197.163	7215.14
197.238	7267.29
197.313	7267.29
197.388	7314.77
197.464	7414.82
197.539	7453.12
197.614	7428.91
197.689	7476.2
197.764	7533.43
197.839	7595.21
197.914	7575.25
197.989	7645.06
198.065	7690.78
198.14	7854.6
198.215	7949.81
198.29	7988.83
198.365	8035.92
198.44	8067.41
198.515	8155.25
198.59	8206.63
198.665	8293.64
198.74	8319.73
198.815	8328.15
198.89	8400.68
198.965	8499.11
199.04	8486.84
199.115	8538.55
199.19	8679.41
199.265	8688.75
199.34	8715.55
199.415	8828.51
199.49	8901.59
199.565	8932.83
199.64	9014.07
199.715	9004.49
199.79	9021.14
199.865	9041.99
199.94	9032.56
200.015	9133.9
200.09	9151.96
200.165	9173.62
200.24	9193.6
200.315	9321.93
200.39	9369.79
200.464	9393.33
200.539	9396.51
200.614	9450.96
200.689	9527.24
200.764	9547.76
200.839	9603.64
200.914	9620.29
200.989	9580.94
201.063	9626.83
201.138	9570.73
201.213	9565.96
201.288	9503.75
201.363	9525.32
201.438	9522.58
201.512	9575.47
201.587	9520.76
201.662	9535.6
201.737	9570.85
201.812	9602.54
201.886	9503.43
201.961	9534.41
202.036	9496.57
202.111	9481.31
202.186	9383.81
202.26	9325.34
202.335	9254.5
202.41	9237.7
202.485	9181.34
202.559	9113.51
202.634	9025.32
202.709	9059.91
202.784	8994.01
202.858	8993.58
202.933	8926.57
203.008	8908.28
203.082	8847.88
203.157	8846.19
203.232	8701.49
203.306	8629.8
203.381	8522.12
203.456	8440.84
203.53	8363.01
203.605	8290.31
203.68	8218.3
203.754	8197.44
203.829	8149.32
203.904	8083.66
203.978	8040.69
204.053	8053.34
204.127	8015.21
204.202	8010.44
204.277	7944.03
204.351	7925.27
204.426	7907.03
204.5	7879.04
204.575	7760.35
204.65	7788.6
204.724	7762.22
204.799	7787.21
204.873	7775.61
204.948	7772
205.022	7733.45
205.097	7702.66
205.171	7757.94
205.246	7780.36
205.32	7777.77
205.395	7777.58
205.469	7745.86
205.544	7766.02
205.618	7707.59
205.693	7743.47
205.767	7699.05
205.842	7777.11
205.916	7758.74
205.991	7717.87
206.065	7738.35
206.14	7785.37
206.214	7771.8
206.289	7746.26
206.363	7786.51
206.438	7798.44
206.512	7817.68
206.586	7882.44
206.661	7914.1
206.735	7843.16
206.81	7846.24
206.884	7889.17
206.958	7847.39
207.033	7904.92
207.107	7928.84
207.181	8034.35
207.256	8009.48
207.33	8077.38
207.405	8113.98
207.479	8173.57
207.553	8198.91
207.628	8141.52
207.702	8187.01
207.776	8163.34
207.851	8172.86
207.925	8222.24
207.999	8213.92
208.073	8209.16
208.148	8209.11
208.222	8166.57
208.296	8267.3
208.371	8318.38
208.445	8357.94
208.519	8451.98
208.593	8489.17
208.668	8472.08
208.742	8478.05
208.816	8494.55
208.89	8536.67
208.965	8532
209.039	8558.09
209.113	8620.6
209.187	8695.46
209.261	8679.01
209.336	8744.79
209.41	8818.1
209.484	8818.78
209.558	8890.12
209.632	8932.8
209.707	8975.88
209.781	9046.92
209.855	9103.98
209.929	9160.58
210.003	9180.85
210.077	9177.82
210.151	9336.89
210.226	9450.84
210.3	9542.14
210.374	9612.17
210.448	9621.76
210.522	9651.86
210.596	9690.87
210.67	9712.68
210.744	9868.6
210.818	9977.39
210.892	10043.87
210.966	10016.8
211.041	10070.75
211.115	10055.82
211.189	10132.44
211.263	10181.18
211.337	10205.56
211.411	10247.47
211.485	10230.56
211.559	10270.63
211.633	10277.18
211.707	10170.97
211.781	10198.39
211.855	10078.16
211.929	10052.35
212.003	9990.97
212.077	10025.27
212.151	10060.83
212.225	10090.5
212.299	10044.14
212.373	10002
212.447	9988.6
212.52	10088.8
212.594	10097.09
212.668	10133.5
212.742	10084.32
212.816	10065.34
212.89	10042.32
212.964	10029.79
213.038	10033.84
213.112	10067.18
213.186	10114.13
213.26	10037.83
213.333	9883.03
213.407	9896.32
213.481	9898.87
213.555	9934.73
213.629	9879.86
213.703	9816.32
213.777	9808.61
213.85	9742.33
213.924	9841.96
213.998	9833.1
214.072	9794.36
214.146	9736.7
214.219	9718.88
214.293	9697.98
214.367	9695.67
214.441	9717.58
214.515	9666.86
214.588	9578.25
214.662	9455.07
214.736	9373.6
214.81	9388.42
214.883	9401.89
214.957	9354.77
215.031	9299.82
215.105	9208.9
215.178	9150.36
215.252	9112.28
215.326	9008.64
215.4	8925.88
215.473	8749.74
215.547	8664.8
215.621	8596.65
215.694	8590.11
215.768	8490.86
215.842	8424.76
215.915	8352.93
215.989	8240.83
216.063	8183.21
216.136	8158.34
216.21	8122.32
216.284	8128.04
216.357	8106.06
216.431	8062.91
216.504	8059.25
216.578	8113.05
216.652	8119.63
216.725	8095.39
216.799	8101.69
216.873	8087.79
216.946	8098.8
217.02	8062.23
217.093	8023.46
217.167	7931.88
217.24	7847.88
217.314	7814.19
217.387	7766.57
217.461	7715.69
217.535	7738.63
217.608	7671.42
217.682	7648.96
217.755	7670.64
217.829	7616.29
217.902	7594.56
217.976	7578.93
218.049	7528.21
218.123	7454.94
218.196	7454.07
218.27	7420.47
218.343	7344.19
218.417	7334.04
218.49	7302.65
218.563	7344.23
218.637	7354.91
218.71	7421.31
218.784	7450.3
218.857	7482.03
218.931	7505.66
219.004	7521.24
219.077	7535.81
219.151	7557.48
219.224	7545.8
219.298	7541.62
219.371	7582.64
219.444	7542.76
219.518	7549.58
219.591	7570.2
219.665	7666.49
219.738	7683.17
219.811	7666.45
219.885	7717.17
219.958	7753.63
220.031	7760.11
220.105	7784.41
220.178	7790.99
220.251	7768.34
220.325	7795.18
220.398	7811.92
220.471	7833.93
220.544	7864.71
220.618	7844.84
220.691	7876.96
220.764	7896.15
220.838	7918.42
220.911	7902.64
220.984	7987.55
221.057	8026.5
221.131	8047.09
221.204	7955.27
221.277	8022.58
221.35	8144.86
221.424	8138.8
221.497	8148.57
221.57	8169.29
221.643	8194.84
221.716	8240.26
221.79	8241.18
221.863	8248.2
221.936	8251.57
222.009	8266.19
222.082	8296.22
222.155	8299.25
222.229	8362.83
222.302	8389.72
222.375	8401.41
222.448	8440.96
222.521	8447.12
222.594	8447.65
222.667	8424.52
222.74	8478.78
222.814	8467.95
222.887	8452.06
222.96	8506.4
223.033	8547.65
223.106	8577.86
223.179	8612.52
223.252	8625.23
223.325	8660.98
223.398	8677.93
223.471	8711.85
223.544	8734.99
223.617	8744.86
223.69	8772.72
223.763	8733.67
223.837	8755
223.91	8780.12
223.983	8726.86
224.056	8697.22
224.129	8716.23
224.202	8772.08
224.275	8760.43
224.348	8735.36
224.42	8697.62
224.493	8632.03
224.566	8606.28
224.639	8629.38
224.712	8595.72
224.785	8582.19
224.858	8570.88
224.931	8549.13
225.004	8510.44
225.077	8507.07
225.15	8415.83
225.223	8414.04
225.296	8499.42
225.369	8451.21
225.442	8421.9
225.514	8451.72
225.587	8469.76
225.66	8471.83
225.733	8467.16
225.806	8483.38
225.879	8476.21
225.952	8451.44
226.025	8501.53
226.097	8555.65
226.17	8540.88
226.243	8477.13
226.316	8470.78
226.389	8477.56
226.461	8499.51
226.534	8524.96
226.607	8514.09
226.68	8610.01
226.753	8603.85
226.825	8514.77
226.898	8568.47
226.971	8569.48
227.044	8586.75
227.117	8592.38
227.189	8614.38
227.262	8650.82
227.335	8660.55
227.407	8661.65
227.48	8686.57
227.553	8698.22
227.626	8674.62
227.698	8687.91
227.771	8728.02
227.844	8703.91
227.916	8718.73
227.989	8681
228.062	8671.57
228.134	8764.19
228.207	8756.15
228.28	8752.26
228.352	8766.98
228.425	8772.62
228.498	8818.54
228.57	8794.53
228.643	8856.25
228.716	8854.95
228.788	8839.83
228.861	8835.94
228.934	8888.25
229.006	8901.1
229.079	8903.17
229.151	8889.3
229.224	8847.88
229.296	8872.95
229.369	8976.91
229.442	9019.43
229.514	9001.63
229.587	9041.96
229.659	8965.89
229.732	8982.5
229.804	9022.06
229.877	9101.67
229.949	9129.31
230.022	9178.1
230.094	9184.41
230.167	9166.73
230.239	9126.93
230.312	9121.29
230.384	9194.26
230.457	9192.38
230.529	9200.51
230.602	9204.99
230.674	9215.1
230.747	9256.77
230.819	9293.36
230.892	9177.48
230.964	9182.92
231.037	9217.42
231.109	9217.08
231.181	9258.38
231.254	9220.26
231.326	9207.21
231.399	9180.33
231.471	9155.14
231.544	9077.66
231.616	9115.68
231.688	9126.9
231.761	9111.36
231.833	9096.05
231.905	9011.87
231.978	9009.03
232.05	8995.7
232.122	8991.8
232.195	8965.32
232.267	9002.35
232.339	8975.67
232.412	9049.79
232.484	9021.52
232.556	8991.69
232.629	9056.28
232.701	9065.91
232.773	9076.5
232.846	9065.91
232.918	9075.88
232.99	9095.19
233.062	9138.09
233.135	9157.35
233.207	9118.3
233.279	9160.02
233.351	9190.35
233.424	9191.79
233.496	9171.09
233.568	9253.48
233.64	9224.36
233.713	9245.68
233.785	9245.01
233.857	9256.66
233.929	9200.77
234.001	9268.84
234.074	9333.23
234.146	9261.42
234.218	9258.34
234.29	9255.84
234.362	9241.35
234.434	9194.4
234.507	9150.97
234.579	9097.87
234.651	9074.9
234.723	9112.36
234.795	9135.42
234.867	9130.94
234.939	9190.17
235.012	9209.86
235.084	9213.66
235.156	9246.25
235.228	9228.39
235.3	9207.11
235.372	9219.05
235.444	9274.27
235.516	9193.2
235.588	9198.55
235.66	9210.15
235.732	9190.27
235.804	9388.62
235.876	9436.57
235.948	9497.83
236.02	9522.72
236.092	9537.98
236.164	9548.18
236.236	9541.97
236.308	9546.21
236.38	9578.52
236.452	9556.46
236.524	9577.89
236.596	9642.03
236.668	9675.74
236.74	9701.35
236.812	9728.99
236.884	9761.75
236.956	9770.13
237.028	9764.25
237.1	9748.56
237.172	9816.86
237.244	9888.58
237.316	9769.77
237.388	9751.28
237.46	9727.25
237.532	9780.51
237.604	9773.25
237.675	9850.61
237.747	9894.73
237.819	9882.5
237.891	9883.85
237.963	9874.51
238.035	9867.91
238.107	9756.95
238.178	9818.44
238.25	9822.19
238.322	9917.84
238.394	9874.92
238.466	9887.49
238.538	9932.85
238.609	9974.08
238.681	9925.47
238.753	9902.54
238.825	9921.28
238.897	9952.29
238.968	10037.34
239.04	10021.15
239.112	10138.05
239.184	10097.34
239.255	10093.24
239.327	10121.46
239.399	10145.89
239.471	10196.46
239.542	10232.54
239.614	10297.47
239.686	10214.56
239.758	10274.72
239.829	10236.36
239.901	10303.13
239.973	10311.51
240.044	10339.5
240.116	10352.65
240.188	10368.35
240.259	10389.26
240.331	10379.05
240.403	10414.89
240.474	10360.58
240.546	10349.5
240.618	10287.34
240.689	10290.28
240.761	10309.07
240.833	10377.49
240.904	10371.85
240.976	10371.81
241.048	10383.37
241.119	10417.68
241.191	10467.92
241.262	10530.57
241.334	10534.14
241.405	10533.18
241.477	10530.82
241.549	10550.48
241.62	10578.71
241.692	10619.09
241.763	10677.88
241.835	10699.85
241.906	10715.03
241.978	10694.31
242.049	10766
242.121	10827.05
242.192	10889.74
242.264	10859.43
242.335	10810.62
242.407	10857.55
242.478	10859.53
242.55	10885.55
242.621	10872.49
242.693	10867.04
242.764	10850.13
242.836	10852.54
242.907	10885.6
242.979	10922.89
243.05	10933.44
243.122	10958.4
243.193	10960
243.264	10881.88
243.336	10886.27
243.407	10929.06
243.479	11007.08
243.55	11019.66
243.622	11028.81
243.693	11033.68
243.764	11096.04
243.836	11069.16
243.907	11058.02
243.978	11063.61
244.05	11083.66
244.121	11037.5
244.192	11086.7
244.264	11043.28
244.335	11049.21
244.407	11001.21
244.478	11023.19
244.549	11017.6
244.62	10971.63
244.692	10969.65
244.763	11019.13
244.834	11010.94
244.906	10982.07
244.977	10999.23
245.048	11048.11
245.119	11031.39
245.191	11003.1
245.262	10941.71
245.333	11026.84
245.405	11043.57
245.476	11073.39
245.547	11090.79
245.618	11147.51
245.689	11155.75
245.761	11191.46
245.832	11204.76
245.903	11246.73
245.974	11278.26
246.045	11291.8
246.117	11374.88
246.188	11361.73
246.259	11344.77
246.33	11359.99
246.401	11370.02
246.473	11330.35
246.544	11315.46
246.615	11366.69
246.686	11371.17
246.757	11449.91
246.828	11425.82
246.899	11500.24
246.97	11462.03
247.042	11446.6
247.113	11487.04
247.184	11570.53
247.255	11564.55
247.326	11592.56
247.397	11603.88
247.468	11607.31
247.539	11619.5
247.61	11568.94
247.681	11614.34
247.752	11664.36
247.823	11641.33
247.894	11655.35
247.965	11629.52
248.037	11619.3
248.108	11567.3
248.179	11567.25
248.25	11556.84
248.321	11583.68
248.392	11537.02
248.463	11626.71
248.534	11635
248.605	11657.8
248.675	11637.75
248.746	11656.16
248.817	11671.63
248.888	11683.44
248.959	11624.01
249.03	11651.2
249.101	11671.78
249.172	11654.43
249.243	11585.66
249.314	11654.43
249.385	11663.16
249.456	11695.4
249.527	11691.01
249.598	11718.96
249.669	11727.2
249.739	11741.37
249.81	11759.35
249.881	11715.3
249.952	11708.65
250.023	11697.61
250.094	11645.7
250.165	11605.88
250.235	11598.56
250.306	11600.39
250.377	11568.14
250.448	11588.1
250.519	11529.73
250.59	11583.23
250.66	11582.8
250.731	11654.7
250.802	11652.44
250.873	11674.08
250.944	11697.89
251.014	11683.24
251.085	11765.95
251.156	11787.16
251.227	11836.91
251.297	11882.51
251.368	11935.19
251.439	11970.47
251.51	12030.43
251.58	12010.09
251.651	12007.88
251.722	12071.51
251.792	12020.37
251.863	12033.96
251.934	12107.08
252.005	12219.53
252.075	12226.33
252.146	12278.09
252.217	12326.73
252.287	12364.62
252.358	12368.04
252.429	12436.88
252.499	12441.98
252.57	12451.87
252.641	12504.74
252.711	12509.37
252.782	12464.74
252.852	12544.03
252.923	12551.26
252.994	12559.99
253.064	12608.67
253.135	12595.66
253.205	12568.52
253.276	12642.41
253.347	12705.22
253.417	12678.32
253.488	12648.96
253.558	12636.38
253.629	12633.63
253.699	12650.5
253.77	12682.9
253.841	12680.2
253.911	12690.51
253.982	12704.49
254.052	12734.53
254.123	12736.65
254.193	12741.03
254.264	12877.31
254.334	12839.9
254.405	12801.77
254.475	12766.05
254.546	12775.93
254.616	12837.63
254.687	12863.23
254.757	12882.71
254.827	12874.51
254.898	12899.14
254.968	12910.57
255.039	12887.24
255.109	12919.05
255.18	12887.72
255.25	12808.71
255.321	12834.93
255.391	12796.13
255.461	12876.1
255.532	12797.91
255.602	12795.89
255.673	12742.09
255.743	12706.37
255.813	12632.48
255.884	12680.58
255.954	12726.81
256.024	12788.28
256.095	12790.54
256.165	12763.11
256.235	12787.46
256.306	12778.44
256.376	12817.15
256.446	12855.67
256.517	12891.15
256.587	12935.5
256.657	12951.89
256.728	12980.37
256.798	13000.48
256.868	12999.13
256.938	12969.34
257.009	13012.05
257.079	13039.96
257.149	13138.01
257.219	13075.87
257.29	13116.65
257.36	13058.7
257.43	13091.97
257.5	13028.96
257.571	13022.45
257.641	13050.99
257.711	13017.34
257.781	13047.37
257.852	13070.37
257.922	13010.59
257.992	13016.86
258.062	13015.99
258.132	13055.91
258.202	13053.5
258.273	13058.03
258.343	13121.37
258.413	13114.82
258.483	13121.85
258.553	13095.29
258.623	13075.87
258.693	13102.72
258.764	13165.38
258.834	13233.59
258.904	13246.42
258.974	13241.02
259.044	13241.36
259.114	13275.92
259.184	13303.2
259.254	13310.53
259.324	13254.61
259.394	13298.82
259.464	13380.33
259.535	13381.06
259.605	13375.18
259.675	13378.26
259.745	13410.27
259.815	13385.93
259.885	13379.61
259.955	13488.6
260.025	13480.26
260.095	13484.84
260.165	13520.85
260.235	13584.38
260.305	13572.19
260.375	13541.82
260.445	13627.58
260.515	13697.19
260.585	13738.84
260.655	13748.77
260.725	13791.43
260.795	13835.44
260.865	13901.15
260.934	13862.58
261.004	13886.06
261.074	13895.56
261.144	13948.58
261.214	13987.19
261.284	14002.52
261.354	14047.6
261.424	14002.82
261.494	14075.03
261.564	14079.71
261.634	14102.46
261.703	14038.44
261.773	14064.76
261.843	14099.81
261.913	14094.27
261.983	14034.01
262.053	14055.07
262.123	14052.95
262.192	14012.31
262.262	14048.95
262.332	14010.82
262.402	14044.9
262.472	14058.88
262.541	14001.37
262.611	14047.12
262.681	14023.55
262.751	14054.83
262.821	14060.13
262.89	14031.16
262.96	14052.71
263.03	14129.07
263.1	14148.88
263.169	14169.95
263.239	14206.24
263.309	14265.44
263.379	14293.35
263.448	14322.76
263.518	14347.58
263.588	14360.89
263.657	14432.13
263.727	14466.74
263.797	14481.83
263.867	14485.83
263.936	14451.22
264.006	14517.8
264.076	14513.02
264.145	14511.38
264.215	14501.74
264.285	14535.2
264.354	14495.67
264.424	14478.94
264.494	14436.28
264.563	14420.61
264.633	14501.12
264.702	14513.02
264.772	14460.91
264.842	14458.5
264.911	14486.13
264.981	14443.37
265.05	14459.86
265.12	14454.89
265.19	14472.92
265.259	14516.25
265.329	14550.19
265.398	14578.29
265.468	14673.06
265.537	14671.08
265.607	14704.39
265.676	14751.2
265.746	14779.45
265.815	14836.38
265.885	14847.51
265.955	14829.53
266.024	14843.61
266.094	14777.96
266.163	14843.56
266.232	14917.02
266.302	14932.49
266.371	14959.34
266.441	14987.35
266.51	15031.07
266.58	15040.85
266.649	15020.95
266.719	15066.4
266.788	15090.07
266.858	15161.46
266.927	15087.32
266.996	15114.51
267.066	15144.54
267.135	15112.68
267.205	15162.71
267.274	15186.76
267.343	15243.3
267.413	15264.51
267.482	15322.98
267.552	15384.68
267.621	15343.37
267.69	15290.59
267.76	15318.17
267.829	15344.34
267.898	15358.17
267.968	15342.65
268.037	15380.92
268.106	15428.4
268.176	15394.9
268.245	15411
268.314	15397.75
268.384	15461.28
268.453	15481.18
268.522	15506.92
268.592	15570.74
268.661	15542.84
268.73	15571.27
268.799	15564.48
268.869	15648.59
268.938	15608.87
269.007	15600.29
269.076	15625.55
269.146	15688.11
269.215	15707.97
269.284	15775.59
269.353	15771.64
269.422	15785.86
269.492	15776.17
269.561	15696.06
269.63	15725.27
269.699	15707.05
269.768	15729.95
269.838	15750.19
269.907	15794.63
269.976	15762.14
270.045	15708.98
270.114	15751.54
270.183	15758.38
270.253	15794.05
270.322	15744.84
270.391	15768.7
270.46	15832.03
270.529	15873.91
270.598	15910.88
270.667	15926.55
270.736	15904.47
270.806	15939.75
270.875	15999.57
270.944	16024.1
271.013	16158.39
271.082	16190.44
271.151	16237.53
271.22	16205.86
271.289	16216.75
271.358	16221.86
271.427	16269.82
271.496	16301.87
271.565	16307.08
271.634	16329.15
271.703	16366.07
271.772	16424.34
271.841	16440.49
271.91	16413.65
271.979	16430.27
272.048	16403.91
272.117	16449.89
272.186	16444.59
272.255	16492.88
272.324	16525.31
272.393	16555.2
272.462	16543.34
272.531	16571.39
272.6	16580.93
272.669	16647.93
272.738	16670.24
272.807	16700.94
272.876	16682.24
272.945	16813.43
273.013	16867.36
273.082	16934.25
273.151	16916.66
273.22	16963.17
273.289	16992.71
273.358	17075.94
273.427	17087.61
273.496	17151.42
273.564	17180.96
273.633	17242.5
273.702	17234.6
273.771	17249.54
273.84	17287.08
273.909	17328.05
273.977	17364.34
274.046	17380.38
274.115	17441.83
274.184	17423.85
274.253	17445.68
274.322	17526.36
274.39	17472.82
274.459	17472.05
274.528	17422.75
274.597	17453.59
274.665	17469.5
274.734	17530.8
274.803	17543.52
274.872	17564.48
274.94	17560.39
275.009	17701.49
275.078	17701.54
275.147	17735.08
275.215	17768.38
275.284	17823.66
275.353	17839.27
275.421	17804.38
275.49	17898.93
275.559	17908.42
275.627	17944.47
275.696	17958.3
275.765	17991.94
275.833	18008.37
275.902	18046.64
275.971	18127.7
276.039	18210.59
276.108	18267.74
276.177	18310.68
276.245	18321.91
276.314	18357.33
276.383	18419.06
276.451	18339.45
276.52	18388.41
276.588	18478.96
276.657	18543.48
276.725	18552.4
276.794	18593.65
276.863	18672.59
276.931	18638.9
277	18698.32
277.068	18770.99
277.137	18880.09
277.205	18915.42
277.274	19022.4
277.342	19097.34
277.411	19086.73
277.48	19106.68
277.548	19115.94
277.617	19151.69
277.685	19169.09
277.754	19227.4
277.822	19243.83
277.89	19331.69
277.959	19354.19
278.027	19334.96
278.096	19334.82
278.164	19472.6
278.233	19493.18
278.301	19510.33
278.37	19574.19
278.438	19583.92
278.507	19634.28
278.575	19593.94
278.643	19627.77
278.712	19610.81
278.78	19603.2
278.849	19680.78
278.917	19747.72
278.985	19784.87
279.054	19838.66
279.122	19925.11
279.191	19963.57
279.259	19992
279.327	19966.65
279.396	20065.4
279.464	20102.12
279.532	20173.88
279.601	20190.7
279.669	20219.23
279.737	20298.41
279.806	20343.76
279.874	20415.08
279.942	20452.14
280.011	20479.23
280.079	20548.48
280.147	20640.58
280.215	20702.27
280.284	20724.92
280.352	20724.63
280.42	20796.05
280.488	20800.29
280.557	20815.28
280.625	20865.36
280.693	20912.63
280.761	20967.82
280.83	20962.61
280.898	21044.64
280.966	21018.18
281.034	20958.9
281.102	20970.61
281.171	20995
281.239	21075.25
281.307	21089.18
281.375	21097.76
281.443	21225.58
281.512	21254.17
281.58	21329.95
281.648	21332.36
281.716	21380.89
281.784	21429.62
281.852	21440.13
281.92	21485.62
281.989	21575.86
282.057	21567.38
282.125	21765.84
282.193	21799.24
282.261	21846.14
282.329	21872.13
282.397	21932.9
282.465	21994.36
282.533	22078.46
282.601	22094.66
282.67	22058.5
282.738	22069.83
282.806	22152.4
282.874	22158.04
282.942	22217.77
283.01	22235.95
283.078	22299.82
283.146	22333.95
283.214	22405.83
283.282	22466.38
283.35	22554.9
283.418	22568.74
283.486	22624.71
283.554	22526.32
283.622	22574.33
283.69	22604.9
283.758	22626.93
283.826	22687.82
283.894	22762.65
283.962	22864.01
284.03	22958.36
284.098	23021.04
284.165	23063.85
284.233	23111.53
284.301	23137.52
284.369	23153.19
284.437	23162.69
284.505	23188.44
284.573	23277.55
284.641	23281.74
284.709	23345.4
284.777	23336.72
284.845	23404.58
284.912	23470.88
284.98	23526.68
285.048	23558.07
285.116	23631.8
285.184	23725.27
285.252	23773.3
285.319	23780.44
285.387	23799.25
285.455	23782.62
285.523	23848.79
285.591	23889.29
285.659	23940.13
285.726	24026.67
285.794	24035.59
285.862	24082.03
285.93	24128.91
285.997	24165.86
286.065	24203.96
286.133	24211.54
286.201	24238.83
286.269	24243.37
286.336	24259.38
286.404	24283.11
286.472	24353.89
286.539	24322.29
286.607	24320.51
286.675	24367.06
286.743	24436.53
286.81	24466.06
286.878	24568.29
286.946	24586.19
287.013	24632.49
287.081	24659.12
287.149	24652.27
287.216	24756.2
287.284	24789.15
287.352	24834.55
287.419	24869.48
287.487	24968.02
287.555	25041.09
287.622	25090.05
287.69	25153.75
287.758	25241.34
287.825	25279.94
287.893	25291.95
287.96	25368.37
288.028	25441.72
288.096	25494.72
288.163	25559.88
288.231	25574.55
288.298	25611.53
288.366	25701.26
288.433	25739.38
288.501	25777.17
288.569	25837.74
288.636	25855.75
288.704	25944.91
288.771	26019.64
288.839	26041.89
288.906	26054.44
288.974	26124.18
289.041	26160.61
289.109	26178.48
289.176	26255.6
289.244	26316.96
289.311	26392.9
289.379	26480.05
289.446	26531.91
289.514	26583.2
289.581	26611.69
289.649	26665.71
289.716	26720.77
289.783	26743.37
289.851	26858.97
289.918	26903.54
289.986	26976.71
290.053	27037.08
290.121	27078.05
290.188	27139.59
290.255	27283.74
290.323	27319.19
290.39	27354.52
290.458	27437.82
290.525	27529.26
290.592	27549.12
290.66	27606.07
290.727	27645.88
290.794	27725.18
290.862	27792.4
290.929	27847.62
290.996	27896.52
291.064	27979.28
291.131	28046.75
291.198	28121.71
291.266	28153.36
291.333	28200.03
291.4	28257.3
291.468	28365.68
291.535	28400.92
291.602	28447.8
291.669	28451.48
291.737	28511.54
291.804	28546.35
291.871	28632.2
291.938	28700.13
292.006	28838.9
292.073	28927.12
292.14	29000.46
292.207	29013.08
292.275	29051.81
292.342	29114.63
292.409	29241.68
292.476	29349.06
292.543	29373.53
292.611	29425.91
292.678	29523.46
292.745	29649.77
292.812	29729.88
292.879	29754.21
292.946	29803.78
293.014	29894.14
293.081	29975.66
293.148	30061.65
293.215	30155.6
293.282	30191.5
293.349	30264.62
293.416	30234.56
293.484	30314.31
293.551	30402
293.618	30507.57
293.685	30626.73
293.752	30659.73
293.819	30693.52
293.886	30717.14
293.953	30800.42
294.02	30878.3
294.087	30945.4
294.154	30971.24
294.221	31061.31
294.288	31113.93
294.356	31228.4
294.423	31294.98
294.49	31315.65
294.557	31401
294.624	31434.75
294.691	31545.53
294.758	31595.12
294.825	31679.16
294.892	31704.15
294.959	31738.87
295.026	31816.61
295.093	31841.61
295.16	31898.58
295.226	31943.14
295.293	32059.32
295.36	32109.2
295.427	32193.84
295.494	32283.58
295.561	32372.8
295.628	32482.26
295.695	32583.41
295.762	32633.51
295.829	32722.3
295.896	32835.46
295.963	32916
296.03	32990.32
296.096	33054.73
296.163	33143.76
296.23	33244.57
296.297	33333.39
296.364	33393.52
296.431	33455.18
296.498	33499.52
296.564	33627.35
296.631	33704.17
296.698	33709.8
296.765	33840.24
296.832	33872.29
296.899	33881.6
296.965	33976.09
297.032	33972.45
297.099	34089.24
297.166	34177.97
297.233	34210.95
297.299	34235.92
297.366	34293.48
297.433	34355.88
297.5	34430.32
297.566	34484.3
297.633	34543.87
297.7	34600.6
297.767	34646.86
297.833	34722.38
297.9	34786.58
297.967	34777.46
298.033	34854.68
298.1	35013.04
298.167	35035.5
298.234	35093.84
298.3	35175.52
298.367	35214.97
298.434	35294.49
298.5	35296.09
298.567	35334.9
298.634	35375.02
298.7	35482.47
298.767	35533.9
298.834	35633.03
298.9	35674.62
298.967	35693.39
299.033	35767.26
299.1	35870.67
299.167	35972.65
299.233	36003.22
299.3	36087.99
299.366	36204.03
299.433	36303.54
299.5	36254.13
299.566	36309.26
299.633	36417.29
299.699	36497.48
299.766	36535.48
299.832	36595.58
299.899	36676.45
299.965	36761.73
300.032	36799.83
300.099	36860.99
300.165	36939.25
300.232	36968.96
300.298	37012.16
300.365	37120.94
300.431	37160.22
300.498	37186.25
300.564	37251.69
300.631	37337.87
300.697	37442.65
300.763	37493.53
300.83	37533.06
300.896	37633.22
300.963	37713.81
301.029	37768.74
301.096	37834.3
301.162	37929.03
301.229	37963.32
301.295	37972.15
301.361	38025.48
301.428	38101.89
301.494	38105.39
301.561	38158.72
301.627	38224.71
301.693	38285.12
301.76	38338.84
301.826	38376.18
301.892	38453.41
301.959	38517.37
302.025	38559.83
302.092	38581.39
302.158	38647.93
302.224	38696.99
302.291	38713.07
302.357	38751.54
302.423	38779.37
302.49	38797.74
302.556	38868.76
302.622	38913.31
302.688	39012.2
302.755	39105.49
302.821	39173.64
302.887	39261.26
302.954	39301.44
303.02	39376.06
303.086	39445.96
303.152	39477.54
303.219	39512.03
303.285	39570.44
303.351	39643.81
303.417	39694.82
303.483	39715.95
303.55	39742.38
303.616	39795.54
303.682	39840.91
303.748	39861.12
303.815	39954.28
303.881	40031.19
303.947	40036.64
304.013	40085.61
304.079	40104.22
304.145	40078.95
304.212	40124.73
304.278	40139.35
304.344	40176.23
304.41	40179.78
304.476	40202.08
304.542	40233.91
304.608	40314.14
304.674	40318.75
304.741	40345.24
304.807	40398.36
304.873	40465.67
304.939	40557.76
305.005	40535.79
305.071	40576.71
305.137	40633.22
305.203	40596.57
305.269	40636.58
305.335	40716.48
305.401	40756.04
305.467	40786.27
305.533	40863.4
305.599	40925.42
305.666	40993.02
305.732	41033.8
305.798	41127.66
305.864	41253.91
305.93	41313.45
305.996	41347.67
306.062	41389.76
306.128	41421.65
306.194	41419.8
306.259	41453.78
306.325	41469.33
306.391	41542.68
306.457	41609.85
306.523	41669.54
306.589	41794.28
306.655	41802.01
306.721	41786.12
306.787	41792.92
306.853	41889.57
306.919	41878.68
306.985	41894.82
307.051	41924.81
307.117	41943.48
307.183	41952.57
307.248	41880.57
307.314	41944.45
307.38	41991.13
307.446	42063.04
307.512	42072.91
307.578	42132.66
307.644	42154.34
307.709	42196.4
307.775	42242.68
307.841	42264.07
307.907	42301.17
307.973	42278.56
308.039	42323.15
308.104	42395.88
308.17	42433.7
308.236	42425.44
308.302	42474.35
308.368	42484.7
308.433	42516.26
308.499	42538.96
308.565	42542.46
308.631	42604.94
308.696	42570.95
308.762	42565.11
308.828	42584.76
308.894	42564.83
308.959	42533.37
309.025	42547.28
309.091	42579.57
309.156	42599.85
309.222	42657.91
309.288	42654.41
309.354	42635.74
309.419	42673.92
309.485	42650.43
309.551	42712.77
309.616	42700.32
309.682	42726.44
309.748	42744.57
309.813	42776.91
309.879	42799.62
309.945	42806.43
310.01	42816.78
310.076	42863.42
310.141	42885.01
310.207	42880.15
310.273	42933.73
310.338	42993.53
310.404	42983.27
310.469	42972.96
310.535	42983.42
310.601	42951.66
310.666	43009.83
310.732	43076.31
310.797	43077.13
310.863	43072.76
310.928	43080.74
310.994	43122.02
311.059	43148.73
311.125	43178.78
311.191	43243.48
311.256	43244.11
311.322	43293.67
311.387	43283.46
311.453	43970.3
311.518	43961.89
311.584	43993.6
311.649	44041.02
311.715	44034.85
311.78	44077.98
311.846	44090.72
311.911	44137.13
311.976	44171.22
312.042	44155.85
312.107	44135.91
312.173	44146.37
312.238	44176.66
312.304	44199.33
312.369	44208.87
312.434	44211.2
312.5	44229.73
312.565	44161
312.631	44217.95
312.696	44224.47
312.761	44277
312.827	43627.56
312.892	43759.95
312.958	43773.28
313.023	43819.89
313.088	43875.05
313.154	43869.11
313.219	43888.28
313.284	43875.92
313.35	43904.04
313.415	43905.11
313.48	43940.32
313.546	43982.89
313.611	44048.37
313.676	44052.7
313.741	44065.15
313.807	44126.21
313.872	44161.97
313.937	44214.01
314.003	44285.3
314.068	44327.87
314.133	44364.12
314.198	44369.91
314.264	44327.86
314.329	44335.55
314.394	44336.52
314.459	44337.49
314.525	44433.92
314.59	44448.95
314.655	44449.34
314.72	44488.61
314.785	44522.76
314.851	44535.55
314.916	44511.03
314.981	44493.9
315.046	44511.32
315.111	44508.26
315.176	44489.96
315.242	44530.16
315.307	44557.01
315.372	44513.02
315.437	44503.43
315.502	44501.83
315.567	44556.04
315.632	44531.17
315.698	44567.62
315.763	44590.06
315.828	44587.48
315.893	44591.37
315.958	44597.41
316.023	44600.66
316.088	44569.57
316.153	44529.92
316.218	44512.65
316.283	44466.3
316.348	44427.24
316.413	44423.98
316.479	44383.22
316.544	44288.08
316.609	44188.15
316.674	44070.39
316.739	43935.67
316.804	43816.08
316.869	43699.83
316.934	43572.32
316.999	43463.96
317.064	43273.95
317.129	43098.94
317.194	42971.24
317.259	42789.53
317.324	42593.83
317.389	42409.31
317.454	42251.52
317.518	42092.26
317.583	41977.01
317.648	41862.77
317.713	41714.69
317.778	41473.35
317.843	41335.59
317.908	41161.26
317.973	40994.43
318.038	40862.24
318.103	40709.9
318.168	40572.37
318.233	40419.57
318.297	40205.71
318.362	40031.31
318.427	39844.72
318.492	39719.15
318.557	39507.93
318.622	39363.57
318.687	39230.92
318.751	39041.17
318.816	38871.82
318.881	38711.4
318.946	38470.62
319.011	38259.54
319.075	38043.84
319.14	37858.81
319.205	37644.23
319.27	37475.33
319.335	37256.13
319.399	37036.45
319.464	36861.37
319.529	36616.36
319.594	36403.46
319.658	36211.14
319.723	35989.86
319.788	35827.62
319.853	35559.79
319.917	35384.04
319.982	35121.9
320.047	34902.75
320.112	34736.49
320.176	34474.85
320.241	34263.6
320.306	34074.05
320.37	33850.55
320.435	33663.52
320.5	33487.07
320.564	33266.6
320.629	33022.48
320.694	32826.08
320.758	32613.04
320.823	32385.78
320.888	32198.15
320.952	31948.67
321.017	31720.4
321.082	31505.17
321.146	31281.96
321.211	31061.99
321.275	30818.11
321.34	30572.93
321.405	30334.33
321.469	30085.71
321.534	29860.03
321.598	29603.43
321.663	29394.94
321.727	29188.24
321.792	28929.93
321.857	28676.88
321.921	28454.32
321.986	28230.48
322.05	27934.52
322.115	27704.87
322.179	27449.17
322.244	27161.78
322.308	26945.34
322.373	26697.74
322.437	26459.18
322.502	26273.3
322.566	26036.48
322.631	25815.83
322.695	25588.14
322.76	25337.87
322.824	25112.73
322.889	24862.05
322.953	24606.37
323.018	24297.18
323.082	23975.44
323.146	23702.57
323.211	23427.79
323.275	23169.62
323.34	22907.12
323.404	22688.72
323.468	22434.31
323.533	22183.24
323.597	21929.98
323.662	21647.09
323.726	21416.63
323.79	21147.41
323.855	20814.14
323.919	20535.11
323.983	20284.04
324.048	19898.22
324.112	19959.41
324.177	19159.82
324.241	18113.87
324.305	17085.14
324.37	16062.44
324.434	15086.05
324.498	14809.69
324.562	14496.52
324.627	14141.8
324.691	13793.87
324.755	13397.58
324.82	12937.38
324.884	12474.98
324.948	11995.63
325.012	11422.72
325.077	10709.67
