Data from 20250701_urea_2M_exp3_MAYP1162681_17-49-52-298.txt Node
Date: Tue Jul 01 17:49:52 BST 2025
User: adleo
Spectrometer: MAYP116268
Trigger mode: 0
Integration Time (sec): 4.000000E0
Scans to average: 1
Electric dark correction enabled: true
Nonlinearity correction enabled: true
Boxcar width: 10
XAxis mode: Wavelengths
Number of Pixels in Spectrum: 2068
>>>>>Begin Spectral Data<<<<<
179.565	4087.9
179.642	4304.51
179.718	4472.51
179.795	4615.22
179.871	4739.44
179.948	4803.47
180.024	4881.19
180.101	4974.41
180.177	5033.25
180.254	5119.43
180.33	5205.38
180.407	5503.7
180.483	5824.62
180.56	6147.43
180.636	6446.24
180.712	6403.63
180.789	6440.03
180.865	6484.41
180.942	6516.57
181.018	6556.85
181.095	6605
181.171	6621.18
181.248	6618.49
181.324	6675.09
181.4	6708.38
181.477	6750.51
181.553	6805.47
181.63	6883.73
181.706	6938.12
181.782	6966.01
181.859	6964.19
181.935	6988.17
182.011	6976.78
182.088	7032.91
182.164	7103.24
182.24	7153.63
182.317	7188.55
182.393	7184.23
182.469	7237.13
182.546	7287.35
182.622	7305.76
182.698	7291.38
182.775	7337.42
182.851	7393.89
182.927	7364.76
183.003	7343.72
183.08	7318.25
183.156	7344.88
183.232	7332.47
183.308	7287.63
183.385	7317.95
183.461	7384.28
183.537	7378.13
183.613	7423.79
183.69	7391.11
183.766	7357.58
183.842	7384.03
183.918	7403.79
183.995	7449.3
184.071	7461.08
184.147	7436.52
184.223	7395.4
184.299	7433.33
184.375	7392.34
184.452	7412.25
184.528	7551.51
184.604	7594.81
184.68	7638.88
184.756	7668.5
184.832	7681.58
184.908	7702.24
184.985	7699.55
185.061	7638.21
185.137	7677.2
185.213	7633.08
185.289	7637.16
185.365	7600.64
185.441	7600.25
185.517	7647.64
185.593	7633.31
185.669	7624.65
185.745	7663.69
185.822	7721.98
185.898	7697.64
185.974	7732.25
186.05	7703.68
186.126	7618.99
186.202	7592.03
186.278	7579.05
186.354	7545.29
186.43	7572.37
186.506	7568.57
186.582	7565.02
186.658	7582.89
186.734	7508.97
186.81	7517.52
186.886	7526.89
186.962	7573.47
187.038	7549.47
187.114	7517.91
187.19	7552.3
187.266	7516.97
187.341	7521.88
187.417	7498.22
187.493	7498.75
187.569	7512.12
187.645	7492.56
187.721	7456.1
187.797	7485.52
187.873	7500.71
187.949	7477.7
188.025	7459.27
188.101	7465.81
188.176	7487.05
188.252	7476.96
188.328	7502.47
188.404	7505.98
188.48	7492.09
188.556	7471.03
188.632	7470.69
188.707	7476.51
188.783	7455.54
188.859	7444.16
188.935	7400.02
189.011	7425.11
189.086	7402.04
189.162	7369.64
189.238	7357.34
189.314	7344.46
189.39	7320.33
189.465	7295.42
189.541	7360.09
189.617	7301.64
189.693	7282.52
189.768	7293.58
189.844	7382.74
189.92	7357.96
189.996	7386.46
190.071	7432.09
190.147	7425.26
190.223	7461.33
190.298	7431.75
190.374	7390.18
190.45	7425.06
190.526	7456.26
190.601	7436.02
190.677	7440.35
190.753	7539.93
190.828	7559.15
190.904	7615.66
190.98	7672.45
191.055	7711.93
191.131	7678.5
191.207	7751.72
191.282	7791.27
191.358	7756.22
191.433	7703.4
191.509	7745.15
191.585	7734.71
191.66	7727.26
191.736	7757.21
191.811	7723.88
191.887	7779.97
191.963	7866.19
192.038	7888.94
192.114	7891.78
192.189	7908.89
192.265	7898.99
192.34	7823.97
192.416	7810.61
192.491	7797.86
192.567	7804.98
192.642	7816.34
192.718	7819.9
192.793	7774.12
192.869	7757.82
192.944	7767.72
193.02	7797.49
193.095	7814.23
193.171	7840.77
193.246	7844.67
193.322	7839.28
193.397	7840.92
193.473	7792.14
193.548	7726.05
193.624	7743.66
193.699	7741.44
193.775	7802.35
193.85	7807.11
193.925	7836.31
194.001	7843.32
194.076	7810.86
194.152	7773.1
194.227	7738.37
194.302	7704.06
194.378	7722.81
194.453	7712.23
194.529	7763.79
194.604	7710.07
194.679	7690.41
194.755	7616.68
194.83	7658.2
194.905	7645.99
194.981	7683.21
195.056	7656.25
195.131	7680.67
195.207	7674.42
195.282	7638.51
195.357	7563.41
195.433	7619.14
195.508	7577.64
195.583	7602.68
195.659	7652.8
195.734	7677.57
195.809	7680.84
195.884	7715.35
195.96	7713.86
196.035	7767.71
196.11	7747.36
196.185	7792.9
196.261	7803.62
196.336	7920.23
196.411	7866.44
196.486	7885.34
196.561	7856.67
196.637	7890.66
196.712	7949.94
196.787	7957.83
196.862	8011.64
196.937	8053.52
197.013	8073.59
197.088	8108.74
197.163	8190.22
197.238	8250.98
197.313	8250.83
197.388	8298.51
197.464	8402.51
197.539	8440.32
197.614	8415.65
197.689	8459.96
197.764	8517.44
197.839	8591.68
197.914	8563.96
197.989	8650.63
198.065	8699.51
198.14	8880.52
198.215	8977.36
198.29	9014.82
198.365	9061.27
198.44	9103.48
198.515	9202.71
198.59	9259.34
198.665	9358.33
198.74	9383.37
198.815	9390.45
198.89	9469.31
198.965	9581.58
199.04	9566.17
199.115	9624.47
199.19	9779.12
199.265	9784.18
199.34	9822.13
199.415	9941.18
199.49	10022.31
199.565	10052.9
199.64	10147.54
199.715	10134.29
199.79	10158.76
199.865	10181.5
199.94	10177.94
200.015	10297.8
200.09	10317.03
200.165	10334.99
200.24	10353.21
200.315	10493.64
200.39	10551.27
200.464	10574.63
200.539	10574.78
200.614	10633.26
200.689	10723.84
200.764	10744.76
200.839	10816.33
200.914	10829.96
200.989	10794.88
201.063	10841.52
201.138	10776.12
201.213	10765.81
201.288	10696.72
201.363	10710.21
201.438	10714.36
201.512	10777.55
201.587	10708.93
201.662	10716.79
201.737	10760.68
201.812	10796.3
201.886	10677.68
201.961	10707.08
202.036	10663.88
202.111	10651.15
202.186	10548.24
202.26	10477.84
202.335	10406.04
202.41	10382.63
202.485	10324.92
202.559	10252.08
202.634	10162.77
202.709	10199.46
202.784	10129.71
202.858	10131.44
202.933	10069.21
203.008	10038.57
203.082	9962.67
203.157	9961.03
203.232	9806.72
203.306	9728.96
203.381	9605.51
203.456	9522.96
203.53	9440.37
203.605	9373.42
203.68	9285.95
203.754	9258.67
203.829	9210.17
203.904	9127.61
203.978	9080.13
204.053	9089.85
204.127	9040.27
204.202	9032.66
204.277	8965.61
204.351	8949.25
204.426	8926.37
204.5	8893.49
204.575	8768.48
204.65	8805.95
204.724	8777.43
204.799	8808.41
204.873	8794.78
204.948	8787.7
205.022	8742.38
205.097	8706.07
205.171	8754.1
205.246	8788.24
205.32	8789.59
205.395	8779.96
205.469	8754.95
205.544	8775.07
205.618	8716.59
205.693	8764.29
205.767	8715.21
205.842	8796.27
205.916	8767.93
205.991	8730.38
206.065	8751.75
206.14	8809.55
206.214	8790.92
206.289	8756.73
206.363	8800.53
206.438	8811.12
206.512	8839.38
206.586	8911.03
206.661	8946.86
206.735	8868.88
206.81	8870.23
206.884	8923.89
206.958	8882.6
207.033	8949
207.107	8980.64
207.181	9090.04
207.256	9060.53
207.33	9130.95
207.405	9174.55
207.479	9243.34
207.553	9269.62
207.628	9208.37
207.702	9252.75
207.776	9229.54
207.851	9242.49
207.925	9301.64
207.999	9286.52
208.073	9281.46
208.148	9289.89
208.222	9247.18
208.296	9365.76
208.371	9426.03
208.445	9462.39
208.519	9565.99
208.593	9600.47
208.668	9584.04
208.742	9595.61
208.816	9602.25
208.89	9650.37
208.965	9644.21
209.039	9671.23
209.113	9729.94
209.187	9807.13
209.261	9786.67
209.336	9861.22
209.41	9937.81
209.484	9934.24
209.558	10011.65
209.632	10056.25
209.707	10095.16
209.781	10178.78
209.855	10231.83
209.929	10295.36
210.003	10317.03
210.077	10312.7
210.151	10490.58
210.226	10608.36
210.3	10706.68
210.374	10794.92
210.448	10807.98
210.522	10842.29
210.596	10882.04
210.67	10919.09
210.744	11093.44
210.818	11218.01
210.892	11291.61
210.966	11267.27
211.041	11321
211.115	11306.89
211.189	11392.18
211.263	11452.22
211.337	11472.37
211.411	11517.09
211.485	11494.1
211.559	11534.29
211.633	11545.85
211.707	11428.77
211.781	11462.51
211.855	11324.68
211.929	11294.76
212.003	11224.57
212.077	11259.18
212.151	11305.84
212.225	11330.9
212.299	11285.15
212.373	11235.71
212.447	11215.03
212.52	11319.8
212.594	11329.78
212.668	11369.53
212.742	11313.82
212.816	11291.07
212.89	11266.16
212.964	11254.83
213.038	11254.16
213.112	11299.47
213.186	11342.4
213.26	11253.28
213.333	11076.72
213.407	11096.38
213.481	11099.22
213.555	11143.87
213.629	11089.55
213.703	11018.37
213.777	11005.41
213.85	10920.59
213.924	11031.83
213.998	11020.26
214.072	10980.4
214.146	10921.55
214.219	10904.74
214.293	10878.72
214.367	10876.6
214.441	10901.9
214.515	10854.72
214.588	10757.72
214.662	10617.03
214.736	10534.5
214.81	10552.08
214.883	10570.47
214.957	10516.48
215.031	10456.81
215.105	10349.78
215.178	10284.17
215.252	10242.98
215.326	10133.15
215.4	10042.67
215.473	9845.19
215.547	9753.07
215.621	9683.73
215.694	9674.82
215.768	9566.78
215.842	9494.56
215.915	9413.53
215.989	9284.54
216.063	9218.79
216.136	9192.83
216.21	9163.47
216.284	9168.38
216.357	9137.23
216.431	9086.29
216.504	9079.5
216.578	9134.55
216.652	9145.9
216.725	9115.61
216.799	9117.68
216.873	9102.09
216.946	9112.92
217.02	9073.85
217.093	9041.26
217.167	8934.63
217.24	8845.89
217.314	8804.85
217.387	8755.49
217.461	8703.94
217.535	8730.27
217.608	8661.55
217.682	8638.44
217.755	8652.4
217.829	8595.78
217.902	8581.34
217.976	8565.47
218.049	8514.55
218.123	8432.12
218.196	8429.52
218.27	8394.44
218.343	8319.39
218.417	8313.67
218.49	8286.34
218.563	8337.77
218.637	8341.53
218.71	8421.66
218.784	8455.74
218.857	8496.01
218.931	8523.13
219.004	8537.67
219.077	8555.72
219.151	8577.66
219.224	8558.84
219.298	8549.94
219.371	8600.05
219.444	8557.86
219.518	8570.85
219.591	8592.79
219.665	8707.6
219.738	8724.2
219.811	8701.88
219.885	8753.96
219.958	8787.61
220.031	8795.83
220.105	8816.15
220.178	8825.1
220.251	8792.6
220.325	8814.08
220.398	8831.07
220.471	8854.26
220.544	8889.6
220.618	8868.6
220.691	8899.74
220.764	8925.4
220.838	8956.93
220.911	8936.9
220.984	9034.7
221.057	9070.94
221.131	9097.8
221.204	8995.22
221.277	9074.72
221.35	9217.8
221.424	9205.19
221.497	9219.3
221.57	9240.76
221.643	9271.54
221.716	9327.54
221.79	9331.68
221.863	9343.39
221.936	9352.78
222.009	9364.38
222.082	9399.97
222.155	9401.6
222.229	9472.07
222.302	9501.87
222.375	9511.98
222.448	9556.29
222.521	9559.81
222.594	9557.78
222.667	9527.51
222.74	9587.12
222.814	9576.47
222.887	9553.05
222.96	9619.33
223.033	9665.47
223.106	9697.58
223.179	9730.73
223.252	9737.67
223.325	9777.49
223.398	9789.15
223.471	9822.38
223.544	9852.52
223.617	9864.32
223.69	9895.09
223.763	9850.1
223.837	9876.06
223.91	9902.55
223.983	9848.67
224.056	9808.7
224.129	9838.85
224.202	9891.51
224.275	9881.49
224.348	9853.99
224.42	9822.01
224.493	9751.5
224.566	9722.93
224.639	9735.74
224.712	9708.04
224.785	9696.14
224.858	9678.99
224.931	9664.93
225.004	9622.17
225.077	9617.35
225.15	9525.96
225.223	9524.32
225.296	9616.11
225.369	9562.22
225.442	9526.58
225.514	9550.75
225.587	9578.77
225.66	9581.86
225.733	9589.8
225.806	9597.12
225.879	9589.13
225.952	9554.08
226.025	9614.47
226.097	9667.23
226.17	9661.83
226.243	9591.24
226.316	9585.37
226.389	9595.29
226.461	9618.41
226.534	9644.22
226.607	9639.55
226.68	9722.41
226.753	9714.85
226.825	9630.53
226.898	9688.41
226.971	9698.81
227.044	9716.15
227.117	9719.33
227.189	9747.66
227.262	9780.75
227.335	9801.37
227.407	9793.91
227.48	9832.52
227.553	9836.52
227.626	9817.63
227.698	9827.07
227.771	9870.45
227.844	9850.6
227.916	9868.62
227.989	9829.41
228.062	9821.8
228.134	9910.25
228.207	9912.51
228.28	9904.95
228.352	9913.86
228.425	9925.04
228.498	9970.03
228.57	9948.99
228.643	10013.35
228.716	10002.27
228.788	10000.97
228.861	9996.88
228.934	10065.32
229.006	10069.08
229.079	10077.41
229.151	10069.51
229.224	10032.58
229.296	10063.65
229.369	10174.51
229.442	10228.53
229.514	10213.7
229.587	10263.31
229.659	10185.89
229.732	10204.53
229.804	10252.27
229.877	10336.69
229.949	10367.67
230.022	10429.21
230.094	10432.78
230.167	10424.78
230.239	10387.21
230.312	10372.13
230.384	10449.37
230.457	10451.69
230.529	10465.22
230.602	10466.43
230.674	10476.55
230.747	10529.76
230.819	10559.49
230.892	10432.97
230.964	10431.86
231.037	10460.56
231.109	10451.84
231.181	10499.91
231.254	10460.8
231.326	10445.04
231.399	10419.84
231.471	10396.23
231.544	10310.4
231.616	10358.04
231.688	10364.31
231.761	10355.88
231.833	10341.62
231.905	10253.05
231.978	10248.14
232.05	10235.18
232.122	10239.09
232.195	10215.19
232.267	10262.6
232.339	10237.54
232.412	10308.26
232.484	10284.55
232.556	10256.47
232.629	10333.38
232.701	10349.57
232.773	10364.31
232.846	10357.91
232.918	10368.08
232.99	10379.4
233.062	10425.07
233.135	10444.54
233.207	10406.38
233.279	10458.3
233.351	10498.82
233.424	10500.07
233.496	10478.78
233.568	10570.86
233.64	10532.89
233.713	10549.71
233.785	10533.76
233.857	10548.74
233.929	10503.94
234.001	10574.26
234.074	10652.1
234.146	10581.3
234.218	10578.46
234.29	10584
234.362	10574.22
234.434	10529.65
234.507	10492.79
234.579	10435.7
234.651	10411.75
234.723	10447.94
234.795	10463.45
234.867	10460.27
234.939	10524.07
235.012	10543.72
235.084	10548.06
235.156	10587.23
235.228	10573.83
235.3	10565.5
235.372	10588.96
235.444	10652.8
235.516	10573.43
235.588	10579.98
235.66	10595.64
235.732	10572.9
235.804	10783.38
235.876	10827.61
235.948	10898.16
236.02	10920.46
236.092	10936.55
236.164	10956.4
236.236	10965.75
236.308	10965.61
236.38	10994.09
236.452	10976.93
236.524	11003.29
236.596	11070.68
236.668	11109.66
236.74	11137.95
236.812	11169.03
236.884	11201.9
236.956	11210.38
237.028	11200.26
237.1	11180.79
237.172	11261.43
237.244	11347.36
237.316	11220.62
237.388	11212.1
237.46	11183.85
237.532	11247.27
237.604	11245.2
237.675	11326.27
237.747	11365.69
237.819	11359.23
237.891	11363.67
237.963	11353.93
238.035	11346.61
238.107	11229.15
238.178	11303.23
238.25	11310.85
238.322	11411.54
238.394	11364.6
238.466	11375.01
238.538	11427.63
238.609	11474.81
238.681	11416.68
238.753	11390.61
238.825	11413.84
238.897	11449.88
238.968	11536.74
239.04	11525.32
239.112	11655.2
239.184	11612.74
239.255	11612.3
239.327	11642.23
239.399	11673.8
239.471	11727.25
239.542	11769.56
239.614	11846.63
239.686	11758.76
239.758	11820.06
239.829	11780.92
239.901	11855.48
239.973	11868.54
240.044	11907.97
240.116	11922.43
240.188	11940.45
240.259	11960.02
240.331	11953.9
240.403	11989.23
240.474	11945.56
240.546	11938.9
240.618	11869.88
240.689	11872.48
240.761	11895.33
240.833	11976.07
240.904	11977.27
240.976	11983.63
241.048	12002.77
241.119	12042.73
241.191	12096.81
241.262	12169.94
241.334	12179.05
241.405	12186.86
241.477	12196.35
241.549	12207.92
241.62	12243.83
241.692	12294.3
241.763	12363.91
241.835	12388.11
241.906	12409.61
241.978	12382.18
242.049	12454.82
242.121	12528.14
242.192	12610.76
242.264	12581.35
242.335	12532.23
242.407	12588.87
242.478	12591.72
242.55	12614.95
242.621	12604.15
242.693	12607.91
242.764	12597.12
242.836	12603.43
242.907	12636.89
242.979	12667.06
243.05	12692.51
243.122	12714.69
243.193	12716.66
243.264	12634.19
243.336	12641.42
243.407	12686.54
243.479	12775.76
243.55	12795.91
243.622	12810.23
243.693	12804.35
243.764	12874.92
243.836	12847.98
243.907	12834
243.978	12842.14
244.05	12879.02
244.121	12825.66
244.192	12869.43
244.264	12821.71
244.335	12838
244.407	12785.55
244.478	12804.45
244.549	12796.88
244.62	12753.64
244.692	12750.75
244.763	12807.78
244.834	12799.82
244.906	12778.66
244.977	12801.7
245.048	12862.97
245.119	12846.44
245.191	12820.5
245.262	12755.04
245.333	12846.87
245.405	12863.74
245.476	12909.77
245.547	12927.51
245.618	12995.14
245.689	13006.33
245.761	13047.01
245.832	13053.86
245.903	13113.39
245.974	13149.45
246.045	13171.1
246.117	13262.73
246.188	13247.94
246.259	13234.49
246.33	13259.07
246.401	13273.92
246.473	13234.29
246.544	13221.37
246.615	13282.21
246.686	13295.66
246.757	13381.13
246.828	13361.89
246.899	13453.24
246.97	13415.4
247.042	13404.94
247.113	13452.71
247.184	13557.65
247.255	13558.72
247.326	13595.3
247.397	13599.93
247.468	13611.31
247.539	13627.8
247.61	13582.05
247.681	13639.89
247.752	13700.34
247.823	13680.63
247.894	13698.66
247.965	13675.9
248.037	13662.21
248.108	13606.44
248.179	13613.72
248.25	13608.66
248.321	13638.3
248.392	13578.14
248.463	13668.82
248.534	13669.4
248.605	13688.2
248.675	13654.26
248.746	13670.51
248.817	13679.72
248.888	13706.42
248.959	13652.53
249.03	13683.86
249.101	13691.72
249.172	13679.33
249.243	13597.43
249.314	13664.44
249.385	13671.47
249.456	13708.35
249.527	13706.91
249.598	13736.89
249.669	13743.64
249.739	13762.44
249.81	13778.11
249.881	13736.5
249.952	13729.27
250.023	13724.45
250.094	13661.5
250.165	13630.11
250.235	13629.01
250.306	13641.73
250.377	13604.61
250.448	13637.3
250.519	13563.69
250.59	13642.17
250.66	13637.68
250.731	13723.92
250.802	13717.51
250.873	13746
250.944	13771.02
251.014	13756.85
251.085	13855.38
251.156	13884.73
251.227	13939.45
251.297	13994.83
251.368	14052.88
251.439	14093.17
251.51	14157.14
251.58	14156.03
251.651	14156.42
251.722	14211.95
251.792	14154.44
251.863	14162.54
251.934	14230.61
252.005	14358.88
252.075	14361.24
252.146	14419.72
252.217	14469.42
252.287	14516.95
252.358	14524.47
252.429	14601.4
252.499	14599.91
252.57	14615.09
252.641	14669.56
252.711	14670.57
252.782	14630.23
252.852	14716.99
252.923	14725.76
252.994	14741
253.064	14801.11
253.135	14785.15
253.205	14773.87
253.276	14860.06
253.347	14931.79
253.417	14909.23
253.488	14886.44
253.558	14875.83
253.629	14874.91
253.699	14889.47
253.77	14925.24
253.841	14920.03
253.911	14931.16
253.982	14950.25
254.052	14979.17
254.123	14980.96
254.193	14991.9
254.264	15135.49
254.334	15094.61
254.405	15054.17
254.475	15021.97
254.546	15020.14
254.616	15083.91
254.687	15115.05
254.757	15138.48
254.827	15137.37
254.898	15160.7
254.968	15168.27
255.039	15140.93
255.109	15185.38
255.18	15153.18
255.25	15069.31
255.321	15105.41
255.391	15061.88
255.461	15154.05
255.532	15061.99
255.602	15057.79
255.673	15001.01
255.743	14961.73
255.813	14887.97
255.884	14948.9
255.954	14989.78
256.024	15069.7
256.095	15071.53
256.165	15030.85
256.235	15060.3
256.306	15046.17
256.376	15103
256.446	15149.71
256.517	15195.55
256.587	15238.4
256.657	15266.16
256.728	15298.17
256.798	15311.86
256.868	15312.78
256.938	15282.65
257.009	15337.31
257.079	15379.39
257.149	15488.67
257.219	15425.33
257.29	15468.57
257.36	15419.94
257.43	15465.29
257.5	15390.87
257.571	15383.64
257.641	15428.76
257.711	15383.69
257.781	15428.76
257.852	15448.47
257.922	15384.75
257.992	15391.84
258.062	15387.79
258.132	15432.95
258.202	15442.78
258.273	15448.86
258.343	15531.04
258.413	15518.51
258.483	15524.87
258.553	15496.14
258.623	15469.49
258.693	15514.99
258.764	15590.76
258.834	15652.51
258.904	15667.84
258.974	15664.94
259.044	15682.63
259.114	15714.64
259.184	15755.9
259.254	15760.04
259.324	15700.08
259.394	15759.03
259.464	15848.54
259.535	15854.23
259.605	15857.26
259.675	15851.43
259.745	15898.95
259.815	15872.44
259.885	15869.65
259.955	15992.06
260.025	15982.37
260.095	16002.47
260.165	16027.39
260.235	16095.68
260.305	16084.93
260.375	16050.91
260.445	16150.39
260.515	16230.69
260.585	16282.45
260.655	16286.02
260.725	16336.96
260.795	16384.1
260.865	16449.74
260.934	16417.6
261.004	16452.25
261.074	16452.73
261.144	16517.32
261.214	16555.16
261.284	16553.42
261.354	16606.39
261.424	16563.89
261.494	16631.75
261.564	16631.51
261.634	16662.17
261.703	16593.29
261.773	16625.83
261.843	16669.64
261.913	16660.53
261.983	16583.03
262.053	16598.55
262.123	16596.72
262.192	16551.03
262.262	16591.41
262.332	16541.82
262.402	16575.46
262.472	16587.27
262.541	16526.73
262.611	16579.55
262.681	16557.96
262.751	16605.29
262.821	16610.54
262.89	16576.04
262.96	16607.84
263.03	16696.42
263.1	16713.73
263.169	16730.93
263.239	16761.92
263.309	16826.07
263.379	16861.92
263.448	16890.94
263.518	16921.78
263.588	16937.06
263.657	17011.91
263.727	17049.6
263.797	17067.33
263.867	17064.39
263.936	17029.07
264.006	17087.24
264.076	17074.52
264.145	17069.89
264.215	17050.42
264.285	17085.27
264.354	17042.42
264.424	17030.37
264.494	16975.58
264.563	16971.92
264.633	17061.12
264.702	17079.05
264.772	17019.92
264.842	17011.92
264.911	17044.59
264.981	16998.09
265.05	17020.02
265.12	17015.78
265.19	17028.98
265.259	17072.45
265.329	17110.91
265.398	17133.27
265.468	17245.8
265.537	17247.49
265.607	17286.14
265.676	17340.12
265.746	17375.39
265.815	17440.46
265.885	17452.17
265.955	17437.71
266.024	17441.09
266.094	17365.09
266.163	17429.81
266.232	17497.76
266.302	17506.58
266.371	17540.12
266.441	17562.72
266.51	17611.97
266.58	17620.17
266.649	17596.79
266.719	17656.94
266.788	17685.8
266.858	17757.8
266.927	17690.19
266.996	17716.89
267.066	17748.89
267.135	17712.21
267.205	17758.28
267.274	17772.35
267.343	17826.23
267.413	17843.87
267.482	17912.98
267.552	17991.24
267.621	17949.9
267.69	17903.05
267.76	17929.99
267.829	17951.63
267.898	17977.22
267.968	17960.74
268.037	18005.89
268.106	18070.52
268.176	18030.13
268.245	18042.57
268.314	18031.92
268.384	18088.4
268.453	18112.35
268.522	18134.08
268.592	18214.03
268.661	18197.41
268.73	18233.21
268.799	18224.35
268.869	18302.56
268.938	18250.61
269.007	18235
269.076	18258.9
269.146	18330.46
269.215	18366.85
269.284	18446.31
269.353	18433.64
269.422	18446.12
269.492	18442.07
269.561	18349.06
269.63	18392.39
269.699	18385.98
269.768	18410.89
269.838	18427.18
269.907	18468.43
269.976	18440.82
270.045	18373.01
270.114	18409.4
270.183	18424.09
270.253	18456.53
270.322	18417.78
270.391	18450.65
270.46	18527.27
270.529	18573.63
270.598	18604.9
270.667	18610.01
270.736	18576.37
270.806	18629.19
270.875	18686.58
270.944	18696.22
271.013	18847.69
271.082	18877.23
271.151	18915.63
271.22	18874.77
271.289	18893.85
271.358	18903.59
271.427	18935.63
271.496	18970.23
271.565	18966.09
271.634	18984.69
271.703	19115.2
271.772	19175.29
271.841	19179.05
271.91	19139.2
271.979	19159.92
272.048	19127.1
272.117	19173.36
272.186	19177.46
272.255	19227.82
272.324	19268.01
272.393	19308.34
272.462	19287.38
272.531	19304.92
272.6	19315.91
272.669	19391.23
272.738	19409.25
272.807	19441.97
272.876	19424.43
272.945	19577.87
273.013	19638.64
273.082	19715.75
273.151	19624.23
273.22	19672.03
273.289	19707.93
273.358	19799.93
273.427	19804.12
273.496	19866.92
273.564	19913.47
273.633	19975.39
273.702	19945.03
273.771	19952.26
273.84	19975.44
273.909	20021.32
273.977	20059.39
274.046	20069.47
274.115	20133.9
274.184	20117.37
274.253	20132.02
274.322	20217.27
274.39	20153.99
274.459	20144.25
274.528	20078.62
274.597	20098.33
274.665	20122.52
274.734	20199.29
274.803	20213.31
274.872	20241.02
274.94	20236.06
275.009	20477.56
275.078	20462.19
275.147	20513.56
275.215	20548.06
275.284	20624.74
275.353	20625.8
275.421	20587.49
275.49	20693.04
275.559	20705.95
275.627	20746.29
275.696	20764.36
275.765	20807.21
275.833	20815.3
275.902	20870.34
275.971	20967.93
276.039	21063.31
276.108	21128.72
276.177	21163.04
276.245	21153.59
276.314	21186.84
276.383	21254.27
276.451	21067.76
276.52	21130.51
276.588	21215.25
276.657	21272.03
276.725	21271.4
276.794	21327.26
276.863	21415.94
276.931	21381.53
277	21436.57
277.068	21513.45
277.137	21621.8
277.205	21672.95
277.274	21795.57
277.342	21867.54
277.411	21842.76
277.48	21841.13
277.548	21841.46
277.617	21880.56
277.685	21913.14
277.754	21974.69
277.822	21993.2
277.89	22086.59
277.959	22110.64
278.027	22085.24
278.096	22101.92
278.164	22247.39
278.233	22250.38
278.301	22255.63
278.37	22321.72
278.438	22327.46
278.507	22376.87
278.575	22333.48
278.643	22351.95
278.712	22319.07
278.78	22317.86
278.849	22400.34
278.917	22476.61
278.985	22507.46
279.054	22555.82
279.122	22649.83
279.191	22683.34
279.259	22710.72
279.327	22671.71
279.396	22766.65
279.464	22795.96
279.532	22870.03
279.601	22892.89
279.669	22935.17
279.737	23026.69
279.806	23068.44
279.874	23144.53
279.942	23173.99
280.011	23207.4
280.079	23272.93
280.147	23378.34
280.215	23433.02
280.284	23456.17
280.352	23463.83
280.42	23534.68
280.488	23553.1
280.557	23563.8
280.625	23616.95
280.693	23668.25
280.761	23729.79
280.83	23717.73
280.898	23801.68
280.966	23769.66
281.034	23697.94
281.102	23689.74
281.171	23718.78
281.239	23805.42
281.307	23811.35
281.375	23821.96
281.443	23966.48
281.512	24001.31
281.58	24061.38
281.648	24046.52
281.716	24081.87
281.784	24115.87
281.852	24139.03
281.92	24170.77
281.989	24255.05
282.057	24248.1
282.125	24452.27
282.193	24487.88
282.261	24529.12
282.329	24565.25
282.397	24625.59
282.465	24681.63
282.533	24782.1
282.601	24786.15
282.67	24737.61
282.738	24765.73
282.806	24849.14
282.874	24824.82
282.942	24875.34
283.01	24900.88
283.078	24974.05
283.146	25023.21
283.214	25103.41
283.282	25143.13
283.35	25236.56
283.418	25256.69
283.486	25318.83
283.554	25205.93
283.622	25251.68
283.69	25299.89
283.758	25333.43
283.826	25395.58
283.894	25488.78
283.962	25609.62
284.03	25707.4
284.098	25767.57
284.165	25801.44
284.233	25854.15
284.301	25892.23
284.369	25910.24
284.437	25932.21
284.505	25970.09
284.573	26059.68
284.641	26064.22
284.709	26146.78
284.777	26133.94
284.845	26205.89
284.912	26269.95
284.98	26330.78
285.048	26364.96
285.116	26432.94
285.184	26526.72
285.252	26567.8
285.319	26559.98
285.387	26576.75
285.455	26571.82
285.523	26642.99
285.591	26678.52
285.659	26716.14
285.726	26804.71
285.794	26810.84
285.862	26842.72
285.93	26885.49
285.997	26922.11
286.065	26958.08
286.133	26972.14
286.201	27005.17
286.269	27010.82
286.336	27017.77
286.404	27045.79
286.472	27120.37
286.539	27090.19
286.607	27069.23
286.675	27117.92
286.743	27185.68
286.81	27201.19
286.878	27287.81
286.946	27306.89
287.013	27361.94
287.081	27414.85
287.149	27409.48
287.216	27520.31
287.284	27557.02
287.352	27605.77
287.419	27632.15
287.487	27728.41
287.555	27788.58
287.622	27830.36
287.69	27892.13
287.758	27991.33
287.825	28025.35
287.893	28028.29
287.96	28097.8
288.028	28183.24
288.096	28249.07
288.163	28308.38
288.231	28311.52
288.298	28346.96
288.366	28430.39
288.433	28461.93
288.501	28472.86
288.569	28527.47
288.636	28552.81
288.704	28642.06
288.771	28709.54
288.839	28737.38
288.906	28753.87
288.974	28825.94
289.041	28863.97
289.109	28863.3
289.176	28931.4
289.244	28985.25
289.311	29078.34
289.379	29158.11
289.446	29217.26
289.514	29255.66
289.581	29294.4
289.649	29362.82
289.716	29419.07
289.783	29452.49
289.851	29572.66
289.918	29621.64
289.986	29694.78
290.053	29751.91
290.121	29787.18
290.188	29847.41
290.255	29991.83
290.323	30026.42
290.39	30044.52
290.458	30124.22
290.525	30231.52
290.592	30250.35
290.66	30313.43
290.727	30332.45
290.794	30425.8
290.862	30466.64
290.929	30532.27
290.996	30567.01
291.064	30637.13
291.131	30723.2
291.198	30805.05
291.266	30842.03
291.333	30894.91
291.4	30962.35
291.468	31072.12
291.535	31103.97
291.602	31159.74
291.669	31173.3
291.737	31231.62
291.804	31288.31
291.871	31382.82
291.938	31448.29
292.006	31591.58
292.073	31684.6
292.14	31770.69
292.207	31784.1
292.275	31835.67
292.342	31898.2
292.409	32039.78
292.476	32164.28
292.543	32184.63
292.611	32230.16
292.678	32340.47
292.745	32471.68
292.812	32560.74
292.879	32581.68
292.946	32647.88
293.014	32738.68
293.081	32818.53
293.148	32923.41
293.215	33020.77
293.282	33047.66
293.349	33125.93
293.416	33104.02
293.484	33183.51
293.551	33269.49
293.618	33393.26
293.685	33522.39
293.752	33558.01
293.819	33604.46
293.886	33612.84
293.953	33682.97
294.02	33761.74
294.087	33823.03
294.154	33855.37
294.221	33939.75
294.288	34004.33
294.356	34118.25
294.423	34183.91
294.49	34198.75
294.557	34290.5
294.624	34308.53
294.691	34432.71
294.758	34476.7
294.825	34562.28
294.892	34591.19
294.959	34624.45
295.026	34687.47
295.093	34710.7
295.16	34752.25
295.226	34798.33
295.293	34938.63
295.36	34994.31
295.427	35097.26
295.494	35185.91
295.561	35268.76
295.628	35393.32
295.695	35486.95
295.762	35544.01
295.829	35631.07
295.896	35746.76
295.963	35817.52
296.03	35906.2
296.096	35966.86
296.163	36069.21
296.23	36167.38
296.297	36254.72
296.364	36309.15
296.431	36376.67
296.498	36413.3
296.564	36568.09
296.631	36628.32
296.698	36637.93
296.765	36769.07
296.832	36787.22
296.899	36791.45
296.965	36900.92
297.032	36876.2
297.099	36992.83
297.166	37074.1
297.233	37109.54
297.299	37136.23
297.366	37194.89
297.433	37254.93
297.5	37336.12
297.566	37384.53
297.633	37439.21
297.7	37515.09
297.767	37574.31
297.833	37645.3
297.9	37721.95
297.967	37703.89
298.033	37811.79
298.1	37958.86
298.167	37982.03
298.234	38057.1
298.3	38149.7
298.367	38180.3
298.434	38260.09
298.5	38275.79
298.567	38307.4
298.634	38359.46
298.7	38480.1
298.767	38540.38
298.834	38643.05
298.9	38681.52
298.967	38704.3
299.033	38783.78
299.1	38895.03
299.167	38992.4
299.233	39038.36
299.3	39140.99
299.366	39269.07
299.433	39359.05
299.5	39317.27
299.566	39379.93
299.633	39477.05
299.699	39572.04
299.766	39621.01
299.832	39695.89
299.899	39766.29
299.965	39864.73
300.032	39901.79
300.099	39962.14
300.165	40038.67
300.232	40074.1
300.298	40125.74
300.365	40237.16
300.431	40299.31
300.498	40319.87
300.564	40390.91
300.631	40472.6
300.697	40569.85
300.763	40611.3
300.83	40643.63
300.896	40743.83
300.963	40843.16
301.029	40896.68
301.096	40954.96
301.162	41045.79
301.229	41092.11
301.295	41101.01
301.361	41159.09
301.428	41239.76
301.494	41241.27
301.561	41290.41
301.627	41347.96
301.693	41417.99
301.76	41474.14
301.826	41503.06
301.892	41595.29
301.959	41682.79
302.025	41721.05
302.092	41738.75
302.158	41814.19
302.224	41889.8
302.291	41911.86
302.357	41936.66
302.423	41982.7
302.49	41997.43
302.556	42080.34
302.622	42108.34
302.688	42217.54
302.755	42310.17
302.821	42376.34
302.887	42470.65
302.954	42520
303.02	42613.6
303.086	42677.06
303.152	42719.26
303.219	42748.44
303.285	42792.31
303.351	42855.48
303.417	42904.89
303.483	42920.69
303.55	42954.58
303.616	43001.28
303.682	43051.36
303.748	43080.14
303.815	43166.68
303.881	43254.02
303.947	43254.61
304.013	43315.83
304.079	43322.5
304.145	43307.71
304.212	43351.58
304.278	43363.93
304.344	43402.64
304.41	43401.09
304.476	43413.39
304.542	43442.33
304.608	43519.61
304.674	43516.06
304.741	43535.67
304.807	43613.12
304.873	43697.41
304.939	43784.82
305.005	43754.66
305.071	43785.45
305.137	43839.63
305.203	43807.62
305.269	43842.95
305.335	43940.21
305.401	43972.71
305.467	44015.95
305.533	44087.91
305.599	44164.24
305.666	44244.61
305.732	44287.86
305.798	44371.25
305.864	44504.4
305.93	44562.73
305.996	44594.6
306.062	44654.3
306.128	44690.36
306.194	44667.3
306.259	44687.69
306.325	44705.21
306.391	44804.71
306.457	44893.66
306.523	44948.55
306.589	45070.03
306.655	45091.05
306.721	45058.68
306.787	45066.57
306.853	45152.76
306.919	45132.81
306.985	45144.44
307.051	45168.19
307.117	45182.3
307.183	45210.93
307.248	45151.39
307.314	45215.55
307.38	45271.58
307.446	45321.77
307.512	45320.31
307.578	45384.25
307.644	45409.9
307.709	45452.45
307.775	45473.82
307.841	45483.75
307.907	45526.1
307.973	45497.72
308.039	45535.06
308.104	45605.15
308.17	45669.89
308.236	45670.81
308.302	45731.99
308.368	45737.2
308.433	45783.35
308.499	45810.81
308.565	45803.5
308.631	45872.24
308.696	45831.49
308.762	45839.28
308.828	45878.93
308.894	45870.41
308.959	45841.98
309.025	45874.02
309.091	45896.03
309.156	45897.29
309.222	45952.17
309.288	45945.99
309.354	45917.51
309.419	45950.05
309.485	45934.76
309.551	45976.1
309.616	45972.35
309.682	45999.18
309.748	46014.81
309.813	46028.3
309.879	46031.56
309.945	46030.88
310.01	46027.91
310.076	46079.37
310.141	46101.24
310.207	46088.23
310.273	46141.63
310.338	46200.39
310.404	46190.66
310.469	46188.22
310.535	46196.99
310.601	46165.91
310.666	46228.5
310.732	46292.33
310.797	46287.94
310.863	46295.73
310.928	46306.4
310.994	46348.58
311.059	46381.94
311.125	46417.88
311.191	46498.14
311.256	46512.74
311.322	46578.73
311.387	46563.05
311.453	47326.71
311.518	47339.13
311.584	47364.9
311.649	47415.84
311.715	47437.03
311.78	47478.37
311.846	47491.18
311.911	47563.29
311.976	47608.2
312.042	47597.97
312.107	47599.18
312.173	47610.73
312.238	47616.28
312.304	47641.86
312.369	47651.75
312.434	47651.6
312.5	47662.9
312.565	47570.28
312.631	47621.71
312.696	47629.21
312.761	47672.66
312.827	46951.58
312.892	47057.81
312.958	47083.69
313.023	47120.43
313.088	47138.56
313.154	47120.58
313.219	47128.13
313.284	47116.97
313.35	47130.81
313.415	47129.93
313.48	47158.38
313.546	47205.7
313.611	47290.97
313.676	47287.26
313.741	47295.59
313.807	47344.96
313.872	47385.02
313.937	47460.14
314.003	47541.36
314.068	47578.54
314.133	47641.02
314.198	47640.54
314.264	47605.41
314.329	47607.75
314.394	47619.21
314.459	47643.87
314.525	47739.67
314.59	47762.67
314.655	47759.74
314.72	47821.66
314.785	47861.37
314.851	47866.2
314.916	47840.75
314.981	47822.52
315.046	47831.05
315.111	47826.33
315.176	47819.45
315.242	47879.86
315.307	47905.26
315.372	47857.72
315.437	47855.97
315.502	47853.82
315.567	47927.2
315.632	47887.81
315.698	47926.81
315.763	47942.17
315.828	47945.05
315.893	47956.9
315.958	47967.52
316.023	47969.13
316.088	47916.09
316.153	47850.07
316.218	47837.89
316.283	47789.32
316.348	47742.84
316.413	47732.51
316.479	47706.54
316.544	47594.4
316.609	47473.04
316.674	47336.88
316.739	47217.99
316.804	47098.01
316.869	46960.21
316.934	46797.03
316.999	46680.63
317.064	46479.34
317.129	46292.94
317.194	46151.18
317.259	45949.49
317.324	45736.91
317.389	45527.64
317.454	45357.73
317.518	45225.88
317.583	45103.49
317.648	44983.76
317.713	44818.34
317.778	44578.55
317.843	44425.73
317.908	44250.95
317.973	44086.67
318.038	43942.92
318.103	43759.16
318.168	43599.51
318.233	43445.36
318.297	43225.58
318.362	43040.52
318.427	42849.97
318.492	42711.66
318.557	42486.64
318.622	42335.94
318.687	42201.18
318.751	42012.3
318.816	41834.26
318.881	41651.13
318.946	41408.4
319.011	41183.18
319.075	40969.91
319.14	40775.93
319.205	40534.43
319.27	40342.55
319.335	40098.17
319.399	39873.49
319.464	39684.02
319.529	39413.92
319.594	39184.84
319.658	38997.93
319.723	38764.2
319.788	38585.52
319.853	38318.08
319.917	38126.65
319.982	37845.18
320.047	37615.16
320.112	37440.28
320.176	37162.54
320.241	36926.73
320.306	36713.72
320.37	36460.08
320.435	36256.76
320.5	36056.92
320.564	35821.58
320.629	35587.4
320.694	35375.29
320.758	35129.79
320.823	34886.41
320.888	34701.45
320.952	34431.45
321.017	34174.42
321.082	33933.15
321.146	33698.68
321.211	33471.96
321.275	33211.91
321.34	32965.78
321.405	32713.96
321.469	32437.47
321.534	32188.65
321.598	31910.12
321.663	31697.97
321.727	31489.26
321.792	31218.49
321.857	30957.91
321.921	30718.03
321.986	30449.21
322.05	30139.14
322.115	29910.58
322.179	29650.45
322.244	29338.34
322.308	29115.26
322.373	28851.88
322.437	28603.64
322.502	28411.04
322.566	28140.93
322.631	27897.29
322.695	27635.84
322.76	27378.39
322.824	27144.2
322.889	26896
322.953	26632.81
323.018	26279.69
323.082	25945.33
323.146	25638.69
323.211	25344.36
323.275	25074.51
323.34	24805.29
323.404	24570.7
323.468	24282.74
323.533	24018.2
323.597	23749.98
323.662	23448.43
323.726	23206.09
323.79	22923.7
323.855	22563.04
323.919	22267.67
323.983	22000.32
324.048	21592.91
324.112	21779.76
324.177	20926.62
324.241	19784.57
324.305	18667.18
324.37	17573.9
324.434	16507.96
324.498	16217.33
324.562	15889.97
324.627	15513.87
324.691	15148.91
324.755	14730.66
324.82	14264.75
324.884	13760.84
324.948	13251.65
325.012	12644.1
325.077	11893.8
