Data from 20250701_urea_2M_exp3_MAYP1162681_03-49-49-376.txt Node
Date: Wed Jul 02 03:49:49 BST 2025
User: adleo
Spectrometer: MAYP116268
Trigger mode: 0
Integration Time (sec): 4.000000E0
Scans to average: 1
Electric dark correction enabled: true
Nonlinearity correction enabled: true
Boxcar width: 10
XAxis mode: Wavelengths
Number of Pixels in Spectrum: 2068
>>>>>Begin Spectral Data<<<<<
179.565	3626.62
179.642	3815.79
179.718	3955.17
179.795	4087.01
179.871	4193.89
179.948	4250.36
180.024	4323.5
180.101	4401.56
180.177	4450.73
180.254	4530.13
180.33	4605.27
180.407	4867.38
180.483	5152.89
180.56	5441.51
180.636	5704.69
180.712	5666.87
180.789	5698.76
180.865	5743.24
180.942	5773.21
181.018	5814.64
181.095	5860.71
181.171	5873.43
181.248	5876.78
181.324	5933.85
181.4	5958.51
181.477	6001.03
181.553	6051.27
181.63	6118.65
181.706	6174.18
181.782	6204.34
181.859	6204.3
181.935	6222.1
182.011	6209.1
182.088	6257.77
182.164	6325.26
182.24	6375.3
182.317	6404.18
182.393	6404.66
182.469	6445.8
182.546	6485.93
182.622	6501.1
182.698	6489.57
182.775	6528.08
182.851	6573.69
182.927	6550.11
183.003	6537.97
183.08	6517.37
183.156	6549.78
183.232	6537.1
183.308	6499.36
183.385	6527.39
183.461	6585.31
183.537	6590.3
183.613	6635.82
183.69	6608.55
183.766	6565.64
183.842	6585.62
183.918	6605.02
183.995	6646.07
184.071	6664.28
184.147	6650.83
184.223	6613.02
184.299	6654.29
184.375	6622.93
184.452	6651.48
184.528	6778.36
184.604	6815.9
184.68	6860.66
184.756	6883.48
184.832	6900.15
184.908	6915.03
184.985	6911.86
185.061	6855.62
185.137	6885.31
185.213	6848.14
185.289	6850.93
185.365	6831.1
185.441	6829.47
185.517	6871.33
185.593	6857.92
185.669	6847.16
185.745	6881.61
185.822	6939.64
185.898	6908.75
185.974	6936.21
186.05	6907.95
186.126	6832.85
186.202	6803.56
186.278	6788.81
186.354	6754.18
186.43	6776.62
186.506	6774.27
186.582	6770.28
186.658	6795.96
186.734	6728.32
186.81	6734.22
186.886	6741.18
186.962	6783.39
187.038	6760.72
187.114	6734.43
187.19	6759.89
187.266	6726.52
187.341	6723.16
187.417	6697.47
187.493	6698.91
187.569	6710.77
187.645	6687.1
187.721	6646.74
187.797	6673.39
187.873	6682.66
187.949	6664.37
188.025	6643.6
188.101	6653.64
188.176	6678.95
188.252	6661.09
188.328	6689.25
188.404	6693.48
188.48	6680.04
188.556	6660.97
188.632	6667.02
188.707	6670.19
188.783	6665.34
188.859	6652.33
188.935	6616.31
189.011	6644.74
189.086	6625.39
189.162	6596.14
189.238	6589.66
189.314	6577.61
189.39	6556.96
189.465	6533
189.541	6586.41
189.617	6535.27
189.693	6513.1
189.768	6521.99
189.844	6609.92
189.92	6584.3
189.996	6607.83
190.071	6649.18
190.147	6641.59
190.223	6676.71
190.298	6650.39
190.374	6598.38
190.45	6638.75
190.526	6663.92
190.601	6638.51
190.677	6638.99
190.753	6731.47
190.828	6744.96
190.904	6796.41
190.98	6852.13
191.055	6890.03
191.131	6866.3
191.207	6936.51
191.282	6969.73
191.358	6930.11
191.433	6875.83
191.509	6915.14
191.585	6904.81
191.66	6903.57
191.736	6929.12
191.811	6892.17
191.887	6946.09
191.963	7029.01
192.038	7046.49
192.114	7053.46
192.189	7075.02
192.265	7069.65
192.34	6997.39
192.416	6991
192.491	6979.56
192.567	6989.47
192.642	6992.11
192.718	6992.35
192.793	6950.51
192.869	6939.56
192.944	6957.37
193.02	6982.5
193.095	7002.44
193.171	7017.67
193.246	7015.79
193.322	7002.15
193.397	7003.97
193.473	6953.56
193.548	6891.04
193.624	6908.44
193.699	6904.31
193.775	6951.47
193.85	6956.51
193.925	6984.81
194.001	6982.6
194.076	6957.67
194.152	6923.11
194.227	6901.87
194.302	6869.61
194.378	6884.93
194.453	6870.62
194.529	6903
194.604	6854.24
194.679	6829.02
194.755	6768.2
194.83	6811.22
194.905	6805.22
194.981	6837.45
195.056	6823.77
195.131	6846.34
195.207	6838.55
195.282	6803.06
195.357	6741.35
195.433	6789.24
195.508	6748.64
195.583	6775.63
195.659	6825.56
195.734	6837.1
195.809	6832.68
195.884	6861.15
195.96	6862.01
196.035	6917.2
196.11	6909.08
196.185	6948.09
196.261	6962.45
196.336	7070.44
196.411	7022.8
196.486	7044.85
196.561	7015.4
196.637	7037.87
196.712	7096.05
196.787	7110.61
196.862	7168.16
196.937	7199.49
197.013	7221.65
197.088	7253.98
197.163	7326.01
197.238	7375.61
197.313	7380.18
197.388	7425.11
197.464	7524.17
197.539	7560.07
197.614	7537
197.689	7574.17
197.764	7628.22
197.839	7693.89
197.914	7669.9
197.989	7741.59
198.065	7780.19
198.14	7952.39
198.215	8038.52
198.29	8068.45
198.365	8108.32
198.44	8136.99
198.515	8233.5
198.59	8282.81
198.665	8368.1
198.74	8390.92
198.815	8397.61
198.89	8475.59
198.965	8578.15
199.04	8563.96
199.115	8614.61
199.19	8758.24
199.265	8771.47
199.34	8800.63
199.415	8912.39
199.49	8982.16
199.565	9012.1
199.64	9096.86
199.715	9086.5
199.79	9111.34
199.865	9137.1
199.94	9134.88
200.015	9241
200.09	9255.59
200.165	9281.39
200.24	9306.72
200.315	9437.81
200.39	9481.72
200.464	9501.46
200.539	9503.63
200.614	9557.36
200.689	9634.89
200.764	9648.28
200.839	9706.57
200.914	9726.89
200.989	9689.51
201.063	9743.11
201.138	9692.29
201.213	9693.59
201.288	9634.7
201.363	9649.14
201.438	9650.3
201.512	9699.06
201.587	9642.81
201.662	9650.66
201.737	9685.19
201.812	9706.15
201.886	9603.42
201.961	9641.19
202.036	9600.66
202.111	9587.55
202.186	9490.05
202.26	9433.27
202.335	9366.33
202.41	9345
202.485	9291.66
202.559	9232.4
202.634	9137.89
202.709	9165.74
202.784	9093.54
202.858	9088.48
202.933	9030.81
203.008	9004.28
203.082	8941.86
203.157	8933.05
203.232	8793.24
203.306	8722.27
203.381	8619.4
203.456	8538.01
203.53	8461.15
203.605	8395.6
203.68	8321.08
203.754	8300.51
203.829	8251.18
203.904	8182.82
203.978	8140.43
204.053	8154.43
204.127	8106.66
204.202	8099.16
204.277	8035.96
204.351	8019.37
204.426	7995.21
204.5	7963.8
204.575	7847.41
204.65	7879.7
204.724	7856.55
204.799	7883.46
204.873	7869.12
204.948	7864.84
205.022	7827.39
205.097	7796.21
205.171	7840.92
205.246	7868.49
205.32	7861.05
205.395	7860.52
205.469	7829.09
205.544	7851.66
205.618	7786.63
205.693	7827.42
205.767	7787.13
205.842	7865.49
205.916	7842.79
205.991	7810.09
206.065	7830.39
206.14	7885.3
206.214	7869.13
206.289	7848.24
206.363	7886.28
206.438	7895.62
206.512	7920.1
206.586	7983.09
206.661	8008.7
206.735	7936.31
206.81	7941.99
206.884	7993.29
206.958	7950.45
207.033	8007.6
207.107	8033.4
207.181	8143.82
207.256	8121.4
207.33	8188.73
207.405	8229.28
207.479	8294.94
207.553	8319.03
207.628	8261.68
207.702	8301.5
207.776	8278.94
207.851	8290.44
207.925	8343.09
207.999	8328.75
208.073	8322.59
208.148	8327.12
208.222	8292.52
208.296	8400.08
208.371	8449.68
208.445	8488.03
208.519	8580.15
208.593	8617.58
208.668	8597.13
208.742	8605.89
208.816	8613.4
208.89	8655.57
208.965	8648.73
209.039	8673.52
209.113	8732.43
209.187	8804.6
209.261	8790.84
209.336	8860.44
209.41	8923.16
209.484	8924.17
209.558	9000.28
209.632	9044.41
209.707	9085.23
209.781	9156.08
209.855	9207.03
209.929	9263.88
210.003	9283.67
210.077	9279.87
210.151	9444.1
210.226	9562.3
210.3	9650.86
210.374	9726.39
210.448	9739.97
210.522	9774.6
210.596	9811.21
210.67	9843.47
210.744	10004.36
210.818	10108.73
210.892	10170.68
210.966	10153.35
211.041	10205.65
211.115	10188.65
211.189	10262.97
211.263	10314.42
211.337	10339.7
211.411	10389.43
211.485	10366.68
211.559	10404.54
211.633	10409.69
211.707	10300.49
211.781	10320.01
211.855	10200.73
211.929	10175.4
212.003	10111.66
212.077	10145.34
212.151	10182.77
212.225	10208.6
212.299	10162.76
212.373	10125.63
212.447	10107.46
212.52	10203.52
212.594	10209.98
212.668	10250.34
212.742	10196.58
212.816	10178.9
212.89	10152.03
212.964	10136.85
213.038	10141.09
213.112	10182.62
213.186	10233
213.26	10157.17
213.333	9999.91
213.407	10008.77
213.481	10005.74
213.555	10040.73
213.629	9986.48
213.703	9918.99
213.777	9907.62
213.85	9834.35
213.924	9931.29
213.998	9926.57
214.072	9888.65
214.146	9832.67
214.219	9812.92
214.293	9798.28
214.367	9787.06
214.441	9809.22
214.515	9763.98
214.588	9676.95
214.662	9546.11
214.736	9464.3
214.81	9477.29
214.883	9494.47
214.957	9445.71
215.031	9391.77
215.105	9296.28
215.178	9232.87
215.252	9203.74
215.326	9103.55
215.4	9022.76
215.473	8842.9
215.547	8748.92
215.621	8682.31
215.694	8676.87
215.768	8577.57
215.842	8507.08
215.915	8434.72
215.989	8325.98
216.063	8263.06
216.136	8237.99
216.21	8211.68
216.284	8219.86
216.357	8196.24
216.431	8154.19
216.504	8146.49
216.578	8202.65
216.652	8216.16
216.725	8197.63
216.799	8194.45
216.873	8173
216.946	8178.97
217.02	8144.6
217.093	8115.55
217.167	8018.1
217.24	7932.84
217.314	7899.53
217.387	7858.15
217.461	7816.83
217.535	7831.26
217.608	7773.89
217.682	7744.51
217.755	7761.15
217.829	7704.77
217.902	7686.54
217.976	7667.89
218.049	7622.69
218.123	7547.2
218.196	7547.44
218.27	7509.26
218.343	7437.26
218.417	7438.27
218.49	7411.73
218.563	7452.3
218.637	7464.47
218.71	7529.72
218.784	7561.17
218.857	7592.03
218.931	7614.95
219.004	7623.8
219.077	7639.72
219.151	7655.34
219.224	7648.13
219.298	7636.15
219.371	7677.13
219.444	7639.02
219.518	7646.13
219.591	7663.24
219.665	7764.35
219.738	7779.59
219.811	7760.9
219.885	7807.74
219.958	7834.19
220.031	7842.94
220.105	7864.54
220.178	7867.76
220.251	7851.74
220.325	7873.29
220.398	7890.85
220.471	7909.12
220.544	7946.06
220.618	7929.51
220.691	7956.29
220.764	7977.74
220.838	8012.66
220.911	8000.25
220.984	8085.37
221.057	8123.03
221.131	8146.59
221.204	8046.92
221.277	8114.72
221.35	8232.25
221.424	8225.08
221.497	8237.64
221.57	8262.45
221.643	8298.25
221.716	8345.85
221.79	8341.28
221.863	8354.03
221.936	8359.52
222.009	8377.17
222.082	8405.32
222.155	8416.34
222.229	8481.56
222.302	8503.4
222.375	8503.01
222.448	8544.06
222.521	8548.44
222.594	8552.05
222.667	8523.49
222.74	8581.75
222.814	8570.43
222.887	8558.2
222.96	8613.55
223.033	8659.91
223.106	8682.76
223.179	8710.83
223.252	8724.26
223.325	8762.8
223.398	8773.68
223.471	8806.89
223.544	8829.84
223.617	8839.81
223.69	8860.16
223.763	8819.87
223.837	8849.71
223.91	8877.24
223.983	8825.71
224.056	8791.3
224.129	8810.79
224.202	8871.45
224.275	8863.65
224.348	8839.25
224.42	8802.09
224.493	8743.81
224.566	8711.5
224.639	8732.29
224.712	8702.3
224.785	8688.43
224.858	8672.93
224.931	8657.19
225.004	8617.4
225.077	8608.01
225.15	8520.31
225.223	8515.16
225.296	8598.75
225.369	8542.46
225.442	8508.52
225.514	8527.81
225.587	8548.21
225.66	8553.51
225.733	8560.2
225.806	8566.84
225.879	8555
225.952	8528.69
226.025	8573.78
226.097	8628.58
226.17	8620.4
226.243	8550.49
226.316	8547.5
226.389	8554.15
226.461	8573.35
226.534	8590.91
226.607	8590.38
226.68	8675.06
226.753	8670.72
226.825	8586.5
226.898	8641.12
226.971	8649.97
227.044	8676.2
227.117	8683.99
227.189	8703.01
227.262	8734.07
227.335	8752.94
227.407	8750
227.48	8781.61
227.553	8794.42
227.626	8775.34
227.698	8782.66
227.771	8825.37
227.844	8802.6
227.916	8823.88
227.989	8787.59
228.062	8791.58
228.134	8871.79
228.207	8871.07
228.28	8868.18
228.352	8881.23
228.425	8890.62
228.498	8935.63
228.57	8904.88
228.643	8964.39
228.716	8961.84
228.788	8945.71
228.861	8938.49
228.934	8996.92
229.006	9004.81
229.079	9006.78
229.151	8990.12
229.224	8954.47
229.296	8982.48
229.369	9085.25
229.442	9136.01
229.514	9116.76
229.587	9155.9
229.659	9081.41
229.732	9094.22
229.804	9136.44
229.877	9216.19
229.949	9247.49
230.022	9300.05
230.094	9308.32
230.167	9290.5
230.239	9247.33
230.312	9237.03
230.384	9309.27
230.457	9310.19
230.529	9319.28
230.602	9322.22
230.674	9332.91
230.747	9380.55
230.819	9412.77
230.892	9294.22
230.964	9292.44
231.037	9322.7
231.109	9310.37
231.181	9348.16
231.254	9312.2
231.326	9297.66
231.399	9265.24
231.471	9237.11
231.544	9155.96
231.616	9197.16
231.688	9208.81
231.761	9202.94
231.833	9185.66
231.905	9099.84
231.978	9098.01
232.05	9083.33
232.122	9087.43
232.195	9063.31
232.267	9095.52
232.339	9071.44
232.412	9137.77
232.484	9112.92
232.556	9089.53
232.629	9157.49
232.701	9176.18
232.773	9192.93
232.846	9182.48
232.918	9204.21
232.99	9220.77
233.062	9266.71
233.135	9278.03
233.207	9235.65
233.279	9278.92
233.351	9320.47
233.424	9323.6
233.496	9297.98
233.568	9378.4
233.64	9342
233.713	9366.08
233.785	9361.12
233.857	9377.3
233.929	9328.58
234.001	9396.36
234.074	9459.9
234.146	9391.31
234.218	9392.76
234.29	9391.65
234.362	9376.92
234.434	9324.52
234.507	9289.13
234.579	9232.07
234.651	9219.99
234.723	9250.46
234.795	9266.31
234.867	9258.36
234.939	9318.31
235.012	9337.57
235.084	9339.3
235.156	9378.88
235.228	9356.73
235.3	9340.93
235.372	9345.08
235.444	9402.56
235.516	9315.8
235.588	9326.88
235.66	9349.9
235.732	9324.57
235.804	9517.88
235.876	9567.52
235.948	9628.88
236.02	9646.5
236.092	9660.22
236.164	9671.34
236.236	9678.61
236.308	9678.81
236.38	9711.36
236.452	9692.77
236.524	9713.04
236.596	9775.83
236.668	9805.26
236.74	9827.03
236.812	9859.87
236.884	9891.57
236.956	9902.11
237.028	9898.79
237.1	9876.88
237.172	9944.86
237.244	10019.13
237.316	9904.23
237.388	9883.91
237.46	9858.09
237.532	9917.81
237.604	9909.49
237.675	9981.84
237.747	10024.04
237.819	10010.61
237.891	10008.92
237.963	10000.54
238.035	10000.3
238.107	9890.79
238.178	9953.05
238.25	9965.14
238.322	10053.51
238.394	10015.36
238.466	10016.52
238.538	10059.95
238.609	10101.13
238.681	10045.2
238.753	10027.52
238.825	10042.45
238.897	10070.43
238.968	10160.49
239.04	10144.69
239.112	10261.31
239.184	10222.28
239.255	10218.38
239.327	10256.57
239.399	10279.26
239.471	10325.11
239.542	10357.53
239.614	10431.19
239.686	10342.68
239.758	10392.11
239.829	10356.35
239.901	10424.08
239.973	10439.45
240.044	10472.45
240.116	10483.05
240.188	10496.58
240.259	10510.56
240.331	10501.02
240.403	10543.31
240.474	10486.2
240.546	10472.28
240.618	10403.48
240.689	10401.02
240.761	10423.43
240.833	10490.74
240.904	10490.69
240.976	10486.31
241.048	10507.9
241.119	10545
241.191	10602.52
241.262	10665.13
241.334	10676.94
241.405	10674.96
241.477	10680.55
241.549	10683.06
241.62	10713.51
241.692	10757.88
241.763	10816.49
241.835	10837.06
241.906	10851.76
241.978	10824.01
242.049	10892.38
242.121	10964.89
242.192	11039.68
242.264	11006.24
242.335	10954.44
242.407	10999.74
242.478	11009.52
242.55	11028.94
242.621	11012.07
242.693	11003.3
242.764	10990.33
242.836	10982.43
242.907	11012.16
242.979	11041.99
243.05	11070.81
243.122	11091.87
243.193	11091.48
243.264	11009.22
243.336	11015.92
243.407	11052.07
243.479	11137.36
243.55	11151.87
243.622	11164.45
243.693	11156.11
243.764	11220.01
243.836	11195.73
243.907	11182.28
243.978	11181.85
244.05	11206.28
244.121	11155.64
244.192	11203.35
244.264	11158.82
244.335	11174.1
244.407	11127.98
244.478	11143.74
244.549	11129.95
244.62	11087.84
244.692	11086.54
244.763	11141.18
244.834	11128.41
244.906	11103.39
244.977	11126.53
245.048	11177.14
245.119	11151.6
245.191	11130.11
245.262	11067.46
245.333	11142.58
245.405	11158.82
245.476	11196.65
245.547	11206.87
245.618	11266.57
245.689	11278.19
245.761	11314.76
245.832	11314.28
245.903	11356.01
245.974	11381.7
246.045	11404.98
246.117	11489.76
246.188	11477.47
246.259	11456.02
246.33	11475.97
246.401	11492.36
246.473	11449.41
246.544	11434.33
246.615	11499.49
246.686	11504.26
246.757	11581.13
246.828	11564.5
246.899	11643.84
246.97	11607.31
247.042	11601.77
247.113	11639.22
247.184	11721.8
247.255	11716.3
247.326	11751.05
247.397	11757.66
247.468	11766.33
247.539	11778.33
247.61	11729.36
247.681	11770.18
247.752	11827.68
247.823	11802.52
247.894	11814.62
247.965	11791.15
248.037	11778.76
248.108	11717.16
248.179	11723.38
248.25	11713.93
248.321	11744.2
248.392	11693.59
248.463	11775.04
248.534	11776.24
248.605	11794.03
248.675	11769.59
248.746	11792.38
248.817	11804.92
248.888	11833.79
248.959	11785.64
249.03	11809.36
249.101	11820.87
249.172	11807.19
249.243	11736.68
249.314	11800.68
249.385	11812.25
249.456	11843.24
249.527	11842.61
249.598	11868.35
249.669	11871.05
249.739	11888.98
249.81	11898.57
249.881	11853.27
249.952	11854.52
250.023	11846.18
250.094	11799.96
250.165	11773.4
250.235	11766.98
250.306	11766.65
250.377	11723.99
250.448	11741.44
250.519	11672.52
250.59	11736.29
250.66	11737.93
250.731	11811.04
250.802	11810.51
250.873	11827.43
250.944	11846.32
251.014	11830.37
251.085	11925.76
251.156	11948.51
251.227	11993
251.297	12044.58
251.368	12106.23
251.439	12140.98
251.51	12196.66
251.58	12179.4
251.651	12169.52
251.722	12223.03
251.792	12174.35
251.863	12187.26
251.934	12254.6
252.005	12373.32
252.075	12372.3
252.146	12420.07
252.217	12464.8
252.287	12509.25
252.358	12506.07
252.429	12582.23
252.499	12581.94
252.57	12588.16
252.641	12642.1
252.711	12650.97
252.782	12611.64
252.852	12678.59
252.923	12683.22
252.994	12694.21
253.064	12749.84
253.135	12732.48
253.205	12705.92
253.276	12787.67
253.347	12859.59
253.417	12836.69
253.488	12813.94
253.558	12800.06
253.629	12797.36
253.699	12805.31
253.77	12824.69
253.841	12831.01
253.911	12836.21
253.982	12856.41
254.052	12879.89
254.123	12884.27
254.193	12888.03
254.264	13025.32
254.334	12992.4
254.405	12963.67
254.475	12934.36
254.546	12937.39
254.616	13001.31
254.687	13036.12
254.757	13055.64
254.827	13042.58
254.898	13059.26
254.968	13067.55
255.039	13054.39
255.109	13091.36
255.18	13070.54
255.25	13001.7
255.321	13030
255.391	12985.16
255.461	13063.98
255.532	12982.85
255.602	12975.57
255.673	12916.61
255.743	12875.5
255.813	12806.9
255.884	12847.83
255.954	12884.8
256.024	12949.11
256.095	12951.18
256.165	12925.25
256.235	12949.74
256.306	12938.7
256.376	12992.45
256.446	13031.01
256.517	13064.56
256.587	13107.08
256.657	13124.82
256.728	13151.77
256.798	13166.42
256.868	13168.93
256.938	13141.07
257.009	13190.24
257.079	13219.79
257.149	13327.58
257.219	13269.05
257.29	13309.45
257.36	13244.95
257.43	13276.52
257.5	13218.48
257.571	13210.72
257.641	13245.28
257.711	13208.12
257.781	13237.67
257.852	13249.67
257.922	13188.11
257.992	13191.49
258.062	13181.65
258.132	13218.87
258.202	13225.42
258.273	13229.91
258.343	13299.95
258.413	13285.83
258.483	13291.47
258.553	13272.47
258.623	13240.46
258.693	13264.23
258.764	13333.5
258.834	13412.8
258.904	13429.19
258.974	13411.06
259.044	13418.68
259.114	13435.6
259.184	13459.08
259.254	13467.8
259.324	13417.57
259.394	13467.61
259.464	13543.73
259.535	13552.69
259.605	13551.59
259.675	13548.21
259.745	13589.43
259.815	13566.82
259.885	13573.76
259.955	13682.46
260.025	13668.14
260.095	13680.39
260.165	13714.66
260.235	13768.89
260.305	13751.68
260.375	13725.36
260.445	13813.19
260.515	13878.61
260.585	13930.96
260.655	13937.95
260.725	13979.41
260.795	14021.97
260.865	14088.4
260.934	14060.1
261.004	14093.32
261.074	14095.05
261.144	14152.95
261.214	14185.25
261.284	14193.15
261.354	14231.19
261.424	14192.68
261.494	14258.28
261.564	14258.57
261.634	14289.57
261.703	14223
261.773	14250.23
261.843	14283.93
261.913	14280.94
261.983	14226.81
262.053	14246.86
262.123	14249.46
262.192	14207.62
262.262	14247.39
262.332	14195.38
262.402	14232.2
262.472	14236.01
262.541	14178.02
262.611	14217.74
262.681	14192.14
262.751	14224.68
262.821	14227.62
262.89	14190.51
262.96	14221.26
263.03	14311.98
263.1	14324.42
263.169	14349.48
263.239	14377.54
263.309	14440.93
263.379	14471.63
263.448	14491.78
263.518	14507.02
263.588	14518.3
263.657	14597.5
263.727	14629.17
263.797	14648.16
263.867	14639.34
263.936	14606.99
264.006	14669.57
264.076	14666.48
264.145	14666.48
264.215	14653.51
264.285	14695.79
264.354	14654.14
264.424	14631.97
264.494	14581.45
264.563	14570.99
264.633	14645.51
264.702	14673.95
264.772	14621.46
264.842	14619.43
264.911	14649.23
264.981	14622.76
265.05	14638.43
265.12	14628.26
265.19	14652.79
265.259	14692.71
265.329	14730.3
265.398	14757.83
265.468	14855.15
265.537	14851.58
265.607	14888.8
265.676	14933.96
265.746	14951.8
265.815	15018.52
265.885	15029.31
265.955	15018.85
266.024	15027.14
266.094	14965.97
266.163	15018.27
266.232	15088.17
266.302	15100.65
266.371	15133.62
266.441	15154.54
266.51	15208
266.58	15223.38
266.649	15200.77
266.719	15256.1
266.788	15280.64
266.858	15351.4
266.927	15283.43
266.996	15315.01
267.066	15341.52
267.135	15314.28
267.205	15361.61
267.274	15371.06
267.343	15427.89
267.413	15434.11
267.482	15489.64
267.552	15555
267.621	15517.6
267.69	15472.29
267.76	15500.63
267.829	15524.4
267.898	15541.75
267.968	15516.35
268.037	15544.25
268.106	15592.36
268.176	15566.38
268.245	15586.09
268.314	15579.49
268.384	15639.02
268.453	15658.64
268.522	15683.26
268.592	15750.36
268.661	15729.25
268.73	15761.11
268.799	15755.57
268.869	15842.67
268.938	15805.55
269.007	15796.78
269.076	15817.84
269.146	15880.12
269.215	15900.7
269.284	15961.62
269.353	15962.54
269.422	15975.07
269.492	15973.82
269.561	15898.43
269.63	15928.36
269.699	15910.87
269.768	15926.92
269.838	15952.41
269.907	15992.51
269.976	15957.67
270.045	15904.31
270.114	15942.1
270.183	15956.51
270.253	15983.74
270.322	15933.18
270.391	15953.04
270.46	16016.22
270.529	16064.37
270.598	16095.65
270.667	16110.06
270.736	16095.32
270.806	16128.33
270.875	16192.97
270.944	16212.92
271.013	16335.25
271.082	16362.72
271.151	16405.9
271.22	16370.48
271.289	16382.91
271.358	16382.53
271.427	16429.33
271.496	16459.4
271.565	16463.45
271.634	16488.27
271.703	16617.58
271.772	16682.11
271.841	16705.92
271.91	16678.74
271.979	16690.6
272.048	16665.97
272.117	16711.27
272.186	16706.16
272.255	16748
272.324	16786.7
272.393	16825.11
272.462	16817.06
272.531	16838.94
272.6	16854.32
272.669	16934.71
272.738	16947.82
272.807	16987.48
272.876	16968.88
272.945	17109.65
273.013	17166.38
273.082	17233.03
273.151	17137.32
273.22	17176.79
273.289	17195.25
273.358	17274.96
273.427	17291.73
273.496	17350.82
273.564	17391.3
273.633	17448.41
273.702	17439.4
273.771	17453.42
273.84	17479.93
273.909	17529.23
273.977	17563.25
274.046	17575.97
274.115	17632.89
274.184	17629.56
274.253	17657.61
274.322	17737.9
274.39	17674.39
274.459	17678.48
274.528	17628.02
274.597	17652.27
274.665	17685.81
274.734	17762.87
274.803	17770.72
274.872	17794
274.94	17782.58
275.009	18002.83
275.078	18003.17
275.147	18041.14
275.215	18071.46
275.284	18136.18
275.353	18136.37
275.421	18109.57
275.49	18202.97
275.559	18211.69
275.627	18240.61
275.696	18256.51
275.765	18300.6
275.833	18317.28
275.902	18362.58
275.971	18440.6
276.039	18531.15
276.108	18583.19
276.177	18625.07
276.245	18635.82
276.314	18654.8
276.383	18715.38
276.451	18548.71
276.52	18600.04
276.588	18677.19
276.657	18735.4
276.725	18744.94
276.794	18790.87
276.863	18873.18
276.931	18847.88
277	18916.4
277.068	18988.11
277.137	19090.28
277.205	19126.27
277.274	19248.58
277.342	19316.82
277.411	19301.25
277.48	19302.22
277.548	19311.95
277.617	19337.88
277.685	19372.82
277.754	19439.37
277.822	19461.15
277.89	19555.36
277.959	19583.17
278.027	19573.29
278.096	19579.55
278.164	19713.34
278.233	19735.89
278.301	19739.51
278.37	19805.91
278.438	19797.77
278.507	19854.44
278.575	19816.42
278.643	19841.28
278.712	19807.5
278.78	19798.01
278.849	19883.5
278.917	19959.98
278.985	19989.28
279.054	20046.29
279.122	20127.45
279.191	20166.77
279.259	20202.09
279.327	20173.13
279.396	20265.56
279.464	20298.67
279.532	20358.38
279.601	20373.66
279.669	20404.02
279.737	20489.85
279.806	20533.47
279.874	20609.81
279.942	20638.2
280.011	20667.21
280.079	20737.91
280.147	20837.81
280.215	20903.55
280.284	20939.26
280.352	20937.53
280.42	21011.9
280.488	21022.59
280.557	21033.92
280.625	21092.19
280.693	21139.28
280.761	21193.5
280.83	21175.86
280.898	21261.55
280.966	21256.73
281.034	21204.29
281.102	21203.66
281.171	21226.89
281.239	21296.94
281.307	21305.37
281.375	21313.27
281.443	21439.71
281.512	21475.72
281.58	21537.37
281.648	21526.62
281.716	21554.87
281.784	21603.79
281.852	21629.15
281.92	21666.65
281.989	21744.16
282.057	21724.64
282.125	21907.48
282.193	21947.34
282.261	21996.7
282.329	22022.06
282.397	22076.67
282.465	22133.11
282.533	22230.23
282.601	22248.94
282.67	22213.65
282.738	22235.2
282.806	22315.07
282.874	22308.03
282.942	22362.37
283.01	22382.47
283.078	22450.97
283.146	22487.03
283.214	22563.11
283.282	22609.49
283.35	22710.5
283.418	22728.34
283.486	22797.76
283.554	22703.95
283.622	22746.19
283.69	22799.9
283.758	22832.35
283.826	22891.31
283.894	22974.73
283.962	23080.1
284.03	23168.1
284.098	23233.37
284.165	23270.69
284.233	23324.31
284.301	23355.12
284.369	23381.6
284.437	23404.99
284.505	23444.62
284.573	23545.93
284.641	23552.44
284.709	23622.24
284.777	23608.78
284.845	23687.25
284.912	23749.03
284.98	23815.82
285.048	23846.25
285.116	23904.03
285.184	23994.28
285.252	24039.52
285.319	24030.98
285.387	24052.06
285.455	24056.26
285.523	24126.63
285.591	24170.71
285.659	24218.8
285.726	24308.86
285.794	24301.39
285.862	24339.49
285.93	24375.43
285.997	24410.36
286.065	24436.98
286.133	24447.3
286.201	24482.03
286.269	24487.15
286.336	24513.54
286.404	24536.5
286.472	24610.7
286.539	24581.28
286.607	24566.18
286.675	24615.3
286.743	24687.76
286.81	24718.79
286.878	24802.84
286.946	24811.04
287.013	24856.19
287.081	24897.26
287.149	24885.58
287.216	24992.4
287.284	25031.68
287.352	25081.42
287.419	25107.24
287.487	25206.07
287.555	25272.92
287.622	25312
287.69	25376.1
287.758	25450.61
287.825	25486.23
287.893	25489.99
287.96	25570.85
288.028	25655.7
288.096	25708.36
288.163	25762.66
288.231	25767.93
288.298	25801.52
288.366	25899.57
288.433	25931.95
288.501	25950.63
288.569	26019.75
288.636	26041.57
288.704	26120.94
288.771	26201.62
288.839	26220.58
288.906	26229.57
288.974	26295.59
289.041	26332.18
289.109	26342.36
289.176	26416.36
289.244	26471.2
289.311	26562.76
289.379	26633.53
289.446	26690.38
289.514	26725.35
289.581	26771.85
289.649	26836.37
289.716	26899.06
289.783	26912.29
289.851	27023.6
289.918	27074.59
289.986	27141.59
290.053	27202.59
290.121	27239.16
290.188	27285.2
290.255	27421.05
290.323	27463.5
290.39	27490.13
290.458	27559.38
290.525	27660.74
290.592	27689.06
290.66	27754.61
290.727	27776.74
290.794	27876.15
290.862	27925.78
290.929	27996.43
290.996	28046.44
291.064	28121.3
291.131	28205.51
291.198	28303.82
291.266	28351.57
291.333	28399.11
291.4	28458.57
291.468	28566.14
291.535	28609.06
291.602	28661.22
291.669	28687.43
291.737	28757.74
291.804	28806.14
291.871	28907.17
291.938	28974.68
292.006	29108.2
292.073	29190.82
292.14	29280.86
292.207	29292.32
292.275	29329.79
292.342	29383.13
292.409	29505.8
292.476	29626.17
292.543	29644.99
292.611	29700.82
292.678	29803.96
292.745	29939.58
292.812	30009.48
292.879	30033.53
292.946	30081.02
293.014	30179.33
293.081	30250.55
293.148	30339.56
293.215	30437.6
293.282	30468.51
293.349	30526.44
293.416	30505.29
293.484	30592.84
293.551	30672.17
293.618	30774.32
293.685	30924.68
293.752	30979.7
293.819	31012.67
293.886	31012.62
293.953	31067.55
294.02	31133.54
294.087	31186.07
294.154	31200.26
294.221	31300.94
294.288	31357.38
294.356	31474.48
294.423	31534.53
294.49	31551.04
294.557	31633.7
294.624	31656.99
294.691	31774.51
294.758	31838.83
294.825	31915.48
294.892	31929.92
294.959	31976.03
295.026	32059.84
295.093	32071.76
295.16	32119.26
295.226	32174.19
295.293	32304.09
295.36	32370.29
295.427	32468.61
295.494	32555.36
295.561	32633.97
295.628	32758.53
295.695	32859.94
295.762	32918.67
295.829	32997.09
295.896	33107.35
295.963	33190.19
296.03	33281.23
296.096	33350.02
296.163	33434.99
296.23	33545.61
296.297	33648.24
296.364	33691.03
296.431	33755.42
296.498	33787.41
296.564	33918.66
296.631	33979.06
296.698	33989.24
296.765	34120.81
296.832	34125.23
296.899	34141.32
296.965	34249.88
297.032	34241
297.099	34341.31
297.166	34430.44
297.233	34479.04
297.299	34523.98
297.366	34574.23
297.433	34625.73
297.5	34701.45
297.566	34742.92
297.633	34784.64
297.7	34836.29
297.767	34879.83
297.833	34946.68
297.9	35022.18
297.967	35020.87
298.033	35119.06
298.1	35262.2
298.167	35263.27
298.234	35337.52
298.3	35424.5
298.367	35450.17
298.434	35519.51
298.5	35531.74
298.567	35552.6
298.634	35588.85
298.7	35693.16
298.767	35754.4
298.834	35852.18
298.9	35880.71
298.967	35923.46
299.033	35997.38
299.1	36110.07
299.167	36225.4
299.233	36263.75
299.3	36349.35
299.366	36451
299.433	36531.2
299.5	36496.35
299.566	36574.23
299.633	36673.74
299.699	36758.89
299.766	36812.37
299.832	36873.45
299.899	36956.41
299.965	37043.11
300.032	37092.08
300.099	37161.46
300.165	37229.72
300.232	37266.47
300.298	37324.19
300.365	37411.09
300.431	37465.57
300.498	37487.72
300.564	37547.68
300.631	37631.83
300.697	37741.97
300.763	37795.86
300.83	37836.9
300.896	37926.97
300.963	38007.38
301.029	38065.66
301.096	38115.1
301.162	38207.99
301.229	38248.64
301.295	38262.48
301.361	38327.27
301.428	38390.93
301.494	38389.28
301.561	38445.81
301.627	38497
301.693	38548.77
301.76	38611.91
301.826	38655.14
301.892	38744.03
301.959	38833.71
302.025	38858.43
302.092	38869.12
302.158	38937.75
302.224	39001.59
302.291	39021.02
302.357	39054.58
302.423	39087.47
302.49	39113.61
302.556	39195.33
302.622	39235.12
302.688	39323.58
302.755	39407.34
302.821	39471.41
302.887	39548.31
302.954	39590.14
303.02	39670.3
303.086	39735.11
303.152	39778.89
303.219	39799.15
303.285	39843.66
303.351	39893.67
303.417	39952.6
303.483	39989.04
303.55	40016.59
303.616	40053.91
303.682	40099.19
303.748	40121.73
303.815	40211.64
303.881	40296.19
303.947	40305.52
304.013	40364.13
304.079	40376.42
304.145	40350.81
304.212	40399.01
304.278	40417.28
304.344	40448.19
304.41	40454.31
304.476	40473.95
304.542	40494.5
304.608	40570.99
304.674	40558.6
304.741	40592.04
304.807	40647.11
304.873	40705.77
304.939	40805.02
305.005	40791.02
305.071	40830.92
305.137	40882.18
305.203	40844.27
305.269	40882.23
305.335	40969.35
305.401	41005.46
305.467	41045.07
305.533	41134.89
305.599	41205.47
305.666	41279.25
305.732	41336.02
305.798	41415.4
305.864	41550.6
305.93	41606.64
305.996	41641.3
306.062	41702.25
306.128	41728.6
306.194	41737.6
306.259	41773.18
306.325	41776.98
306.391	41868.66
306.457	41941.96
306.523	42003.25
306.589	42128.54
306.655	42142.98
306.721	42109.97
306.787	42112.3
306.853	42202.3
306.919	42175.7
306.985	42187.47
307.051	42216.45
307.117	42223.88
307.183	42247.13
307.248	42189.02
307.314	42251.64
307.38	42304.25
307.446	42358.95
307.512	42370.91
307.578	42415.5
307.644	42437.18
307.709	42482.79
307.775	42506.04
307.841	42532.25
307.907	42570.61
307.973	42537.74
308.039	42580.24
308.104	42648.85
308.17	42695.86
308.236	42686.52
308.302	42744.52
308.368	42748.51
308.433	42777.44
308.499	42800.88
308.565	42800.68
308.631	42854.9
308.696	42825.24
308.762	42816.05
308.828	42853.89
308.894	42849.32
308.959	42823.64
309.025	42834.44
309.091	42853.41
309.156	42864.3
309.222	42926.51
309.288	42924.9
309.354	42909.25
309.419	42926.32
309.485	42914.55
309.551	42971.7
309.616	42970.63
309.682	43002.58
309.748	43022.08
309.813	43054.61
309.879	43075.96
309.945	43090.79
310.01	43100.81
310.076	43154.35
310.141	43177.26
310.207	43162.38
310.273	43204.1
310.338	43264.15
310.404	43260.85
310.469	43273.79
310.535	43277.29
310.601	43239.69
310.666	43303.02
310.732	43373.24
310.797	43384.77
310.863	43381.47
310.928	43390.85
310.994	43434.48
311.059	43442.8
311.125	43475.53
311.191	43536.2
311.256	43541.16
311.322	43587.07
311.387	43571.8
311.453	44470.21
311.518	44512.29
311.584	44532.92
311.649	44577.28
311.715	44587.35
311.78	44633.06
311.846	44624.21
311.911	44687.94
311.976	44728.85
312.042	44715.08
312.107	44698.74
312.173	44715.37
312.238	44746.11
312.304	44761.49
312.369	44769.22
312.434	44789.7
312.5	44805.41
312.565	44745.33
312.631	44803.89
312.696	44807.49
312.761	44844.85
312.827	43979.17
312.892	44046.72
312.958	44093.28
313.023	44121.51
313.088	44150.74
313.154	44147.73
313.219	44161.59
313.284	44149.57
313.35	44164.17
313.415	44158.62
313.48	44186.1
313.546	44213.45
313.611	44274.17
313.676	44275.38
313.741	44293.48
313.807	44348.17
313.872	44394.98
313.937	44456.47
314.003	44507.47
314.068	44545.52
314.133	44593.84
314.198	44603.86
314.264	44586.92
314.329	44571.84
314.394	44574.76
314.459	44593.05
314.525	44669.44
314.59	44699.27
314.655	44706.22
314.72	44752.55
314.785	44796.97
314.851	44805.2
314.916	44783.79
314.981	44758.78
315.046	44763.25
315.111	44750.07
315.176	44734.06
315.242	44764.04
315.307	44770.17
315.372	44734.11
315.437	44746.66
315.502	44759.95
315.567	44821.08
315.632	44791.2
315.698	44843.52
315.763	44872.57
315.828	44874.71
315.893	44881.38
315.958	44893.84
316.023	44890.04
316.088	44850.19
316.153	44786.75
316.218	44782.27
316.283	44734.8
316.348	44703.71
316.413	44706.58
316.479	44669.66
316.544	44578.84
316.609	44487.46
316.674	44372.71
316.739	44250.68
316.804	44134.46
316.869	44012.55
316.934	43866.59
316.999	43752.92
317.064	43551.89
317.129	43373.12
317.194	43230
317.259	43048.61
317.324	42837.19
317.389	42663.15
317.454	42493.78
317.518	42364.51
317.583	42244.34
317.648	42139.62
317.713	41980.78
317.778	41743.52
317.843	41609
317.908	41439.61
317.973	41265.63
318.038	41132.35
318.103	40979.81
318.168	40822.28
318.233	40660.63
318.297	40438.16
318.362	40266.27
318.427	40085.06
318.492	39953.51
318.557	39749.47
318.622	39602.33
318.687	39481.48
318.751	39284.42
318.816	39120.12
318.881	38939.91
318.946	38689.12
319.011	38468.22
319.075	38266.67
319.14	38091.87
319.205	37870.47
319.27	37699.71
319.335	37465.45
319.399	37251.87
319.464	37078.75
319.529	36837.6
319.594	36630.75
319.658	36466.22
319.723	36248.07
319.788	36085.9
319.853	35827.52
319.917	35641.23
319.982	35381.93
320.047	35161.14
320.112	34990.22
320.176	34745.56
320.241	34540.16
320.306	34353.81
320.37	34123.42
320.435	33931.07
320.5	33742.62
320.564	33513.17
320.629	33265.92
320.694	33073.11
320.758	32850.59
320.823	32608.82
320.888	32411.52
320.952	32154.99
321.017	31911.17
321.082	31673.12
321.146	31460.22
321.211	31253.18
321.275	31023.21
321.34	30774.95
321.405	30528.67
321.469	30281.68
321.534	30044.2
321.598	29780.51
321.663	29572.98
321.727	29373.23
321.792	29111.88
321.857	28869.87
321.921	28650.25
321.986	28412.34
322.05	28135.24
322.115	27905.09
322.179	27660.86
322.244	27380.73
322.308	27156.12
322.373	26907.39
322.437	26685.82
322.502	26484.44
322.566	26227.7
322.631	26001.65
322.695	25770.18
322.76	25523.36
322.824	25297.44
322.889	25042.15
322.953	24789.69
323.018	24476.73
323.082	24155.22
323.146	23873.21
323.211	23594.11
323.275	23344.71
323.34	23087.46
323.404	22845.43
323.468	22582.28
323.533	22324.25
323.597	22061.05
323.662	21789.92
323.726	21555.26
323.79	21277.35
323.855	20948.65
323.919	20671.93
323.983	20406.82
324.048	20019.66
324.112	20049.94
324.177	19242.33
324.241	18190.94
324.305	17154.83
324.37	16130.05
324.434	15147.5
324.498	14869.83
324.562	14546.59
324.627	14181.02
324.691	13828.82
324.755	13444.61
324.82	12989.94
324.884	12516.3
324.948	12035.73
325.012	11443.43
325.077	10724.21
