Data from 20250701_urea_2M_exp3_MAYP1162681_21-59-51-166.txt Node
Date: Tue Jul 01 21:59:51 BST 2025
User: adleo
Spectrometer: MAYP116268
Trigger mode: 0
Integration Time (sec): 4.000000E0
Scans to average: 1
Electric dark correction enabled: true
Nonlinearity correction enabled: true
Boxcar width: 10
XAxis mode: Wavelengths
Number of Pixels in Spectrum: 2068
>>>>>Begin Spectral Data<<<<<
179.565	3844.01
179.642	4044.52
179.718	4198.06
179.795	4336.07
179.871	4458.57
179.948	4522.51
180.024	4599.06
180.101	4683.29
180.177	4741.2
180.254	4827.94
180.33	4911.51
180.407	5193.06
180.483	5492.72
180.56	5799.39
180.636	6077.67
180.712	6033.83
180.789	6071.26
180.865	6116.96
180.942	6146.08
181.018	6181.4
181.095	6228.12
181.171	6246.88
181.248	6246.31
181.324	6304.85
181.4	6331.44
181.477	6369.66
181.553	6419.37
181.63	6490.24
181.706	6548.4
181.782	6571.95
181.859	6565.33
181.935	6579.35
182.011	6569.03
182.088	6625.32
182.164	6693.8
182.24	6746.74
182.317	6780.88
182.393	6773.15
182.469	6823.77
182.546	6873.96
182.622	6894.42
182.698	6882.75
182.775	6930.3
182.851	6982.03
182.927	6956.9
183.003	6940.72
183.08	6913.54
183.156	6942.31
183.232	6935.06
183.308	6892.54
183.385	6923.52
183.461	6985.44
183.537	6988.09
183.613	7028.54
183.69	6996.97
183.766	6958.13
183.842	6988.89
183.918	7006.57
183.995	7050.86
184.071	7058.36
184.147	7037.26
184.223	6997.27
184.299	7039.18
184.375	6997.19
184.452	7024.69
184.528	7147.82
184.604	7187.83
184.68	7234.72
184.756	7262.26
184.832	7276.68
184.908	7292.38
184.985	7287.58
185.061	7228.29
185.137	7255.01
185.213	7214.27
185.289	7221.24
185.365	7194.91
185.441	7178.67
185.517	7225.07
185.593	7216.61
185.669	7209.49
185.745	7247.32
185.822	7305.62
185.898	7276.63
185.974	7310.69
186.05	7277.66
186.126	7203.89
186.202	7176.89
186.278	7162.91
186.354	7129.88
186.43	7153.35
186.506	7151.62
186.582	7151.38
186.658	7176.88
186.734	7111.37
186.81	7116.17
186.886	7124.43
186.962	7169.54
187.038	7160.8
187.114	7129.78
187.19	7154.87
187.266	7126.53
187.341	7122.87
187.417	7098.42
187.493	7104.18
187.569	7115.19
187.645	7093.76
187.721	7056.32
187.797	7083.27
187.873	7096.92
187.949	7074.82
188.025	7055.73
188.101	7062.6
188.176	7082.2
188.252	7067.7
188.328	7095.35
188.404	7103.08
188.48	7082.86
188.556	7058.11
188.632	7054.8
188.707	7058.98
188.783	7048.4
188.859	7030.21
188.935	6996.08
189.011	7024.43
189.086	6994.94
189.162	6964.33
189.238	6954.96
189.314	6939.98
189.39	6920.23
189.465	6892.17
189.541	6953.49
189.617	6898.14
189.693	6879.36
189.768	6893.16
189.844	6982.39
189.92	6952.96
189.996	6981.36
190.071	7021.91
190.147	7017.1
190.223	7047.72
190.298	7020.61
190.374	6974.59
190.45	7015.94
190.526	7042.66
190.601	7024.49
190.677	7028.29
190.753	7126.77
190.828	7141.52
190.904	7197.55
190.98	7255.38
191.055	7300.36
191.131	7269.59
191.207	7339.17
191.282	7376.5
191.358	7340.65
191.433	7281.88
191.509	7331.53
191.585	7321.53
191.66	7323.36
191.736	7352.67
191.811	7319.03
191.887	7378.84
191.963	7457.91
192.038	7474.88
192.114	7472.71
192.189	7481.51
192.265	7467.49
192.34	7386.44
192.416	7386.34
192.491	7375.04
192.567	7380.43
192.642	7385.72
192.718	7382.07
192.793	7339.19
192.869	7324.01
192.944	7335.49
193.02	7364.53
193.095	7379.57
193.171	7402.74
193.246	7405.96
193.322	7396.06
193.397	7405.09
193.473	7353.93
193.548	7294.7
193.624	7319.03
193.699	7317.97
193.775	7376.45
193.85	7390.37
193.925	7421.67
194.001	7420.81
194.076	7391.1
194.152	7354.7
194.227	7327.2
194.302	7297.95
194.378	7310.92
194.453	7298.19
194.529	7338.72
194.604	7290.46
194.679	7268.69
194.755	7204.26
194.83	7248.75
194.905	7238.99
194.981	7268.32
195.056	7242.62
195.131	7261.88
195.207	7255.2
195.282	7228.58
195.357	7161.41
195.433	7208.07
195.508	7170.14
195.583	7191.86
195.659	7243.11
195.734	7268.69
195.809	7266.91
195.884	7297.27
195.96	7300.63
196.035	7348.83
196.11	7334.36
196.185	7377.76
196.261	7393.52
196.336	7503.17
196.411	7455.31
196.486	7476.61
196.561	7449.83
196.637	7484.04
196.712	7532.47
196.787	7536.7
196.862	7586.54
196.937	7621.01
197.013	7643.9
197.088	7678.03
197.163	7756.05
197.238	7814.24
197.313	7808.71
197.388	7852.27
197.464	7953.92
197.539	7990.37
197.614	7973.83
197.689	8019.05
197.764	8069.28
197.839	8136.23
197.914	8105.2
197.989	8176.01
198.065	8221.32
198.14	8399.18
198.215	8493.2
198.29	8545.19
198.365	8590.32
198.44	8625.63
198.515	8721.99
198.59	8775.61
198.665	8867.1
198.74	8894.49
198.815	8905.38
198.89	8990.56
198.965	9093.84
199.04	9082.76
199.115	9137.05
199.19	9286.31
199.265	9293.19
199.34	9332.05
199.415	9448.03
199.49	9526.3
199.565	9561.74
199.64	9645.18
199.715	9632.75
199.79	9652.88
199.865	9670.8
199.94	9664.15
200.015	9778.64
200.09	9796.75
200.165	9819.1
200.24	9837.98
200.315	9974.64
200.39	10020.16
200.464	10034.8
200.539	10035.23
200.614	10091.29
200.689	10174.96
200.764	10190.29
200.839	10252.35
200.914	10265.31
200.989	10229.99
201.063	10277.05
201.138	10219.52
201.213	10220.97
201.288	10155.8
201.363	10176.32
201.438	10177.47
201.512	10239.21
201.587	10175.08
201.662	10192.91
201.737	10233.61
201.812	10263.34
201.886	10150.04
201.961	10183.92
202.036	10144.91
202.111	10141.59
202.186	10040.58
202.26	9978.29
202.335	9905.94
202.41	9886.05
202.485	9831.2
202.559	9763.05
202.634	9668.37
202.709	9696.14
202.784	9624.63
202.858	9620.68
202.933	9549.22
203.008	9524.66
203.082	9459.84
203.157	9453.15
203.232	9299.56
203.306	9226.88
203.381	9117.37
203.456	9035.62
203.53	8956.8
203.605	8889.3
203.68	8811.72
203.754	8788.35
203.829	8736.07
203.904	8664.99
203.978	8621.08
204.053	8632.88
204.127	8583.17
204.202	8580.04
204.277	8517.39
204.351	8494.87
204.426	8477.83
204.5	8449.54
204.575	8328.76
204.65	8357.55
204.724	8336.75
204.799	8366.41
204.873	8350.96
204.948	8341.1
205.022	8300.84
205.097	8268.34
205.171	8313.32
205.246	8333.2
205.32	8329.31
205.395	8332
205.469	8305.41
205.544	8325.68
205.618	8266.69
205.693	8312.35
205.767	8266.99
205.842	8341.48
205.916	8322.91
205.991	8282.11
206.065	8304.77
206.14	8365.19
206.214	8347.09
206.289	8319.08
206.363	8358.1
206.438	8366.96
206.512	8398.04
206.586	8461.54
206.661	8487.78
206.735	8416.37
206.81	8424.84
206.884	8478.38
206.958	8432.49
207.033	8490.92
207.107	8518.7
207.181	8624.55
207.256	8597.36
207.33	8665.87
207.405	8705.41
207.479	8771.44
207.553	8797.13
207.628	8739.22
207.702	8770.21
207.776	8744.89
207.851	8748.31
207.925	8802.91
207.999	8787.75
208.073	8778.61
208.148	8792.52
208.222	8749.96
208.296	8861.67
208.371	8913.4
208.445	8954.8
208.519	9047.39
208.593	9082.53
208.668	9064.47
208.742	9074.35
208.816	9085.32
208.89	9130.59
208.965	9127.75
209.039	9153.56
209.113	9212.49
209.187	9285.99
209.261	9274.78
209.336	9340.21
209.41	9414.22
209.484	9413.69
209.558	9497.72
209.632	9545.09
209.707	9582.56
209.781	9658.35
209.855	9709.89
209.929	9767.67
210.003	9785.2
210.077	9788.47
210.151	9959.63
210.226	10077.09
210.3	10174.15
210.374	10257.69
210.448	10274.89
210.522	10315.56
210.596	10348.03
210.67	10380.06
210.744	10538.57
210.818	10645.91
210.892	10719.73
210.966	10697.86
211.041	10751.29
211.115	10735.3
211.189	10817.3
211.263	10872.51
211.337	10900.31
211.411	10947.83
211.485	10931.87
211.559	10967.28
211.633	10973.83
211.707	10866.21
211.781	10889.64
211.855	10762.81
211.929	10731.88
212.003	10664.27
212.077	10691.25
212.151	10735.44
212.225	10768.21
212.299	10728.45
212.373	10695.83
212.447	10681.61
212.52	10783.57
212.594	10792.78
212.668	10830.55
212.742	10776.34
212.816	10755.67
212.89	10729.84
212.964	10715.43
213.038	10719.87
213.112	10758.23
213.186	10800.62
213.26	10717.59
213.333	10550.95
213.407	10566.75
213.481	10564.49
213.555	10601.32
213.629	10554
213.703	10486.3
213.777	10471.51
213.85	10399.33
213.924	10508
213.998	10489.11
214.072	10452.29
214.146	10396.68
214.219	10370.38
214.293	10344.7
214.367	10330.78
214.441	10353.86
214.515	10307.45
214.588	10208.94
214.662	10079.75
214.736	9994.69
214.81	10005.09
214.883	10030.65
214.957	9977.34
215.031	9915
215.105	9814.8
215.178	9745.16
215.252	9710.05
215.326	9598.37
215.4	9512.73
215.473	9315.52
215.547	9234.27
215.621	9163.74
215.694	9157.82
215.768	9057.91
215.842	8990.47
215.915	8918.33
215.989	8799.35
216.063	8738.09
216.136	8716.33
216.21	8689.34
216.284	8696.27
216.357	8669.07
216.431	8617.48
216.504	8612.33
216.578	8670
216.652	8683.46
216.725	8660.12
216.799	8661.9
216.873	8649.39
216.946	8654.39
217.02	8620.2
217.093	8582.76
217.167	8481.71
217.24	8393.95
217.314	8359.66
217.387	8309.8
217.461	8264.57
217.535	8286.61
217.608	8215.32
217.682	8184.57
217.755	8198.04
217.829	8140.83
217.902	8122.74
217.976	8105.9
218.049	8050.82
218.123	7975.6
218.196	7971.12
218.27	7934.23
218.343	7858.63
218.417	7856.32
218.49	7832.61
218.563	7879.07
218.637	7888.88
218.71	7960.56
218.784	7983.32
218.857	8018.72
218.931	8042.46
219.004	8057.76
219.077	8073.02
219.151	8102.97
219.224	8095.28
219.298	8087.34
219.371	8135.94
219.444	8096.94
219.518	8107.76
219.591	8127.77
219.665	8236.95
219.738	8247.24
219.811	8228.11
219.885	8276.03
219.958	8303.94
220.031	8311.92
220.105	8328.09
220.178	8337.42
220.251	8311.92
220.325	8337.52
220.398	8353.26
220.471	8372.11
220.544	8409.31
220.618	8389.43
220.691	8412.57
220.764	8432.68
220.838	8462.33
220.911	8448.56
220.984	8537.65
221.057	8572.73
221.131	8597.8
221.204	8501.5
221.277	8581.79
221.35	8709.52
221.424	8704.18
221.497	8717.85
221.57	8732.66
221.643	8766.37
221.716	8820.77
221.79	8825.29
221.863	8841.66
221.936	8845.37
222.009	8865.05
222.082	8890.66
222.155	8897.88
222.229	8965.58
222.302	8994.55
222.375	8996.86
222.448	9038.26
222.521	9043.56
222.594	9048.08
222.667	9020.47
222.74	9064.89
222.814	9050.93
222.887	9036.48
222.96	9090.16
223.033	9137.16
223.106	9161.89
223.179	9190.36
223.252	9192.62
223.325	9228
223.398	9238.17
223.471	9268.11
223.544	9292.8
223.617	9304.17
223.69	9329.2
223.763	9288.46
223.837	9319.95
223.91	9349.85
223.983	9297.19
224.056	9261.9
224.129	9285.2
224.202	9345.69
224.275	9335.82
224.348	9308.33
224.42	9266.73
224.493	9203.52
224.566	9174
224.639	9198.26
224.712	9172.3
224.785	9162.09
224.858	9148.37
224.931	9128.72
225.004	9091.27
225.077	9086.79
225.15	8988.56
225.223	8981.92
225.296	9069.2
225.369	9006.48
225.442	8970.75
225.514	8988.94
225.587	9014.84
225.66	9017.73
225.733	9016.28
225.806	9028.46
225.879	9023.41
225.952	8992.03
226.025	9044.99
226.097	9101.06
226.17	9092.58
226.243	9019.81
226.316	9007.82
226.389	9016.34
226.461	9040.66
226.534	9061.74
226.607	9044.6
226.68	9138.3
226.753	9135.27
226.825	9046.98
226.898	9108.11
226.971	9116.44
227.044	9140.85
227.117	9146.19
227.189	9168.68
227.262	9198.54
227.335	9218.86
227.407	9210.87
227.48	9249.03
227.553	9259.77
227.626	9235.44
227.698	9241.61
227.771	9284.24
227.844	9265.37
227.916	9279.53
227.989	9237.73
228.062	9235.52
228.134	9330.15
228.207	9328.94
228.28	9325.28
228.352	9338.14
228.425	9337.47
228.498	9383.45
228.57	9358.37
228.643	9417.81
228.716	9408.95
228.788	9400.28
228.861	9394.02
228.934	9461.62
229.006	9469.03
229.079	9468.65
229.151	9450.68
229.224	9417.42
229.296	9443.52
229.369	9548.86
229.442	9601.51
229.514	9583.36
229.587	9631.28
229.659	9552.39
229.732	9564.14
229.804	9609.35
229.877	9693.03
229.949	9733.59
230.022	9786.64
230.094	9791.45
230.167	9777.63
230.239	9734.68
230.312	9727.98
230.384	9799.81
230.457	9791.82
230.529	9802.51
230.602	9807.71
230.674	9827.55
230.747	9872.23
230.819	9902.86
230.892	9782.6
230.964	9777.83
231.037	9809.11
231.109	9792.01
231.181	9836.94
231.254	9802.94
231.326	9781.75
231.399	9749.42
231.471	9714.35
231.544	9627.69
231.616	9674.44
231.688	9680.17
231.761	9671.99
231.833	9656.25
231.905	9573.73
231.978	9573.24
232.05	9561.45
232.122	9566.17
232.195	9533.51
232.267	9569.88
232.339	9551.09
232.412	9620.33
232.484	9598.94
232.556	9573.67
232.629	9648.54
232.701	9670.36
232.773	9680.37
232.846	9671.51
232.918	9678.26
232.99	9698.97
233.062	9747.91
233.135	9759.47
233.207	9721.13
233.279	9762.58
233.351	9802.74
233.424	9807.99
233.496	9785.31
233.568	9867.1
233.64	9828.52
233.713	9848.08
233.785	9847.31
233.857	9863.01
233.929	9814.03
234.001	9880.91
234.074	9946.25
234.146	9871
234.218	9858.72
234.29	9856.36
234.362	9845.57
234.434	9802.7
234.507	9762.19
234.579	9711.09
234.651	9692.21
234.723	9726.98
234.795	9750.73
234.867	9733.49
234.939	9792.06
235.012	9807.47
235.084	9804.15
235.156	9835.4
235.228	9811.85
235.3	9791.19
235.372	9801.11
235.444	9857.31
235.516	9778.29
235.588	9790.14
235.66	9803.68
235.732	9783.98
235.804	9994.66
235.876	10043.69
235.948	10112.44
236.02	10133
236.092	10142.39
236.164	10156.41
236.236	10157.8
236.308	10159.39
236.38	10195.33
236.452	10170.52
236.524	10192.82
236.596	10264.39
236.668	10308.28
236.74	10336.36
236.812	10366.85
236.884	10401.06
236.956	10407.47
237.028	10396
237.1	10369.8
237.172	10447.76
237.244	10525.09
237.316	10396.2
237.388	10383.19
237.46	10350.43
237.532	10410.36
237.604	10407.9
237.675	10483.41
237.747	10527.74
237.819	10509.72
237.891	10509.24
237.963	10495.56
238.035	10494.21
238.107	10378.32
238.178	10442.27
238.25	10448.58
238.322	10547.86
238.394	10496.41
238.466	10503.59
238.538	10550.55
238.609	10599.01
238.681	10541.77
238.753	10513.96
238.825	10539.22
238.897	10566.1
238.968	10653.18
239.04	10635.45
239.112	10748.72
239.184	10701.93
239.255	10695.95
239.327	10733.62
239.399	10765.28
239.471	10825.55
239.542	10861.21
239.614	10931.26
239.686	10835.8
239.758	10896.37
239.829	10858
239.901	10935
239.973	10954.7
240.044	10987.04
240.116	11001.06
240.188	11024.72
240.259	11041.25
240.331	11028.81
240.403	11066.25
240.474	11018.25
240.546	11011.84
240.618	10946.68
240.689	10949.09
240.761	10966.92
240.833	11041.86
240.904	11038.3
240.976	11033.29
241.048	11049.09
241.119	11086.59
241.191	11139.21
241.262	11208.09
241.334	11211.03
241.405	11209.1
241.477	11209.82
241.549	11219.17
241.62	11249.1
241.692	11286.3
241.763	11354.5
241.835	11374.31
241.906	11387.33
241.978	11358.12
242.049	11426.89
242.121	11498.41
242.192	11568.72
242.264	11541.79
242.335	11487.47
242.407	11533.35
242.478	11537.93
242.55	11561.69
242.621	11549.88
242.693	11555.37
242.764	11543.61
242.836	11542.74
242.907	11575.71
242.979	11613.98
243.05	11642.61
243.122	11669.65
243.193	11669.17
243.264	11592.63
243.336	11595.62
243.407	11641.46
243.479	11724.98
243.55	11735.49
243.622	11753.18
243.693	11750.82
243.764	11822.92
243.836	11795.21
243.907	11781.91
243.978	11786.15
244.05	11811.02
244.121	11764.8
244.192	11809.82
244.264	11759.4
244.335	11773.43
244.407	11719.54
244.478	11735.06
244.549	11728.22
244.62	11673.32
244.692	11678.67
244.763	11722.82
244.834	11718.72
244.906	11696.74
244.977	11718.82
245.048	11778.74
245.119	11751.07
245.191	11728.47
245.262	11658.82
245.333	11745.91
245.405	11769.91
245.476	11800.9
245.547	11816.95
245.618	11867.99
245.689	11881.39
245.761	11916.43
245.832	11926.41
245.903	11983.52
245.974	12011.29
246.045	12018.47
246.117	12109.67
246.188	12089.86
246.259	12078.48
246.33	12087.16
246.401	12094.53
246.473	12062.72
246.544	12049.8
246.615	12108.32
246.686	12116.46
246.757	12194.83
246.828	12177.48
246.899	12246.94
246.97	12218.84
247.042	12211.81
247.113	12258.37
247.184	12344.03
247.255	12343.17
247.326	12370.16
247.397	12373.2
247.468	12384.96
247.539	12402.31
247.61	12356.95
247.681	12407.37
247.752	12469.6
247.823	12450.13
247.894	12468.2
247.965	12440.34
248.037	12421.2
248.108	12364.71
248.179	12375.03
248.25	12372.61
248.321	12394.21
248.392	12345.38
248.463	12433.49
248.534	12432.81
248.605	12460.48
248.675	12435.27
248.746	12456.87
248.817	12479.19
248.888	12493.02
248.959	12438.17
249.03	12463.43
249.101	12468.78
249.172	12453.21
249.243	12367.41
249.314	12436.87
249.385	12439.62
249.456	12466.37
249.527	12466.51
249.598	12495.82
249.669	12497.17
249.739	12499.15
249.81	12517.17
249.881	12471.58
249.952	12462.13
250.023	12463.24
250.094	12399.75
250.165	12364.41
250.235	12354.53
250.306	12355.3
250.377	12330.86
250.448	12351.45
250.519	12287.19
250.59	12355.07
250.66	12351.93
250.731	12429.39
250.802	12430.45
250.873	12453.73
250.944	12476.77
251.014	12466.17
251.085	12565.38
251.156	12599.41
251.227	12662.32
251.297	12713.95
251.368	12773.04
251.439	12823.32
251.51	12871.05
251.58	12860.01
251.651	12855.43
251.722	12923.64
251.792	12865.31
251.863	12870.37
251.934	12940.75
252.005	13058.37
252.075	13059.14
252.146	13114.58
252.217	13163.89
252.287	13207.18
252.358	13216.97
252.429	13292.12
252.499	13288.36
252.57	13291.45
252.641	13328.81
252.711	13333.1
252.782	13290.05
252.852	13368.09
252.923	13365.06
252.994	13379.23
253.064	13432.93
253.135	13414.61
253.205	13387.04
253.276	13470.09
253.347	13530.4
253.417	13500.37
253.488	13480.31
253.558	13469.76
253.629	13470
253.699	13483.16
253.77	13509.91
253.841	13494.82
253.911	13502.97
253.982	13522.25
254.052	13554.16
254.123	13563.42
254.193	13572.96
254.264	13707.17
254.334	13672.65
254.405	13633.46
254.475	13603.67
254.546	13609.21
254.616	13676.41
254.687	13707.41
254.757	13728.52
254.827	13727.85
254.898	13757.98
254.968	13766.41
255.039	13750.94
255.109	13781.55
255.18	13751.71
255.25	13675.3
255.321	13715.51
255.391	13680.03
255.461	13758.46
255.532	13668.7
255.602	13668.8
255.673	13607.14
255.743	13571.18
255.813	13500.41
255.884	13550.45
255.954	13582.46
256.024	13650
256.095	13653.57
256.165	13611.29
256.235	13637.46
256.306	13628.55
256.376	13682.83
256.446	13720.19
256.517	13754.32
256.587	13802.86
256.657	13827.64
256.728	13855.55
256.798	13872.66
256.868	13864.47
256.938	13838.53
257.009	13881.63
257.079	13912.62
257.149	14018.92
257.219	13954.52
257.29	13997.66
257.36	13939.23
257.43	13987.39
257.5	13916.91
257.571	13905.78
257.641	13954.85
257.711	13911.27
257.781	13940.39
257.852	13952.63
257.922	13887.94
257.992	13891.99
258.062	13882.35
258.132	13921.83
258.202	13931.42
258.273	13932.44
258.343	14008.6
258.413	13989.94
258.483	14000.6
258.553	13962.8
258.623	13935.86
258.693	13973.6
258.764	14036.56
258.834	14107.62
258.904	14117.5
258.974	14107.66
259.044	14117.93
259.114	14132.78
259.184	14162.48
259.254	14175.44
259.324	14115.52
259.394	14173.03
259.464	14254.35
259.535	14266.98
259.605	14260.38
259.675	14249.97
259.745	14288.19
259.815	14257.34
259.885	14261.63
259.955	14382.76
260.025	14375.39
260.095	14382.13
260.165	14413.95
260.235	14478.3
260.305	14460.61
260.375	14428.99
260.445	14525.25
260.515	14589.61
260.585	14644.85
260.655	14652.75
260.725	14697.58
260.795	14738.94
260.865	14807.83
260.934	14771.38
261.004	14792.35
261.074	14799.82
261.144	14863.07
261.214	14896.14
261.284	14904.72
261.354	14954.9
261.424	14906.65
261.494	14980.75
261.564	14985.86
261.634	15013.81
261.703	14941.41
261.773	14968.79
261.843	15002.54
261.913	14992.41
261.983	14930.57
262.053	14945.99
262.123	14944.79
262.192	14891.95
262.262	14936.83
262.332	14880.77
262.402	14922.71
262.472	14939.43
262.541	14878.7
262.611	14926.61
262.681	14908.92
262.751	14954.81
262.821	14956.64
262.89	14925.41
262.96	14953.56
263.03	15034.92
263.1	15047.5
263.169	15076.42
263.239	15111.51
263.309	15180.49
263.379	15215.77
263.448	15246.24
263.518	15270.68
263.588	15289.86
263.657	15373.69
263.727	15413.35
263.797	15429.89
263.867	15420.2
263.936	15376.91
264.006	15434.81
264.076	15419.96
264.145	15418.61
264.215	15395.81
264.285	15430.28
264.354	15383.52
264.424	15364.92
264.494	15311.32
264.563	15305.2
264.633	15376
264.702	15396.73
264.772	15342.65
264.842	15336.62
264.911	15371.67
264.981	15339.23
265.05	15351.04
265.12	15350.61
265.19	15351.23
265.259	15402.33
265.329	15439.82
265.398	15466.77
265.468	15570.4
265.537	15559.94
265.607	15590.26
265.676	15648.77
265.746	15678.08
265.815	15741.56
265.885	15755.49
265.955	15744.84
266.024	15741.27
266.094	15680.54
266.163	15740.6
266.232	15807.83
266.302	15823.88
266.371	15841.77
266.441	15855.46
266.51	15908.38
266.58	15906.07
266.649	15889.44
266.719	15932.14
266.788	15957.01
266.858	16029.11
266.927	15954.6
266.996	15993.5
267.066	16021.36
267.135	15976
267.205	16015.47
267.274	16036.87
267.343	16089.75
267.413	16110.52
267.482	16182.1
267.552	16253.24
267.621	16206.73
267.69	16159.78
267.76	16180.37
267.829	16199.26
267.898	16219.41
267.968	16188.75
268.037	16232.95
268.106	16288.71
268.176	16256.71
268.245	16261.82
268.314	16259.12
268.384	16329.25
268.453	16352.24
268.522	16378.94
268.592	16450.56
268.661	16442.27
268.73	16467.38
268.799	16453.26
268.869	16533.9
268.938	16487.05
269.007	16476.21
269.076	16511.44
269.146	16567.3
269.215	16595.35
269.284	16669.57
269.353	16661.28
269.422	16686.58
269.492	16675.5
269.561	16601.52
269.63	16641.71
269.699	16637.37
269.768	16656.99
269.838	16666.44
269.907	16700.03
269.976	16667.3
270.045	16603.44
270.114	16635.25
270.183	16647.54
270.253	16675.88
270.322	16623.3
270.391	16645.03
270.46	16712.46
270.529	16745.95
270.598	16790.05
270.667	16804.65
270.736	16781.52
270.806	16822.29
270.875	16870.1
270.944	16889.38
271.013	17014.88
271.082	17033.43
271.151	17080.81
271.22	17039.22
271.289	17059.65
271.358	17069.58
271.427	17111.65
271.496	17142.69
271.565	17142.79
271.634	17169.15
271.703	17224.33
271.772	17291.23
271.841	17308.1
271.91	17272.14
271.979	17299.61
272.048	17270.79
272.117	17314.99
272.186	17316.91
272.255	17367.42
272.324	17415.66
272.393	17445.11
272.462	17431.37
272.531	17463.42
272.6	17474.74
272.669	17549.01
272.738	17559.13
272.807	17597.01
272.876	17578.07
272.945	17728.48
273.013	17786.89
273.082	17848.72
273.151	17831.03
273.22	17870.16
273.289	17898.4
273.358	17987.07
273.427	17998.88
273.496	18055.89
273.564	18093.19
273.633	18144.95
273.702	18125.29
273.771	18132.42
273.84	18170.39
273.909	18220.27
273.977	18251.11
274.046	18263.26
274.115	18319.25
274.184	18314.92
274.253	18335.2
274.322	18418.14
274.39	18353.81
274.459	18346.2
274.528	18295.35
274.597	18324.7
274.665	18347.3
274.734	18414.29
274.803	18411.4
274.872	18427.06
274.94	18415.83
275.009	18549.23
275.078	18552.55
275.147	18597.56
275.215	18629.47
275.284	18690.43
275.353	18691.68
275.421	18663.34
275.49	18761.17
275.559	18771.77
275.627	18794.13
275.696	18807.38
275.765	18848.73
275.833	18866.51
275.902	18908.68
275.971	18991.37
276.039	19074.36
276.108	19133.05
276.177	19167.36
276.245	19180.18
276.314	19214.93
276.383	19277.57
276.451	19202.29
276.52	19254.68
276.588	19335.97
276.657	19382.28
276.725	19391.54
276.794	19437.9
276.863	19522.81
276.931	19485.7
277	19549.26
277.068	19631.23
277.137	19736.97
277.205	19773.64
277.274	19877.88
277.342	19954.36
277.411	19930.07
277.48	19933.97
277.548	19942.07
277.617	19983.13
277.685	20013.34
277.754	20066.88
277.822	20087.46
277.89	20185.88
277.959	20210.5
278.027	20189.15
278.096	20208.24
278.164	20350.33
278.233	20362.66
278.301	20362.81
278.37	20420.35
278.438	20420.98
278.507	20463.63
278.575	20412.2
278.643	20441.21
278.712	20416.54
278.78	20408.4
278.849	20491.19
278.917	20567.43
278.985	20594.13
279.054	20647.44
279.122	20733.61
279.191	20775.2
279.259	20801.61
279.327	20755.87
279.396	20851.64
279.464	20879.01
279.532	20938.63
279.601	20954.06
279.669	20990.3
279.737	21085
279.806	21141.4
279.874	21215.33
279.942	21258.37
280.011	21297.07
280.079	21358.38
280.147	21460.17
280.215	21521.34
280.284	21558.35
280.352	21559.17
280.42	21635.18
280.488	21645.35
280.557	21650.66
280.625	21705.56
280.693	21748.84
280.761	21807.16
280.83	21787.69
280.898	21880.09
280.966	21863.03
281.034	21790.38
281.102	21792.07
281.171	21804.31
281.239	21879.96
281.307	21890.42
281.375	21904.54
281.443	22037.16
281.512	22084.36
281.58	22160.54
281.648	22148.39
281.716	22182.66
281.784	22225.47
281.852	22247.5
281.92	22283.03
281.989	22366
282.057	22343.39
282.125	22533.01
282.193	22572.74
282.261	22616.99
282.329	22635.26
282.397	22697.64
282.465	22761.75
282.533	22853.01
282.601	22861.88
282.67	22819.88
282.738	22843.6
282.806	22914.18
282.874	22909.02
282.942	22957.34
283.01	22962.26
283.078	23033.66
283.146	23067.5
283.214	23142.01
283.282	23184.68
283.35	23278.43
283.418	23307.8
283.486	23377.61
283.554	23288.61
283.622	23322.13
283.69	23370.25
283.758	23404.77
283.826	23464.71
283.894	23542.4
283.962	23661.45
284.03	23755.44
284.098	23813.4
284.165	23838.76
284.233	23885.21
284.301	23910.82
284.369	23928.9
284.437	23945.4
284.505	23969.22
284.573	24070.84
284.641	24082.57
284.709	24155.84
284.777	24141.23
284.845	24213.21
284.912	24266.46
284.98	24325.31
285.048	24358.59
285.116	24421.45
285.184	24513.35
285.252	24560.53
285.319	24546.3
285.387	24556.62
285.455	24555.42
285.523	24627.64
285.591	24683.39
285.659	24738.88
285.726	24821.14
285.794	24810.19
285.862	24854.19
285.93	24911.55
285.997	24935.53
286.065	24957.92
286.133	24979.83
286.201	25030.05
286.269	25016.93
286.336	25036.66
286.404	25066.48
286.472	25134.28
286.539	25109.92
286.607	25101.86
286.675	25149.3
286.743	25244.4
286.81	25254.44
286.878	25342.9
286.946	25358.01
287.013	25391.11
287.081	25421.71
287.149	25411.52
287.216	25519.81
287.284	25547.9
287.352	25596.99
287.419	25631.3
287.487	25731.42
287.555	25781.19
287.622	25803.35
287.69	25869.29
287.758	25960.81
287.825	25980.41
287.893	25994.21
287.96	26065.05
288.028	26135.15
288.096	26178.65
288.163	26217.76
288.231	26229.35
288.298	26262.86
288.366	26356.39
288.433	26397.27
288.501	26424.41
288.569	26489.83
288.636	26509.29
288.704	26599.39
288.771	26658.02
288.839	26674.96
288.906	26685.88
288.974	26763.47
289.041	26804.94
289.109	26815.76
289.176	26883.49
289.244	26951.09
289.311	27031.08
289.379	27103.66
289.446	27169.51
289.514	27212.84
289.581	27265.64
289.649	27323.35
289.716	27379.25
289.783	27397.37
289.851	27498.36
289.918	27539.61
289.986	27607.2
290.053	27677.98
290.121	27722.05
290.188	27775.16
290.255	27910.75
290.323	27945.48
290.39	27961
290.458	28038.73
290.525	28134.84
290.592	28159.16
290.66	28217.72
290.727	28243.14
290.794	28338.17
290.862	28384.24
290.929	28442.87
290.996	28472.79
291.064	28555
291.131	28640.1
291.198	28723.5
291.266	28768.07
291.333	28816.39
291.4	28890.96
291.468	28989.42
291.535	29014.47
291.602	29071.81
291.669	29097.06
291.737	29160.09
291.804	29202.31
291.871	29297.91
291.938	29367.13
292.006	29513.41
292.073	29595.87
292.14	29684.08
292.207	29701.3
292.275	29735.3
292.342	29811.39
292.409	29945.02
292.476	30058.24
292.543	30079.97
292.611	30112.96
292.678	30220.43
292.745	30361.6
292.812	30429.4
292.879	30453.21
292.946	30510.44
293.014	30601.32
293.081	30667.91
293.148	30760.33
293.215	30856.44
293.282	30871.3
293.349	30943.96
293.416	30906.1
293.484	30982.63
293.551	31054.32
293.618	31158.83
293.685	31287.32
293.752	31307.98
293.819	31345.23
293.886	31354.77
293.953	31411.55
294.02	31506.16
294.087	31565.97
294.154	31575.75
294.221	31669.83
294.288	31725.8
294.356	31841.38
294.423	31908.86
294.49	31936.17
294.557	32015.26
294.624	32034.34
294.691	32154.55
294.758	32201.34
294.825	32276.75
294.892	32301.41
294.959	32356.68
295.026	32424.66
295.093	32461.01
295.16	32513.11
295.226	32553.13
295.293	32679.52
295.36	32749.95
295.427	32829.14
295.494	32920.86
295.561	33013.84
295.628	33134.35
295.695	33230.4
295.762	33287.11
295.829	33361.33
295.896	33460.62
295.963	33550.16
296.03	33631.18
296.096	33701.77
296.163	33783.21
296.23	33881.38
296.297	33982.19
296.364	34026.93
296.431	34087.78
296.498	34122.98
296.564	34256.23
296.631	34328.61
296.698	34332.97
296.765	34461.24
296.832	34473.8
296.899	34469.24
296.965	34567.3
297.032	34548.28
297.099	34662.24
297.166	34741.88
297.233	34780.83
297.299	34807.06
297.366	34852.61
297.433	34921.18
297.5	35009.34
297.566	35076.82
297.633	35134.85
297.7	35203.1
297.767	35256.4
297.833	35327.86
297.9	35387.81
297.967	35389.65
298.033	35486.4
298.1	35639.65
298.167	35646.35
298.234	35730.32
298.3	35819
298.367	35848.17
298.434	35935.82
298.5	35945.14
298.567	35977.17
298.634	36019.38
298.7	36141.12
298.767	36202.27
298.834	36300.55
298.9	36309.14
298.967	36327.34
299.033	36397.97
299.1	36494.66
299.167	36595.94
299.233	36637.83
299.3	36743.2
299.366	36857.34
299.433	36941.24
299.5	36905.07
299.566	36968.22
299.633	37065.17
299.699	37163.44
299.766	37204.7
299.832	37244.76
299.899	37327.11
299.965	37417.79
300.032	37464.34
300.099	37524.17
300.165	37590.01
300.232	37634.58
300.298	37692.65
300.365	37786.4
300.431	37842.39
300.498	37859.78
300.564	37927.57
300.631	38009.88
300.697	38095.36
300.763	38138.14
300.83	38185.35
300.896	38268.58
300.963	38354.01
301.029	38413.56
301.096	38456.55
301.162	38558.87
301.229	38591.12
301.295	38596.71
301.361	38651.06
301.428	38709.82
301.494	38710.98
301.561	38764.56
301.627	38810.6
301.693	38877.1
301.76	38930.34
301.826	38968.27
301.892	39057.47
301.959	39128.39
302.025	39178.68
302.092	39201.9
302.158	39271.85
302.224	39324.47
302.291	39357.36
302.357	39383.83
302.423	39420.57
302.49	39439.22
302.556	39508.27
302.622	39578.23
302.688	39664.56
302.755	39760.24
302.821	39835
302.887	39911.95
302.954	39968.56
303.02	40049.61
303.086	40109.96
303.152	40159.52
303.219	40191.54
303.285	40252.72
303.351	40327.18
303.417	40368.24
303.483	40386.9
303.55	40418.24
303.616	40461.79
303.682	40509.75
303.748	40536.28
303.815	40621.82
303.881	40709.34
303.947	40721.88
304.013	40761.39
304.079	40781.22
304.145	40749.48
304.212	40796.48
304.278	40833.36
304.344	40858.05
304.41	40856.93
304.476	40872.63
304.542	40895.96
304.608	40959.96
304.674	40945.77
304.741	40964.44
304.807	41023.45
304.873	41092.08
304.939	41180.74
305.005	41155.02
305.071	41192.64
305.137	41246.92
305.203	41214.45
305.269	41235.55
305.335	41313.29
305.401	41355.92
305.467	41394.95
305.533	41484.78
305.599	41554.15
305.666	41606.45
305.732	41644.27
305.798	41727.15
305.864	41860.81
305.93	41923.47
305.996	41964.7
306.062	42012.43
306.128	42031.49
306.194	42025.46
306.259	42064.6
306.325	42069.51
306.391	42151.72
306.457	42215.64
306.523	42262.9
306.589	42374.39
306.655	42397.78
306.721	42373.12
306.787	42363.6
306.853	42458.95
306.919	42416.99
306.985	42417.48
307.051	42447.28
307.117	42464.69
307.183	42486.23
307.248	42424.95
307.314	42476.06
307.38	42517.06
307.446	42592.14
307.512	42614.36
307.578	42673.78
307.644	42697.41
307.709	42745.75
307.775	42780.67
307.841	42806.54
307.907	42869.07
307.973	42853.8
308.039	42881.47
308.104	42954.76
308.17	43010.38
308.236	42998.03
308.302	43061.14
308.368	43079.42
308.433	43127.81
308.499	43167.87
308.565	43170.89
308.631	43233.82
308.696	43209.89
308.762	43215.19
308.828	43220.88
308.894	43200.27
308.959	43172.45
309.025	43193.22
309.091	43222.94
309.156	43229.26
309.222	43275.18
309.288	43265.89
309.354	43233.16
309.419	43277.86
309.485	43273.14
309.551	43336.86
309.616	43331.8
309.682	43363.12
309.748	43391.33
309.813	43410.69
309.879	43411.22
309.945	43413.46
310.01	43419.93
310.076	43469.01
310.141	43499.75
310.207	43501.64
310.273	43530.14
310.338	43586.99
310.404	43561.07
310.469	43552.56
310.535	43563.6
310.601	43530.57
310.666	43581.89
310.732	43660.59
310.797	43663.41
310.863	43663.51
310.928	43660.59
310.994	43710.25
311.059	43748.73
311.125	43768.73
311.191	43835.39
311.256	43847.21
311.322	43907.23
311.387	43890.21
311.453	44775.2
311.518	44797.43
311.584	44829.93
311.649	44897.11
311.715	44901.48
311.78	44951.14
311.846	44966.71
311.911	45034.54
311.976	45080.12
312.042	45068.49
312.107	45052.87
312.173	45053.16
312.238	45062.45
312.304	45093.11
312.369	45099.87
312.434	45084.4
312.5	45096.61
312.565	45016.28
312.631	45063.95
312.696	45073.78
312.761	45103.84
312.827	44256.17
312.892	44344.76
312.958	44365.44
313.023	44392.74
313.088	44429.62
313.154	44414.44
313.219	44415.95
313.284	44407.82
313.35	44434.19
313.415	44435.75
313.48	44450.98
313.546	44505.13
313.611	44569.21
313.676	44562.21
313.741	44557.83
313.807	44621.63
313.872	44673.4
313.937	44743.56
314.003	44805.07
314.068	44835.64
314.133	44898.41
314.198	44895.98
314.264	44862.67
314.329	44867.15
314.394	44894.99
314.459	44913.58
314.525	45010.42
314.59	45040.97
314.655	45036.3
314.72	45075.53
314.785	45112.51
314.851	45126.04
314.916	45106.13
314.981	45077.42
315.046	45078.1
315.111	45085.3
315.176	45076.15
315.242	45093.14
315.307	45109.25
315.372	45081.16
315.437	45078.49
315.502	45079.41
315.567	45152.72
315.632	45132.47
315.698	45164.79
315.763	45180.86
315.828	45182.9
315.893	45190.01
315.958	45199.94
316.023	45191.57
316.088	45146.79
316.153	45104.31
316.218	45105.67
316.283	45057.26
316.348	45021.85
316.413	45022.67
316.479	44984.87
316.544	44877.79
316.609	44791.03
316.674	44670.33
316.739	44548.33
316.804	44439.4
316.869	44305.91
316.934	44161.19
316.999	44031.36
317.064	43844.85
317.129	43666.45
317.194	43519.65
317.259	43331.1
317.324	43126.66
317.389	42964.09
317.454	42806.52
317.518	42652.43
317.583	42525.2
317.648	42404.46
317.713	42262.78
317.778	42033.72
317.843	41895.64
317.908	41725.61
317.973	41551.13
318.038	41416.73
318.103	41257.46
318.168	41110.13
318.233	40958.54
318.297	40746.34
318.362	40584.6
318.427	40403.07
318.492	40266.94
318.557	40064.53
318.622	39923.5
318.687	39791.46
318.751	39588.21
318.816	39432.25
318.881	39260.24
318.946	39020.49
319.011	38818.71
319.075	38614.81
319.14	38432.41
319.205	38215.26
319.27	38037.89
319.335	37817.01
319.399	37609.62
319.464	37437.55
319.529	37195.59
319.594	36997.8
319.658	36822.95
319.723	36598.66
319.788	36420.41
319.853	36147.7
319.917	35955.75
319.982	35684.31
320.047	35472.18
320.112	35306.47
320.176	35039.8
320.241	34831.95
320.306	34642.3
320.37	34397.52
320.435	34215.6
320.5	34043.12
320.564	33816.53
320.629	33582.79
320.694	33392.06
320.758	33156.91
320.823	32924.92
320.888	32731.56
320.952	32462.83
321.017	32219.45
321.082	31990.75
321.146	31786.21
321.211	31587.44
321.275	31348.92
321.34	31107.52
321.405	30863.51
321.469	30609.07
321.534	30379.35
321.598	30120.92
321.663	29915.76
321.727	29722.32
321.792	29449.82
321.857	29192.33
321.921	28968.21
321.986	28734.46
322.05	28438.28
322.115	28220.28
322.179	27963.43
322.244	27679.08
322.308	27476.51
322.373	27227.68
322.437	26993.04
322.502	26797.57
322.566	26541.37
322.631	26325.83
322.695	26106.2
322.76	25864.6
322.824	25639.95
322.889	25386.71
322.953	25121.67
323.018	24803.58
323.082	24485.17
323.146	24204.57
323.211	23912.15
323.275	23654.28
323.34	23398.74
323.404	23181.42
323.468	22914.2
323.533	22653.02
323.597	22386.48
323.662	22098.45
323.726	21871.9
323.79	21606.14
323.855	21264.01
323.919	20989.88
323.983	20725.68
324.048	20334.26
324.112	20531.74
324.177	19727.39
324.241	18660.33
324.305	17616.41
324.37	16574.62
324.434	15572.16
324.498	15296.61
324.562	14998.82
324.627	14647.13
324.691	14300.99
324.755	13907.4
324.82	13464.24
324.884	13008.07
324.948	12542.22
325.012	11975.79
325.077	11253
