Data from 20250701_urea_2M_exp3_MAYP1162681_03-39-49-401.txt Node
Date: Wed Jul 02 03:39:49 BST 2025
User: adleo
Spectrometer: MAYP116268
Trigger mode: 0
Integration Time (sec): 4.000000E0
Scans to average: 1
Electric dark correction enabled: true
Nonlinearity correction enabled: true
Boxcar width: 10
XAxis mode: Wavelengths
Number of Pixels in Spectrum: 2068
>>>>>Begin Spectral Data<<<<<
179.565	3621.98
179.642	3818.14
179.718	3958.87
179.795	4091
179.871	4205.51
179.948	4265.82
180.024	4338.98
180.101	4414.03
180.177	4468.19
180.254	4543.58
180.33	4621.04
180.407	4886.51
180.483	5170.34
180.56	5456.18
180.636	5721.7
180.712	5686.91
180.789	5723.02
180.865	5763.81
180.942	5791.81
181.018	5828.35
181.095	5876.3
181.171	5892.13
181.248	5892.56
181.324	5952.61
181.4	5976.64
181.477	6004.76
181.553	6049.35
181.63	6119.52
181.706	6179.57
181.782	6207.67
181.859	6207.86
181.935	6229.99
182.011	6214.01
182.088	6271.13
182.164	6337.32
182.24	6386.64
182.317	6414.42
182.393	6406.6
182.469	6451.86
182.546	6501.12
182.622	6520.41
182.698	6507.06
182.775	6552.44
182.851	6599.2
182.927	6567.6
183.003	6551.1
183.08	6539.43
183.156	6570.78
183.232	6557.52
183.308	6516.52
183.385	6538.31
183.461	6598.48
183.537	6593.1
183.613	6635.98
183.69	6606.73
183.766	6567.91
183.842	6587.94
183.918	6607.82
183.995	6653.09
184.071	6669.53
184.147	6649.16
184.223	6609.67
184.299	6645.27
184.375	6601.04
184.452	6623.63
184.528	6755.99
184.604	6793.05
184.68	6834.92
184.756	6857.88
184.832	6871.19
184.908	6887.94
184.985	6889.19
185.061	6837.75
185.137	6870.22
185.213	6833.06
185.289	6834.79
185.365	6818.03
185.441	6810.63
185.517	6859.22
185.593	6846.73
185.669	6835.44
185.745	6870.85
185.822	6932.24
185.898	6900.96
185.974	6934.18
186.05	6908.28
186.126	6831.93
186.202	6809.85
186.278	6795.01
186.354	6762.67
186.43	6782.57
186.506	6780.7
186.582	6775.94
186.658	6795.63
186.734	6729.51
186.81	6740.41
186.886	6752.32
186.962	6794.2
187.038	6782.91
187.114	6749.5
187.19	6777.7
187.266	6746.25
187.341	6747.02
187.417	6717.72
187.493	6722.96
187.569	6733.82
187.645	6714.41
187.721	6674.06
187.797	6698.88
187.873	6709.21
187.949	6696.53
188.025	6678.08
188.101	6683.84
188.176	6700.55
188.252	6689.46
188.328	6714.08
188.404	6711.19
188.48	6691.61
188.556	6665.86
188.632	6663.94
188.707	6669.18
188.783	6655.48
188.859	6642
188.935	6603.09
189.011	6632.14
189.086	6614.67
189.162	6585.23
189.238	6576.3
189.314	6568.71
189.39	6549.94
189.465	6530.72
189.541	6582.65
189.617	6530.8
189.693	6510.16
189.768	6523.37
189.844	6603.09
189.92	6576.8
189.996	6607.78
190.071	6643.79
190.147	6635.58
190.223	6669.79
190.298	6646.39
190.374	6606.2
190.45	6639.56
190.526	6669.29
190.601	6651.52
190.677	6653.15
190.753	6748.08
190.828	6760.51
190.904	6813.89
190.98	6868.47
191.055	6900.7
191.131	6871.1
191.207	6942.46
191.282	6978.71
191.358	6949.61
191.433	6900.76
191.509	6945.59
191.585	6931.18
191.66	6938.39
191.736	6965.67
191.811	6931.08
191.887	6986.64
191.963	7059.75
192.038	7082.09
192.114	7083
192.189	7092.42
192.265	7082.29
192.34	7009.5
192.416	7007.58
192.491	6988.54
192.567	6993.35
192.642	6998.54
192.718	7001.18
192.793	6956.31
192.869	6944.78
192.944	6950.35
193.02	6973.04
193.095	6988.36
193.171	7006.47
193.246	7004.65
193.322	6993.31
193.397	6999.07
193.473	6945.67
193.548	6890.8
193.624	6905.27
193.699	6903.44
193.775	6955.11
193.85	6960.63
193.925	6987.83
194.001	6985.86
194.076	6963.33
194.152	6928.39
194.227	6912.1
194.302	6874.75
194.378	6893.72
194.453	6883.35
194.529	6927.21
194.604	6880.03
194.679	6858.27
194.755	6796.15
194.83	6832.78
194.905	6828.8
194.981	6854.36
195.056	6835.15
195.131	6855.8
195.207	6854.65
195.282	6820.98
195.357	6756.92
195.433	6807.98
195.508	6768.15
195.583	6793.61
195.659	6841.47
195.734	6862.81
195.809	6855.02
195.884	6893.81
195.96	6896.7
196.035	6946.37
196.11	6929.93
196.185	6968.84
196.261	6984.36
196.336	7085.71
196.411	7038.8
196.486	7058.39
196.561	7035.48
196.637	7064.63
196.712	7120.64
196.787	7126.12
196.862	7180.88
196.937	7218.4
197.013	7233.98
197.088	7267.94
197.163	7331.12
197.238	7385.44
197.313	7392.32
197.388	7436.39
197.464	7532.04
197.539	7565.06
197.614	7541.17
197.689	7581.9
197.764	7637.15
197.839	7700.52
197.914	7687.01
197.989	7761.97
198.065	7806.73
198.14	7979.14
198.215	8065.46
198.29	8102.23
198.365	8145.61
198.44	8177.35
198.515	8266.5
198.59	8323.13
198.665	8405.73
198.74	8438.31
198.815	8447.75
198.89	8519
198.965	8613.47
199.04	8600.43
199.115	8651.67
199.19	8795.09
199.265	8804.86
199.34	8836.82
199.415	8947.96
199.49	9018.64
199.565	9050.84
199.64	9129.64
199.715	9117.21
199.79	9139.64
199.865	9156.4
199.94	9152.93
200.015	9256.25
200.09	9279.95
200.165	9298.15
200.24	9323.52
200.315	9452.88
200.39	9493.71
200.464	9513.07
200.539	9524.39
200.614	9575.66
200.689	9653.24
200.764	9673.33
200.839	9733.35
200.914	9749.72
200.989	9714.6
201.063	9761.61
201.138	9708.53
201.213	9709.73
201.288	9646.26
201.363	9663.84
201.438	9669.81
201.512	9721.51
201.587	9668.77
201.662	9672.04
201.737	9705.42
201.812	9736.34
201.886	9629.91
201.961	9663.29
202.036	9624.59
202.111	9614.09
202.186	9517.69
202.26	9465
202.335	9390.45
202.41	9371.24
202.485	9309.39
202.559	9243.23
202.634	9153.59
202.709	9180.77
202.784	9112.51
202.858	9109.28
202.933	9046.27
203.008	9015.41
203.082	8951.2
203.157	8946.87
203.232	8809.85
203.306	8741.53
203.381	8630.61
203.456	8552.98
203.53	8475.49
203.605	8405.85
203.68	8328.25
203.754	8308.88
203.829	8257.67
203.904	8193.5
203.978	8150.38
204.053	8167.89
204.127	8125.85
204.202	8122
204.277	8060.54
204.351	8040.57
204.426	8021.52
204.5	7996.7
204.575	7884.54
204.65	7918.46
204.724	7889.29
204.799	7912.26
204.873	7897.59
204.948	7891.57
205.022	7848.41
205.097	7823.57
205.171	7874.11
205.246	7901.01
205.32	7896.82
205.395	7888.89
205.469	7855.97
205.544	7872.67
205.618	7814.91
205.693	7854.49
205.767	7813.57
205.842	7882.69
205.916	7862.5
205.991	7824.6
206.065	7839.55
206.14	7894.8
206.214	7878.58
206.289	7857.61
206.363	7901.03
206.438	7911.72
206.512	7940.29
206.586	8005.82
206.661	8035.14
206.735	7955.4
206.81	7961.27
206.884	8010.22
206.958	7976.94
207.033	8035.01
207.107	8060.42
207.181	8167.19
207.256	8147.47
207.33	8211.01
207.405	8253.91
207.479	8322.02
207.553	8346.36
207.628	8293.67
207.702	8331.42
207.776	8309.82
207.851	8316.27
207.925	8364.06
207.999	8356.65
208.073	8344.48
208.148	8357.42
208.222	8311.66
208.296	8427.25
208.371	8477.67
208.445	8516.36
208.519	8609.36
208.593	8648.09
208.668	8630.42
208.742	8630.14
208.816	8629.32
208.89	8670.58
208.965	8667.01
209.039	8688.24
209.113	8747.63
209.187	8817.74
209.261	8800.18
209.336	8866.26
209.41	8932.21
209.484	8933.46
209.558	9007.94
209.632	9052.31
209.707	9094.82
209.781	9172.75
209.855	9219.37
209.929	9276.85
210.003	9290.66
210.077	9284.02
210.151	9443.87
210.226	9566.02
210.3	9659.25
210.374	9740.02
210.448	9755.72
210.522	9788.86
210.596	9820.84
210.67	9850.99
210.744	10009.41
210.818	10115.86
210.892	10183.83
210.966	10172.08
211.041	10226.75
211.115	10215.81
211.189	10292.06
211.263	10338.11
211.337	10355.74
211.411	10406.33
211.485	10384.02
211.559	10428.72
211.633	10438.92
211.707	10336.42
211.781	10358.59
211.855	10234.98
211.929	10207.58
212.003	10142.63
212.077	10172.36
212.151	10217.36
212.225	10246.99
212.299	10202.99
212.373	10163.3
212.447	10141.96
212.52	10232.53
212.594	10237.78
212.668	10266.82
212.742	10219.42
212.816	10197.07
212.89	10175.2
212.964	10163.59
213.038	10161.51
213.112	10195.77
213.186	10235.8
213.26	10154.43
213.333	9997.6
213.407	10016.47
213.481	10017
213.555	10050.31
213.629	9999.58
213.703	9930.88
213.777	9915.13
213.85	9842.73
213.924	9949.68
213.998	9942.02
214.072	9907.28
214.146	9853.04
214.219	9831.51
214.293	9807.86
214.367	9799.82
214.441	9821.74
214.515	9768.65
214.588	9684.41
214.662	9555.64
214.736	9480
214.81	9492.65
214.883	9507.43
214.957	9454.96
215.031	9401.45
215.105	9308.22
215.178	9245.34
215.252	9207.26
215.326	9110.29
215.4	9022.58
215.473	8840.97
215.547	8752.72
215.621	8684.42
215.694	8681.53
215.768	8585.75
215.842	8521.08
215.915	8455.41
215.989	8340.65
216.063	8282.36
216.136	8258.63
216.21	8233.96
216.284	8239.64
216.357	8218.9
216.431	8174.68
216.504	8174.78
216.578	8225.89
216.652	8238.14
216.725	8221.3
216.799	8228.09
216.873	8208.18
216.946	8220.77
217.02	8184.19
217.093	8154.8
217.167	8060.76
217.24	7977.03
217.314	7941.89
217.387	7896.52
217.461	7848.28
217.535	7867.9
217.608	7806.45
217.682	7779.08
217.755	7793.36
217.829	7734.92
217.902	7718.08
217.976	7699.14
218.049	7650.1
218.123	7580.52
218.196	7576.63
218.27	7535.52
218.343	7461.34
218.417	7458.46
218.49	7432.5
218.563	7472.78
218.637	7481.49
218.71	7545.83
218.784	7571.99
218.857	7605.59
218.931	7627.46
219.004	7635.29
219.077	7662.48
219.151	7681.56
219.224	7677.28
219.298	7670.16
219.371	7716.05
219.444	7670.77
219.518	7679.52
219.591	7692.02
219.665	7791.25
219.738	7802.12
219.811	7785.49
219.885	7831.8
219.958	7861.91
220.031	7870.75
220.105	7892.11
220.178	7903.56
220.251	7879.46
220.325	7901.93
220.398	7919.87
220.471	7942.99
220.544	7981.66
220.618	7949.81
220.691	7974.87
220.764	7995.11
220.838	8022.68
220.911	8009.54
220.984	8097.97
221.057	8132.41
221.131	8162.17
221.204	8068.47
221.277	8139.06
221.35	8262.65
221.424	8258.56
221.497	8267.89
221.57	8285.73
221.643	8314.22
221.716	8359.41
221.79	8360.42
221.863	8367.16
221.936	8374.14
222.009	8383.76
222.082	8406.67
222.155	8414.99
222.229	8480.54
222.302	8504.45
222.375	8506.19
222.448	8542.95
222.521	8546.08
222.594	8550.89
222.667	8526.7
222.74	8579.48
222.814	8573.08
222.887	8558.63
222.96	8613.45
223.033	8663.18
223.106	8689.3
223.179	8721.51
223.252	8734.13
223.325	8772.62
223.398	8788.03
223.471	8817.53
223.544	8842.88
223.617	8858.05
223.69	8884.56
223.763	8844.46
223.837	8872.14
223.91	8903.42
223.983	8855.64
224.056	8826.53
224.129	8846.02
224.202	8900.28
224.275	8887.24
224.348	8856.58
224.42	8817.59
224.493	8761.62
224.566	8730.76
224.639	8754.14
224.712	8722.12
224.785	8699.64
224.858	8686.31
224.931	8670.18
225.004	8629.76
225.077	8622.74
225.15	8534.26
225.223	8526.51
225.296	8611.22
225.369	8551.98
225.442	8519.05
225.514	8539.07
225.587	8558.55
225.66	8566.54
225.733	8571.26
225.806	8587.34
225.879	8579.11
225.952	8553.66
226.025	8597.74
226.097	8643.39
226.17	8629.53
226.243	8571.12
226.316	8567.61
226.389	8576.22
226.461	8591.29
226.534	8613.95
226.607	8602.21
226.68	8688.52
226.753	8686.26
226.825	8606.66
226.898	8659.3
226.971	8664.4
227.044	8683.6
227.117	8688.22
227.189	8709.45
227.262	8737.09
227.335	8750.76
227.407	8746.77
227.48	8773.27
227.553	8785.36
227.626	8775.15
227.698	8781.65
227.771	8817.68
227.844	8799.82
227.916	8812.24
227.989	8775.76
228.062	8773.64
228.134	8871.66
228.207	8866.51
228.28	8859.97
228.352	8865.21
228.425	8874.6
228.498	8919.66
228.57	8897.14
228.643	8955.98
228.716	8953.04
228.788	8943.94
228.861	8939.51
228.934	9008.44
229.006	9018.3
229.079	9017.15
229.151	8995.76
229.224	8962.81
229.296	8988.03
229.369	9089.59
229.442	9143.43
229.514	9134
229.587	9173.66
229.659	9095.18
229.732	9108.8
229.804	9153.13
229.877	9236.4
229.949	9266.36
230.022	9316.17
230.094	9323.77
230.167	9307.68
230.239	9268.5
230.312	9254.78
230.384	9322.26
230.457	9316.24
230.529	9329.38
230.602	9335.25
230.674	9341.61
230.747	9384.96
230.819	9417.56
230.892	9301.04
230.964	9298.24
231.037	9324.32
231.109	9318.93
231.181	9358.64
231.254	9324.85
231.326	9311.56
231.399	9284.44
231.471	9252.94
231.544	9176.51
231.616	9219.54
231.688	9230.96
231.761	9214.79
231.833	9204.3
231.905	9125.55
231.978	9122.57
232.05	9103.6
232.122	9103.22
232.195	9084.59
232.267	9125.71
232.339	9097.54
232.412	9164.54
232.484	9139.88
232.556	9117.12
232.629	9184.75
232.701	9203.48
232.773	9215.56
232.846	9203.77
232.918	9214.85
232.99	9233.63
233.062	9272.44
233.135	9284
233.207	9244.8
233.279	9295.87
233.351	9334.96
233.424	9338.91
233.496	9319.02
233.568	9403.58
233.64	9366.66
233.713	9383.7
233.785	9381.97
233.857	9401.37
233.929	9349.62
234.001	9419.43
234.074	9487.06
234.146	9420.3
234.218	9413.55
234.29	9413.55
234.362	9398.35
234.434	9351.48
234.507	9318.36
234.579	9269.25
234.651	9250.42
234.723	9282.25
234.795	9291.68
234.867	9280.03
234.939	9332.76
235.012	9346.72
235.084	9348.79
235.156	9384.71
235.228	9368.53
235.3	9352.25
235.372	9362.85
235.444	9426.3
235.516	9339.31
235.588	9339.69
235.66	9353.22
235.732	9323.95
235.804	9517.55
235.876	9568.63
235.948	9627.58
236.02	9647.46
236.092	9655.45
236.164	9669.18
236.236	9668.07
236.308	9667.49
236.38	9690.9
236.452	9677.75
236.524	9702.11
236.596	9759.99
236.668	9799.58
236.74	9822.45
236.812	9847.21
236.884	9880.88
236.956	9884.54
237.028	9882.08
237.1	9866
237.172	9937.06
237.244	10015.33
237.316	9897.15
237.388	9880.34
237.46	9856.64
237.532	9910.73
237.604	9916.75
237.675	9984.19
237.747	10028.99
237.819	10019.36
237.891	10027.5
237.963	10010.12
238.035	10005.4
238.107	9900.51
238.178	9958.67
238.25	9961.17
238.322	10052.05
238.394	10005.96
238.466	10007.11
238.538	10051.51
238.609	10093.17
238.681	10039.36
238.753	10016.47
238.825	10042.98
238.897	10073.7
238.968	10156.34
239.04	10142.13
239.112	10247.33
239.184	10203.39
239.255	10204.17
239.327	10240.53
239.399	10266.54
239.471	10321.5
239.542	10356.09
239.614	10421.84
239.686	10339.6
239.758	10404.34
239.829	10367.04
239.901	10438.48
239.973	10454.14
240.044	10483.58
240.116	10497.79
240.188	10506.36
240.259	10524.86
240.331	10508.48
240.403	10546.49
240.474	10493.96
240.546	10484.57
240.618	10419.81
240.689	10425.98
240.761	10444.86
240.833	10510.2
240.904	10502.35
240.976	10501.14
241.048	10511.99
241.119	10551.94
241.191	10602.38
241.262	10661.13
241.334	10665.08
241.405	10664.45
241.477	10670.14
241.549	10684.11
241.62	10712.21
241.692	10758.8
241.763	10823.04
241.835	10845.98
241.906	10863.13
241.978	10838.27
242.049	10908.33
242.121	10973.04
242.192	11042.86
242.264	11010.67
242.335	10961.52
242.407	11010.96
242.478	11010.43
242.55	11032.36
242.621	11010.81
242.693	11005.51
242.764	10998.57
242.836	10997.8
242.907	11035.83
242.979	11065.65
243.05	11085.22
243.122	11101.22
243.193	11099.73
243.264	11023.87
243.336	11028.84
243.407	11064.65
243.479	11150.52
243.55	11166.23
243.622	11181.51
243.693	11183.29
243.764	11246.23
243.836	11223.87
243.907	11214.91
243.978	11224.69
244.05	11249.61
244.121	11203.93
244.192	11249.18
244.264	11194.14
244.335	11207.93
244.407	11145.37
244.478	11163.01
244.549	11157.28
244.62	11118.2
244.692	11121.76
244.763	11170.96
244.834	11156.21
244.906	11132.12
244.977	11149.32
245.048	11198.44
245.119	11179.31
245.191	11149.19
245.262	11088.95
245.333	11162.43
245.405	11179.4
245.476	11210.29
245.547	11232.07
245.618	11291.1
245.689	11304.84
245.761	11343.2
245.832	11350.57
245.903	11395.58
245.974	11426.96
246.045	11432.45
246.117	11517.47
246.188	11494.87
246.259	11476.17
246.33	11493.09
246.401	11503.4
246.473	11468.5
246.544	11451.05
246.615	11505.95
246.686	11513.52
246.757	11590.91
246.828	11567.44
246.899	11641.39
246.97	11603.99
247.042	11590.88
247.113	11637.54
247.184	11720.93
247.255	11720.21
247.326	11749.76
247.397	11761.71
247.468	11768.41
247.539	11782.68
247.61	11733.13
247.681	11780.5
247.752	11832.45
247.823	11811.25
247.894	11819.49
247.965	11792.98
248.037	11780.4
248.108	11725.12
248.179	11730.95
248.25	11722.71
248.321	11755.14
248.392	11706.41
248.463	11790.99
248.534	11790.12
248.605	11804.44
248.675	11777.97
248.746	11792.72
248.817	11806.56
248.888	11825.16
248.959	11771.95
249.03	11800.05
249.101	11813.74
249.172	11804.54
249.243	11730.32
249.314	11805.41
249.385	11824.98
249.456	11850.57
249.527	11845.85
249.598	11872.07
249.669	11878.19
249.739	11895.06
249.81	11909.9
249.881	11867.3
249.952	11858.67
250.023	11859.58
250.094	11806.32
250.165	11773.78
250.235	11773.54
250.306	11774.65
250.377	11748.52
250.448	11770.79
250.519	11713.92
250.59	11768.92
250.66	11759.9
250.731	11836.96
250.802	11827.95
250.873	11843.76
250.944	11871.04
251.014	11859.91
251.085	11953.57
251.156	11981.14
251.227	12019.41
251.297	12070.65
251.368	12121.84
251.439	12168.6
251.51	12213.19
251.58	12206.87
251.651	12199.93
251.722	12252.86
251.792	12202.3
251.863	12206.3
251.934	12264.96
252.005	12374.81
252.075	12376.5
252.146	12430.43
252.217	12473.96
252.287	12516.72
252.358	12516.14
252.429	12585.6
252.499	12585.99
252.57	12591.24
252.641	12636.41
252.711	12649.14
252.782	12607.15
252.852	12687.03
252.923	12680.23
252.994	12698.5
253.064	12744.05
253.135	12727.81
253.205	12707.42
253.276	12780.88
253.347	12839.49
253.417	12825.32
253.488	12802.52
253.558	12793.26
253.629	12792.59
253.699	12809.22
253.77	12833.18
253.841	12835.34
253.911	12844.26
253.982	12858.87
254.052	12889.77
254.123	12894.97
254.193	12899.94
254.264	13035.3
254.334	12992.69
254.405	12965.98
254.475	12935.9
254.546	12939.66
254.616	13004.21
254.687	13024.6
254.757	13051.3
254.827	13049.13
254.898	13074.25
254.968	13082.78
255.039	13062.73
255.109	13093.97
255.18	13066.49
255.25	12993.5
255.321	13025.8
255.391	12983.91
255.461	13067.45
255.532	12983.14
255.602	12970.7
255.673	12911.41
255.743	12877.95
255.813	12812.25
255.884	12858.53
255.954	12891.31
256.024	12961.26
256.095	12959.52
256.165	12929.54
256.235	12943.18
256.306	12927.66
256.376	12972.35
256.446	13010.38
256.517	13047.21
256.587	13090.69
256.657	13106.55
256.728	13129.35
256.798	13133.26
256.868	13130.08
256.938	13099.03
257.009	13141.45
257.079	13179.25
257.149	13280
257.219	13210.92
257.29	13245.57
257.36	13185.41
257.43	13224.46
257.5	13157.89
257.571	13156.88
257.641	13201.32
257.711	13176.78
257.781	13216.55
257.852	13230
257.922	13166.8
257.992	13172.97
258.062	13165.7
258.132	13211.06
258.202	13207.68
258.273	13223.98
258.343	13293.83
258.413	13286.6
258.483	13297.06
258.553	13268.47
258.623	13240.66
258.693	13272.09
258.764	13336.97
258.834	13408.03
258.904	13423.69
258.974	13408.22
259.044	13409.57
259.114	13431.75
259.184	13458.02
259.254	13466.94
259.324	13413.43
259.394	13463.37
259.464	13537.7
259.535	13548.89
259.605	13538.81
259.675	13544.07
259.745	13574.39
259.815	13551.63
259.885	13550.28
259.955	13663.51
260.025	13648.62
260.095	13667.23
260.165	13692.44
260.235	13754.91
260.305	13737.61
260.375	13704.34
260.445	13801.53
260.515	13873.06
260.585	13921.61
260.655	13933.61
260.725	13977.43
260.795	14014.74
260.865	14079.34
260.934	14049.69
261.004	14078.61
261.074	14080.21
261.144	14137.14
261.214	14183.9
261.284	14191.37
261.354	14230.7
261.424	14183.56
261.494	14261.95
261.564	14262.04
261.634	14301.23
261.703	14237.07
261.773	14268.12
261.843	14304.9
261.913	14295.45
261.983	14236.83
262.053	14256.79
262.123	14245.94
262.192	14200.44
262.262	14242.09
262.332	14196.29
262.402	14234.32
262.472	14244.93
262.541	14191.76
262.611	14236.2
262.681	14195.95
262.751	14238.13
262.821	14242.37
262.89	14203.91
262.96	14230.32
263.03	14311.64
263.1	14321.72
263.169	14343.31
263.239	14376.43
263.309	14440.3
263.379	14478.19
263.448	14501.28
263.518	14524.95
263.588	14540.28
263.657	14610.61
263.727	14644.4
263.797	14662.19
263.867	14656.21
263.936	14620.35
264.006	14682.63
264.076	14683.01
264.145	14685.62
264.215	14667.35
264.285	14710.4
264.354	14673.52
264.424	14655.78
264.494	14600.15
264.563	14597.45
264.633	14672.26
264.702	14692.46
264.772	14638.33
264.842	14623
264.911	14657.42
264.981	14616.93
265.05	14638.38
265.12	14636.16
265.19	14656.36
265.259	14696.18
265.329	14730.64
265.398	14757.64
265.468	14859.68
265.537	14847.87
265.607	14889.52
265.676	14937.34
265.746	14961.49
265.815	15023.43
265.885	15032.3
265.955	15023.58
266.024	15022.37
266.094	14962.74
266.163	15019.28
266.232	15087.97
266.302	15102.19
266.371	15125.04
266.441	15144.03
266.51	15183.13
266.58	15191.22
266.649	15170.69
266.719	15222.55
266.788	15258.08
266.858	15321.46
266.927	15251.91
266.996	15275.09
267.066	15307.24
267.135	15277.6
267.205	15314.38
267.274	15333.03
267.343	15384.9
267.413	15404.81
267.482	15468.19
267.552	15532.4
267.621	15491.76
267.69	15445.63
267.76	15471.42
267.829	15489.4
267.898	15518.61
267.968	15502.51
268.037	15537.46
268.106	15593.22
268.176	15564.06
268.245	15563.58
268.314	15555.48
268.384	15611.98
268.453	15647.69
268.522	15664.42
268.592	15719.27
268.661	15713.25
268.73	15744
268.799	15735.76
268.869	15818.57
268.938	15769.64
269.007	15763.04
269.076	15780.44
269.146	15839.1
269.215	15864.65
269.284	15951.74
269.353	15940.22
269.422	15951.45
269.492	15953.23
269.561	15868.45
269.63	15906.04
269.699	15904.74
269.768	15922.19
269.838	15946.67
269.907	15980.56
269.976	15952.8
270.045	15905.85
270.114	15939.63
270.183	15947.25
270.253	15970.39
270.322	15914.91
270.391	15952.36
270.46	16014.68
270.529	16061.82
270.598	16100.61
270.667	16110.98
270.736	16076.86
270.806	16106.98
270.875	16172.1
270.944	16184.68
271.013	16311.77
271.082	16340.64
271.151	16379.06
271.22	16350.86
271.289	16355.25
271.358	16367.29
271.427	16399.35
271.496	16427.02
271.565	16423.88
271.634	16453.62
271.703	16592.08
271.772	16657.97
271.841	16666.45
271.91	16632.57
271.979	16658.64
272.048	16631.6
272.117	16677.39
272.186	16673.82
272.255	16728.67
272.324	16764.96
272.393	16797.44
272.462	16792.58
272.531	16811.18
272.6	16828.43
272.669	16898.37
272.738	16924.25
272.807	16952.35
272.876	16939.24
272.945	17083.39
273.013	17144.3
273.082	17204.01
273.151	17114.62
273.22	17163
273.289	17189.46
273.358	17277.8
273.427	17283.64
273.496	17342.87
273.564	17383.73
273.633	17440.26
273.702	17426.19
273.771	17442.05
273.84	17478.24
273.909	17508.84
273.977	17554.48
274.046	17558.53
274.115	17622
274.184	17607.59
274.253	17633.08
274.322	17724.84
274.39	17668.56
274.459	17652.89
274.528	17605.33
274.597	17620.89
274.665	17643.11
274.734	17718.14
274.803	17724.75
274.872	17744.99
274.94	17737.52
275.009	17960.33
275.078	17957.05
275.147	17999.26
275.215	18020.18
275.284	18084.71
275.353	18094.44
275.421	18052.9
275.49	18150.2
275.559	18165.67
275.627	18193.09
275.696	18206.34
275.765	18244.07
275.833	18256.56
275.902	18312.17
275.971	18394.24
276.039	18486.33
276.108	18551.1
276.177	18590.85
276.245	18606.47
276.314	18638.08
276.383	18700.01
276.451	18540.04
276.52	18592.61
276.588	18669.72
276.657	18734.82
276.725	18741.18
276.794	18799.06
276.863	18879.49
276.931	18855.2
277	18913.61
277.068	18988.3
277.137	19097.41
277.205	19127.14
277.274	19233.11
277.342	19308.43
277.411	19290.27
277.48	19295.66
277.548	19293.4
277.617	19327.03
277.685	19349.25
277.754	19412.81
277.822	19433.73
277.89	19520.42
277.959	19542.4
278.027	19529.15
278.096	19531.51
278.164	19658.55
278.233	19670.06
278.301	19677.73
278.37	19740.85
278.438	19741.38
278.507	19798.39
278.575	19752.37
278.643	19777.48
278.712	19756.32
278.78	19751.02
278.849	19833.23
278.917	19912.99
278.985	19941.81
279.054	19996.22
279.122	20076.65
279.191	20111.54
279.259	20142
279.327	20102.82
279.396	20197.95
279.464	20230.53
279.532	20299.44
279.601	20326.77
279.669	20364.27
279.737	20462.39
279.806	20513.57
279.874	20585.33
279.942	20620.51
280.011	20654.44
280.079	20726.78
280.147	20824.37
280.215	20881.82
280.284	20909.1
280.352	20902.44
280.42	20971.03
280.488	20977.15
280.557	20995.41
280.625	21054.84
280.693	21095.32
280.761	21160.1
280.83	21149.11
280.898	21237.12
280.966	21218.32
281.034	21156.57
281.102	21156.86
281.171	21168.82
281.239	21238.76
281.307	21251.44
281.375	21258.28
281.443	21389.2
281.512	21420.67
281.58	21495.44
281.648	21486.33
281.716	21529.47
281.784	21582.2
281.852	21607.46
281.92	21659.32
281.989	21745.85
282.057	21719.73
282.125	21919.78
282.193	21950.01
282.261	22006.11
282.329	22032.05
282.397	22096.3
282.465	22166.58
282.533	22255.02
282.601	22264.9
282.67	22233.28
282.738	22257.62
282.806	22339.47
282.874	22333.01
282.942	22388.41
283.01	22404.9
283.078	22467.71
283.146	22503.47
283.214	22572.9
283.282	22618.36
283.35	22692.62
283.418	22717.31
283.486	22785.76
283.554	22687.03
283.622	22732.92
283.69	22769.61
283.758	22801.39
283.826	22860.11
283.894	22930.56
283.962	23040.75
284.03	23146.2
284.098	23199.43
284.165	23224.78
284.233	23264.08
284.301	23300.87
284.369	23322.24
284.437	23339.6
284.505	23375.08
284.573	23481.85
284.641	23490.39
284.709	23572.28
284.777	23564.81
284.845	23630.12
284.912	23691.65
284.98	23747.49
285.048	23774.21
285.116	23844.19
285.184	23928.3
285.252	23978.51
285.319	23975.86
285.387	23993.61
285.455	23981.65
285.523	24049.9
285.591	24094.89
285.659	24149.73
285.726	24229.71
285.794	24232.75
285.862	24270.04
285.93	24320.53
285.997	24337.76
286.065	24359.85
286.133	24361.15
286.201	24398.43
286.269	24402.82
286.336	24423.71
286.404	24451.93
286.472	24525.69
286.539	24498.63
286.607	24500.66
286.675	24551.47
286.743	24626.24
286.81	24654.09
286.878	24738.62
286.946	24755.31
287.013	24808.32
287.081	24845.57
287.149	24830.37
287.216	24930.05
287.284	24957.84
287.352	25000.11
287.419	25043.97
287.487	25146.38
287.555	25214.23
287.622	25271.27
287.69	25334.06
287.758	25413.01
287.825	25454.22
287.893	25477.48
287.96	25549.51
288.028	25623.36
288.096	25677.57
288.163	25738.44
288.231	25749.16
288.298	25794.92
288.366	25880.6
288.433	25906.56
288.501	25931.66
288.569	25994.02
288.636	26016.37
288.704	26120.8
288.771	26198.91
288.839	26208.32
288.906	26228.89
288.974	26314.04
289.041	26337.45
289.109	26341.99
289.176	26427.14
289.244	26474.84
289.311	26546.98
289.379	26623.7
289.446	26677.89
289.514	26720.39
289.581	26756.8
289.649	26814.21
289.716	26862.08
289.783	26886.62
289.851	27004.29
289.918	27046.2
289.986	27125.27
290.053	27191.24
290.121	27218.49
290.188	27268.83
290.255	27409.31
290.323	27436.17
290.39	27451.78
290.458	27521.18
290.525	27623.01
290.592	27656.94
290.66	27718.57
290.727	27753.12
290.794	27849.34
290.862	27900.42
290.929	27961.07
290.996	28004.41
291.064	28086.9
291.131	28172.07
291.198	28266.56
291.266	28303.53
291.333	28368.32
291.4	28440.49
291.468	28552.42
291.535	28590.36
291.602	28652.09
291.669	28674.38
291.737	28745.47
291.804	28794.88
291.871	28904.18
291.938	28967.92
292.006	29097.67
292.073	29191.02
292.14	29272.83
292.207	29286.42
292.275	29327.43
292.342	29384.73
292.409	29517.22
292.476	29624.23
292.543	29637.39
292.611	29671.54
292.678	29774.27
292.745	29890.45
292.812	29962.73
292.879	29984.51
292.946	30041.33
293.014	30121.84
293.081	30199.35
293.148	30292.81
293.215	30380.49
293.282	30399.26
293.349	30473.59
293.416	30438.94
293.484	30514.68
293.551	30600.63
293.618	30698.57
293.685	30827.23
293.752	30876.25
293.819	30916.05
293.886	30928.4
293.953	30997.64
294.02	31091.65
294.087	31148.83
294.154	31182.52
294.221	31276.14
294.288	31330.02
294.356	31436.57
294.423	31508.92
294.49	31523.78
294.557	31607.31
294.624	31632.73
294.691	31747.73
294.758	31797.86
294.825	31890.92
294.892	31919.01
294.959	31949.23
295.026	32026.69
295.093	32043.89
295.16	32083.88
295.226	32121.28
295.293	32254.08
295.36	32323.44
295.427	32401.74
295.494	32495.65
295.561	32568.6
295.628	32695.06
295.695	32790.75
295.762	32850.84
295.829	32924.46
295.896	33032.73
295.963	33110.72
296.03	33190.95
296.096	33249.94
296.163	33328.6
296.23	33416.23
296.297	33503.75
296.364	33567.13
296.431	33629.62
296.498	33680.94
296.564	33814.46
296.631	33878.25
296.698	33876.41
296.765	33990.57
296.832	34008.46
296.899	34025.09
296.965	34144.28
297.032	34119.64
297.099	34238.62
297.166	34317.12
297.233	34350.19
297.299	34382.05
297.366	34425.5
297.433	34486.45
297.5	34575.84
297.566	34635.01
297.633	34686.23
297.7	34751.17
297.767	34805.33
297.833	34880.91
297.9	34948.07
297.967	34939.73
298.033	35026.32
298.1	35182.7
298.167	35215.3
298.234	35287.86
298.3	35356.1
298.367	35385.27
298.434	35455.92
298.5	35458.88
298.567	35487.11
298.634	35546.39
298.7	35659.48
298.767	35725.33
298.834	35823.15
298.9	35849.45
298.967	35882.35
299.033	35965.97
299.1	36070.22
299.167	36163.77
299.233	36194.59
299.3	36281.99
299.366	36398.38
299.433	36500.57
299.5	36456.98
299.566	36511.53
299.633	36606.61
299.699	36710.69
299.766	36746.07
299.832	36795
299.899	36872.72
299.965	36969.61
300.032	37012.37
300.099	37068.93
300.165	37131.02
300.232	37168.16
300.298	37217.24
300.365	37313.94
300.431	37365.65
300.498	37389.79
300.564	37455.33
300.631	37540.25
300.697	37630.91
300.763	37661.69
300.83	37697.1
300.896	37784.88
300.963	37870.29
301.029	37936.68
301.096	37989.71
301.162	38071
301.229	38118.3
301.295	38133.45
301.361	38192.89
301.428	38245.52
301.494	38243.05
301.561	38303.08
301.627	38365.29
301.693	38425.8
301.76	38480.2
301.826	38501.76
301.892	38579.33
301.959	38663.76
302.025	38705.82
302.092	38730.21
302.158	38819.86
302.224	38870.05
302.291	38898.41
302.357	38932.56
302.423	38952.38
302.49	38961.37
302.556	39045.37
302.622	39088.36
302.688	39167.78
302.755	39247.9
302.821	39330.18
302.887	39419.9
302.954	39471.01
303.02	39546.85
303.086	39615.88
303.152	39663.35
303.219	39700.95
303.285	39771.8
303.351	39828.22
303.417	39873.26
303.483	39910.28
303.55	39933.07
303.616	39974.67
303.682	40019.26
303.748	40045.69
303.815	40149.3
303.881	40236.08
303.947	40245.95
304.013	40302.8
304.079	40326.8
304.145	40310.82
304.212	40351.54
304.278	40374.47
304.344	40405.81
304.41	40401.93
304.476	40417.04
304.542	40447.22
304.608	40522.64
304.674	40513.74
304.741	40546.75
304.807	40594.47
304.873	40645.89
304.939	40728.9
305.005	40718.01
305.071	40758.63
305.137	40804.02
305.203	40766.26
305.269	40812.48
305.335	40896.14
305.401	40928.46
305.467	40978.28
305.533	41056.43
305.599	41131.53
305.666	41197.68
305.732	41236.85
305.798	41321.28
305.864	41443.93
305.93	41495.16
305.996	41534.44
306.062	41583.05
306.128	41605.66
306.194	41608.09
306.259	41641.29
306.325	41651.59
306.391	41735.59
306.457	41808.11
306.523	41871.45
306.589	41983.22
306.655	41990.95
306.721	41962.8
306.787	41970.19
306.853	42060.77
306.919	42045.5
306.985	42045.16
307.051	42076.37
307.117	42098.64
307.183	42119.06
307.248	42058.33
307.314	42122.18
307.38	42165.94
307.446	42217.82
307.512	42228.32
307.578	42286.9
307.644	42314.76
307.709	42358.86
307.775	42381.37
307.841	42412.68
307.907	42462.43
307.973	42434.9
308.039	42476.43
308.104	42532.98
308.17	42578.38
308.236	42558.4
308.302	42619.85
308.368	42628.7
308.433	42668.43
308.499	42687.1
308.565	42691.86
308.631	42768.06
308.696	42710.73
308.762	42710
308.828	42741.9
308.894	42722.6
308.959	42696.49
309.025	42709.86
309.091	42744.25
309.156	42760.49
309.222	42805.18
309.288	42784.81
309.354	42766.38
309.419	42797.22
309.485	42804.61
309.551	42861.51
309.616	42856.25
309.682	42876.1
309.748	42905.76
309.813	42920.15
309.879	42934.45
309.945	42942.52
310.01	42953.56
310.076	43014
310.141	43034.33
310.207	43022.56
310.273	43068.95
310.338	43142.96
310.404	43129.25
310.469	43125.26
310.535	43125.02
310.601	43079.44
310.666	43140.63
310.732	43235.22
310.797	43234.44
310.863	43232.5
310.928	43245.05
310.994	43298.55
311.059	43318.34
311.125	43337.6
311.191	43411.36
311.256	43420.16
311.322	43477.5
311.387	43449.88
311.453	44125.64
311.518	44128.07
311.584	44155.7
311.649	44212.13
311.715	44196.51
311.78	44256.92
311.846	44261.97
311.911	44337.03
311.976	44383.48
312.042	44366.6
312.107	44337.41
312.173	44352.3
312.238	44384.2
312.304	44411.59
312.369	44411.64
312.434	44414.9
312.5	44425.65
312.565	44357.88
312.631	44417.03
312.696	44414.74
312.761	44461.39
312.827	43826.48
312.892	43944.53
312.958	43969.48
313.023	44003.2
313.088	44043.77
313.154	44028.45
313.219	44046.84
313.284	44032.38
313.35	44058.51
313.415	44064.05
313.48	44085.17
313.546	44123.16
313.611	44182.37
313.676	44175.95
313.741	44178.53
313.807	44235.7
313.872	44298.95
313.937	44339.81
314.003	44395.19
314.068	44444.72
314.133	44493.13
314.198	44500.14
314.264	44459.59
314.329	44455.45
314.394	44470.49
314.459	44485.57
314.525	44574.66
314.59	44592.03
314.655	44589.01
314.72	44655.83
314.785	44702.98
314.851	44711.25
314.916	44681.28
314.981	44652.37
315.046	44661.37
315.111	44666.24
315.176	44655.92
315.242	44685.56
315.307	44726.78
315.372	44688.67
315.437	44674.51
315.502	44670.28
315.567	44741.14
315.632	44730
315.698	44775.16
315.763	44784.16
315.828	44797.93
315.893	44796.86
315.958	44811.94
316.023	44812.53
316.088	44754.46
316.153	44694.38
316.218	44701.73
316.283	44668.65
316.348	44634.6
316.413	44638.39
316.479	44595.39
316.544	44496.4
316.609	44388.05
316.674	44265.27
316.739	44153.11
316.804	44051.64
316.869	43932.37
316.934	43787.43
316.999	43668.46
317.064	43480.43
317.129	43322.48
317.194	43178.72
317.259	43005.27
317.324	42799.5
317.389	42627.17
317.454	42455.18
317.518	42313.46
317.583	42173.11
317.648	42055.7
317.713	41898.96
317.778	41665.78
317.843	41528.5
317.908	41371.12
317.973	41208.76
318.038	41070.43
318.103	40905.69
318.168	40747.2
318.233	40601.54
318.297	40381.59
318.362	40218.55
318.427	40038.02
318.492	39882.07
318.557	39664.78
318.622	39512.83
318.687	39395.09
318.751	39202.65
318.816	39048.16
318.881	38873.11
318.946	38637.44
319.011	38419.35
319.075	38219.86
319.14	38035.53
319.205	37818.08
319.27	37637.51
319.335	37420.82
319.399	37216.32
319.464	37043.99
319.529	36808.62
319.594	36595.45
319.658	36425.64
319.723	36190.41
319.788	36018.54
319.853	35769.11
319.917	35599.9
319.982	35336.2
320.047	35114.4
320.112	34942.12
320.176	34690.81
320.241	34478.93
320.306	34289.66
320.37	34064.6
320.435	33868.2
320.5	33686.2
320.564	33474.48
320.629	33237.22
320.694	33035.56
320.758	32796.29
320.823	32558.74
320.888	32355.64
320.952	32097.48
321.017	31859.18
321.082	31638.04
321.146	31427.77
321.211	31212.52
321.275	30969
321.34	30732.75
321.405	30487.98
321.469	30241.33
321.534	29998.35
321.598	29744.78
321.663	29539.77
321.727	29342.23
321.792	29083.37
321.857	28827.11
321.921	28592.44
321.986	28354.04
322.05	28063.22
322.115	27839.24
322.179	27593.61
322.244	27311.81
322.308	27100.91
322.373	26852.32
322.437	26615.2
322.502	26416.16
322.566	26159.58
322.631	25936.36
322.695	25701.8
322.76	25463.03
322.824	25230.89
322.889	24986.66
322.953	24731.06
323.018	24404.31
323.082	24083.37
323.146	23807.01
323.211	23528.57
323.275	23276.61
323.34	23017.48
323.404	22794.64
323.468	22526.73
323.533	22265.38
323.597	22003.44
323.662	21725.9
323.726	21487.27
323.79	21228.8
323.855	20898.17
323.919	20636.02
323.983	20369.23
324.048	19977.97
324.112	20128.82
324.177	19327.94
324.241	18272.24
324.305	17237.53
324.37	16226.69
324.434	15238.45
324.498	14965
324.562	14658.82
324.627	14305.35
324.691	13961.97
324.755	13570.23
324.82	13139.27
324.884	12686.15
324.948	12227.47
325.012	11650.16
325.077	10952.26
