Data from 20250701_urea_2M_exp3_MAYP1162681_23-49-50-522.txt Node
Date: Tue Jul 01 23:49:50 BST 2025
User: adleo
Spectrometer: MAYP116268
Trigger mode: 0
Integration Time (sec): 4.000000E0
Scans to average: 1
Electric dark correction enabled: true
Nonlinearity correction enabled: true
Boxcar width: 10
XAxis mode: Wavelengths
Number of Pixels in Spectrum: 2068
>>>>>Begin Spectral Data<<<<<
179.565	3728.15
179.642	3925.82
179.718	4077.65
179.795	4216.58
179.871	4332.81
179.948	4395.75
180.024	4464.49
180.101	4548.36
180.177	4601.67
180.254	4681.18
180.33	4759.55
180.407	5031.31
180.483	5319.51
180.56	5610.43
180.636	5881.13
180.712	5842.44
180.789	5876.55
180.865	5920.41
180.942	5950.86
181.018	5989.05
181.095	6035.86
181.171	6050.64
181.248	6048
181.324	6100.09
181.4	6121.25
181.477	6155.04
181.553	6200.46
181.63	6276.26
181.706	6327.92
181.782	6354.97
181.859	6350.55
181.935	6371.39
182.011	6352.72
182.088	6411.44
182.164	6484.94
182.24	6530
182.317	6559.28
182.393	6557.79
182.469	6609.11
182.546	6656.41
182.622	6667.07
182.698	6653.91
182.775	6694.2
182.851	6749.13
182.927	6727.32
183.003	6712.49
183.08	6695.64
183.156	6730.36
183.232	6721.14
183.308	6678.49
183.385	6705.23
183.461	6768.06
183.537	6768.49
183.613	6817.23
183.69	6785.92
183.766	6743.14
183.842	6767.16
183.918	6784.89
183.995	6824.08
184.071	6828.54
184.147	6813.27
184.223	6777.99
184.299	6822.68
184.375	6785.51
184.452	6804.4
184.528	6933.04
184.604	6975.54
184.68	7013.96
184.756	7031.16
184.832	7043.47
184.908	7064.44
184.985	7059.98
185.061	7005.31
185.137	7035.06
185.213	6996.97
185.289	7004.94
185.365	6985.83
185.441	6982.22
185.517	7030.15
185.593	7018.57
185.669	7019.05
185.745	7049.42
185.822	7112.46
185.898	7078.48
185.974	7114.98
186.05	7089.17
186.126	7009.06
186.202	6985.33
186.278	6971.4
186.354	6941.85
186.43	6965.45
186.506	6961.9
186.582	6965.59
186.658	6984.32
186.734	6918
186.81	6924.91
186.886	6931.15
186.962	6975.44
187.038	6963.67
187.114	6931.36
187.19	6961.01
187.266	6925.37
187.341	6928.59
187.417	6897.32
187.493	6899.87
187.569	6903.33
187.645	6884.93
187.721	6850.33
187.797	6874.2
187.873	6890.29
187.949	6872.1
188.025	6846.43
188.101	6856.22
188.176	6870.1
188.252	6861.8
188.328	6883.97
188.404	6887.76
188.48	6870
188.556	6843.19
188.632	6842.9
188.707	6849.34
188.783	6836.41
188.859	6818.27
188.935	6782.62
189.011	6808.56
189.086	6784.02
189.162	6757.64
189.238	6743.24
189.314	6728.07
189.39	6706.26
189.465	6680.94
189.541	6737.34
189.617	6692.73
189.693	6670.59
189.768	6685.11
189.844	6767.1
189.92	6743.68
189.996	6767.22
190.071	6812.38
190.147	6807.62
190.223	6837.99
190.298	6808.87
190.374	6765.6
190.45	6810.25
190.526	6833.02
190.601	6816.2
190.677	6822.35
190.753	6917.06
190.828	6943.28
190.904	7000.94
190.98	7053.41
191.055	7095.17
191.131	7065.32
191.207	7131.95
191.282	7165.33
191.358	7129.87
191.433	7082.17
191.509	7128.12
191.585	7119.95
191.66	7116.2
191.736	7142.34
191.811	7107.6
191.887	7163.84
191.963	7247.69
192.038	7263.79
192.114	7271.14
192.189	7285.17
192.265	7272.21
192.34	7204.3
192.416	7196.86
192.491	7176.04
192.567	7183.02
192.642	7188.35
192.718	7187.05
192.793	7143.85
192.869	7131.65
192.944	7140.49
193.02	7161.59
193.095	7172.02
193.171	7196.86
193.246	7196.38
193.322	7187.54
193.397	7193.11
193.473	7145.23
193.548	7080.58
193.624	7102.55
193.699	7102.55
193.775	7150.82
193.85	7161.24
193.925	7183.73
194.001	7178.35
194.076	7159.9
194.152	7129.04
194.227	7103.47
194.302	7068.42
194.378	7087.44
194.453	7079.95
194.529	7127.48
194.604	7078.46
194.679	7059.29
194.755	6993.06
194.83	7039.85
194.905	7032.45
194.981	7060.27
195.056	7041.2
195.131	7059.89
195.207	7044.84
195.282	7007.8
195.357	6947.28
195.433	6998.79
195.508	6961.83
195.583	6991.72
195.659	7036.95
195.734	7054.92
195.809	7053.48
195.884	7091.56
195.96	7085.84
196.035	7134.76
196.11	7111.54
196.185	7153.34
196.261	7169.05
196.336	7274.96
196.411	7220.82
196.486	7241.14
196.561	7218.85
196.637	7244.5
196.712	7303.11
196.787	7322.01
196.862	7376.16
196.937	7412.92
197.013	7428.46
197.088	7466.28
197.163	7535.78
197.238	7589.38
197.313	7591.74
197.388	7636.45
197.464	7736.64
197.539	7774.23
197.614	7751.3
197.689	7796.16
197.764	7853.36
197.839	7918.23
197.914	7900.38
197.989	7975.79
198.065	8022
198.14	8197.91
198.215	8288.19
198.29	8321.3
198.365	8362.78
198.44	8396.3
198.515	8487.11
198.59	8539.36
198.665	8625.16
198.74	8650.24
198.815	8664.73
198.89	8739.41
198.965	8843.11
199.04	8825.88
199.115	8885.21
199.19	9030.44
199.265	9045.69
199.34	9067.4
199.415	9176.91
199.49	9248.34
199.565	9281.07
199.64	9363.88
199.715	9350.92
199.79	9371.82
199.865	9395.17
199.94	9389.49
200.015	9497.84
200.09	9517.2
200.165	9538.34
200.24	9560.35
200.315	9690.87
200.39	9734.65
200.464	9759.3
200.539	9765.42
200.614	9816.03
200.689	9890.35
200.764	9907.21
200.839	9965.51
200.914	9988.53
200.989	9959.62
201.063	10005.81
201.138	9948.06
201.213	9950.66
201.288	9883.95
201.363	9901.15
201.438	9899.51
201.512	9952.86
201.587	9893.27
201.662	9903.77
201.737	9946.45
201.812	9972.99
201.886	9858.45
201.961	9885.34
202.036	9840.56
202.111	9821.2
202.186	9730.27
202.26	9671.46
202.335	9600.99
202.41	9580.57
202.485	9519.82
202.559	9448.22
202.634	9359.66
202.709	9388.87
202.784	9317.75
202.858	9317.66
202.933	9255.31
203.008	9233.4
203.082	9168.07
203.157	9164.27
203.232	9018.23
203.306	8937.52
203.381	8830
203.456	8756.69
203.53	8682.08
203.605	8621.47
203.68	8539.48
203.754	8516.98
203.829	8467.07
203.904	8400
203.978	8353.69
204.053	8375.25
204.127	8333.54
204.202	8322.04
204.277	8262.29
204.351	8235.16
204.426	8208.21
204.5	8182.76
204.575	8066
204.65	8101.18
204.724	8070.18
204.799	8103.11
204.873	8099.59
204.948	8085.84
205.022	8047.42
205.097	8014.83
205.171	8055.91
205.246	8089.59
205.32	8084.64
205.395	8080.89
205.469	8051.71
205.544	8073.9
205.618	8008.24
205.693	8047.44
205.767	8006.61
205.842	8082
205.916	8061.13
205.991	8033.23
206.065	8053.68
206.14	8105.14
206.214	8085.79
206.289	8062.26
206.363	8093.58
206.438	8097.43
206.512	8122.68
206.586	8183.86
206.661	8214.47
206.735	8143.27
206.81	8143.41
206.884	8195.78
206.958	8154.47
207.033	8214.09
207.107	8237.06
207.181	8350.24
207.256	8328.54
207.33	8390.26
207.405	8429.7
207.479	8502.5
207.553	8522.6
207.628	8463.21
207.702	8503.96
207.776	8484.08
207.851	8496.45
207.925	8555.08
207.999	8546.18
208.073	8541.37
208.148	8551.76
208.222	8513.26
208.296	8615.03
208.371	8674.74
208.445	8713.39
208.519	8811.31
208.593	8847.88
208.668	8832.38
208.742	8842.21
208.816	8849.23
208.89	8894.39
208.965	8891.22
209.039	8912.31
209.113	8969.92
209.187	9039.61
209.261	9021.09
209.336	9083.86
209.41	9158.2
209.484	9160.27
209.558	9229.69
209.632	9275.61
209.707	9317.93
209.781	9397.04
209.855	9455.5
209.929	9511.25
210.003	9531.19
210.077	9532.54
210.151	9700.45
210.226	9816.69
210.3	9909.07
210.374	9986.53
210.448	10004.4
210.522	10032.25
210.596	10069.34
210.67	10103
210.744	10261.59
210.818	10377.68
210.892	10452.88
210.966	10425.77
211.041	10480.93
211.115	10473.56
211.189	10558.2
211.263	10606.04
211.337	10620.01
211.411	10667.28
211.485	10646.31
211.559	10681.38
211.633	10681.62
211.707	10571.55
211.781	10599.74
211.855	10474.76
211.929	10452.22
212.003	10385.72
212.077	10424.61
212.151	10461.52
212.225	10491.49
212.299	10454.71
212.373	10409.72
212.447	10390.39
212.52	10485.45
212.594	10487.09
212.668	10526.54
212.742	10470.22
212.816	10454.8
212.89	10431.87
212.964	10419.29
213.038	10417.22
213.112	10461.41
213.186	10512.76
213.26	10433.16
213.333	10270.44
213.407	10278.77
213.481	10275.83
213.555	10307.6
213.629	10253.73
213.703	10190.33
213.777	10178.96
213.85	10103.37
213.924	10209.9
213.998	10194.29
214.072	10156.7
214.146	10094.32
214.219	10072.93
214.293	10049.09
214.367	10040.99
214.441	10060.84
214.515	10013.28
214.588	9926.34
214.662	9789.17
214.736	9701.62
214.81	9712.79
214.883	9732.23
214.957	9687.94
215.031	9632.64
215.105	9541.7
215.178	9483.33
215.252	9441.58
215.326	9334.16
215.4	9251.57
215.473	9067.25
215.547	8981.68
215.621	8918.96
215.694	8922.33
215.768	8821.19
215.842	8753.76
215.915	8683.98
215.989	8574.22
216.063	8506.43
216.136	8481.79
216.21	8458.55
216.284	8468.9
216.357	8443.68
216.431	8389.7
216.504	8378.39
216.578	8434.61
216.652	8448.5
216.725	8417.61
216.799	8425.69
216.873	8411.41
216.946	8417.23
217.02	8382.17
217.093	8352.58
217.167	8253.72
217.24	8167.09
217.314	8132.37
217.387	8088.39
217.461	8035.62
217.535	8052.36
217.608	7996.76
217.682	7971.16
217.755	7982.08
217.829	7922.42
217.902	7905.92
217.976	7888.9
218.049	7843.31
218.123	7762.8
218.196	7756.79
218.27	7725.38
218.343	7654.75
218.417	7644.22
218.49	7622.73
218.563	7658.88
218.637	7667.98
218.71	7742.72
218.784	7770.67
218.857	7801.92
218.931	7820.04
219.004	7830.52
219.077	7852.37
219.151	7869.68
219.224	7865.11
219.298	7857.89
219.371	7906.48
219.444	7864.99
219.518	7875.38
219.591	7891.87
219.665	8000.99
219.738	8010.46
219.811	7989.84
219.885	8033.08
219.958	8069.59
220.031	8065.17
220.105	8089.66
220.178	8091.87
220.251	8061.75
220.325	8083.79
220.398	8102.6
220.471	8128.08
220.544	8159.69
220.618	8135.87
220.691	8160.4
220.764	8174.15
220.838	8202.11
220.911	8182.52
220.984	8272.75
221.057	8307.87
221.131	8335.86
221.204	8232.52
221.277	8307.98
221.35	8429.95
221.424	8429.76
221.497	8439.82
221.57	8467.18
221.643	8501.02
221.716	8547.66
221.79	8552.56
221.863	8567.39
221.936	8576.1
222.009	8595.68
222.082	8629.57
222.155	8640.06
222.229	8716.17
222.302	8744.41
222.375	8754.47
222.448	8794.13
222.521	8795.86
222.594	8802.22
222.667	8773.12
222.74	8827.49
222.814	8819.25
222.887	8807.84
222.96	8856.41
223.033	8903.21
223.106	8936.32
223.179	8960.97
223.252	8971.28
223.325	9003.28
223.398	9014.93
223.471	9045.16
223.544	9061.67
223.617	9072.26
223.69	9091.51
223.763	9044.66
223.837	9072.58
223.91	9097.57
223.983	9047.52
224.056	9015.75
224.129	9040.88
224.202	9096.21
224.275	9089.57
224.348	9062.99
224.42	9028.43
224.493	8970.13
224.566	8940.13
224.639	8953.66
224.712	8927.94
224.785	8916.19
224.858	8905.17
224.931	8882.59
225.004	8839.9
225.077	8837.35
225.15	8746.89
225.223	8746.84
225.296	8830.64
225.369	8770.92
225.442	8743.33
225.514	8768.64
225.587	8790.29
225.66	8791.21
225.733	8791.64
225.806	8801.13
225.879	8794.34
225.952	8761.86
226.025	8808.74
226.097	8865.38
226.17	8855.89
226.243	8792.57
226.316	8791.79
226.389	8803.25
226.461	8825.93
226.534	8848.54
226.607	8841.37
226.68	8926.92
226.753	8922.78
226.825	8839.32
226.898	8896.54
226.971	8895.58
227.044	8920.8
227.117	8925.28
227.189	8948.78
227.262	8981.62
227.335	8998.76
227.407	8990.34
227.48	9018.72
227.553	9031.77
227.626	9005.86
227.698	9009.42
227.771	9048.63
227.844	9028.65
227.916	9037.95
227.989	8996.55
228.062	8989.42
228.134	9078.31
228.207	9079.81
228.28	9074.32
228.352	9086.84
228.425	9095.46
228.498	9143.65
228.57	9113.91
228.643	9170.63
228.716	9169.57
228.788	9165.67
228.861	9158.84
228.934	9219.39
229.006	9230.95
229.079	9232.1
229.151	9224.69
229.224	9195.28
229.296	9222.91
229.369	9322.61
229.442	9373.38
229.514	9361.2
229.587	9408.29
229.659	9328.78
229.732	9342.74
229.804	9384.39
229.877	9463.63
229.949	9492.62
230.022	9545.04
230.094	9550.86
230.167	9541.71
230.239	9489.43
230.312	9470.65
230.384	9543.72
230.457	9540.98
230.529	9549.45
230.602	9551.04
230.674	9560.48
230.747	9610.2
230.819	9640.11
230.892	9519.91
230.964	9519.67
231.037	9549.65
231.109	9539.44
231.181	9580.7
231.254	9545.98
231.326	9525.52
231.399	9493.58
231.471	9460.82
231.544	9374.8
231.616	9416.58
231.688	9419.91
231.761	9414.57
231.833	9404.84
231.905	9319.3
231.978	9315.3
232.05	9301.44
232.122	9304.71
232.195	9276.69
232.267	9303.7
232.339	9280.73
232.412	9350.2
232.484	9329.77
232.556	9299.41
232.629	9370.51
232.701	9393.05
232.773	9404.75
232.846	9398.83
232.918	9414.58
232.99	9436.35
233.062	9489.37
233.135	9499.78
233.207	9465.63
233.279	9510.54
233.351	9545.69
233.424	9544.34
233.496	9527.59
233.568	9613.6
233.64	9577.83
233.713	9597.71
233.785	9594.87
233.857	9610.81
233.929	9559.58
234.001	9623.71
234.074	9693.95
234.146	9620.53
234.218	9614.13
234.29	9610.37
234.362	9596.41
234.434	9545.69
234.507	9502.84
234.579	9441.58
234.651	9422.37
234.723	9458.39
234.795	9480.88
234.867	9469.8
234.939	9533.95
235.012	9551.05
235.084	9554.71
235.156	9591.83
235.228	9577.19
235.3	9561.44
235.372	9573.34
235.444	9626.4
235.516	9544.55
235.588	9552.59
235.66	9568.44
235.732	9541.81
235.804	9743.42
235.876	9796.43
235.948	9861.22
236.02	9883.56
236.092	9903.93
236.164	9919.82
236.236	9912.01
236.308	9916.73
236.38	9951.85
236.452	9931.61
236.524	9944.09
236.596	10007.61
236.668	10040.7
236.74	10058.95
236.812	10088.24
236.884	10117.34
236.956	10130.29
237.028	10122.73
237.1	10105.92
237.172	10175.4
237.244	10248.52
237.316	10123.83
237.388	10103.7
237.46	10080.19
237.532	10143.97
237.604	10135.01
237.675	10212.19
237.747	10260.9
237.819	10238.27
237.891	10238.51
237.963	10229.36
238.035	10234.46
238.107	10116.27
238.178	10183.78
238.25	10193.94
238.322	10289.89
238.394	10243.02
238.466	10250.63
238.538	10291.57
238.609	10332.41
238.681	10279.37
238.753	10259.71
238.825	10290.84
238.897	10326.33
238.968	10409.66
239.04	10395.54
239.112	10507.01
239.184	10465
239.255	10468.37
239.327	10503.91
239.399	10531.28
239.471	10578.15
239.542	10611.78
239.614	10685.68
239.686	10599.24
239.758	10656.67
239.829	10615.75
239.901	10689.46
239.973	10702.28
240.044	10744.97
240.116	10759.9
240.188	10777.78
240.259	10794.35
240.331	10781.48
240.403	10815.55
240.474	10768.27
240.546	10752.51
240.618	10697.82
240.689	10690.64
240.761	10700.42
240.833	10768.8
240.904	10769.91
240.976	10773.91
241.048	10796.56
241.119	10834.68
241.191	10881.42
241.262	10947.79
241.334	10957.81
241.405	10960.46
241.477	10969.38
241.549	10977.62
241.62	10998.87
241.692	11043.59
241.763	11103.35
241.835	11122.1
241.906	11133.32
241.978	11107.4
242.049	11179.39
242.121	11241.41
242.192	11313.36
242.264	11285.31
242.335	11236.83
242.407	11279.43
242.478	11282.52
242.55	11301.22
242.621	11279.38
242.693	11278.08
242.764	11262.95
242.836	11260.39
242.907	11290.9
242.979	11320.73
243.05	11339.72
243.122	11363.34
243.193	11361.5
243.264	11285.79
243.336	11291.62
243.407	11333.12
243.479	11415.2
243.55	11436.64
243.622	11444.16
243.693	11444.36
243.764	11513.51
243.836	11494.29
243.907	11480.46
243.978	11482.29
244.05	11509.04
244.121	11464.03
244.192	11512.51
244.264	11463.02
244.335	11472.27
244.407	11420.22
244.478	11436.46
244.549	11426.2
244.62	11383.64
244.692	11384.46
244.763	11433.57
244.834	11424.07
244.906	11405.71
244.977	11420.99
245.048	11465.82
245.119	11446.64
245.191	11419.89
245.262	11355.98
245.333	11438.96
245.405	11458.63
245.476	11495.45
245.547	11510.68
245.618	11567.83
245.689	11574.25
245.761	11607.26
245.832	11619.74
245.903	11663.79
245.974	11694.26
246.045	11711.22
246.117	11796.96
246.188	11777.11
246.259	11765.49
246.33	11778.27
246.401	11781.88
246.473	11749.49
246.544	11732.47
246.615	11790.17
246.686	11797.45
246.757	11875.57
246.828	11849.3
246.899	11920.69
246.97	11890.04
247.042	11876.5
247.113	11919.88
247.184	12007.23
247.255	12007.37
247.326	12037.31
247.397	12050.13
247.468	12057.6
247.539	12068.93
247.61	12023.37
247.681	12075.47
247.752	12122.52
247.823	12102.71
247.894	12130.18
247.965	12097.46
248.037	12083.81
248.108	12033.54
248.179	12043.9
248.25	12035.03
248.321	12062.36
248.392	12011.79
248.463	12089.73
248.534	12093.97
248.605	12116.15
248.675	12084.43
248.746	12099.23
248.817	12111.33
248.888	12129.93
248.959	12069.15
249.03	12096.24
249.101	12113.31
249.172	12093.4
249.243	12026.02
249.314	12098.18
249.385	12096.88
249.456	12128.3
249.527	12125.6
249.598	12149.17
249.669	12158.71
249.739	12171.44
249.81	12189.03
249.881	12144.69
249.952	12143.73
250.023	12141.03
250.094	12083.66
250.165	12056.81
250.235	12055.13
250.306	12057.87
250.377	12024.71
250.448	12052.81
250.519	11988.75
250.59	12044.48
250.66	12049.83
250.731	12123.13
250.802	12114.12
250.873	12133.98
250.944	12162.37
251.014	12156.15
251.085	12247.36
251.156	12267.26
251.227	12315.04
251.297	12370.04
251.368	12431.88
251.439	12472.08
251.51	12520.87
251.58	12510.12
251.651	12510.45
251.722	12571.48
251.792	12522.46
251.863	12530.99
251.934	12602.38
252.005	12715.22
252.075	12712.38
252.146	12755.28
252.217	12801.89
252.287	12844.17
252.358	12851.35
252.429	12924
252.499	12922.26
252.57	12929.01
252.641	12976.78
252.711	12984.5
252.782	12931.81
252.852	13007.64
252.923	13010.77
252.994	13021.09
253.064	13072.76
253.135	13048.85
253.205	13021.76
253.276	13097.68
253.347	13161.45
253.417	13134.94
253.488	13115.8
253.558	13106.64
253.629	13112.96
253.699	13125.73
253.77	13150.7
253.841	13145.59
253.911	13153.36
253.982	13166.95
254.052	13202.72
254.123	13207.63
254.193	13207.39
254.264	13349.79
254.334	13308.19
254.405	13266.88
254.475	13239.26
254.546	13247.5
254.616	13311.08
254.687	13343.72
254.757	13367.82
254.827	13361.12
254.898	13384.74
254.968	13390.57
255.039	13380.16
255.109	13410.87
255.18	13387.63
255.25	13317.59
255.321	13348.68
255.391	13306.65
255.461	13386.96
255.532	13292.04
255.602	13288.09
255.673	13240.07
255.743	13200.6
255.813	13134.94
255.884	13185.41
255.954	13218.53
256.024	13288.72
256.095	13291.95
256.165	13252.32
256.235	13277.34
256.306	13269.68
256.376	13313.74
256.446	13357.8
256.517	13384.84
256.587	13433.14
256.657	13454.26
256.728	13475.08
256.798	13487.14
256.868	13483.81
256.938	13457.73
257.009	13509.6
257.079	13543.2
257.149	13644.58
257.219	13583.4
257.29	13623.27
257.36	13565.32
257.43	13610.73
257.5	13535.39
257.571	13521.22
257.641	13555.59
257.711	13515.09
257.781	13542.28
257.852	13561.9
257.922	13495.62
257.992	13497.93
258.062	13489.3
258.132	13530.33
258.202	13539.97
258.273	13555.06
258.343	13620.04
258.413	13610.69
258.483	13612.95
258.553	13582.39
258.623	13551.01
258.693	13579.64
258.764	13636.28
258.834	13712.02
258.904	13723.3
258.974	13715.1
259.044	13732.84
259.114	13766.63
259.184	13796.96
259.254	13806.45
259.324	13754.58
259.394	13802.21
259.464	13888.4
259.535	13895.3
259.605	13883.39
259.675	13870.66
259.745	13903.06
259.815	13885.94
259.885	13884.02
259.955	13997.05
260.025	13982.06
260.095	13989.63
260.165	14020.33
260.235	14091.92
260.305	14073.36
260.375	14045.06
260.445	14135.98
260.515	14196.38
260.585	14250.42
260.655	14257.07
260.725	14299.34
260.795	14338.73
260.865	14408.67
260.934	14373.15
261.004	14408.19
261.074	14416.34
261.144	14481.95
261.214	14516.7
261.284	14520.66
261.354	14554.01
261.424	14515.31
261.494	14592.1
261.564	14597.89
261.634	14624.64
261.703	14557.2
261.773	14582.42
261.843	14611.48
261.913	14601.46
261.983	14550.17
262.053	14564.87
262.123	14567.04
262.192	14526.5
262.262	14562.41
262.332	14518.11
262.402	14556.24
262.472	14562.22
262.541	14496.61
262.611	14539.7
262.681	14507.55
262.751	14543.41
262.821	14549.1
262.89	14515.22
262.96	14539.61
263.03	14623.05
263.1	14646.57
263.169	14668.55
263.239	14702.68
263.309	14768.96
263.379	14803.71
263.448	14827.67
263.518	14855.96
263.588	14876.02
263.657	14952.33
263.727	14991.75
263.797	15003.85
263.867	14998.94
263.936	14958.35
264.006	15025.93
264.076	15026.08
264.145	15026.61
264.215	15015.14
264.285	15067.63
264.354	15026.99
264.424	15015.76
264.494	14961.1
264.563	14953.05
264.633	15033.84
264.702	15057.7
264.772	15006.85
264.842	15000.39
264.911	15026.61
264.981	14971.95
265.05	14979.13
265.12	14965.78
265.19	14977.69
265.259	15023.33
265.329	15061.27
265.398	15088.89
265.468	15186.11
265.537	15173
265.607	15207.37
265.676	15256.97
265.746	15271.62
265.815	15329.9
265.885	15328.26
265.955	15320.07
266.024	15319.39
266.094	15258.52
266.163	15314.23
266.232	15382.97
266.302	15400.47
266.371	15431.99
266.441	15462.84
266.51	15507.96
266.58	15515.86
266.649	15502.9
266.719	15550.08
266.788	15570.28
266.858	15643.98
266.927	15576.79
266.996	15609.23
267.066	15642.34
267.135	15610.09
267.205	15658.63
267.274	15677.91
267.343	15742.64
267.413	15762.45
267.482	15826.8
267.552	15881.46
267.621	15833.99
267.69	15787.28
267.76	15817.98
267.829	15840.11
267.898	15859.77
267.968	15833.65
268.037	15883.92
268.106	15931.25
268.176	15900.93
268.245	15914.57
268.314	15910.04
268.384	15965.33
268.453	15984.37
268.522	16013.05
268.592	16078.02
268.661	16061.63
268.73	16094.22
268.799	16084.86
268.869	16173.07
268.938	16126.32
269.007	16117.25
269.076	16146.03
269.146	16203.39
269.215	16222.71
269.284	16296.5
269.353	16293.56
269.422	16313.52
269.492	16298.62
269.561	16217.75
269.63	16253.41
269.699	16250.71
269.768	16266.23
269.838	16295.15
269.907	16340.5
269.976	16302.96
270.045	16247.29
270.114	16287.39
270.183	16299
270.253	16323.73
270.322	16265.89
270.391	16280.69
270.46	16354.72
270.529	16395.54
270.598	16430.82
270.667	16446.24
270.736	16410.14
270.806	16448.22
270.875	16508.42
270.944	16528.27
271.013	16655.08
271.082	16678.16
271.151	16714.99
271.22	16674.16
271.289	16678.6
271.358	16689.92
271.427	16734.02
271.496	16758.94
271.565	16754.65
271.634	16780.39
271.703	16897.98
271.772	16958.32
271.841	16979.72
271.91	16946.32
271.979	16964.97
272.048	16937.07
272.117	16982.56
272.186	16986.13
272.255	17038.56
272.324	17078.23
272.393	17111.05
272.462	17104.11
272.531	17132.54
272.6	17149.22
272.669	17231.63
272.738	17249.42
272.807	17277.7
272.876	17260.16
272.945	17412.98
273.013	17469.56
273.082	17527.44
273.151	17444.79
273.22	17487.97
273.289	17515.83
273.358	17603.15
273.427	17616.07
273.496	17674.77
273.564	17713.71
273.633	17774.24
273.702	17750.62
273.771	17762.19
273.84	17796.89
273.909	17829.9
273.977	17859.68
274.046	17871.92
274.115	17921.17
274.184	17907.63
274.253	17924.16
274.322	18007.29
274.39	17936.74
274.459	17938.33
274.528	17891.15
274.597	17917.27
274.665	17952.45
274.734	18024.59
274.803	18029.51
274.872	18048.69
274.94	18046.04
275.009	18269.87
275.078	18268.91
275.147	18312.86
275.215	18338.16
275.284	18407.65
275.353	18431.5
275.421	18398.83
275.49	18492.85
275.559	18504.03
275.627	18540.7
275.696	18561.52
275.765	18607.88
275.833	18632.26
275.902	18672.26
275.971	18748.31
276.039	18840.06
276.108	18888.78
276.177	18922.13
276.245	18928.49
276.314	18964.82
276.383	19022.31
276.451	18852.12
276.52	18904.07
276.588	18982.43
276.657	19046.86
276.725	19050.47
276.794	19087.19
276.863	19177.74
276.931	19148.3
277	19212.53
277.068	19298.41
277.137	19403.17
277.205	19429.97
277.274	19535.17
277.342	19604.61
277.411	19595.12
277.48	19595.6
277.548	19603.26
277.617	19646.34
277.685	19681.14
277.754	19744.65
277.822	19766.34
277.89	19859.64
277.959	19879.69
278.027	19860.84
278.096	19860.03
278.164	19993.86
278.233	20015.12
278.301	20020.08
278.37	20073.72
278.438	20069.38
278.507	20109.62
278.575	20062.97
278.643	20101.76
278.712	20074.39
278.78	20061.52
278.849	20145.18
278.917	20227.69
278.985	20263.45
279.054	20319.69
279.122	20400.22
279.191	20434.53
279.259	20467.93
279.327	20432.36
279.396	20529.14
279.464	20567.74
279.532	20643.07
279.601	20661.72
279.669	20687.31
279.737	20781.44
279.806	20839.13
279.874	20921.98
279.942	20960.29
280.011	20990.6
280.079	21054.61
280.147	21160.35
280.215	21228.74
280.284	21243.63
280.352	21241.22
280.42	21307.35
280.488	21313.42
280.557	21331.45
280.625	21379.79
280.693	21427.89
280.761	21473.49
280.83	21465.1
280.898	21548.24
280.966	21528.09
281.034	21470.64
281.102	21476.71
281.171	21489.77
281.239	21559.67
281.307	21578.62
281.375	21588.55
281.443	21723.32
281.512	21751.04
281.58	21813.57
281.648	21812.9
281.716	21865.09
281.784	21899.56
281.852	21915.71
281.92	21959.33
281.989	22034.97
282.057	22028.42
282.125	22211.8
282.193	22261.94
282.261	22304.36
282.329	22324.32
282.397	22379.56
282.465	22431.62
282.533	22524.65
282.601	22528.17
282.67	22493.98
282.738	22500.92
282.806	22576.27
282.874	22572.41
282.942	22618.51
283.01	22643.97
283.078	22714.11
283.146	22754.13
283.214	22835.27
283.282	22891.83
283.35	22978.44
283.418	23003.27
283.486	23067.01
283.554	22975.6
283.622	23014.27
283.69	23062.48
283.758	23102.12
283.826	23175.17
283.894	23259.99
283.962	23370.77
284.03	23469.14
284.098	23527.58
284.165	23571.16
284.233	23626.96
284.301	23651.17
284.369	23684.15
284.437	23699.73
284.505	23728.38
284.573	23812
284.641	23827.09
284.709	23893.52
284.777	23883.29
284.845	23951.4
284.912	24013.62
284.98	24074.73
285.048	24117.66
285.116	24184.85
285.184	24271.63
285.252	24316.34
285.319	24312.29
285.387	24320.49
285.455	24330.77
285.523	24391.5
285.591	24425.11
285.659	24463.46
285.726	24556.24
285.794	24547.99
285.862	24589.72
285.93	24640.41
285.997	24676.55
286.065	24696.52
286.133	24708.39
286.201	24745.73
286.269	24740.76
286.336	24750.7
286.404	24776.65
286.472	24836.97
286.539	24802
286.607	24792.3
286.675	24830.27
286.743	24903.56
286.81	24938.31
286.878	25018.37
286.946	25038.39
287.013	25086.92
287.081	25126.35
287.149	25123.89
287.216	25238.25
287.284	25263.25
287.352	25302.38
287.419	25328.88
287.487	25434.68
287.555	25497.09
287.622	25541
287.69	25605.83
287.758	25699.12
287.825	25731.26
287.893	25730.73
287.96	25803.83
288.028	25881.78
288.096	25942.23
288.163	26002.92
288.231	26011.75
288.298	26052.69
288.366	26145.82
288.433	26179.22
288.501	26213.49
288.569	26269.11
288.636	26292.24
288.704	26391.42
288.771	26468.62
288.839	26489.57
288.906	26502.9
288.974	26577.77
289.041	26612.05
289.109	26624.41
289.176	26695.96
289.244	26754.33
289.311	26845.4
289.379	26915.75
289.446	26967.24
289.514	26997.24
289.581	27028.15
289.649	27082.91
289.716	27127.45
289.783	27152.09
289.851	27262.97
289.918	27296.53
289.986	27370.74
290.053	27421.03
290.121	27452.19
290.188	27508.48
290.255	27659
290.323	27689.82
290.39	27714.71
290.458	27793.68
290.525	27897.37
290.592	27929.76
290.66	27995.8
290.727	28027.41
290.794	28133.35
290.862	28181
290.929	28241.36
290.996	28291.62
291.064	28368.07
291.131	28453.01
291.198	28537.12
291.266	28582.31
291.333	28639.33
291.4	28700.83
291.468	28816.83
291.535	28852.31
291.602	28906.51
291.669	28924.17
291.737	28986.95
291.804	29033.08
291.871	29126.98
291.938	29185.89
292.006	29312.8
292.073	29380.59
292.14	29464.93
292.207	29471.55
292.275	29525.09
292.342	29599.13
292.409	29727.62
292.476	29852.46
292.543	29870.55
292.611	29910.22
292.678	30014.57
292.745	30129.93
292.812	30201.55
292.879	30228.17
292.946	30274.84
293.014	30353.08
293.081	30407.33
293.148	30502.34
293.215	30599.81
293.282	30614.28
293.349	30693.47
293.416	30662.87
293.484	30752.36
293.551	30837.17
293.618	30934.58
293.685	31063.75
293.752	31100
293.819	31130.84
293.886	31126
293.953	31208.72
294.02	31287.19
294.087	31346.23
294.154	31384.33
294.221	31487.41
294.288	31535.77
294.356	31655.4
294.423	31725.53
294.49	31756.42
294.557	31844.33
294.624	31862.73
294.691	31982.72
294.758	32024.04
294.825	32114.41
294.892	32141.97
294.959	32176.41
295.026	32261.48
295.093	32280.81
295.16	32322.94
295.226	32376.47
295.293	32512.1
295.36	32571.29
295.427	32653.72
295.494	32740.47
295.561	32811.59
295.628	32930.79
295.695	33031.78
295.762	33086.49
295.829	33168.6
295.896	33281.88
295.963	33352.32
296.03	33434.79
296.096	33498.87
296.163	33595.87
296.23	33688.37
296.297	33780.64
296.364	33834.44
296.431	33901.2
296.498	33947.73
296.564	34092.85
296.631	34154.13
296.698	34156.85
296.765	34272.29
296.832	34297.46
296.899	34297.55
296.965	34404.52
297.032	34375.41
297.099	34482.33
297.166	34568.02
297.233	34599.64
297.299	34628.01
297.366	34675.3
297.433	34736.45
297.5	34815.91
297.566	34866.16
297.633	34909.38
297.7	34968.95
297.767	35029.37
297.833	35092.05
297.9	35154.61
297.967	35146.75
298.033	35244.46
298.1	35394.89
298.167	35417.11
298.234	35506.8
298.3	35598.49
298.367	35633.42
298.434	35715.48
298.5	35739.56
298.567	35772.65
298.634	35823.55
298.7	35940.97
298.767	36010.65
298.834	36109.84
298.9	36138.09
298.967	36161.62
299.033	36253.99
299.1	36361.84
299.167	36458.41
299.233	36497.38
299.3	36592.8
299.366	36688.58
299.433	36779.47
299.5	36743.84
299.566	36809.02
299.633	36895.92
299.699	36983.5
299.766	37034.22
299.832	37088.26
299.899	37158.37
299.965	37243.81
300.032	37289.24
300.099	37351.34
300.165	37417.33
300.232	37447.53
300.298	37504.57
300.365	37606.47
300.431	37645.66
300.498	37665.23
300.564	37732.58
300.631	37819.45
300.697	37900.84
300.763	37948.04
300.83	37978.34
300.896	38063.95
300.963	38146.5
301.029	38202.94
301.096	38256.08
301.162	38343.39
301.229	38378.9
301.295	38387.1
301.361	38451.31
301.428	38510.02
301.494	38512.98
301.561	38563.4
301.627	38622.17
301.693	38688.75
301.76	38743.35
301.826	38788.57
301.892	38865.56
301.959	38931.29
302.025	38965.15
302.092	39002.51
302.158	39092.08
302.224	39155.09
302.291	39186.18
302.357	39217.03
302.423	39252.64
302.49	39281.69
302.556	39353.94
302.622	39406.31
302.688	39501.48
302.755	39587.88
302.821	39668.08
302.887	39751.25
302.954	39797.45
303.02	39865.37
303.086	39935.54
303.152	39967.99
303.219	39999.72
303.285	40064.35
303.351	40130.68
303.417	40190.45
303.483	40211.44
303.55	40234.72
303.616	40272.57
303.682	40301.19
303.748	40321.26
303.815	40415.4
303.881	40490.48
303.947	40489.51
304.013	40531.83
304.079	40558.95
304.145	40536.93
304.212	40573.33
304.278	40590.97
304.344	40621.39
304.41	40629.8
304.476	40632.57
304.542	40662.31
304.608	40727.77
304.674	40722.13
304.741	40747.22
304.807	40792.71
304.873	40860.41
304.939	40958.31
305.005	40944.26
305.071	40988.14
305.137	41051.56
305.203	41010.24
305.269	41040.43
305.335	41123.31
305.401	41165.11
305.467	41192.09
305.533	41257.46
305.599	41330.28
305.666	41401.54
305.732	41459.09
305.798	41546.59
305.864	41678.82
305.93	41737.88
305.996	41775.8
306.062	41812.16
306.128	41847.85
306.194	41851.69
306.259	41884.89
306.325	41885.13
306.391	41956.83
306.457	42035.78
306.523	42085.17
306.589	42211.24
306.655	42237.11
306.721	42228.55
306.787	42239.59
306.853	42327.74
306.919	42320.84
306.985	42334.06
307.051	42349.62
307.117	42347.92
307.183	42380.11
307.248	42319.57
307.314	42386.92
307.38	42440.89
307.446	42519.66
307.512	42523.31
307.578	42579.08
307.644	42589.34
307.709	42638.01
307.775	42673.9
307.841	42702.49
307.907	42746.55
307.973	42710.7
308.039	42741
308.104	42801.93
308.17	42847.68
308.236	42838
308.302	42898.05
308.368	42895.04
308.433	42940.31
308.499	42978.72
308.565	42966.56
308.631	43028.61
308.696	42982.95
308.762	42977.65
308.828	43005.23
308.894	42985.1
308.959	42966.67
309.025	42986.12
309.091	43011.32
309.156	43024.06
309.222	43076.78
309.288	43064.28
309.354	43045.03
309.419	43088.56
309.485	43081.95
309.551	43143.57
309.616	43139.29
309.682	43163.07
309.748	43182.33
309.813	43202.13
309.879	43215.45
309.945	43224.15
310.01	43234.81
310.076	43282.08
310.141	43309.65
310.207	43291.07
310.273	43353.07
310.338	43400.24
310.404	43394.17
310.469	43387.16
310.535	43392.71
310.601	43346.4
310.666	43413.58
310.732	43490.23
310.797	43487.16
310.863	43494.65
310.928	43499.32
310.994	43541.73
311.059	43567.71
311.125	43600.39
311.191	43673.38
311.256	43678.29
311.322	43745.9
311.387	43715.6
311.453	44623.06
311.518	44632.74
311.584	44667.14
311.649	44704.15
311.715	44706.29
311.78	44757.8
311.846	44763.88
311.911	44834.47
311.976	44882.82
312.042	44866.13
312.107	44843.56
312.173	44851.79
312.238	44869.2
312.304	44886.18
312.369	44891.53
312.434	44891.19
312.5	44899.36
312.565	44833.33
312.631	44878.52
312.696	44870.15
312.761	44929.3
312.827	44074.72
312.892	44180.19
312.958	44212.93
313.023	44247.73
313.088	44281.48
313.154	44259.64
313.219	44266.7
313.284	44259.98
313.35	44287.47
313.415	44290.73
313.48	44310.38
313.546	44350.19
313.611	44413.34
313.676	44420.25
313.741	44422.34
313.807	44470.08
313.872	44514.3
313.937	44572.44
314.003	44643.06
314.068	44681.3
314.133	44724.27
314.198	44719.99
314.264	44671.06
314.329	44661.14
314.394	44674.81
314.459	44694.13
314.525	44806.68
314.59	44826.82
314.655	44828.62
314.72	44876.76
314.785	44912.37
314.851	44931.2
314.916	44907.8
314.981	44898.7
315.046	44901.91
315.111	44920.54
315.176	44917.72
315.242	44965.12
315.307	44994.47
315.372	44962.06
315.437	44969.55
315.502	44977.24
315.567	45049.23
315.632	45043.88
315.698	45084.22
315.763	45106.76
315.828	45119.17
315.893	45118.25
315.958	45147.98
316.023	45139.32
316.088	45097.8
316.153	45056.34
316.218	45053.47
316.283	45012.36
316.348	44956.41
316.413	44956.07
316.479	44914.14
316.544	44815.87
316.609	44714.51
316.674	44581.64
316.739	44469.66
316.804	44357.82
316.869	44225.06
316.934	44084.44
316.999	43967.93
317.064	43772.39
317.129	43598.96
317.194	43449.7
317.259	43249.48
317.324	43041.54
317.389	42851.9
317.454	42687.57
317.518	42527.84
317.583	42415.79
317.648	42306.34
317.713	42162.76
317.778	41928.31
317.843	41776.57
317.908	41609.37
317.973	41437.27
318.038	41299.42
318.103	41136.07
318.168	40987.38
318.233	40836.91
318.297	40628.85
318.362	40455.78
318.427	40275.63
318.492	40142.86
318.557	39935.21
318.622	39799.49
318.687	39664.74
318.751	39480.16
318.816	39305.65
318.881	39139.92
318.946	38887.1
319.011	38669.87
319.075	38458.99
319.14	38273.74
319.205	38058.22
319.27	37886.42
319.335	37657.88
319.399	37453.46
319.464	37273.97
319.529	37016.79
319.594	36816.53
319.658	36629.94
319.723	36402.5
319.788	36229.17
319.853	35963.84
319.917	35778.66
319.982	35519.44
320.047	35306.45
320.112	35141.53
320.176	34884.8
320.241	34677.97
320.306	34489.07
320.37	34254.33
320.435	34062.75
320.5	33866.5
320.564	33655.24
320.629	33413.01
320.694	33226.9
320.758	32995.05
320.823	32757.66
320.888	32581.81
320.952	32318.18
321.017	32077.05
321.082	31851.67
321.146	31640.32
321.211	31431.92
321.275	31194.63
321.34	30948.14
321.405	30699.38
321.469	30452.79
321.534	30229.82
321.598	29963.63
321.663	29751.81
321.727	29558.46
321.792	29301.83
321.857	29071.72
321.921	28847.55
321.986	28608.06
322.05	28316.63
322.115	28089.31
322.179	27842.63
322.244	27537.02
322.308	27327.06
322.373	27079.81
322.437	26839.67
322.502	26639.85
322.566	26388.59
322.631	26170.12
322.695	25939.25
322.76	25702.8
322.824	25469.27
322.889	25217.77
322.953	24965.44
323.018	24652.07
323.082	24324.88
323.146	24045.84
323.211	23756.08
323.275	23490.74
323.34	23228.56
323.404	23003.29
323.468	22738.73
323.533	22479.19
323.597	22221.69
323.662	21936.32
323.726	21703.14
323.79	21443.79
323.855	21115.71
323.919	20838.6
323.983	20577.01
324.048	20195.43
324.112	20292.34
324.177	19490.43
324.241	18424.96
324.305	17380.41
324.37	16347.73
324.434	15353.51
324.498	15071.63
324.562	14766.09
324.627	14408.38
324.691	14063.78
324.755	13667.82
324.82	13217.71
324.884	12747.76
324.948	12283.35
325.012	11704.6
325.077	10988.43
