Data from 20250701_urea_2M_exp3_MAYP1162681_22-29-50-970.txt Node
Date: Tue Jul 01 22:29:50 BST 2025
User: adleo
Spectrometer: MAYP116268
Trigger mode: 0
Integration Time (sec): 4.000000E0
Scans to average: 1
Electric dark correction enabled: true
Nonlinearity correction enabled: true
Boxcar width: 10
XAxis mode: Wavelengths
Number of Pixels in Spectrum: 2068
>>>>>Begin Spectral Data<<<<<
179.565	3827.74
179.642	4025.36
179.718	4182.35
179.795	4320.37
179.871	4435.75
179.948	4498.7
180.024	4572.89
180.101	4653.5
180.177	4705.75
180.254	4786.27
180.33	4867.76
180.407	5142.84
180.483	5437.94
180.56	5739.57
180.636	6018.95
180.712	5973.25
180.789	6011.64
180.865	6056.76
180.942	6093.84
181.018	6131.46
181.095	6175.88
181.171	6193.01
181.248	6194.69
181.324	6250.68
181.4	6273.44
181.477	6314.78
181.553	6361.64
181.63	6432.6
181.706	6486.58
181.782	6509.41
181.859	6503.36
181.935	6518.73
182.011	6509.8
182.088	6567.71
182.164	6638.39
182.24	6683.18
182.317	6716.25
182.393	6704.3
182.469	6750.07
182.546	6799.39
182.622	6811.64
182.698	6795.88
182.775	6836.81
182.851	6890.07
182.927	6860.86
183.003	6846.37
183.08	6818.75
183.156	6852.86
183.232	6843.63
183.308	6803.77
183.385	6839.92
183.461	6903.52
183.537	6907.22
183.613	6952.9
183.69	6924.08
183.766	6881.15
183.842	6906.28
183.918	6927.42
183.995	6974.78
184.071	6983.09
184.147	6962.91
184.223	6924.08
184.299	6965.07
184.375	6924.91
184.452	6944.67
184.528	7074.92
184.604	7116.89
184.68	7161.22
184.756	7181.08
184.832	7199.1
184.908	7219.89
184.985	7217.15
185.061	7160.99
185.137	7192.23
185.213	7149.52
185.289	7153.55
185.365	7130.88
185.441	7125.98
185.517	7169.88
185.593	7157.24
185.669	7146.67
185.745	7176.61
185.822	7239.18
185.898	7208.9
185.974	7241.37
186.05	7217.14
186.126	7139.03
186.202	7107.67
186.278	7097.86
186.354	7067.83
186.43	7083.79
186.506	7079.18
186.582	7074.81
186.658	7097.33
186.734	7028.78
186.81	7034.93
186.886	7045.93
186.962	7090.51
187.038	7080.47
187.114	7053.68
187.19	7083.72
187.266	7057.69
187.341	7062.83
187.417	7034.63
187.493	7039.77
187.569	7052.7
187.645	7033.48
187.721	6997.58
187.797	7030.96
187.873	7045.23
187.949	7024.2
188.025	7007.37
188.101	7016.16
188.176	7034.56
188.252	7027.36
188.328	7054.53
188.404	7057.84
188.48	7040.5
188.556	7016.91
188.632	7014.89
188.707	7019.31
188.783	7002.05
188.859	6983.28
188.935	6941
189.011	6967.52
189.086	6945.08
189.162	6913.47
189.238	6900.21
189.314	6889.26
189.39	6863.56
189.465	6836.55
189.541	6897.92
189.617	6843.64
189.693	6821.17
189.768	6834.48
189.844	6913.8
189.92	6883.84
189.996	6909.45
190.071	6948.95
190.147	6942.99
190.223	6975.19
190.298	6945.1
190.374	6903.89
190.45	6947.64
190.526	6980.46
190.601	6962.29
190.677	6967.05
190.753	7065.38
190.828	7077.15
190.904	7126.26
190.98	7182.54
191.055	7222.62
191.131	7192.82
191.207	7263.44
191.282	7302.3
191.358	7265.78
191.433	7216.25
191.509	7269.55
191.585	7262.63
191.66	7260.23
191.736	7292.57
191.811	7255.56
191.887	7312.63
191.963	7395.63
192.038	7414.04
192.114	7412.98
192.189	7424.66
192.265	7412.56
192.34	7335.12
192.416	7329.5
192.491	7316.47
192.567	7325.03
192.642	7332.78
192.718	7328.02
192.793	7286.54
192.869	7266.5
192.944	7275.53
193.02	7299.09
193.095	7307.36
193.171	7326.82
193.246	7329.13
193.322	7316.3
193.397	7321.73
193.473	7272.3
193.548	7211.15
193.624	7231.06
193.699	7230.53
193.775	7284.67
193.85	7290.67
193.925	7319.56
194.001	7318.6
194.076	7293.7
194.152	7257.79
194.227	7231.87
194.302	7201.04
194.378	7215.12
194.453	7207.87
194.529	7256.94
194.604	7206.72
194.679	7191.44
194.755	7124.24
194.83	7166.7
194.905	7154.07
194.981	7182.42
195.056	7158.55
195.131	7175.7
195.207	7165.36
195.282	7133.89
195.357	7067.36
195.433	7123.87
195.508	7086.09
195.583	7116.6
195.659	7166.69
195.734	7188.56
195.809	7183.57
195.884	7216.75
195.96	7215.65
196.035	7272.84
196.11	7252.5
196.185	7295.75
196.261	7306.8
196.336	7415.8
196.411	7365.54
196.486	7388.56
196.561	7368.23
196.637	7398.98
196.712	7454.76
196.787	7463.56
196.862	7512.77
196.937	7549.97
197.013	7563.44
197.088	7597.27
197.163	7669.48
197.238	7727.95
197.313	7729.34
197.388	7774.64
197.464	7878.45
197.539	7922.39
197.614	7896.1
197.689	7945.35
197.764	8000.1
197.839	8060.02
197.914	8038.61
197.989	8118.61
198.065	8167.91
198.14	8342.3
198.215	8437.22
198.29	8484.87
198.365	8531.93
198.44	8573.83
198.515	8671.1
198.59	8727.45
198.665	8819.08
198.74	8843.01
198.815	8852.49
198.89	8933.97
198.965	9038.64
199.04	9030.07
199.115	9081.52
199.19	9229.23
199.265	9234.28
199.34	9276.22
199.415	9391.47
199.49	9468.24
199.565	9496.11
199.64	9575.51
199.715	9558.21
199.79	9577.48
199.865	9594.77
199.94	9586.49
200.015	9689.21
200.09	9707.37
200.165	9729.33
200.24	9747.49
200.315	9891.42
200.39	9932.46
200.464	9944.16
200.539	9946.38
200.614	9990.39
200.689	10067.22
200.764	10088.28
200.839	10151.64
200.914	10161.61
200.989	10127.45
201.063	10173.21
201.138	10118.53
201.213	10117.52
201.288	10055.34
201.363	10070.7
201.438	10068.39
201.512	10125.69
201.587	10066.72
201.662	10074.53
201.737	10114.8
201.812	10148.57
201.886	10029.73
201.961	10068.86
202.036	10031.4
202.111	10024.37
202.186	9931.98
202.26	9875.43
202.335	9799.41
202.41	9775.29
202.485	9719.67
202.559	9648.74
202.634	9558.83
202.709	9590.55
202.784	9526.11
202.858	9523.18
202.933	9460.44
203.008	9435.4
203.082	9365.92
203.157	9364.19
203.232	9219.14
203.306	9144.49
203.381	9027.81
203.456	8950.06
203.53	8865.66
203.605	8801.48
203.68	8716.59
203.754	8690.38
203.829	8637.67
203.904	8568.33
203.978	8525.15
204.053	8538.24
204.127	8496.96
204.202	8490.03
204.277	8423.39
204.351	8397.98
204.426	8378.87
204.5	8350.24
204.575	8236.25
204.65	8277.84
204.724	8246.88
204.799	8267.65
204.873	8253.45
204.948	8252.53
205.022	8213.77
205.097	8176.66
205.171	8222.69
205.246	8253.35
205.32	8247.15
205.395	8244.65
205.469	8216
205.544	8235.63
205.618	8177.03
205.693	8217.83
205.767	8173.72
205.842	8249.7
205.916	8229.98
205.991	8194.32
206.065	8213.67
206.14	8268.13
206.214	8248
206.289	8223.12
206.363	8268.29
206.438	8276.81
206.512	8300.58
206.586	8365.57
206.661	8401.19
206.735	8326.32
206.81	8328.58
206.884	8384.76
206.958	8339.41
207.033	8397.98
207.107	8419.31
207.181	8527.46
207.256	8502.06
207.33	8569.27
207.405	8612.42
207.479	8676.61
207.553	8698.65
207.628	8639.16
207.702	8674.57
207.776	8649.35
207.851	8660.18
207.925	8721.33
207.999	8709.73
208.073	8701.64
208.148	8711.65
208.222	8672.61
208.296	8778.68
208.371	8833.49
208.445	8870.55
208.519	8970.31
208.593	9012.57
208.668	9005.73
208.742	9008.62
208.816	9019.69
208.89	9064.09
208.965	9057.2
209.039	9085.66
209.113	9148.82
209.187	9226.36
209.261	9208.55
209.336	9278.84
209.41	9355.84
209.484	9355.69
209.558	9433.12
209.632	9482.71
209.707	9517.86
209.781	9589.46
209.855	9646.63
209.929	9702.39
210.003	9721.65
210.077	9719.63
210.151	9876.71
210.226	9990.17
210.3	10086.64
210.374	10169.99
210.448	10190.47
210.522	10224.82
210.596	10259.69
210.67	10288.21
210.744	10447.49
210.818	10561.66
210.892	10636.11
210.966	10608.65
211.041	10663.09
211.115	10646.67
211.189	10724.86
211.263	10783.93
211.337	10812.5
211.411	10859.91
211.485	10841.74
211.559	10879.42
211.633	10891.26
211.707	10784.85
211.781	10809.77
211.855	10679.77
211.929	10645.53
212.003	10569.73
212.077	10605.34
212.151	10649.48
212.225	10680.41
212.299	10637.08
212.373	10596.71
212.447	10570.16
212.52	10669.61
212.594	10674.52
212.668	10708.25
212.742	10657.27
212.816	10629.22
212.89	10597.81
212.964	10586
213.038	10587.55
213.112	10628.46
213.186	10664.54
213.26	10588.6
213.333	10424.23
213.407	10440.6
213.481	10440.07
213.555	10477.96
213.629	10422.3
213.703	10354.22
213.777	10342.8
213.85	10267.83
213.924	10373.27
213.998	10363.97
214.072	10333.02
214.146	10274.44
214.219	10258.39
214.293	10231.52
214.367	10226.02
214.441	10252.62
214.515	10201.35
214.588	10107.51
214.662	9974.38
214.736	9897.46
214.81	9912.04
214.883	9930.82
214.957	9883.68
215.031	9831.26
215.105	9734.01
215.178	9671.45
215.252	9629.98
215.326	9520.91
215.4	9436.24
215.473	9245.55
215.547	9162.23
215.621	9085.97
215.694	9080.33
215.768	8970.9
215.842	8902.36
215.915	8829.35
215.989	8707.98
216.063	8643.26
216.136	8623.86
216.21	8591.82
216.284	8593.89
216.357	8564.09
216.431	8512.7
216.504	8502.88
216.578	8558.05
216.652	8574.83
216.725	8543.83
216.799	8548.55
216.873	8526.9
216.946	8534.6
217.02	8501.18
217.093	8462.68
217.167	8366.26
217.24	8279.62
217.314	8254.37
217.387	8203.41
217.461	8160.15
217.535	8186.57
217.608	8125.76
217.682	8093.19
217.755	8109.26
217.829	8053.49
217.902	8039.06
217.976	8026.65
218.049	7975.47
218.123	7899.77
218.196	7892.89
218.27	7858.69
218.343	7781.9
218.417	7779.3
218.49	7754.53
218.563	7794.59
218.637	7807.29
218.71	7871.94
218.784	7897.92
218.857	7925.86
218.931	7950.13
219.004	7957.54
219.077	7975.44
219.151	7994.15
219.224	7987.61
219.298	7983.52
219.371	8033.17
219.444	7989.46
219.518	7997.88
219.591	8021.3
219.665	8125.56
219.738	8137.15
219.811	8118.41
219.885	8168.58
219.958	8201.1
220.031	8203.46
220.105	8225.79
220.178	8228.29
220.251	8211.21
220.325	8238.35
220.398	8256.78
220.471	8277.84
220.544	8307.96
220.618	8280.96
220.691	8311.17
220.764	8334.5
220.838	8359.62
220.911	8345.14
220.984	8428.78
221.057	8468.81
221.131	8490.13
221.204	8396.87
221.277	8473.02
221.35	8605.16
221.424	8597.99
221.497	8609.88
221.57	8636.96
221.643	8672.92
221.716	8723.51
221.79	8724.38
221.863	8733.82
221.936	8742.72
222.009	8760.28
222.082	8799.47
222.155	8811.01
222.229	8880.63
222.302	8909.9
222.375	8914.13
222.448	8947.73
222.521	8958.71
222.594	8956.21
222.667	8930.28
222.74	8983.03
222.814	8978.74
222.887	8962.51
222.96	9016.43
223.033	9064.92
223.106	9096.34
223.179	9123.36
223.252	9129.82
223.325	9165.15
223.398	9177.76
223.471	9205.49
223.544	9225.12
223.617	9229.84
223.69	9255.36
223.763	9210.67
223.837	9234.16
223.91	9267.29
223.983	9216.17
224.056	9181.28
224.129	9207.75
224.202	9272.48
224.275	9260.73
224.348	9227.56
224.42	9187.55
224.493	9124.63
224.566	9092.31
224.639	9111.04
224.712	9080.22
224.785	9071.31
224.858	9062.16
224.931	9042.28
225.004	9005.5
225.077	9003.53
225.15	8913.97
225.223	8908.34
225.296	8997.01
225.369	8939.25
225.442	8908.44
225.514	8929.8
225.587	8948.81
225.66	8953.24
225.733	8942.12
225.806	8953.43
225.879	8946.02
225.952	8917.72
226.025	8973.85
226.097	9032.13
226.17	9019.9
226.243	8951.32
226.316	8949.78
226.389	8951.42
226.461	8970.25
226.534	8993.54
226.607	8981.36
226.68	9067.12
226.753	9066.49
226.825	8975.89
226.898	9034.52
226.971	9037.7
227.044	9061.24
227.117	9071.06
227.189	9090.42
227.262	9131.78
227.335	9147.72
227.407	9141.56
227.48	9175.58
227.553	9184.64
227.626	9159.44
227.698	9164.21
227.771	9203.95
227.844	9184.21
227.916	9201.64
227.989	9171.79
228.062	9164.14
228.134	9263.24
228.207	9267.43
228.28	9255.16
228.352	9271.05
228.425	9270.95
228.498	9316.36
228.57	9293.59
228.643	9347
228.716	9346.09
228.788	9334.04
228.861	9326.73
228.934	9392.93
229.006	9398.8
229.079	9398.41
229.151	9386.37
229.224	9352.44
229.296	9381.04
229.369	9481.71
229.442	9531.9
229.514	9508.08
229.587	9559.31
229.659	9481.38
229.732	9488.9
229.804	9532.56
229.877	9616.05
229.949	9649.96
230.022	9704.02
230.094	9710.22
230.167	9703.96
230.239	9657.45
230.312	9647.15
230.384	9721
230.457	9711.22
230.529	9716.8
230.602	9716.8
230.674	9727.4
230.747	9772.5
230.819	9808.53
230.892	9687.11
230.964	9683.21
231.037	9713.48
231.109	9702.84
231.181	9744.2
231.254	9710.21
231.326	9696.38
231.399	9658.32
231.471	9626.38
231.544	9544.78
231.616	9587.15
231.688	9592.54
231.761	9586.67
231.833	9577.91
231.905	9496.93
231.978	9497.56
232.05	9484.46
232.122	9485.62
232.195	9463.61
232.267	9503.63
232.339	9473.72
232.412	9541.8
232.484	9520.37
232.556	9494.66
232.629	9565.2
232.701	9576.8
232.773	9589.37
232.846	9579.79
232.918	9592.75
232.99	9616.78
233.062	9661.72
233.135	9681.9
233.207	9646.16
233.279	9688.29
233.351	9719.98
233.424	9715.07
233.496	9692.24
233.568	9784.58
233.64	9753.37
233.713	9771.34
233.785	9760.3
233.857	9778.94
233.929	9725.49
234.001	9789.58
234.074	9864.01
234.146	9785.39
234.218	9791.75
234.29	9792.38
234.362	9779.95
234.434	9735.2
234.507	9696.58
234.579	9641.67
234.651	9615.62
234.723	9651.88
234.795	9671.97
234.867	9661.13
234.939	9721.96
235.012	9743.44
235.084	9746.72
235.156	9784.52
235.228	9766.17
235.3	9754.95
235.372	9767.95
235.444	9830.03
235.516	9749.81
235.588	9754.82
235.66	9776.44
235.732	9740.61
235.804	9945.75
235.876	9996.27
235.948	10064.87
236.02	10084.09
236.092	10096.6
236.164	10114.71
236.236	10106.09
236.308	10107.87
236.38	10139.47
236.452	10117.26
236.524	10140.14
236.596	10202.65
236.668	10243.89
236.74	10265.42
236.812	10300.06
236.884	10331.81
236.956	10343.8
237.028	10337.88
237.1	10323.29
237.172	10394.26
237.244	10473.75
237.316	10346.59
237.388	10328.63
237.46	10306.32
237.532	10373.19
237.604	10368.85
237.675	10440.65
237.747	10488.49
237.819	10471.06
237.891	10472.89
237.963	10470.91
238.035	10467.16
238.107	10348.47
238.178	10407.36
238.25	10421.72
238.322	10509.14
238.394	10463.66
238.466	10467.61
238.538	10523.78
238.609	10561.21
238.681	10508.59
238.753	10488.01
238.825	10513.32
238.897	10545.06
238.968	10632.29
239.04	10617.02
239.112	10735.78
239.184	10690.82
239.255	10687.54
239.327	10724.63
239.399	10747.95
239.471	10792.47
239.542	10824.99
239.614	10902.37
239.686	10815.77
239.758	10865.98
239.829	10831.66
239.901	10901.38
239.973	10915.21
240.044	10938.73
240.116	10955.98
240.188	10970.53
240.259	10985.08
240.331	10970.48
240.403	11010.09
240.474	10951.72
240.546	10930.71
240.618	10864.21
240.689	10861.7
240.761	10882.57
240.833	10958.28
240.904	10958.33
240.976	10958.91
241.048	10978.18
241.119	11013.95
241.191	11065.69
241.262	11132.31
241.334	11138.53
241.405	11144.94
241.477	11150.52
241.549	11162.28
241.62	11184.98
241.692	11230.47
241.763	11299.16
241.835	11322.72
241.906	11331.74
241.978	11303.21
242.049	11372.41
242.121	11435.01
242.192	11517.71
242.264	11486.14
242.335	11436.31
242.407	11478.67
242.478	11483.25
242.55	11502.67
242.621	11490.38
242.693	11488.02
242.764	11481.61
242.836	11478.62
242.907	11510.72
242.979	11540.99
243.05	11567.49
243.122	11589.28
243.193	11586.63
243.264	11511.3
243.336	11513.9
243.407	11562.63
243.479	11647.79
243.55	11664.27
243.622	11683.84
243.693	11674.16
243.764	11741.82
243.836	11720.62
243.907	11718.35
243.978	11720.28
244.05	11747.51
244.121	11695.13
244.192	11733.2
244.264	11674.54
244.335	11687.7
244.407	11637.53
244.478	11654.4
244.549	11640.08
244.62	11598.49
244.692	11601.72
244.763	11642.4
244.834	11633.57
244.906	11605.76
244.977	11624.9
245.048	11681.64
245.119	11657.39
245.191	11635.22
245.262	11570.11
245.333	11646.21
245.405	11662.79
245.476	11697.29
245.547	11713.68
245.618	11770.79
245.689	11791.86
245.761	11831.67
245.832	11840.93
245.903	11890.95
245.974	11918.24
246.045	11934
246.117	12020.71
246.188	12005.91
246.259	11994.15
246.33	12015.41
246.401	12027.85
246.473	11995.4
246.544	11982.97
246.615	12046.02
246.686	12051.56
246.757	12129.78
246.828	12105.25
246.899	12177.07
246.97	12152.16
247.042	12146.56
247.113	12191.59
247.184	12278.79
247.255	12275.56
247.326	12306.03
247.397	12307.91
247.468	12322.03
247.539	12334.71
247.61	12288.91
247.681	12331.04
247.752	12388.59
247.823	12355.34
247.894	12370.71
247.965	12339.29
248.037	12329.5
248.108	12274.74
248.179	12287.37
248.25	12279.9
248.321	12309.73
248.392	12262.59
248.463	12344.72
248.534	12345.45
248.605	12371.19
248.675	12346.6
248.746	12373.02
248.817	12390.08
248.888	12411.54
248.959	12348.97
249.03	12382.28
249.101	12386.23
249.172	12378.28
249.243	12307.09
249.314	12380.11
249.385	12381.89
249.456	12415.2
249.527	12407.44
249.598	12431.78
249.669	12434.24
249.739	12446.96
249.81	12463.84
249.881	12420.12
249.952	12409.13
250.023	12405.32
250.094	12343.28
250.165	12313.87
250.235	12303.65
250.306	12305.1
250.377	12272.75
250.448	12297.53
250.519	12228.02
250.59	12291.46
250.66	12278.83
250.731	12347.13
250.802	12342.98
250.873	12375.28
250.944	12396.59
251.014	12385.26
251.085	12478.63
251.156	12500.81
251.227	12560.25
251.297	12612.65
251.368	12674.63
251.439	12713.2
251.51	12768.97
251.58	12756.39
251.651	12747.76
251.722	12803.06
251.792	12751.14
251.863	12759.14
251.934	12833.14
252.005	12942.12
252.075	12950.8
252.146	13008.5
252.217	13062.68
252.287	13111.13
252.358	13107.66
252.429	13185.56
252.499	13180.02
252.57	13182.52
252.641	13236.76
252.711	13236.47
252.782	13187.44
252.852	13258.11
252.923	13268.43
252.994	13279.56
253.064	13334.42
253.135	13315.04
253.205	13292.67
253.276	13370.14
253.347	13429.91
253.417	13403.98
253.488	13392.79
253.558	13383.11
253.629	13384.79
253.699	13390.19
253.77	13413.23
253.841	13407.88
253.911	13415.79
253.982	13437.1
254.052	13473.01
254.123	13477.15
254.193	13483.52
254.264	13622.49
254.334	13587.59
254.405	13545.02
254.475	13508.19
254.546	13510.32
254.616	13573.8
254.687	13608.22
254.757	13631.89
254.827	13626.93
254.898	13649.25
254.968	13650.5
255.039	13633.19
255.109	13673.16
255.18	13641.63
255.25	13569.22
255.321	13610.54
255.391	13564.16
255.461	13646.69
255.532	13559.39
255.602	13546.66
255.673	13484.19
255.743	13454.69
255.813	13386.82
255.884	13447.7
255.954	13488.19
256.024	13553.9
256.095	13560.94
256.165	13529.36
256.235	13552.55
256.306	13549.37
256.376	13607.5
256.446	13655.66
256.517	13689.02
256.587	13728.69
256.657	13762.05
256.728	13795.07
256.798	13802.11
256.868	13804.09
256.938	13771.69
257.009	13820.43
257.079	13858.66
257.149	13964.09
257.219	13889.7
257.29	13921.18
257.36	13857.16
257.43	13895.05
257.5	13828.19
257.571	13814.07
257.641	13846.75
257.711	13807.8
257.781	13841.21
257.852	13850.13
257.922	13781.53
257.992	13785.05
258.062	13779.46
258.132	13820.53
258.202	13820.86
258.273	13827.9
258.343	13901.95
258.413	13893.7
258.483	13903.63
258.553	13874.13
258.623	13852.29
258.693	13890.67
258.764	13963.65
258.834	14030.75
258.904	14052.16
258.974	14043.43
259.044	14057.46
259.114	14081.47
259.184	14108.61
259.254	14119.21
259.324	14068.55
259.394	14115.6
259.464	14189.45
259.535	14199.04
259.605	14188.87
259.675	14182.79
259.745	14220.1
259.815	14198.75
259.885	14202.17
259.955	14313.85
260.025	14301.13
260.095	14304.89
260.165	14338.25
260.235	14399.8
260.305	14387.85
260.375	14348.65
260.445	14447.38
260.515	14509.71
260.585	14566.25
260.655	14578.78
260.725	14620.96
260.795	14651.77
260.865	14726.44
260.934	14703.63
261.004	14732.12
261.074	14735.98
261.144	14796.62
261.214	14834.7
261.284	14832.87
261.354	14871.05
261.424	14823.05
261.494	14905.67
261.564	14922.88
261.634	14950.98
261.703	14884.41
261.773	14915.07
261.843	14953.44
261.913	14941.25
261.983	14886.58
262.053	14913.96
262.123	14908.75
262.192	14865.61
262.262	14912.08
262.332	14867.35
262.402	14895.16
262.472	14898.63
262.541	14840.98
262.611	14885.28
262.681	14861.32
262.751	14899.06
262.821	14903.02
262.89	14872.6
262.96	14892.61
263.03	14970.35
263.1	14980.38
263.169	15006.41
263.239	15031.81
263.309	15097.75
263.379	15134.05
263.448	15162.3
263.518	15168.03
263.588	15186.69
263.657	15263.19
263.727	15303.62
263.797	15311.58
263.867	15316.4
263.936	15275.47
264.006	15339.11
264.076	15338.77
264.145	15341.61
264.215	15328.36
264.285	15376.08
264.354	15336.02
264.424	15321.17
264.494	15270.66
264.563	15271.34
264.633	15357.76
264.702	15390.73
264.772	15334.43
264.842	15328.31
264.911	15354.39
264.981	15322.82
265.05	15341.13
265.12	15330.09
265.19	15339.93
265.259	15388.37
265.329	15421.63
265.398	15454.5
265.468	15553.79
265.537	15545.55
265.607	15576.3
265.676	15627.4
265.746	15649.91
265.815	15704.86
265.885	15717.78
265.955	15701.19
266.024	15703.8
266.094	15622.15
266.163	15681.38
266.232	15749.68
266.302	15758.98
266.371	15781.78
266.441	15808.2
266.51	15848.11
266.58	15848.44
266.649	15830.56
266.719	15886.57
266.788	15910.57
266.858	15984.55
266.927	15917.9
266.996	15942.48
267.066	15975.01
267.135	15941.99
267.205	15981.47
267.274	16002.15
267.343	16053.48
267.413	16067.7
267.482	16128.09
267.552	16198.12
267.621	16145.16
267.69	16093.82
267.76	16120.38
267.829	16147.47
267.898	16164.34
267.968	16139.32
268.037	16190.66
268.106	16249.36
268.176	16210.71
268.245	16225.21
268.314	16217.6
268.384	16276.59
268.453	16303.54
268.522	16326.38
268.592	16394.34
268.661	16376.12
268.73	16416.51
268.799	16407.31
268.869	16492.52
268.938	16445.09
269.007	16444.42
269.076	16472.66
269.146	16542.07
269.215	16572.72
269.284	16649.16
269.353	16649.69
269.422	16673.3
269.492	16662.17
269.561	16578.5
269.63	16613.35
269.699	16603.85
269.768	16622.17
269.838	16640.58
269.907	16680.82
269.976	16648.82
270.045	16586.4
270.114	16635.46
270.183	16640.67
270.253	16671.56
270.322	16624.33
270.391	16658.26
270.46	16717.88
270.529	16766.17
270.598	16806.6
270.667	16813.25
270.736	16786.41
270.806	16820.53
270.875	16880.34
270.944	16889.36
271.013	17014.57
271.082	17040.69
271.151	17075.97
271.22	17037.5
271.289	17055.87
271.358	17061.17
271.427	17100.16
271.496	17138.14
271.565	17128.89
271.634	17143.49
271.703	17194.43
271.772	17257.47
271.841	17266.91
271.91	17235.3
271.979	17251.25
272.048	17216.41
272.117	17267.78
272.186	17263.64
272.255	17310.34
272.324	17350.24
272.393	17391.78
272.462	17389.66
272.531	17412.17
272.6	17432.26
272.669	17504.27
272.738	17504.94
272.807	17544.02
272.876	17529.23
272.945	17666.96
273.013	17728.17
273.082	17800.74
273.151	17777.61
273.22	17822.33
273.289	17849.61
273.358	17933.61
273.427	17948.5
273.496	18004.98
273.564	18038.9
273.633	18095.1
273.702	18079.48
273.771	18094.03
273.84	18125.12
273.909	18157.94
273.977	18198.42
274.046	18216.63
274.115	18286.56
274.184	18289.79
274.253	18302.36
274.322	18385.3
274.39	18327.14
274.459	18314.17
274.528	18258.22
274.597	18294.8
274.665	18315.81
274.734	18382.85
274.803	18394.03
274.872	18418.46
274.94	18413.06
275.009	18643.12
275.078	18634.64
275.147	18673.09
275.215	18698.01
275.284	18765.86
275.353	18777.71
275.421	18746.73
275.49	18851.4
275.559	18854.43
275.627	18886.09
275.696	18909.66
275.765	18945.9
275.833	18965.61
275.902	19013.99
275.971	19101.7
276.039	19190.85
276.108	19242.99
276.177	19286.17
276.245	19289.06
276.314	19317.39
276.383	19376.72
276.451	19203.57
276.52	19262.12
276.588	19348.77
276.657	19408.33
276.725	19412.38
276.794	19461.44
276.863	19543.65
276.931	19488.13
277	19557.05
277.068	19628.22
277.137	19736.85
277.205	19780.32
277.274	19891.25
277.342	19970
277.411	19945.32
277.48	19939.49
277.548	19950.29
277.617	19992.5
277.685	20017.47
277.754	20077.37
277.822	20100.11
277.89	20195.97
277.959	20221.66
278.027	20204.55
278.096	20215.11
278.164	20358.98
278.233	20386.49
278.301	20388.33
278.37	20460.08
278.438	20455.89
278.507	20508.61
278.575	20457.14
278.643	20479.84
278.712	20451.45
278.78	20440.56
278.849	20519.79
278.917	20598.68
278.985	20636.27
279.054	20683.65
279.122	20773.05
279.191	20800.67
279.259	20828.91
279.327	20793.58
279.396	20893.54
279.464	20929.25
279.532	20996.73
279.601	21022.67
279.669	21040.31
279.737	21147.45
279.806	21199.7
279.874	21277.34
279.942	21301.92
280.011	21328.62
280.079	21400.87
280.147	21500.59
280.215	21566.97
280.284	21607.74
280.352	21603.55
280.42	21670.35
280.488	21684.48
280.557	21697.92
280.625	21755.81
280.693	21811.96
280.761	21864.55
280.83	21856.31
280.898	21929.72
280.966	21899.4
281.034	21823.47
281.102	21824.87
281.171	21830.7
281.239	21908.47
281.307	21926.31
281.375	21941.78
281.443	22082.4
281.512	22119.18
281.58	22194.02
281.648	22190.11
281.716	22229.59
281.784	22268.54
281.852	22290.18
281.92	22327.88
281.989	22407.48
282.057	22393.89
282.125	22578.26
282.193	22615.1
282.261	22659.16
282.329	22685.48
282.397	22755.48
282.465	22815.69
282.533	22904.67
282.601	22913.93
282.67	22872.61
282.738	22879.55
282.806	22971.05
282.874	22976.17
282.942	23024.87
283.01	23039.34
283.078	23104.48
283.146	23140.92
283.214	23226.9
283.282	23276.38
283.35	23364.1
283.418	23389.86
283.486	23454.08
283.554	23354.89
283.622	23398.48
283.69	23441.79
283.758	23477.9
283.826	23538.86
283.894	23630.54
283.962	23748.04
284.03	23845.75
284.098	23900.04
284.165	23936.45
284.233	23969.78
284.301	23986.61
284.369	24004.89
284.437	24016.9
284.505	24047.67
284.573	24152.14
284.641	24150.21
284.709	24213.7
284.777	24191.7
284.845	24261.08
284.912	24325.67
284.98	24391.27
285.048	24427.78
285.116	24489.96
285.184	24575.55
285.252	24617.47
285.319	24597.98
285.387	24605.27
285.455	24600.39
285.523	24671.02
285.591	24716.36
285.659	24769.38
285.726	24860.92
285.794	24858.17
285.862	24896.04
285.93	24939.85
285.997	24959.82
286.065	24999.53
286.133	25014.97
286.201	25064.71
286.269	25059.26
286.336	25071.32
286.404	25098.44
286.472	25170.35
286.539	25144.39
286.607	25141.3
286.675	25187.49
286.743	25260.15
286.81	25288.3
286.878	25384.39
286.946	25402.44
287.013	25446.29
287.081	25495.48
287.149	25486.94
287.216	25600.02
287.284	25636.65
287.352	25672.55
287.419	25698.96
287.487	25791.64
287.555	25861.55
287.622	25889.83
287.69	25957.7
287.758	26050.48
287.825	26079.64
287.893	26073.36
287.96	26146.33
288.028	26229.47
288.096	26292.24
288.163	26354.48
288.231	26358
288.298	26398.23
288.366	26490.9
288.433	26529.47
288.501	26543.42
288.569	26601.12
288.636	26623.72
288.704	26717.9
288.771	26801.63
288.839	26822.87
288.906	26847.51
288.974	26917.08
289.041	26970.72
289.109	26990.09
289.176	27057.88
289.244	27114.95
289.311	27220.25
289.379	27295.25
289.446	27347.68
289.514	27378.84
289.581	27418.12
289.649	27479.64
289.716	27519.75
289.783	27537.09
289.851	27654.53
289.918	27700.18
289.986	27779.95
290.053	27843.35
290.121	27878.82
290.188	27940.25
290.255	28091.08
290.323	28116.93
290.39	28145.01
290.458	28216.62
290.525	28309.31
290.592	28339.62
290.66	28390.5
290.727	28422.02
290.794	28511.59
290.862	28563.27
290.929	28624.52
290.996	28673.15
291.064	28748.4
291.131	28827.84
291.198	28915.11
291.266	28949.2
291.333	29003.86
291.4	29060.39
291.468	29159.54
291.535	29194.16
291.602	29236.48
291.669	29242.81
291.737	29305.56
291.804	29357.12
291.871	29453.51
291.938	29516.39
292.006	29657.26
292.073	29742.81
292.14	29812.17
292.207	29840.62
292.275	29881.78
292.342	29965.77
292.409	30096.03
292.476	30228.34
292.543	30253.16
292.611	30290.32
292.678	30396.88
292.745	30529.4
292.812	30614.4
292.879	30647.84
292.946	30699.75
293.014	30791.17
293.081	30868.37
293.148	30965.29
293.215	31053.54
293.282	31071.25
293.349	31148.52
293.416	31117.09
293.484	31204.47
293.551	31298.78
293.618	31396.38
293.685	31522.66
293.752	31536.46
293.819	31571.53
293.886	31570.37
293.953	31624.05
294.02	31717.56
294.087	31771.47
294.154	31789.53
294.221	31880.37
294.288	31929.67
294.356	32035.28
294.423	32107.27
294.49	32133.23
294.557	32215.72
294.624	32224.78
294.691	32349.84
294.758	32403.24
294.825	32468.82
294.892	32502.87
294.959	32533.3
295.026	32596.1
295.093	32614.9
295.16	32682.85
295.226	32735.19
295.293	32865.61
295.36	32942.49
295.427	33023.92
295.494	33113.8
295.561	33191.42
295.628	33307.63
295.695	33415.23
295.762	33483.53
295.829	33548.35
295.896	33660.64
295.963	33749.42
296.03	33840.47
296.096	33890.51
296.163	33965.51
296.23	34073.33
296.297	34166.12
296.364	34224.82
296.431	34301.53
296.498	34349.58
296.564	34472.67
296.631	34536.83
296.698	34542.6
296.765	34668.73
296.832	34687.26
296.899	34694.34
296.965	34809.14
297.032	34795.07
297.099	34899.78
297.166	34979.04
297.233	35037.34
297.299	35063.68
297.366	35111.76
297.433	35178.11
297.5	35273.01
297.566	35332.53
297.633	35391.05
297.7	35450.86
297.767	35501.5
297.833	35567.2
297.9	35632.97
297.967	35633.7
298.033	35725.85
298.1	35863.43
298.167	35883.38
298.234	35957.99
298.3	36041.5
298.367	36072.85
298.434	36143.91
298.5	36166.62
298.567	36190.35
298.634	36230.68
298.7	36337.01
298.767	36392
298.834	36483.83
298.9	36512.22
298.967	36543.48
299.033	36622.37
299.1	36719.99
299.167	36826.03
299.233	36862.1
299.3	36952.14
299.366	37068.19
299.433	37156.86
299.5	37130.88
299.566	37185.15
299.633	37282.98
299.699	37384.31
299.766	37422.08
299.832	37476.27
299.899	37535.47
299.965	37626.25
300.032	37666.4
300.099	37741.18
300.165	37817.81
300.232	37862.39
300.298	37917.6
300.365	38012.04
300.431	38055.46
300.498	38079.74
300.564	38140.4
300.631	38218.63
300.697	38321.11
300.763	38351.51
300.83	38381.87
300.896	38482.4
300.963	38574.14
301.029	38642.59
301.096	38681.74
301.162	38773.24
301.229	38814.43
301.295	38839.55
301.361	38916.98
301.428	38985.26
301.494	38985.16
301.561	39033.69
301.627	39096.79
301.693	39151.92
301.76	39209.83
301.826	39254.57
301.892	39344.06
301.959	39425.78
302.025	39474.65
302.092	39496.86
302.158	39569.87
302.224	39634.93
302.291	39653.93
302.357	39687.84
302.423	39712.43
302.49	39734.58
302.556	39800.03
302.622	39849.45
302.688	39932.39
302.755	40004.12
302.821	40071.79
302.887	40154.24
302.954	40200.89
303.02	40273.44
303.086	40336.37
303.152	40375.83
303.219	40408.87
303.285	40467.63
303.351	40519.59
303.417	40563.81
303.483	40588.35
303.55	40620.52
303.616	40662.22
303.682	40707.7
303.748	40737.73
303.815	40825.61
303.881	40918.68
303.947	40942.35
304.013	41002.91
304.079	41017.15
304.145	41007.38
304.212	41054.28
304.278	41069.93
304.344	41098.22
304.41	41092.77
304.476	41105.6
304.542	41136.13
304.608	41198.53
304.674	41184.83
304.741	41214.82
304.807	41274.71
304.873	41337.41
304.939	41441.05
305.005	41431.43
305.071	41466.86
305.137	41504.77
305.203	41477.74
305.269	41509.78
305.335	41595.98
305.401	41625.49
305.467	41668.8
305.533	41729.03
305.599	41794.23
305.666	41872.78
305.732	41927.91
305.798	42025.15
305.864	42170.83
305.93	42232.08
305.996	42265.09
306.062	42319.44
306.128	42351.68
306.194	42358.05
306.259	42396.12
306.325	42401.03
306.391	42486.22
306.457	42559.39
306.523	42620.01
306.589	42739.93
306.655	42752.09
306.721	42722.67
306.787	42725.39
306.853	42806.16
306.919	42800.28
306.985	42806.02
307.051	42832.03
307.117	42846.38
307.183	42847.06
307.248	42777.65
307.314	42844.72
307.38	42901.33
307.446	42972.33
307.512	42968.25
307.578	43022.08
307.644	43056.95
307.709	43093.33
307.775	43109.96
307.841	43136.03
307.907	43181.16
307.973	43152.9
308.039	43200.76
308.104	43266.75
308.17	43315.14
308.236	43315.96
308.302	43375.73
308.368	43389.78
308.433	43423.44
308.499	43450.72
308.565	43460.79
308.631	43528.64
308.696	43482.09
308.762	43492.79
308.828	43524.41
308.894	43524.27
308.959	43487.7
309.025	43486.28
309.091	43525.25
309.156	43539.36
309.222	43597.1
309.288	43591.46
309.354	43560.77
309.419	43590.89
309.485	43579.26
309.551	43636.32
309.616	43625.57
309.682	43654.17
309.748	43672.46
309.813	43690.26
309.879	43700.82
309.945	43718.57
310.01	43721.78
310.076	43775.82
310.141	43783.27
310.207	43753.3
310.273	43786.76
310.338	43859.47
310.404	43847.5
310.469	43837.09
310.535	43851.49
310.601	43798.9
310.666	43860.84
310.732	43944.84
310.797	43937.74
310.863	43947.76
310.928	43949.02
310.994	44001.86
311.059	44015.23
311.125	44051.23
311.191	44118.29
311.256	44122.08
311.322	44159.49
311.387	44138.28
311.453	45011.11
311.518	45024.35
311.584	45073.54
311.649	45132.65
311.715	45124.62
311.78	45174.04
311.846	45176.33
311.911	45233.94
311.976	45297.82
312.042	45282.1
312.107	45257.92
312.173	45274.42
312.238	45297.38
312.304	45327.75
312.369	45335.48
312.434	45336.6
312.5	45343.85
312.565	45276.79
312.631	45337.41
312.696	45351.28
312.761	45408.69
312.827	44571.82
312.892	44690.7
312.958	44706.32
313.023	44730.9
313.088	44766.07
313.154	44753.62
313.219	44769.77
313.284	44772.4
313.35	44775.51
313.415	44785.2
313.48	44808.79
313.546	44851.72
313.611	44916.06
313.676	44921.36
313.741	44915.43
313.807	44978.06
313.872	45025.41
313.937	45081.57
314.003	45134.67
314.068	45189.92
314.133	45236.16
314.198	45227.79
314.264	45179.53
314.329	45178.46
314.394	45203.87
314.459	45232.34
314.525	45323.64
314.59	45346.9
314.655	45336.92
314.72	45393.88
314.785	45427.26
314.851	45446.63
314.916	45416.4
314.981	45389.34
315.046	45381.41
315.111	45389.49
315.176	45387.44
315.242	45421.37
315.307	45455.35
315.372	45424.15
315.437	45409.05
315.502	45416.26
315.567	45494.64
315.632	45471.17
315.698	45516.98
315.763	45526.58
315.828	45524.82
315.893	45530.33
315.958	45533.78
316.023	45531.2
316.088	45484.81
316.153	45428.6
316.218	45414.78
316.283	45372.4
316.348	45326.71
316.413	45343.75
316.479	45317.67
316.544	45215.73
316.609	45117.66
316.674	44991.29
316.739	44875.98
316.804	44765.78
316.869	44620.34
316.934	44480.57
316.999	44376.36
317.064	44169.79
317.129	44009.57
317.194	43850.36
317.259	43668.21
317.324	43466.39
317.389	43276.32
317.454	43114.99
317.518	42978.29
317.583	42861.17
317.648	42743.2
317.713	42590.96
317.778	42354.9
317.843	42213.64
317.908	42040.14
317.973	41869.19
318.038	41722.62
318.103	41552.6
318.168	41387.81
318.233	41243.73
318.297	41029.57
318.362	40848.32
318.427	40675.87
318.492	40541.04
318.557	40343.48
318.622	40190.44
318.687	40063.64
318.751	39883.41
318.816	39717.38
318.881	39541.8
318.946	39305.38
319.011	39085.37
319.075	38873.89
319.14	38678.95
319.205	38450.85
319.27	38268.7
319.335	38040.17
319.399	37829.18
319.464	37656.08
319.529	37411.01
319.594	37188.59
319.658	37003.64
319.723	36776.37
319.788	36600.82
319.853	36329.76
319.917	36130.78
319.982	35868.52
320.047	35658.41
320.112	35484.52
320.176	35219.4
320.241	35006.95
320.306	34796.97
320.37	34560.91
320.435	34377.5
320.5	34197.1
320.564	33974.89
320.629	33736.85
320.694	33538.5
320.758	33310.79
320.823	33067.02
320.888	32889.59
320.952	32645.64
321.017	32406.7
321.082	32180.02
321.146	31969.97
321.211	31756.34
321.275	31521.84
321.34	31286.58
321.405	31035.53
321.469	30781.49
321.534	30553.35
321.598	30291.45
321.663	30093.69
321.727	29899.89
321.792	29641.08
321.857	29396.19
321.921	29169.75
321.986	28932.31
322.05	28644.41
322.115	28418.27
322.179	28175.81
322.244	27871.11
322.308	27650.25
322.373	27399.04
322.437	27164.8
322.502	26963.47
322.566	26705.27
322.631	26493.68
322.695	26252.16
322.76	26007.11
322.824	25775.5
322.889	25518.43
322.953	25260.12
323.018	24937.15
323.082	24615.63
323.146	24326.09
323.211	24030.56
323.275	23759.74
323.34	23498.41
323.404	23274.04
323.468	23003.82
323.533	22742.09
323.597	22482.74
323.662	22196.06
323.726	21962.81
323.79	21693.23
323.855	21351.57
323.919	21082.88
323.983	20815.93
324.048	20424.23
324.112	20614.91
324.177	19807.04
324.241	18735.83
324.305	17675.47
324.37	16631.8
324.434	15626.31
324.498	15352.73
324.562	15045.35
324.627	14695.83
324.691	14349.55
324.755	13954.15
324.82	13512.05
324.884	13045.1
324.948	12581.04
325.012	12011.3
325.077	11295.66
