Data from 20250701_urea_2M_exp3_MAYP1162681_16-59-52-510.txt Node
Date: Tue Jul 01 16:59:52 BST 2025
User: adleo
Spectrometer: MAYP116268
Trigger mode: 0
Integration Time (sec): 4.000000E0
Scans to average: 1
Electric dark correction enabled: true
Nonlinearity correction enabled: true
Boxcar width: 10
XAxis mode: Wavelengths
Number of Pixels in Spectrum: 2068
>>>>>Begin Spectral Data<<<<<
179.565	4105.84
179.642	4321.76
179.718	4491.26
179.795	4642.1
179.871	4769.2
179.948	4842.11
180.024	4921.73
180.101	5010.66
180.177	5065.34
180.254	5152.1
180.33	5235.84
180.407	5534.7
180.483	5857.11
180.56	6181.78
180.636	6479.92
180.712	6432.17
180.789	6469.86
180.865	6514.05
180.942	6547.65
181.018	6587.84
181.095	6633.68
181.171	6650.87
181.248	6648.66
181.324	6707.72
181.4	6733.95
181.477	6773.87
181.553	6823.46
181.63	6901.87
181.706	6957.03
181.782	6987.52
181.859	6985.31
181.935	7009.72
182.011	6999
182.088	7060.23
182.164	7134.27
182.24	7187.45
182.317	7221.12
182.393	7213.67
182.469	7269.99
182.546	7319.83
182.622	7334.63
182.698	7321.26
182.775	7366.83
182.851	7426.33
182.927	7398.16
183.003	7381.92
183.08	7361.49
183.156	7395.04
183.232	7380.18
183.308	7342.17
183.385	7378.93
183.461	7443.67
183.537	7446.27
183.613	7491.5
183.69	7457.08
183.766	7421.1
183.842	7447.21
183.918	7462.78
183.995	7512.43
184.071	7521.43
184.147	7507.77
184.223	7474.15
184.299	7521.61
184.375	7481.95
184.452	7501.63
184.528	7630.35
184.604	7673.51
184.68	7715.81
184.756	7737.35
184.832	7756.06
184.908	7775.42
184.985	7768.93
185.061	7709.8
185.137	7739.57
185.213	7698.85
185.289	7708.32
185.365	7681.31
185.441	7673.95
185.517	7733.89
185.593	7719.9
185.669	7711.34
185.745	7748.85
185.822	7814.25
185.898	7783.52
185.974	7820.1
186.05	7795.04
186.126	7726.38
186.202	7700.04
186.278	7689.56
186.354	7655.27
186.43	7677.69
186.506	7670.05
186.582	7668.03
186.658	7689.12
186.734	7616.74
186.81	7624.33
186.886	7633.37
186.962	7675.14
187.038	7663.27
187.114	7628.48
187.19	7655.65
187.266	7617.53
187.341	7614.84
187.417	7582.67
187.493	7580.17
187.569	7584.6
187.645	7558.06
187.721	7512.99
187.797	7544.43
187.873	7558.48
187.949	7541.75
188.025	7523.33
188.101	7536.74
188.176	7557.65
188.252	7549.57
188.328	7580.08
188.404	7580.51
188.48	7557.58
188.556	7534.6
188.632	7530.71
188.707	7532.05
188.783	7519.59
188.859	7507.15
188.935	7468.16
189.011	7490.89
189.086	7468.4
189.162	7443.02
189.238	7433.89
189.314	7422.88
189.39	7401.19
189.465	7369.46
189.541	7429.81
189.617	7371.17
189.693	7344.21
189.768	7357.91
189.844	7446.47
189.92	7416.35
189.996	7447.02
190.071	7490.96
190.147	7481.83
190.223	7518.91
190.298	7495.2
190.374	7448.14
190.45	7493.17
190.526	7519.13
190.601	7499.42
190.677	7506.87
190.753	7601.31
190.828	7618.71
190.904	7675.36
190.98	7724.13
191.055	7769.81
191.131	7738.4
191.207	7816.38
191.282	7858.63
191.358	7820.4
191.433	7762.28
191.509	7810.43
191.585	7806.48
191.66	7803.64
191.736	7838.74
191.811	7800.18
191.887	7856.75
191.963	7950.14
192.038	7966.83
192.114	7974.86
192.189	7995.05
192.265	7979.73
192.34	7907.64
192.416	7899.95
192.491	7884.84
192.567	7898.8
192.642	7910.15
192.718	7907.41
192.793	7862.88
192.869	7847.01
192.944	7854.22
193.02	7885.58
193.095	7900.4
193.171	7921.22
193.246	7919.68
193.322	7906.55
193.397	7913.62
193.473	7862.96
193.548	7796.24
193.624	7817.65
193.699	7809.37
193.775	7867.21
193.85	7875.33
193.925	7902.07
194.001	7906.35
194.076	7876.68
194.152	7834.96
194.227	7803.79
194.302	7770.05
194.378	7782.8
194.453	7768.91
194.529	7815.84
194.604	7763.28
194.679	7739.38
194.755	7672.22
194.83	7722.7
194.905	7713.18
194.981	7749.88
195.056	7721.8
195.131	7739.74
195.207	7734.2
195.282	7702.71
195.357	7629.5
195.433	7686.76
195.508	7643.96
195.583	7668.96
195.659	7720.04
195.734	7742.41
195.809	7738.76
195.884	7773.6
195.96	7777.3
196.035	7836.16
196.11	7817.64
196.185	7855.1
196.261	7872.07
196.336	7980.14
196.411	7924.8
196.486	7940.91
196.561	7910.27
196.637	7939.88
196.712	8001.72
196.787	8007.78
196.862	8063.56
196.937	8101.31
197.013	8121.14
197.088	8164.38
197.163	8243.11
197.238	8302.62
197.313	8302.67
197.388	8355.16
197.464	8461.14
197.539	8497.56
197.614	8479.28
197.689	8529.32
197.764	8592.14
197.839	8664.61
197.914	8643.38
197.989	8723.22
198.065	8771.05
198.14	8958.85
198.215	9056.46
198.29	9100.77
198.365	9147.32
198.44	9191.94
198.515	9296.04
198.59	9357.91
198.665	9449.25
198.74	9476.18
198.815	9486.2
198.89	9570.79
198.965	9675.12
199.04	9662.21
199.115	9724.13
199.19	9877.31
199.265	9887.75
199.34	9922.87
199.415	10042.64
199.49	10118.39
199.565	10154.13
199.64	10247.47
199.715	10235.71
199.79	10257.15
199.865	10274.97
199.94	10278.44
200.015	10391.95
200.09	10409.44
200.165	10434.35
200.24	10456.85
200.315	10598.06
200.39	10649.13
200.464	10669.13
200.539	10672.84
200.614	10732.33
200.689	10813.91
200.764	10834.44
200.839	10898.79
200.914	10919.85
200.989	10882.98
201.063	10933.38
201.138	10871.11
201.213	10868.56
201.288	10794.65
201.363	10814.45
201.438	10812.96
201.512	10864.55
201.587	10801.51
201.662	10814.38
201.737	10848.26
201.812	10879.2
201.886	10758.36
201.961	10794.17
202.036	10749.52
202.111	10738.05
202.186	10629.54
202.26	10566.32
202.335	10483.73
202.41	10462.68
202.485	10396.64
202.559	10321.73
202.634	10223.02
202.709	10257.45
202.784	10183.79
202.858	10181.38
202.933	10119.2
203.008	10095.64
203.082	10026.09
203.157	10016.36
203.232	9855.55
203.306	9779.28
203.381	9657.5
203.456	9578.18
203.53	9493.03
203.605	9425.6
203.68	9344.09
203.754	9320.57
203.829	9273.37
203.904	9200
203.978	9155.16
204.053	9170.08
204.127	9123.77
204.202	9125.27
204.277	9055.66
204.351	9037.32
204.426	9013.29
204.5	8986.33
204.575	8860.63
204.65	8895.21
204.724	8866.5
204.799	8903.44
204.873	8887.22
204.948	8886.4
205.022	8844.01
205.097	8810.73
205.171	8856.83
205.246	8884.95
205.32	8884.09
205.395	8869.98
205.469	8836.94
205.544	8858.08
205.618	8797.09
205.693	8843.83
205.767	8797
205.842	8878.84
205.916	8859.78
205.991	8821.13
206.065	8836.34
206.14	8896.5
206.214	8874.4
206.289	8846.18
206.363	8888.83
206.438	8903.23
206.512	8931.49
206.586	9000.7
206.661	9032.87
206.735	8955.75
206.81	8953.82
206.884	9005.36
206.958	8968.11
207.033	9033.89
207.107	9054.31
207.181	9169.64
207.256	9145.32
207.33	9207.23
207.405	9247.07
207.479	9311.49
207.553	9339.64
207.628	9282.57
207.702	9323.44
207.776	9304.66
207.851	9316.12
207.925	9369.64
207.999	9351
208.073	9339.06
208.148	9347.73
208.222	9302.12
208.296	9422.35
208.371	9484.83
208.445	9531.21
208.519	9626.35
208.593	9669.54
208.668	9655.48
208.742	9662.27
208.816	9669.59
208.89	9727.54
208.965	9727.73
209.039	9760.98
209.113	9819.68
209.187	9890.57
209.261	9870.45
209.336	9938.21
209.41	10016.44
209.484	10016.25
209.558	10099.15
209.632	10145.63
209.707	10184.93
209.781	10271.01
209.855	10316.88
209.929	10379.73
210.003	10395.87
210.077	10393.37
210.151	10570.1
210.226	10699.2
210.3	10799.26
210.374	10883.46
210.448	10896.13
210.522	10935.7
210.596	10972.85
210.67	11005.81
210.744	11179.82
210.818	11299.29
210.892	11379.68
210.966	11357.03
211.041	11418.47
211.115	11406.28
211.189	11491.63
211.263	11551.14
211.337	11566.95
211.411	11625.51
211.485	11603.82
211.559	11642.65
211.633	11655.18
211.707	11535.45
211.781	11558.3
211.855	11424.46
211.929	11393.72
212.003	11321.89
212.077	11352.45
212.151	11394.77
212.225	11429.03
212.299	11389.55
212.373	11342.13
212.447	11315.96
212.52	11412.45
212.594	11418.86
212.668	11458.62
212.742	11408.64
212.816	11384.68
212.89	11371.82
212.964	11355.72
213.038	11352.2
213.112	11393.79
213.186	11438.32
213.26	11350.45
213.333	11175.96
213.407	11192.25
213.481	11192.44
213.555	11225.63
213.629	11171.69
213.703	11097.86
213.777	11089.04
213.85	11006.19
213.924	11126.93
213.998	11123.99
214.072	11091.74
214.146	11030.54
214.219	11006.82
214.293	10981.29
214.367	10972.9
214.441	10983.94
214.515	10932.71
214.588	10838.55
214.662	10699.07
214.736	10608.73
214.81	10625.54
214.883	10649.09
214.957	10592.68
215.031	10530.03
215.105	10429.65
215.178	10356.04
215.252	10315.91
215.326	10203.75
215.4	10108.65
215.473	9907.15
215.547	9808.28
215.621	9736.19
215.694	9733.21
215.768	9622.23
215.842	9550.09
215.915	9478.26
215.989	9353.85
216.063	9289.4
216.136	9266.24
216.21	9233.31
216.284	9247.28
216.357	9222.96
216.431	9173.22
216.504	9170.77
216.578	9233.18
216.652	9250.11
216.725	9231.58
216.799	9232.64
216.873	9210.88
216.946	9217.9
217.02	9170.71
217.093	9138.83
217.167	9028.01
217.24	8935.55
217.314	8906.3
217.387	8855.73
217.461	8801.58
217.535	8829.79
217.608	8763.32
217.682	8734.87
217.755	8753.21
217.829	8692.11
217.902	8672.71
217.976	8649.37
218.049	8595.76
218.123	8512.79
218.196	8512.46
218.27	8468.27
218.343	8390.19
218.417	8385.04
218.49	8364.45
218.563	8415.93
218.637	8427.19
218.71	8511.23
218.784	8537.56
218.857	8565.76
218.931	8588.22
219.004	8597.65
219.077	8612.58
219.151	8634.66
219.224	8622.58
219.298	8618.2
219.371	8674.86
219.444	8631.32
219.518	8642.97
219.591	8663.56
219.665	8773.75
219.738	8781.74
219.811	8765.14
219.885	8821.79
219.958	8858.04
220.031	8862.61
220.105	8889.72
220.178	8894
220.251	8862.37
220.325	8886.11
220.398	8906.32
220.471	8925.19
220.544	8967.12
220.618	8949.16
220.691	8978.52
220.764	8999.02
220.838	9028.97
220.911	9001.28
220.984	9098.99
221.057	9140.72
221.131	9162.86
221.204	9062.01
221.277	9142.34
221.35	9274.83
221.424	9268.77
221.497	9289.48
221.57	9315.41
221.643	9353.08
221.716	9397.87
221.79	9404.42
221.863	9418.62
221.936	9428.06
222.009	9447.12
222.082	9480.4
222.155	9487.34
222.229	9566.04
222.302	9596.91
222.375	9607.69
222.448	9650.17
222.521	9649.93
222.594	9651.28
222.667	9625.72
222.74	9684.9
222.814	9677.28
222.887	9666.83
222.96	9721.83
223.033	9755.89
223.106	9787.86
223.179	9810.75
223.252	9834.6
223.325	9866.43
223.398	9880.25
223.471	9917.77
223.544	9944.4
223.617	9954.56
223.69	9979.03
223.763	9927.86
223.837	9955.85
223.91	9983.69
223.983	9934.91
224.056	9900.96
224.129	9920.95
224.202	9981.17
224.275	9966.72
224.348	9934.98
224.42	9891.44
224.493	9827.86
224.566	9803.92
224.639	9825.26
224.712	9801.26
224.785	9783.39
224.858	9779.49
224.931	9759.06
225.004	9711.24
225.077	9710.37
225.15	9614.36
225.223	9616.05
225.296	9712.8
225.369	9653.81
225.442	9615.32
225.514	9638.19
225.587	9658.42
225.66	9675.76
225.733	9679.61
225.806	9695.27
225.879	9687.13
225.952	9659.06
226.025	9710.15
226.097	9767.15
226.17	9758.53
226.243	9688.71
226.316	9680.23
226.389	9690.63
226.461	9719.49
226.534	9747.18
226.607	9740.1
226.68	9832.16
226.753	9816.6
226.825	9723.41
226.898	9789.01
226.971	9800.23
227.044	9824.02
227.117	9832.45
227.189	9851.33
227.262	9891.03
227.335	9910.93
227.407	9905.87
227.48	9945.5
227.553	9960.82
227.626	9941.01
227.698	9940.44
227.771	9987.77
227.844	9968.93
227.916	9981.65
227.989	9940.51
228.062	9937.29
228.134	10032.54
228.207	10032.82
228.28	10032.87
228.352	10051.51
228.425	10057.3
228.498	10105.13
228.57	10079.75
228.643	10145.18
228.716	10143.16
228.788	10133.42
228.861	10132.56
228.934	10207.7
229.006	10215.26
229.079	10224.13
229.151	10211.89
229.224	10180.59
229.296	10204.43
229.369	10318.29
229.442	10369.8
229.514	10349.48
229.587	10391.58
229.659	10309.82
229.732	10327.45
229.804	10379.29
229.877	10463.33
229.949	10500.67
230.022	10564.53
230.094	10571.9
230.167	10562.55
230.239	10510.19
230.312	10499.83
230.384	10575.44
230.457	10570.09
230.529	10579.92
230.602	10582.14
230.674	10593.75
230.747	10643.26
230.819	10676.55
230.892	10550.85
230.964	10553.21
231.037	10587.21
231.109	10589.13
231.181	10637.16
231.254	10596.7
231.326	10579.35
231.399	10554
231.471	10526.63
231.544	10442.25
231.616	10492.78
231.688	10505.45
231.761	10506.99
231.833	10496.01
231.905	10403.78
231.978	10402.53
232.05	10387.64
232.122	10384.12
232.195	10357.82
232.267	10402.92
232.339	10379.64
232.412	10454.7
232.484	10427.61
232.556	10397.8
232.629	10467.35
232.701	10482.24
232.773	10498.71
232.846	10485.13
232.918	10493.99
232.99	10508.69
233.062	10550.66
233.135	10562.27
233.207	10523.29
233.279	10567.12
233.351	10606.77
233.424	10611.45
233.496	10589.67
233.568	10682.72
233.64	10649.14
233.713	10671.06
233.785	10663.4
233.857	10685.51
233.929	10628.13
234.001	10701.2
234.074	10779.72
234.146	10705.16
234.218	10714.61
234.29	10722.9
234.362	10720.29
234.434	10669.6
234.507	10631.87
234.579	10576.9
234.651	10558.92
234.723	10588.03
234.795	10608.17
234.867	10596.12
234.939	10659.05
235.012	10682.56
235.084	10687.53
235.156	10729.4
235.228	10711.33
235.3	10701.21
235.372	10714.7
235.444	10788.13
235.516	10702.92
235.588	10714.82
235.66	10737.76
235.732	10702.44
235.804	10915.1
235.876	10969.11
235.948	11043.13
236.02	11065.92
236.092	11088.18
236.164	11104.94
236.236	11108.75
236.308	11114.24
236.38	11152.17
236.452	11137.13
236.524	11158.19
236.596	11235.42
236.668	11277.15
236.74	11305.63
236.812	11337.77
236.884	11373.73
236.956	11374.01
237.028	11378.45
237.1	11361.05
237.172	11438.31
237.244	11526.27
237.316	11394.67
237.388	11377.32
237.46	11352.26
237.532	11421.37
237.604	11414.67
237.675	11499.88
237.747	11550.15
237.819	11540.37
237.891	11538.59
237.963	11525.14
238.035	11522.3
238.107	11401.99
238.178	11472.75
238.25	11486.87
238.322	11582.75
238.394	11533.78
238.466	11546.89
238.538	11598.41
238.609	11646.65
238.681	11588.9
238.753	11567.21
238.825	11596.23
238.897	11631.27
238.968	11719.04
239.04	11700.73
239.112	11823.05
239.184	11778.8
239.255	11784.63
239.327	11821.98
239.399	11854.66
239.471	11912.4
239.542	11952.98
239.614	12022.24
239.686	11928.82
239.758	11986.18
239.829	11953.35
239.901	12033.89
239.973	12058.96
240.044	12090.48
240.116	12107.21
240.188	12121.95
240.259	12138.78
240.331	12137.19
240.403	12177.77
240.474	12133.42
240.546	12124.84
240.618	12066.66
240.689	12062.42
240.761	12083.68
240.833	12158.1
240.904	12161.38
240.976	12163.12
241.048	12190.88
241.119	12237.98
241.191	12299
241.262	12381.67
241.334	12393.82
241.405	12393.58
241.477	12396.42
241.549	12408.71
241.62	12435.76
241.692	12497.12
241.763	12571.6
241.835	12592.61
241.906	12617.54
241.978	12585.96
242.049	12665.79
242.121	12732.74
242.192	12822.45
242.264	12787.45
242.335	12743.44
242.407	12799.65
242.478	12813.05
242.55	12840.14
242.621	12831.08
242.693	12830.89
242.764	12820.38
242.836	12817.48
242.907	12863.67
242.979	12896.83
243.05	12935.35
243.122	12968.42
243.193	12966.83
243.264	12882.95
243.336	12887.82
243.407	12929.32
243.479	13017.68
243.55	13034.8
243.622	13056.2
243.693	13052.92
243.764	13127.35
243.836	13101.75
243.907	13088.21
243.978	13100.79
244.05	13124.22
244.121	13070.9
244.192	13122.63
244.264	13064.64
244.335	13086.09
244.407	13031.91
244.478	13053.02
244.549	13032.92
244.62	12986.88
244.692	12989.29
244.763	13047.43
244.834	13033.3
244.906	13009.05
244.977	13036.24
245.048	13097.46
245.119	13074.52
245.191	13051.72
245.262	12988.33
245.333	13076.35
245.405	13102.23
245.476	13138.92
245.547	13157.04
245.618	13223.86
245.689	13237.16
245.761	13280.84
245.832	13286.04
245.903	13336.85
245.974	13373.73
246.045	13395.86
246.117	13495.21
246.188	13483.88
246.259	13469.61
246.33	13497.81
246.401	13520.18
246.473	13490.44
246.544	13476.6
246.615	13543.27
246.686	13555.18
246.757	13644.41
246.828	13633.46
246.899	13715.17
246.97	13677.62
247.042	13676.46
247.113	13728.91
247.184	13832.74
247.255	13834.91
247.326	13870.15
247.397	13882.01
247.468	13904.33
247.539	13920.96
247.61	13870.44
247.681	13922.6
247.752	13988.35
247.823	13967.33
247.894	13988.25
247.965	13952.24
248.037	13943.08
248.108	13886.1
248.179	13890.06
248.25	13880.03
248.321	13900.66
248.392	13847.54
248.463	13940.29
248.534	13931.32
248.605	13949.98
248.675	13923.18
248.746	13943.62
248.817	13965.02
248.888	13992.36
248.959	13925.3
249.03	13958.56
249.101	13964.78
249.172	13945.74
249.243	13860.99
249.314	13932.29
249.385	13929.83
249.456	13974.76
249.527	13974.47
249.598	14002.86
249.669	14010.05
249.739	14026.24
249.81	14046.78
249.881	14003.49
249.952	14000.74
250.023	14010.43
250.094	13951.04
250.165	13911.66
250.235	13908.05
250.306	13907.81
250.377	13869.96
250.448	13898.84
250.519	13825.95
250.59	13900.04
250.66	13904.04
250.731	13986.86
250.802	13984.36
250.873	14015.16
250.944	14046.49
251.014	14031.79
251.085	14130.85
251.156	14162.09
251.227	14220.94
251.297	14282.6
251.368	14341.31
251.439	14386.82
251.51	14443.84
251.58	14431.26
251.651	14426.73
251.722	14484.57
251.792	14439.16
251.863	14459.17
251.934	14535.67
252.005	14666.11
252.075	14676.96
252.146	14731.24
252.217	14793.76
252.287	14850.11
252.358	14854.49
252.429	14926.22
252.499	14931.96
252.57	14950.56
252.641	15005.85
252.711	15015.15
252.782	14967.43
252.852	15056.36
252.923	15057.96
252.994	15070.44
253.064	15132.43
253.135	15118.31
253.205	15102.88
253.276	15194.52
253.347	15252.75
253.417	15221.56
253.488	15196.79
253.558	15182.81
253.629	15188.5
253.699	15194.33
253.77	15222.67
253.841	15224.55
253.911	15240.41
253.982	15255.35
254.052	15286.97
254.123	15293.14
254.193	15295.45
254.264	15436.77
254.334	15400.14
254.405	15365.29
254.475	15336.9
254.546	15341.57
254.616	15414.84
254.687	15451.53
254.757	15467.72
254.827	15478.18
254.898	15512.69
254.968	15520.36
255.039	15504.11
255.109	15548.12
255.18	15525.56
255.25	15448.25
255.321	15478.76
255.391	15432.25
255.461	15527.98
255.532	15443.19
255.602	15434.71
255.673	15381.54
255.743	15358.22
255.813	15279.36
255.884	15337.39
255.954	15383.18
256.024	15458.95
256.095	15460.93
256.165	15423.09
256.235	15447.48
256.306	15429.6
256.376	15482.33
256.446	15533.8
256.517	15577.38
256.587	15627.21
256.657	15643.36
256.728	15671.71
256.798	15684.33
256.868	15686.12
256.938	15656.81
257.009	15705.45
257.079	15753.94
257.149	15869.57
257.219	15795.83
257.29	15844.56
257.36	15785.51
257.43	15825.18
257.5	15765.7
257.571	15759.73
257.641	15803.78
257.711	15764.84
257.781	15801.09
257.852	15818.29
257.922	15751.68
257.992	15751.63
258.062	15736.26
258.132	15794.19
258.202	15804.99
258.273	15825.81
258.343	15905.14
258.413	15889.53
258.483	15893.53
258.553	15857.33
258.623	15825.57
258.693	15867.94
258.764	15940.96
258.834	16013.12
258.904	16033.31
258.974	16016.54
259.044	16030.8
259.114	16056.15
259.184	16098.86
259.254	16109.27
259.324	16054.32
259.394	16106.96
259.464	16195.54
259.535	16213.96
259.605	16200.22
259.675	16192.46
259.745	16226.34
259.815	16205.42
259.885	16206.2
259.955	16330.53
260.025	16326
260.095	16339.93
260.165	16377.77
260.235	16440.71
260.305	16429.52
260.375	16396.12
260.445	16495.66
260.515	16568.09
260.585	16629.06
260.655	16635.52
260.725	16685.98
260.795	16732.11
260.865	16814.71
260.934	16785.02
261.004	16820.69
261.074	16832.06
261.144	16898.82
261.214	16944.7
261.284	16943.11
261.354	16995.84
261.424	16952.75
261.494	17027.27
261.564	17031.85
261.634	17055.94
261.703	16992.23
261.773	17022.16
261.843	17056.48
261.913	17048.77
261.983	16983.46
262.053	17007.7
262.123	16996.81
262.192	16951.84
262.262	16996.28
262.332	16943.51
262.402	16977.82
262.472	16979.55
262.541	16913.62
262.611	16962.01
262.681	16936.27
262.751	16977.14
262.821	16981.33
262.89	16948.37
262.96	16977.19
263.03	17067.16
263.1	17090.34
263.169	17117.24
263.239	17151.99
263.309	17228.22
263.379	17264.51
263.448	17297.05
263.518	17318.25
263.588	17341.53
263.657	17416.33
263.727	17458.3
263.797	17467.27
263.867	17462.88
263.936	17415.65
264.006	17484.14
264.076	17477.06
264.145	17466.41
264.215	17451.8
264.285	17491.71
264.354	17443.9
264.424	17432.81
264.494	17372.48
264.563	17363.76
264.633	17451.85
264.702	17472.19
264.772	17405.15
264.842	17402.5
264.911	17430.84
264.981	17393.3
265.05	17413.35
265.12	17412.34
265.19	17427.23
265.259	17477.73
265.329	17515.18
265.398	17550.17
265.468	17658.07
265.537	17659.51
265.607	17697.73
265.676	17754.6
265.746	17777.68
265.815	17844.91
265.885	17848.72
265.955	17838.5
266.024	17829.2
266.094	17754.46
266.163	17820.67
266.232	17894.35
266.302	17902.74
266.371	17930.11
266.441	17947.65
266.51	17997.48
266.58	18001.63
266.649	17980.33
266.719	18033.24
266.788	18064.23
266.858	18149.38
266.927	18075.79
266.996	18104.56
267.066	18143.21
267.135	18107.21
267.205	18155.74
267.274	18175.84
267.343	18230.49
267.413	18252.37
267.482	18330.53
267.552	18403.3
267.621	18365.28
267.69	18326
267.76	18351.54
267.829	18381.71
267.898	18410.24
267.968	18390.48
268.037	18433.47
268.106	18485.51
268.176	18452.84
268.245	18467.54
268.314	18443.78
268.384	18502.67
268.453	18519.15
268.522	18542.09
268.592	18609.27
268.661	18593.8
268.73	18630.81
268.799	18626.04
268.869	18718.23
268.938	18667.1
269.007	18652.74
269.076	18669.36
269.146	18734.13
269.215	18764.97
269.284	18836.19
269.353	18830.75
269.422	18842.75
269.492	18842.65
269.561	18753.93
269.63	18789.35
269.699	18782.51
269.768	18818.41
269.838	18845.45
269.907	18892.91
269.976	18868.63
270.045	18811.57
270.114	18852.43
270.183	18857.01
270.253	18898.6
270.322	18844.29
270.391	18872.87
270.46	18940.04
270.529	18991.22
270.598	19030.98
270.667	19045
270.736	19015.03
270.806	19044.23
270.875	19105.77
270.944	19112.27
271.013	19260.8
271.082	19293.33
271.151	19336.99
271.22	19292.6
271.289	19302.05
271.358	19312.6
271.427	19348.84
271.496	19375.92
271.565	19371.78
271.634	19392.74
271.703	19517.85
271.772	19582.24
271.841	19602.48
271.91	19577.66
271.979	19602.19
272.048	19565.37
272.117	19615.2
272.186	19616.45
272.255	19673.8
272.324	19713.51
272.393	19748.93
272.462	19729.02
272.531	19746.28
272.6	19751.63
272.669	19836.54
272.738	19851.52
272.807	19885.55
272.876	19866.27
272.945	20020.97
273.013	20086.12
273.082	20161.59
273.151	20058.84
273.22	20101.92
273.289	20120.33
273.358	20202.84
273.427	20213.78
273.496	20267.13
273.564	20301.97
273.633	20366.35
273.702	20348.57
273.771	20362.55
273.84	20405.24
273.909	20440.52
273.977	20487.66
274.046	20498.02
274.115	20547.9
274.184	20540.72
274.253	20560.24
274.322	20640.47
274.39	20568.13
274.459	20553.48
274.528	20494.83
274.597	20528.47
274.665	20551.17
274.734	20635.85
274.803	20638.21
274.872	20649.44
274.94	20642.59
275.009	20800.1
275.078	20788.59
275.147	20828.68
275.215	20859.58
275.284	20922.67
275.353	20943.01
275.421	20899
275.49	21005.19
275.559	21019.31
275.627	21044.61
275.696	21060.18
275.765	21114.3
275.833	21144.18
275.902	21194.84
275.971	21288.96
276.039	21377.17
276.108	21443.54
276.177	21476.9
276.245	21485.72
276.314	21521.67
276.383	21593.78
276.451	21492.75
276.52	21553.24
276.588	21644.54
276.657	21704.31
276.725	21703.78
276.794	21742.59
276.863	21836.19
276.931	21802.59
277	21864.97
277.068	21944.73
277.137	22055.76
277.205	22082.66
277.274	22190.2
277.342	22273.26
277.411	22235.96
277.48	22237.93
277.548	22229.98
277.617	22274.72
277.685	22308.75
277.754	22365.97
277.822	22379.03
277.89	22481.69
277.959	22504.69
278.027	22479.91
278.096	22486.75
278.164	22635.91
278.233	22656.15
278.301	22658.32
278.37	22718.49
278.438	22725.34
278.507	22783.48
278.575	22727.93
278.643	22755.7
278.712	22734.83
278.78	22729.09
278.849	22828.01
278.917	22914.85
278.985	22957.47
279.054	23004.73
279.122	23085.78
279.191	23124.31
279.259	23148.12
279.327	23110.41
279.396	23208.35
279.464	23239.3
279.532	23304.3
279.601	23328.29
279.669	23367.1
279.737	23470.64
279.806	23530.25
279.874	23604.23
279.942	23637.07
280.011	23678.97
280.079	23758.01
280.147	23859.19
280.215	23914.12
280.284	23945.9
280.352	23932.01
280.42	24008.07
280.488	24017.77
280.557	24042.46
280.625	24093.16
280.693	24151.5
280.761	24206.1
280.83	24196.12
280.898	24281.87
280.966	24271.74
281.034	24201.98
281.102	24189.2
281.171	24218.1
281.239	24285.94
281.307	24293.04
281.375	24307.84
281.443	24443.07
281.512	24474.53
281.58	24543.54
281.648	24534.76
281.716	24573.49
281.784	24628.54
281.852	24643.16
281.92	24676.93
281.989	24760.02
282.057	24749.79
282.125	24969.41
282.193	25000.97
282.261	25046.27
282.329	25077.93
282.397	25132.78
282.465	25196.84
282.533	25297.56
282.601	25286.37
282.67	25254.28
282.738	25269.33
282.806	25351.69
282.874	25339.53
282.942	25404.7
283.01	25420.39
283.078	25492.86
283.146	25521.52
283.214	25585.38
283.282	25632.97
283.35	25728.11
283.418	25734.92
283.486	25804.98
283.554	25673.56
283.622	25721.92
283.69	25757.97
283.758	25789.15
283.826	25851.27
283.894	25931.99
283.962	26052.86
284.03	26152.73
284.098	26205.05
284.165	26243.17
284.233	26286.72
284.301	26315.88
284.369	26316.03
284.437	26340.89
284.505	26359.05
284.573	26474.2
284.641	26492.4
284.709	26577.74
284.777	26566.69
284.845	26646.72
284.912	26701.57
284.98	26775.97
285.048	26805.72
285.116	26882.41
285.184	26967.46
285.252	27016.77
285.319	27002.33
285.387	27018.9
285.455	27013.54
285.523	27087.1
285.591	27121.95
285.659	27174.08
285.726	27270.06
285.794	27267.99
285.862	27309.24
285.93	27365.98
285.997	27382.99
286.065	27411.34
286.133	27412.6
286.201	27458.82
286.269	27448.15
286.336	27471.77
286.404	27487.32
286.472	27575.51
286.539	27553.33
286.607	27549.71
286.675	27596.73
286.743	27678.37
286.81	27704.04
286.878	27810.69
286.946	27830.26
287.013	27892.66
287.081	27922.58
287.149	27905.13
287.216	28033.77
287.284	28051.16
287.352	28101.03
287.419	28132.59
287.487	28228.97
287.555	28296.16
287.622	28329.41
287.69	28391.18
287.758	28480.84
287.825	28519.55
287.893	28514.33
287.96	28570.85
288.028	28648.97
288.096	28703.95
288.163	28757.32
288.231	28753.94
288.298	28780.64
288.366	28873.62
288.433	28895.56
288.501	28925.83
288.569	28987.66
288.636	28997.91
288.704	29096.46
288.771	29171.07
288.839	29189.1
288.906	29199.46
288.974	29277.21
289.041	29316.27
289.109	29326.76
289.176	29397.06
289.244	29458.96
289.311	29544.23
289.379	29627.35
289.446	29677.37
289.514	29709.25
289.581	29750.52
289.649	29816.19
289.716	29865.74
289.783	29882.87
289.851	30009.35
289.918	30042.14
289.986	30130.5
290.053	30199.2
290.121	30234
290.188	30289.22
290.255	30442.39
290.323	30466.28
290.39	30492.38
290.458	30570.03
290.525	30677.74
290.592	30694.83
290.66	30759.52
290.727	30796.89
290.794	30891.14
290.862	30944.58
290.929	31010.36
290.996	31053.05
291.064	31136.21
291.131	31227.74
291.198	31317.55
291.266	31363.7
291.333	31425.44
291.4	31483.46
291.468	31585.9
291.535	31624.49
291.602	31684.73
291.669	31690.83
291.737	31772.06
291.804	31819.43
291.871	31915.17
291.938	31985.6
292.006	32135.91
292.073	32212.72
292.14	32292.45
292.207	32312.12
292.275	32360.31
292.342	32442.72
292.409	32582.65
292.476	32703.46
292.543	32712.57
292.611	32749.2
292.678	32850.53
292.745	32985.6
292.812	33059.61
292.879	33084.57
292.946	33137.86
293.014	33226.21
293.081	33310.35
293.148	33409.25
293.215	33499.5
293.282	33517.72
293.349	33589.27
293.416	33559.26
293.484	33644.43
293.551	33730
293.618	33826.84
293.685	33962.06
293.752	33986.3
293.819	34023.06
293.886	34015.93
293.953	34078.8
294.02	34168.84
294.087	34225.83
294.154	34241.73
294.221	34345.15
294.288	34406.1
294.356	34523
294.423	34594.01
294.49	34611.91
294.557	34697.22
294.624	34712.45
294.691	34835.58
294.758	34899.17
294.825	34984.1
294.892	35017.95
294.959	35057.54
295.026	35150.93
295.093	35170.14
295.16	35225.57
295.226	35274.04
295.293	35428.88
295.36	35509.3
295.427	35602.62
295.494	35689.05
295.561	35773.17
295.628	35902.71
295.695	36012.62
295.762	36083.71
295.829	36155.5
295.896	36272.92
295.963	36358.88
296.03	36450.05
296.096	36524.6
296.163	36616.39
296.23	36738.77
296.297	36841.22
296.364	36897.51
296.431	36966.6
296.498	37023.92
296.564	37157.82
296.631	37227.53
296.698	37220.34
296.765	37340.01
296.832	37356.95
296.899	37379.57
296.965	37506.63
297.032	37479.63
297.099	37597.36
297.166	37685.34
297.233	37732.88
297.299	37759.97
297.366	37814.99
297.433	37871.79
297.5	37956.83
297.566	38012.2
297.633	38037.65
297.7	38094.32
297.767	38157.05
297.833	38220.58
297.9	38276.32
297.967	38272.34
298.033	38381.96
298.1	38540.17
298.167	38568.88
298.234	38653.82
298.3	38744.06
298.367	38770.53
298.434	38854.43
298.5	38857.58
298.567	38875.61
298.634	38925.2
298.7	39045.03
298.767	39104.29
298.834	39224.09
298.9	39249.11
298.967	39263.68
299.033	39365.32
299.1	39476.1
299.167	39581.81
299.233	39628.3
299.3	39740.23
299.366	39855.79
299.433	39953.97
299.5	39916.94
299.566	39978.79
299.633	40079.18
299.699	40153.82
299.766	40208.09
299.832	40282.4
299.899	40371.09
299.965	40477.07
300.032	40514.05
300.099	40585.2
300.165	40657.95
300.232	40696.15
300.298	40753.73
300.365	40862
300.431	40914.49
300.498	40942.35
300.564	41017.29
300.631	41096.03
300.697	41187.47
300.763	41232.32
300.83	41263.24
300.896	41367.54
300.963	41458.19
301.029	41518.14
301.096	41601.22
301.162	41686.04
301.229	41707.04
301.295	41722.3
301.361	41780.35
301.428	41848
301.494	41844.26
301.561	41887.72
301.627	41946.83
301.693	42008.67
301.76	42077.56
301.826	42101.33
301.892	42176.74
301.959	42259.6
302.025	42303.7
302.092	42326.85
302.158	42427.05
302.224	42480.79
302.291	42488.42
302.357	42507.53
302.423	42534.23
302.49	42539.72
302.556	42618.84
302.622	42671.17
302.688	42749.41
302.755	42847.51
302.821	42926.42
302.887	43015.26
302.954	43070.79
303.02	43161.99
303.086	43239.26
303.152	43266.69
303.219	43302.43
303.285	43375.06
303.351	43419.03
303.417	43479.39
303.483	43502.25
303.55	43521.56
303.616	43577.75
303.682	43634.99
303.748	43680.07
303.815	43796.54
303.881	43881.96
303.947	43907.02
304.013	43961.3
304.079	43988.59
304.145	43960.37
304.212	44008.58
304.278	44028.52
304.344	44065.83
304.41	44050.12
304.476	44068.8
304.542	44105.52
304.608	44178.35
304.674	44159.62
304.741	44186.67
304.807	44242.68
304.873	44318.48
304.939	44423.49
305.005	44393.96
305.071	44431.85
305.137	44483.61
305.203	44423.46
305.269	44462.45
305.335	44537.06
305.401	44576.04
305.467	44614.82
305.533	44710.15
305.599	44778.58
305.666	44861.25
305.732	44898.42
305.798	44990.79
305.864	45123.98
305.93	45202.63
305.996	45247.17
306.062	45307.65
306.128	45351.56
306.194	45349.62
306.259	45389.92
306.325	45392.01
306.391	45482.59
306.457	45556.22
306.523	45617.55
306.589	45756.05
306.655	45771.19
306.721	45750.5
306.787	45755.47
306.853	45850.56
306.919	45816.92
306.985	45834.98
307.051	45851
307.117	45891.01
307.183	45909.17
307.248	45846.45
307.314	45887.06
307.38	45931.47
307.446	45992.14
307.512	45993.36
307.578	46050.95
307.644	46067.31
307.709	46106.42
307.775	46131.3
307.841	46174.54
307.907	46217.49
307.973	46180.96
308.039	46231.12
308.104	46302.51
308.17	46353.73
308.236	46331.56
308.302	46384.29
308.368	46389.94
308.433	46428.94
308.499	46453.87
308.565	46462.35
308.631	46519.96
308.696	46482.46
308.762	46480.95
308.828	46505.75
308.894	46487.59
308.959	46456.08
309.025	46472.45
309.091	46500.51
309.156	46509.13
309.222	46551.22
309.288	46542.41
309.354	46502.34
309.419	46525.77
309.485	46506.58
309.551	46565.43
309.616	46553.98
309.682	46583.94
309.748	46609.12
309.813	46619.69
309.879	46631.23
309.945	46625.24
310.01	46638.2
310.076	46700.54
310.141	46731.04
310.207	46725.43
310.273	46782.7
310.338	46841.43
310.404	46832.37
310.469	46837.93
310.535	46847.38
310.601	46800.07
310.666	46850.4
310.732	46938.89
310.797	46932.22
310.863	46928.61
310.928	46929.54
310.994	46996.67
311.059	47021.47
311.125	47049.24
311.191	47134.05
311.256	47131.18
311.322	47211.57
311.387	47184.83
311.453	47911.66
311.518	47958.44
311.584	47989.44
311.649	48035.68
311.715	48041.28
311.78	48078.84
311.846	48079.72
311.911	48150.88
311.976	48208.03
312.042	48202.62
312.107	48186.59
312.173	48192.93
312.238	48222.49
312.304	48250.72
312.369	48246.33
312.434	48247.45
312.5	48261.34
312.565	48191.49
312.631	48248.45
312.696	48237.62
312.761	48298.87
312.827	47608.65
312.892	47679.34
312.958	47697.71
313.023	47733.55
313.088	47772.49
313.154	47767.37
313.219	47763.33
313.284	47745.39
313.35	47766.01
313.415	47773.02
313.48	47805.19
313.546	47863.2
313.611	47927.69
313.676	47938.8
313.741	47958.16
313.807	48019.39
313.872	48064.49
313.937	48118.83
314.003	48194.19
314.068	48234.51
314.133	48277.13
314.198	48273.57
314.264	48239.66
314.329	48246.43
314.394	48249.21
314.459	48252.87
314.525	48351.02
314.59	48379.33
314.655	48393.67
314.72	48448.01
314.785	48489.2
314.851	48491.59
314.916	48460.48
314.981	48441.76
315.046	48431.37
315.111	48417.53
315.176	48415.82
315.242	48443.68
315.307	48470.84
315.372	48438.15
315.437	48440.49
315.502	48448.74
315.567	48527.91
315.632	48503.86
315.698	48540.83
315.763	48561.03
315.828	48574.19
315.893	48576.83
315.958	48590.62
316.023	48574.92
316.088	48509.18
316.153	48444.54
316.218	48436.64
316.283	48386.74
316.348	48352.04
316.413	48358.91
316.479	48323.88
316.544	48205.45
316.609	48109.02
316.674	47976.56
316.739	47833.99
316.804	47713.76
316.869	47570.68
316.934	47413.85
316.999	47287.46
317.064	47106.16
317.129	46930.49
317.194	46779.25
317.259	46589.55
317.324	46380.66
317.389	46193.23
317.454	46035.69
317.518	45898.88
317.583	45776.06
317.648	45660
317.713	45499
317.778	45251.67
317.843	45105.39
317.908	44928.77
317.973	44742.6
318.038	44594.93
318.103	44429.86
318.168	44261.7
318.233	44095.9
318.297	43872.84
318.362	43694.01
318.427	43489.51
318.492	43341.14
318.557	43111.81
318.622	42942.25
318.687	42802.86
318.751	42593.22
318.816	42409.61
318.881	42214.54
318.946	41953.53
319.011	41720.56
319.075	41481.16
319.14	41273.14
319.205	41038.21
319.27	40844.99
319.335	40606.62
319.399	40393.27
319.464	40207.06
319.529	39944
319.594	39714.36
319.658	39527.21
319.723	39289.16
319.788	39097.43
319.853	38818.29
319.917	38623.99
319.982	38343.06
320.047	38104.26
320.112	37915.91
320.176	37632.68
320.241	37395.88
320.306	37180.56
320.37	36942.89
320.435	36747.17
320.5	36554.23
320.564	36315.2
320.629	36066.18
320.694	35851.37
320.758	35593.49
320.823	35323.41
320.888	35122.98
320.952	34851.92
321.017	34582.93
321.082	34333.98
321.146	34106
321.211	33874.84
321.275	33622.46
321.34	33369.44
321.405	33107.46
321.469	32839.99
321.534	32598.9
321.598	32321.62
321.663	32114.14
321.727	31890.21
321.792	31596.65
321.857	31331.15
321.921	31082.69
321.986	30822.24
322.05	30511.74
322.115	30280.55
322.179	30027.04
322.244	29726.89
322.308	29501.88
322.373	29228.14
322.437	28972.2
322.502	28763.02
322.566	28493.3
322.631	28256.8
322.695	28005.78
322.76	27747.53
322.824	27516.91
322.889	27241.91
322.953	26974.05
323.018	26628.2
323.082	26284.09
323.146	25994.76
323.211	25693.09
323.275	25411.82
323.34	25129.63
323.404	24897.62
323.468	24604.21
323.533	24325.75
323.597	24034.68
323.662	23729.33
323.726	23483.06
323.79	23202.19
323.855	22844.01
323.919	22557.97
323.983	22279.25
324.048	21850.95
324.112	22038.34
324.177	21159.68
324.241	20015.8
324.305	18884.18
324.37	17769.45
324.434	16693.77
324.498	16397.82
324.562	16062.57
324.627	15689.67
324.691	15324.71
324.755	14897.68
324.82	14421.28
324.884	13917.6
324.948	13410.69
325.012	12794.68
325.077	12038.88
