Data from 20250701_urea_2M_exp3_MAYP1162681_17-29-52-385.txt Node
Date: Tue Jul 01 17:29:52 BST 2025
User: adleo
Spectrometer: MAYP116268
Trigger mode: 0
Integration Time (sec): 4.000000E0
Scans to average: 1
Electric dark correction enabled: true
Nonlinearity correction enabled: true
Boxcar width: 10
XAxis mode: Wavelengths
Number of Pixels in Spectrum: 2068
>>>>>Begin Spectral Data<<<<<
179.565	4110.22
179.642	4325.33
179.718	4487.65
179.795	4632.25
179.871	4765.24
179.948	4830.83
180.024	4907.37
180.101	4991.65
180.177	5052.47
180.254	5136.44
180.33	5219.76
180.407	5519.68
180.483	5836.72
180.56	6162.74
180.636	6457.33
180.712	6414.57
180.789	6451.93
180.865	6499.87
180.942	6528.81
181.018	6569
181.095	6615.66
181.171	6630.69
181.248	6631.98
181.324	6690.65
181.4	6717.69
181.477	6754.83
181.553	6805.09
181.63	6883.54
181.706	6949.75
181.782	6976.25
181.859	6976.4
181.935	6997.25
182.011	6981.01
182.088	7042.42
182.164	7114.98
182.24	7172.85
182.317	7204.08
182.393	7196.3
182.469	7245.7
182.546	7296.73
182.622	7314.56
182.698	7304.61
182.775	7353.92
182.851	7404.24
182.927	7374.96
183.003	7363.58
183.08	7339.12
183.156	7375.69
183.232	7368.38
183.308	7319.84
183.385	7349.73
183.461	7412.6
183.537	7414.28
183.613	7464.22
183.69	7436.15
183.766	7391.99
183.842	7415.07
183.918	7437.18
183.995	7480.1
184.071	7493.76
184.147	7477.08
184.223	7434.66
184.299	7475.15
184.375	7435.59
184.452	7458.92
184.528	7595.04
184.604	7632.86
184.68	7677.28
184.756	7699.54
184.832	7712.05
184.908	7729.49
184.985	7732.8
185.061	7676.99
185.137	7710.6
185.213	7663.64
185.289	7667.39
185.365	7640.28
185.441	7631
185.517	7679.3
185.593	7673.29
185.669	7661.61
185.745	7697.67
185.822	7757.35
185.898	7730.42
185.974	7766.23
186.05	7741.02
186.126	7664.67
186.202	7637.32
186.278	7620.01
186.354	7585.91
186.43	7610.59
186.506	7611.12
186.582	7603.05
186.658	7627.26
186.734	7557.62
186.81	7574.1
186.886	7586.21
186.962	7635.63
187.038	7623.85
187.114	7597.05
187.19	7621
187.266	7589.37
187.341	7585.19
187.417	7557.83
187.493	7554.23
187.569	7560.58
187.645	7533.7
187.721	7485.09
187.797	7513.83
187.873	7534.17
187.949	7516.53
188.025	7492.96
188.101	7499.4
188.176	7520.31
188.252	7504.36
188.328	7528.95
188.404	7521.07
188.48	7499.39
188.556	7469.77
188.632	7466.55
188.707	7464.87
188.783	7456.79
188.859	7433.4
188.935	7397.57
189.011	7426.61
189.086	7401.38
189.162	7373.25
189.238	7371.52
189.314	7368.69
189.39	7349.7
189.465	7321.81
189.541	7381.34
189.617	7325.54
189.693	7309.53
189.768	7320.79
189.844	7409.77
189.92	7383.44
189.996	7418.58
190.071	7462.57
190.147	7461.18
190.223	7496.86
190.298	7469.35
190.374	7422.77
190.45	7473.8
190.526	7505.2
190.601	7486.93
190.677	7493.51
190.753	7598.45
190.828	7607.96
190.904	7659.56
190.98	7715.06
191.055	7760.02
191.131	7730.73
191.207	7808.76
191.282	7843.17
191.358	7806.78
191.433	7749.57
191.509	7800.6
191.585	7790.93
191.66	7788.19
191.736	7819.06
191.811	7781.89
191.887	7843.08
191.963	7928.25
192.038	7944.31
192.114	7943.16
192.189	7957.29
192.265	7947.01
192.34	7866.4
192.416	7864.86
192.491	7849.13
192.567	7859.33
192.642	7865.25
192.718	7864.77
192.793	7816.34
192.869	7799.37
192.944	7812.78
193.02	7840.39
193.095	7848.37
193.171	7869.2
193.246	7869.68
193.322	7857.13
193.397	7864.19
193.473	7809.11
193.548	7743.4
193.624	7762.98
193.699	7758.36
193.775	7815.62
193.85	7824.17
193.925	7854.62
194.001	7852.07
194.076	7828.89
194.152	7787.28
194.227	7749.09
194.302	7712.9
194.378	7728.19
194.453	7718.34
194.529	7760.56
194.604	7711.65
194.679	7693.72
194.755	7627.97
194.83	7673.82
194.905	7662.67
194.981	7695.85
195.056	7673.12
195.131	7693.55
195.207	7686.77
195.282	7655.09
195.357	7580.33
195.433	7636.54
195.508	7591.09
195.583	7618.02
195.659	7673.48
195.734	7699.74
195.809	7701.57
195.884	7735.11
195.96	7734.87
196.035	7788.68
196.11	7772.9
196.185	7818.34
196.261	7831.61
196.336	7947.61
196.411	7896.32
196.486	7920.07
196.561	7896.98
196.637	7931.4
196.712	7992.13
196.787	8004.59
196.862	8059.51
196.937	8102.16
197.013	8117.32
197.088	8152.42
197.163	8231.11
197.238	8291.49
197.313	8290.34
197.388	8342.77
197.464	8451.25
197.539	8496.62
197.614	8479.11
197.689	8520.59
197.764	8573
197.839	8645.04
197.914	8621.4
197.989	8693.69
198.065	8743.97
198.14	8923.39
198.215	9018.17
198.29	9060.98
198.365	9107.87
198.44	9147.19
198.515	9249.55
198.59	9309.88
198.665	9405.16
198.74	9435.36
198.815	9437.48
198.89	9518.22
198.965	9627.41
199.04	9615.8
199.115	9669.44
199.19	9817.94
199.265	9829.2
199.34	9870.86
199.415	9993.34
199.49	10063.2
199.565	10102.55
199.64	10193.69
199.715	10185.01
199.79	10203.9
199.865	10224.66
199.94	10216.23
200.015	10329.78
200.09	10351.27
200.165	10373
200.24	10390.87
200.315	10530.25
200.39	10588.07
200.464	10614.91
200.539	10619.1
200.614	10679.46
200.689	10764.51
200.764	10788.94
200.839	10854.49
200.914	10874.01
200.989	10839.4
201.063	10892.21
201.138	10827.34
201.213	10817.66
201.288	10746.83
201.363	10769.43
201.438	10765.48
201.512	10826.17
201.587	10762.27
201.662	10772.01
201.737	10812.53
201.812	10848.58
201.886	10727.8
201.961	10759.07
202.036	10713.65
202.111	10703.91
202.186	10586.89
202.26	10529.69
202.335	10455.48
202.41	10436.93
202.485	10365.74
202.559	10289.43
202.634	10194.92
202.709	10232.09
202.784	10159.98
202.858	10151.12
202.933	10083.92
203.008	10061.76
203.082	9989.32
203.157	9984.74
203.232	9828.36
203.306	9753.2
203.381	9634.99
203.456	9557.4
203.53	9471.29
203.605	9397.26
203.68	9305.26
203.754	9289.91
203.829	9229.13
203.904	9151.57
203.978	9102.55
204.053	9124.84
204.127	9075.06
204.202	9074.34
204.277	9006.95
204.351	8991.93
204.426	8973.49
204.5	8938.35
204.575	8813.81
204.65	8852.82
204.724	8822.04
204.799	8849.55
204.873	8833.57
204.948	8827.5
205.022	8780.88
205.097	8747.26
205.171	8796.73
205.246	8829.43
205.32	8822.74
205.395	8822.02
205.469	8791.86
205.544	8819.55
205.618	8756.53
205.693	8802.26
205.767	8754.33
205.842	8834.05
205.916	8803.15
205.991	8766.38
206.065	8793.38
206.14	8853.35
206.214	8831.05
206.289	8807.99
206.363	8854.3
206.438	8860.84
206.512	8889.49
206.586	8963.03
206.661	8997.41
206.735	8922.7
206.81	8923.42
206.884	8976.69
206.958	8927.7
207.033	8990.06
207.107	9012.17
207.181	9123.16
207.256	9098.84
207.33	9163.59
207.405	9210.42
207.479	9284.02
207.553	9307.65
207.628	9247.41
207.702	9286.06
207.776	9260.78
207.851	9272.15
207.925	9326.77
207.999	9320.41
208.073	9312.85
208.148	9319.21
208.222	9270.57
208.296	9386.13
208.371	9448.42
208.445	9485.69
208.519	9586.98
208.593	9627.34
208.668	9615.05
208.742	9623.29
208.816	9630.51
208.89	9683.74
208.965	9675.94
209.039	9705.03
209.113	9769.28
209.187	9843.06
209.261	9826.21
209.336	9901.53
209.41	9973.49
209.484	9969.98
209.558	10048.35
209.632	10092.9
209.707	10130.47
209.781	10212.21
209.855	10263.04
209.929	10321.7
210.003	10352.53
210.077	10352.05
210.151	10529.16
210.226	10651.13
210.3	10756.59
210.374	10839.05
210.448	10852.55
210.522	10889.07
210.596	10929.21
210.67	10963.38
210.744	11135.12
210.818	11256.91
210.892	11330.93
210.966	11309.54
211.041	11367.75
211.115	11353.54
211.189	11444.66
211.263	11505.91
211.337	11525.81
211.411	11583.79
211.485	11571.41
211.559	11606.34
211.633	11619.78
211.707	11501.06
211.781	11525.84
211.855	11388.87
211.929	11357.07
212.003	11287.89
212.077	11320.33
212.151	11356.96
212.225	11387.52
212.299	11343.17
212.373	11295.17
212.447	11275.26
212.52	11378.3
212.594	11382.78
212.668	11417.96
212.742	11363.89
212.816	11342.83
212.89	11322.54
212.964	11304.66
213.038	11300.22
213.112	11338.39
213.186	11385.19
213.26	11297.61
213.333	11130.73
213.407	11142.77
213.481	11147.25
213.555	11184.97
213.629	11133.98
213.703	11066.94
213.777	11053.73
213.85	10973.93
213.924	11092.54
213.998	11084.06
214.072	11041.5
214.146	10985.93
214.219	10965.84
214.293	10932.06
214.367	10922.37
214.441	10942.52
214.515	10891.67
214.588	10795.54
214.662	10654.18
214.736	10553.88
214.81	10568.95
214.883	10582.58
214.957	10528.59
215.031	10473.15
215.105	10369.69
215.178	10295.93
215.252	10253.25
215.326	10144.95
215.4	10052.07
215.473	9845.42
215.547	9752.48
215.621	9682.22
215.694	9675.43
215.768	9572.74
215.842	9508.31
215.915	9436.1
215.989	9313.9
216.063	9246.75
216.136	9221.28
216.21	9198.31
216.284	9216.95
216.357	9189.94
216.431	9135.01
216.504	9131.64
216.578	9186.59
216.652	9199.72
216.725	9175.93
216.799	9178.78
216.873	9158.37
216.946	9165.01
217.02	9125.75
217.093	9086.75
217.167	8984.22
217.24	8895.33
217.314	8854.33
217.387	8803.86
217.461	8745.57
217.535	8767.57
217.608	8694.51
217.682	8667.36
217.755	8675.93
217.829	8613.44
217.902	8595.68
217.976	8579.61
218.049	8530.67
218.123	8448.91
218.196	8444.72
218.27	8409.11
218.343	8335.4
218.417	8329.39
218.49	8308.51
218.563	8359.17
218.637	8365.81
218.71	8445.13
218.784	8471.85
218.857	8507.84
218.931	8529.09
219.004	8544.59
219.077	8565.24
219.151	8593.44
219.224	8583.14
219.298	8578.13
219.371	8629.78
219.444	8583.41
219.518	8598.66
219.591	8609.49
219.665	8723.48
219.738	8744.03
219.811	8721.42
219.885	8769.74
219.958	8808.25
220.031	8812.05
220.105	8832.32
220.178	8844.74
220.251	8812.58
220.325	8841.23
220.398	8859.76
220.471	8879.83
220.544	8915.35
220.618	8889.4
220.691	8920.64
220.764	8936.76
220.838	8971.47
220.911	8951.83
220.984	9047.07
221.057	9082.4
221.131	9115.08
221.204	9006.91
221.277	9076.93
221.35	9220.84
221.424	9219.25
221.497	9231.87
221.57	9255.11
221.643	9292.34
221.716	9347
221.79	9351.19
221.863	9358.47
221.936	9369.11
222.009	9386.34
222.082	9425.54
222.155	9435.27
222.229	9508.14
222.302	9542.57
222.375	9552.92
222.448	9597.52
222.521	9606.19
222.594	9610.42
222.667	9576.49
222.74	9632.97
222.814	9623.53
222.887	9599.1
222.96	9655.5
223.033	9702.61
223.106	9731.88
223.179	9769.75
223.252	9778.57
223.325	9821.23
223.398	9840.21
223.471	9871.9
223.544	9900.7
223.617	9906.77
223.69	9934.89
223.763	9896.4
223.837	9922.45
223.91	9953.43
223.983	9905.08
224.056	9871.66
224.129	9897.42
224.202	9963.76
224.275	9958.9
224.348	9927.74
224.42	9890.5
224.493	9831.41
224.566	9803.66
224.639	9826.58
224.712	9790.35
224.785	9777.92
224.858	9757.69
224.931	9736.64
225.004	9692.58
225.077	9690.84
225.15	9594.11
225.223	9592.96
225.296	9673.47
225.369	9611.59
225.442	9571.23
225.514	9588.51
225.587	9607.68
225.66	9613.8
225.733	9608.93
225.806	9620.54
225.879	9620.06
225.952	9591.65
226.025	9635.81
226.097	9692.19
226.17	9685.49
226.243	9622.02
226.316	9619.18
226.389	9632.38
226.461	9657.81
226.534	9680.25
226.607	9669.12
226.68	9764.75
226.753	9759.59
226.825	9670.26
226.898	9732.14
226.971	9738.5
227.044	9762.29
227.117	9776.35
227.189	9799.67
227.262	9852.71
227.335	9869.33
227.407	9861.68
227.48	9895.48
227.553	9910.89
227.626	9891.52
227.698	9896.87
227.771	9932.21
227.844	9906.15
227.916	9924.31
227.989	9885.24
228.062	9886.79
228.134	9986.03
228.207	9986.08
228.28	9985.02
228.352	10002.89
228.425	10015.12
228.498	10070.43
228.57	10045.87
228.643	10108.79
228.716	10109.32
228.788	10090.43
228.861	10090.63
228.934	10163.07
229.006	10178
229.079	10183.83
229.151	10171.26
229.224	10137.31
229.296	10170.73
229.369	10282.42
229.442	10340.73
229.514	10325.66
229.587	10379.56
229.659	10302.33
229.732	10320.06
229.804	10361.92
229.877	10451.64
229.949	10483.4
230.022	10535.83
230.094	10547.29
230.167	10532.84
230.239	10484.76
230.312	10472.72
230.384	10546.11
230.457	10539.94
230.529	10542.88
230.602	10543.8
230.674	10553.77
230.747	10600.77
230.819	10632.62
230.892	10511.21
230.964	10509.47
231.037	10533.89
231.109	10519.72
231.181	10560.28
231.254	10516.25
231.326	10498.52
231.399	10463.87
231.471	10435.87
231.544	10351.11
231.616	10396.58
231.688	10407.28
231.761	10400.49
231.833	10391.15
231.905	10305.33
231.978	10308.89
232.05	10300.03
232.122	10307.4
232.195	10280.18
232.267	10323.54
232.339	10302.39
232.412	10380.62
232.484	10355.18
232.556	10337.31
232.629	10411.33
232.701	10429.45
232.773	10452.38
232.846	10444.14
232.918	10459.81
232.99	10483.22
233.062	10536.8
233.135	10546.58
233.207	10507.12
233.279	10551.48
233.351	10589.11
233.424	10591.95
233.496	10574.94
233.568	10664.9
233.64	10622.85
233.713	10651.56
233.785	10647.27
233.857	10657.1
233.929	10597.03
234.001	10676.26
234.074	10746.16
234.146	10668.91
234.218	10673.92
234.29	10679.17
234.362	10667.18
234.434	10621.16
234.507	10584.59
234.579	10525.03
234.651	10514.82
234.723	10550.28
234.795	10574.76
234.867	10568.25
234.939	10638.75
235.012	10653.59
235.084	10656.87
235.156	10701.48
235.228	10677.15
235.3	10665.92
235.372	10686.88
235.444	10749.08
235.516	10659.87
235.588	10670.08
235.66	10698.32
235.732	10668.25
235.804	10881.1
235.876	10939.88
235.948	11009.08
236.02	11027.1
236.092	11053.21
236.164	11069.4
236.236	11068.58
236.308	11073.64
236.38	11102.41
236.452	11079.18
236.524	11101.59
236.596	11172.35
236.668	11210.47
236.74	11237.5
236.812	11264.78
236.884	11304.3
236.956	11323.43
237.028	11313.31
237.1	11296.21
237.172	11368.31
237.244	11452.07
237.316	11323.12
237.388	11307.85
237.46	11287.41
237.532	11355.85
237.604	11347.37
237.675	11424.34
237.747	11481.11
237.819	11466.42
237.891	11477.89
237.963	11468.63
238.035	11465.55
238.107	11349
238.178	11420.68
238.25	11433.74
238.322	11536.27
238.394	11487.44
238.466	11489.23
238.538	11541.42
238.609	11593.32
238.681	11539.09
238.753	11511.52
238.825	11533.5
238.897	11562.8
238.968	11655.64
239.04	11640.41
239.112	11760.27
239.184	11718.15
239.255	11710.48
239.327	11752.46
239.399	11776.46
239.471	11831.11
239.542	11871.84
239.614	11947.8
239.686	11857.32
239.758	11915.16
239.829	11880.79
239.901	11951.88
239.973	11980.85
240.044	12018.01
240.116	12025.34
240.188	12040.13
240.259	12063.46
240.331	12059.03
240.403	12100.14
240.474	12042.29
240.546	12035.59
240.618	11977.66
240.689	11978.04
240.761	12007.54
240.833	12081.05
240.904	12082.83
240.976	12086.26
241.048	12105.25
241.119	12142.51
241.191	12198.9
241.262	12279.55
241.334	12281.29
241.405	12297.72
241.477	12296.47
241.549	12310.11
241.62	12352.53
241.692	12404.98
241.763	12475.93
241.835	12495.7
241.906	12522.02
241.978	12490.78
242.049	12563.62
242.121	12629.17
242.192	12717.77
242.264	12682.49
242.335	12633.75
242.407	12688.27
242.478	12694.25
242.55	12718.35
242.621	12705.05
242.693	12704.47
242.764	12689.86
242.836	12700.18
242.907	12727.03
242.979	12763.71
243.05	12795.24
243.122	12823
243.193	12827.01
243.264	12750.12
243.336	12760.53
243.407	12796.69
243.479	12893.38
243.55	12908.23
243.622	12925.01
243.693	12920.09
243.764	13004.74
243.836	12988.3
243.907	12977.84
243.978	12983.91
244.05	13012.02
244.121	12969.6
244.192	13020.99
244.264	12972.25
244.335	12985.36
244.407	12935.42
244.478	12960.63
244.549	12952.82
244.62	12895.31
244.692	12898.79
244.763	12951.09
244.834	12936.38
244.906	12921.63
244.977	12947.52
245.048	13007.97
245.119	12984.16
245.191	12955.62
245.262	12878.78
245.333	12967.62
245.405	12988.59
245.476	13027.68
245.547	13061.33
245.618	13126.26
245.689	13142.41
245.761	13183.39
245.832	13196.65
245.903	13254.25
245.974	13281.49
246.045	13301.69
246.117	13401.81
246.188	13386.91
246.259	13368.02
246.33	13395.49
246.401	13409.33
246.473	13369.03
246.544	13355.77
246.615	13426.11
246.686	13445.53
246.757	13538.71
246.828	13516.97
246.899	13600.85
246.97	13570.14
247.042	13554.81
247.113	13604.85
247.184	13711.82
247.255	13712.3
247.326	13749.56
247.397	13754.96
247.468	13767.11
247.539	13778.2
247.61	13739
247.681	13793.62
247.752	13865.3
247.823	13838.5
247.894	13862.89
247.965	13837.15
248.037	13831.56
248.108	13771.69
248.179	13780.7
248.25	13768.84
248.321	13796.76
248.392	13746.14
248.463	13845.16
248.534	13847.95
248.605	13867.09
248.675	13833.78
248.746	13858.56
248.817	13867.43
248.888	13896.88
248.959	13842.56
249.03	13868.59
249.101	13881.51
249.172	13869.41
249.243	13787.6
249.314	13864.68
249.385	13873.02
249.456	13912.6
249.527	13903.34
249.598	13946.01
249.669	13945.53
249.739	13964.37
249.81	13984.72
249.881	13938.73
249.952	13927.69
250.023	13923.3
250.094	13865.21
250.165	13827.57
250.235	13821.54
250.306	13827.08
250.377	13784.81
250.448	13810.6
250.519	13749.09
250.59	13808.96
250.66	13804.04
250.731	13881.99
250.802	13877.75
250.873	13901.42
250.944	13921.09
251.014	13921.23
251.085	14012.53
251.156	14047.04
251.227	14107.54
251.297	14160.52
251.368	14224.1
251.439	14272.55
251.51	14340.13
251.58	14329.96
251.651	14334.01
251.722	14399.42
251.792	14350.88
251.863	14365.43
251.934	14439.43
252.005	14563.03
252.075	14571.99
252.146	14633.79
252.217	14689.42
252.287	14740.08
252.358	14748.09
252.429	14835.33
252.499	14831.43
252.57	14844.35
252.641	14889.32
252.711	14892.12
252.782	14843.33
252.852	14931.45
252.923	14928.31
252.994	14937.62
253.064	14997.78
253.135	14974.3
253.205	14945.04
253.276	15033.02
253.347	15101.85
253.417	15075.15
253.488	15057.22
253.558	15040.97
253.629	15037.98
253.699	15048.2
253.77	15079.82
253.841	15074.52
253.911	15079.87
253.982	15096.26
254.052	15121.85
254.123	15137.76
254.193	15148.36
254.264	15299.08
254.334	15252.43
254.405	15217.91
254.475	15190.82
254.546	15198.2
254.616	15268.48
254.687	15307.33
254.757	15332.73
254.827	15340.2
254.898	15369.42
254.968	15391.88
255.039	15377.51
255.109	15422.34
255.18	15395.78
255.25	15317.55
255.321	15355.77
255.391	15319.96
255.461	15417.47
255.532	15338.23
255.602	15328.21
255.673	15266.6
255.743	15228.29
255.813	15154.73
255.884	15210.79
255.954	15244.96
256.024	15319.43
256.095	15323.34
256.165	15276.48
256.235	15297.4
256.306	15277.78
256.376	15331.67
256.446	15360.3
256.517	15396.74
256.587	15436.17
256.657	15467.31
256.728	15500.19
256.798	15507.7
256.868	15500.33
256.938	15462.83
257.009	15516.53
257.079	15563.33
257.149	15670.82
257.219	15602.47
257.29	15651.3
257.36	15595.34
257.43	15636.89
257.5	15564.06
257.571	15560.06
257.641	15615.68
257.711	15578.42
257.781	15617.61
257.852	15641.37
257.922	15575.67
257.992	15584.98
258.062	15587.77
258.132	15630.96
258.202	15634.29
258.273	15648.99
258.343	15731.94
258.413	15722.1
258.483	15721.57
258.553	15686.48
258.623	15661.18
258.693	15704.8
258.764	15781.54
258.834	15845.17
258.904	15864.93
258.974	15858.27
259.044	15873.75
259.114	15903.24
259.184	15938.81
259.254	15950.67
259.324	15896.02
259.394	15947.45
259.464	16038.15
259.535	16045.91
259.605	16046.01
259.675	16045.33
259.745	16084.95
259.815	16067.75
259.885	16072.52
259.955	16198.64
260.025	16187.31
260.095	16197.87
260.165	16233.68
260.235	16305.34
260.305	16300.48
260.375	16271.99
260.445	16372.78
260.515	16440.49
260.585	16498.42
260.655	16514.04
260.725	16561.85
260.795	16599.83
260.865	16684.89
260.934	16648.94
261.004	16686.2
261.074	16686.87
261.144	16749.29
261.214	16789.53
261.284	16786.01
261.354	16834.41
261.424	16787.61
261.494	16872.97
261.564	16890.13
261.634	16923.24
261.703	16851.77
261.773	16882.13
261.843	16917.36
261.913	16908.83
261.983	16848.88
262.053	16866.85
262.123	16859.62
262.192	16813.45
262.262	16856.01
262.332	16798.42
262.402	16834.03
262.472	16836.1
262.541	16779.71
262.611	16832.19
262.681	16804.15
262.751	16850.99
262.821	16848.73
262.89	16820.1
262.96	16837.3
263.03	16919.52
263.1	16936.68
263.169	16949.35
263.239	16993.31
263.309	17074.51
263.379	17109.98
263.448	17133.36
263.518	17157.55
263.588	17176.78
263.657	17253.89
263.727	17294.61
263.797	17317.12
263.867	17324.25
263.936	17295.53
264.006	17361.66
264.076	17349.37
264.145	17350.62
264.215	17332.45
264.285	17384.21
264.354	17331.82
264.424	17321.7
264.494	17266.28
264.563	17256.02
264.633	17349.75
264.702	17368.65
264.772	17305.37
264.842	17301.27
264.911	17340.31
264.981	17291.35
265.05	17304.55
265.12	17300.36
265.19	17321.71
265.259	17370.19
265.329	17400.21
265.398	17426.63
265.468	17525.42
265.537	17519.01
265.607	17557.37
265.676	17611.06
265.746	17627.3
265.815	17696.41
265.885	17697.28
265.955	17679.06
266.024	17679.25
266.094	17608.17
266.163	17670.48
266.232	17728.16
266.302	17735.25
266.371	17769.32
266.441	17800.5
266.51	17848.02
266.58	17854.23
266.649	17832.55
266.719	17886.86
266.788	17922.18
266.858	17993.12
266.927	17921.36
266.996	17958.62
267.066	17989.75
267.135	17956.45
267.205	18010.03
267.274	18030.28
267.343	18104.15
267.413	18127.58
267.482	18189.26
267.552	18265.26
267.621	18215.67
267.69	18177.26
267.76	18208.83
267.829	18222.03
267.898	18236.3
267.968	18215.72
268.037	18256.54
268.106	18308.24
268.176	18265.31
268.245	18272.1
268.314	18263.28
268.384	18331.09
268.453	18349.4
268.522	18379.9
268.592	18453.73
268.661	18442.02
268.73	18483.32
268.799	18462.94
268.869	18556.28
268.938	18514.21
269.007	18493.25
269.076	18517.97
269.146	18582.3
269.215	18615.07
269.284	18701.67
269.353	18701.86
269.422	18723.07
269.492	18722.64
269.561	18633.05
269.63	18675.12
269.699	18670.78
269.768	18693.72
269.838	18708.85
269.907	18758.25
269.976	18725.28
270.045	18652.08
270.114	18683.07
270.183	18678.63
270.253	18711.93
270.322	18653
270.391	18678.49
270.46	18756.7
270.529	18805.81
270.598	18849.76
270.667	18853.81
270.736	18817.47
270.806	18853.13
270.875	18908.93
270.944	18919.44
271.013	19063.39
271.082	19103.33
271.151	19148.97
271.22	19114.47
271.289	19137.07
271.358	19151.24
271.427	19197.06
271.496	19242.94
271.565	19243.28
271.634	19273.54
271.703	19415.71
271.772	19489.45
271.841	19510.99
271.91	19477.69
271.979	19498.22
272.048	19465.78
272.117	19521.59
272.186	19517.73
272.255	19572.28
272.324	19619.66
272.393	19659.65
272.462	19643.51
272.531	19656.09
272.6	19659.61
272.669	19731.75
272.738	19736.42
272.807	19762.2
272.876	19739.79
272.945	19887.6
273.013	19941.43
273.082	20014.1
273.151	19911.93
273.22	19946.05
273.289	19968.99
273.358	20056.21
273.427	20071.63
273.496	20123.1
273.564	20159.15
273.633	20219.53
273.702	20202.62
273.771	20208.4
273.84	20240.11
273.909	20280.16
273.977	20322.47
274.046	20331.97
274.115	20394.52
274.184	20386.38
274.253	20407.25
274.322	20495.1
274.39	20416.16
274.459	20415.77
274.528	20359.68
274.597	20383.48
274.665	20412.35
274.734	20491.63
274.803	20493.12
274.872	20522.71
274.94	20519.53
275.009	20661.89
275.078	20668.4
275.147	20700.4
275.215	20736.16
275.284	20804.02
275.353	20816.26
275.421	20776.31
275.49	20887.55
275.559	20900.56
275.627	20933.53
275.696	20953.34
275.765	20992.76
275.833	21023.31
275.902	21074.4
275.971	21162.6
276.039	21257.69
276.108	21321.41
276.177	21361.47
276.245	21379.88
276.314	21399.59
276.383	21469.72
276.451	21382.59
276.52	21438.41
276.588	21536.74
276.657	21597.28
276.725	21600.75
276.794	21643.31
276.863	21739.13
276.931	21692.66
277	21753.02
277.068	21827
277.137	21937.54
277.205	21975.86
277.274	22088.65
277.342	22166.36
277.411	22141.54
277.48	22135.42
277.548	22138.89
277.617	22172.4
277.685	22198.91
277.754	22263.6
277.822	22290.98
277.89	22385.68
277.959	22401.78
278.027	22376.37
278.096	22379.79
278.164	22534.39
278.233	22559.03
278.301	22556.47
278.37	22626.66
278.438	22626.62
278.507	22696.62
278.575	22650.71
278.643	22675.25
278.712	22655.44
278.78	22644.2
278.849	22731.16
278.917	22823.94
278.985	22852.53
279.054	22906.34
279.122	22988.69
279.191	23032.38
279.259	23055.42
279.327	23024.9
279.396	23127.42
279.464	23162.17
279.532	23235.38
279.601	23257.28
279.669	23296.05
279.737	23389.06
279.806	23446.89
279.874	23517.44
279.942	23543.43
280.011	23575.4
280.079	23658.73
280.147	23755.42
280.215	23821.2
280.284	23856.07
280.352	23841.98
280.42	23905.16
280.488	23923.39
280.557	23947.46
280.625	23996.56
280.693	24047.73
280.761	24105.85
280.83	24083.66
280.898	24174.23
280.966	24148.14
281.034	24072.64
281.102	24062.75
281.171	24085.19
281.239	24156.45
281.307	24178.06
281.375	24186.41
281.443	24318.88
281.512	24332.48
281.58	24410.71
281.648	24406.08
281.716	24444.42
281.784	24493.43
281.852	24516.49
281.92	24550.5
281.989	24624.57
282.057	24608.84
282.125	24817.16
282.193	24855.61
282.261	24907.23
282.329	24924.7
282.397	24990.2
282.465	25055.91
282.533	25161.16
282.601	25177.52
282.67	25138.43
282.738	25157.97
282.806	25250.03
282.874	25243.42
282.942	25305.24
283.01	25321.8
283.078	25397.61
283.146	25431.57
283.214	25510.97
283.282	25575.64
283.35	25674.31
283.418	25699.8
283.486	25763.2
283.554	25645.45
283.622	25684.59
283.69	25722.24
283.758	25764.32
283.826	25829.33
283.894	25913.19
283.962	26028.11
284.03	26118.19
284.098	26173.16
284.165	26205.59
284.233	26246.92
284.301	26281.05
284.369	26290.12
284.437	26299.01
284.505	26315.57
284.573	26419.75
284.641	26430.33
284.709	26504.41
284.777	26474.18
284.845	26542.48
284.912	26607.85
284.98	26679.85
285.048	26722.92
285.116	26797.96
285.184	26890.01
285.252	26934.06
285.319	26914.88
285.387	26924.55
285.455	26921.8
285.523	26999.36
285.591	27036.29
285.659	27080.97
285.726	27173.96
285.794	27176.9
285.862	27211.53
285.93	27261.76
285.997	27283.26
286.065	27301.99
286.133	27315.43
286.201	27375.46
286.269	27374.5
286.336	27387.1
286.404	27406.18
286.472	27477.17
286.539	27437.8
286.607	27422.44
286.675	27478.05
286.743	27550.75
286.81	27572.5
286.878	27662.62
286.946	27673.63
287.013	27719.47
287.081	27770.5
287.149	27750.93
287.216	27872.06
287.284	27908.59
287.352	27961.69
287.419	27992.96
287.487	28099.48
287.555	28163.53
287.622	28187.83
287.69	28260.87
287.758	28360.01
287.825	28383.15
287.893	28382.52
287.96	28461.94
288.028	28556.01
288.096	28597.35
288.163	28658.6
288.231	28675.18
288.298	28711.4
288.366	28808.19
288.433	28849.84
288.501	28864.93
288.569	28932.22
288.636	28957.08
288.704	29053.89
288.771	29126.9
288.839	29150.78
288.906	29172.16
288.974	29243.24
289.041	29295.11
289.109	29295.74
289.176	29358.05
289.244	29418.68
289.311	29510.62
289.379	29594.18
289.446	29638.59
289.514	29684.25
289.581	29741.44
289.649	29801.84
289.716	29854.29
289.783	29862.46
289.851	29981.55
289.918	30026.19
289.986	30104.91
290.053	30172.99
290.121	30216.26
290.188	30266
290.255	30412.44
290.323	30445.39
290.39	30475.11
290.458	30543.27
290.525	30652.93
290.592	30682.55
290.66	30739.55
290.727	30768.88
290.794	30860.56
290.862	30912.79
290.929	30974.89
290.996	31008.97
291.064	31085.16
291.131	31189.03
291.198	31296.02
291.266	31323.42
291.333	31379.27
291.4	31442.66
291.468	31535.55
291.535	31562.96
291.602	31620.73
291.669	31632.35
291.737	31693.25
291.804	31731.56
291.871	31832.63
291.938	31896.76
292.006	32045.96
292.073	32140.87
292.14	32216.38
292.207	32234.69
292.275	32279.64
292.342	32350.17
292.409	32481.66
292.476	32606.98
292.543	32603.3
292.611	32649.91
292.678	32782.3
292.745	32919.79
292.812	32995.83
292.879	33037.95
292.946	33102.67
293.014	33197.13
293.081	33280.83
293.148	33370.61
293.215	33475.69
293.282	33510.87
293.349	33583.01
293.416	33557.6
293.484	33647.52
293.551	33736.08
293.618	33853
293.685	33996.76
293.752	34035.24
293.819	34080.1
293.886	34086.94
293.953	34165.08
294.02	34243.53
294.087	34296.45
294.154	34314.58
294.221	34424.99
294.288	34481.19
294.356	34604.36
294.423	34669.99
294.49	34698.06
294.557	34802.87
294.624	34820.58
294.691	34934.36
294.758	34995.14
294.825	35070.36
294.892	35097.14
294.959	35144
295.026	35205.85
295.093	35217.3
295.16	35269.09
295.226	35312.81
295.293	35438.82
295.36	35505.95
295.427	35606.16
295.494	35686.53
295.561	35779.24
295.628	35886.59
295.695	35986.02
295.762	36035.33
295.829	36112.01
295.896	36227.2
295.963	36294.04
296.03	36385.41
296.096	36455.74
296.163	36543.4
296.23	36661.45
296.297	36768.03
296.364	36819.66
296.431	36890.78
296.498	36930.72
296.564	37069.62
296.631	37145.78
296.698	37147.63
296.765	37278.8
296.832	37286.28
296.899	37307.25
296.965	37415.57
297.032	37405.18
297.099	37513.86
297.166	37595.43
297.233	37632.97
297.299	37651.8
297.366	37708.18
297.433	37767.22
297.5	37851.48
297.566	37907.91
297.633	37939.19
297.7	37994.11
297.767	38053.93
297.833	38131.68
297.9	38208.35
297.967	38209.27
298.033	38311.17
298.1	38483.42
298.167	38504.21
298.234	38588.37
298.3	38671.85
298.367	38707.31
298.434	38785.28
298.5	38802.58
298.567	38828.32
298.634	38895.25
298.7	39022.51
298.767	39081.82
298.834	39177.71
298.9	39209.29
298.967	39238.39
299.033	39333.13
299.1	39444.54
299.167	39552.48
299.233	39597.27
299.3	39697.79
299.366	39811.7
299.433	39899.47
299.5	39854.95
299.566	39911.7
299.633	40009.95
299.699	40096.35
299.766	40139.49
299.832	40205.54
299.899	40290.73
299.965	40403.8
300.032	40434.41
300.099	40495.84
300.165	40575.73
300.232	40630.26
300.298	40690.42
300.365	40785.76
300.431	40848.81
300.498	40870.34
300.564	40933.08
300.631	41027.13
300.697	41136.41
300.763	41175.82
300.83	41222.49
300.896	41324.26
300.963	41421.18
301.029	41482.92
301.096	41549.04
301.162	41646.25
301.229	41683.49
301.295	41698.46
301.361	41755.48
301.428	41822.99
301.494	41824.79
301.561	41892.85
301.627	41959.16
301.693	42017.59
301.76	42089.5
301.826	42105.16
301.892	42205.02
301.959	42292.79
302.025	42329.21
302.092	42347.83
302.158	42437.04
302.224	42491.02
302.291	42511.74
302.357	42553.21
302.423	42579.57
302.49	42594.01
302.556	42667.25
302.622	42725.02
302.688	42815.66
302.755	42913.38
302.821	43001.48
302.887	43094.25
302.954	43138.65
303.02	43202.9
303.086	43273.95
303.152	43316.95
303.219	43365.04
303.285	43412.91
303.351	43479.75
303.417	43523.86
303.483	43542.54
303.55	43562.77
303.616	43611.66
303.682	43657.67
303.748	43677.8
303.815	43781.86
303.881	43874.87
303.947	43889.7
304.013	43943.8
304.079	43958.29
304.145	43935.09
304.212	43971.37
304.278	43984.6
304.344	44016.03
304.41	44013.94
304.476	44023.71
304.542	44051.98
304.608	44108.85
304.674	44099.51
304.741	44113.42
304.807	44177.21
304.873	44250.97
304.939	44368.82
305.005	44342.31
305.071	44391.05
305.137	44448.6
305.203	44412.05
305.269	44455.23
305.335	44543.07
305.401	44577.92
305.467	44620.34
305.533	44699.18
305.599	44782.35
305.666	44866.28
305.732	44906.67
305.798	45004.83
305.864	45149.32
305.93	45215.16
305.996	45261.59
306.062	45313.86
306.128	45357.91
306.194	45363.17
306.259	45396.26
306.325	45391.3
306.391	45481.92
306.457	45550.45
306.523	45601.21
306.589	45743.47
306.655	45749.02
306.721	45729.26
306.787	45727.51
306.853	45826.59
306.919	45799.72
306.985	45805.12
307.051	45826.35
307.117	45858.38
307.183	45877.27
307.248	45812.84
307.314	45861.98
307.38	45931.32
307.446	46003.04
307.512	46014.97
307.578	46065.02
307.644	46089.17
307.709	46137.82
307.775	46173.81
307.841	46194.45
307.907	46238.23
307.973	46194.19
308.039	46237.92
308.104	46308.29
308.17	46351.57
308.236	46342.21
308.302	46406.19
308.368	46415.83
308.433	46452.16
308.499	46486.44
308.565	46495.79
308.631	46559.83
308.696	46526.32
308.762	46502.94
308.828	46529.54
308.894	46508.12
308.959	46489.08
309.025	46506.76
309.091	46516.94
309.156	46527.07
309.222	46585.04
309.288	46588.02
309.354	46556.46
309.419	46588.76
309.485	46567.43
309.551	46622.03
309.616	46612.48
309.682	46634.3
309.748	46655.44
309.813	46689.59
309.879	46680.92
309.945	46685.25
310.01	46695.15
310.076	46750.82
310.141	46774.93
310.207	46753.35
310.273	46804.58
310.338	46862.09
310.404	46859.41
310.469	46865.99
310.535	46879.49
310.601	46841.1
310.666	46906.93
310.732	46997.19
310.797	46998.7
310.863	47008.44
310.928	47018.72
310.994	47061.45
311.059	47103.5
311.125	47130.3
311.191	47182.21
311.256	47201.65
311.322	47258.02
311.387	47230.15
311.453	47957.12
311.518	47994.06
311.584	48030.65
311.649	48076.6
311.715	48074.36
311.78	48107.93
311.846	48115.92
311.911	48173.39
311.976	48214.61
312.042	48183.41
312.107	48163.87
312.173	48170.6
312.238	48195.3
312.304	48228.88
312.369	48242.63
312.434	48226.25
312.5	48240.48
312.565	48166.69
312.631	48204.74
312.696	48196.89
312.761	48244.3
312.827	47547.3
312.892	47648.23
312.958	47689.62
313.023	47719.66
313.088	47754.16
313.154	47750.41
313.219	47765.56
313.284	47759.03
313.35	47782.91
313.415	47785.64
313.48	47802.55
313.546	47848.91
313.611	47924.48
313.676	47932.19
313.741	47937.21
313.807	48008.79
313.872	48061
313.937	48125.77
314.003	48204.82
314.068	48258.36
314.133	48310.24
314.198	48314.14
314.264	48263.53
314.329	48259.38
314.394	48288.36
314.459	48313.12
314.525	48405.03
314.59	48427.06
314.655	48416.14
314.72	48468.47
314.785	48517.37
314.851	48533.26
314.916	48513.9
314.981	48479.18
315.046	48473.62
315.111	48460.75
315.176	48454.16
315.242	48498.85
315.307	48526.99
315.372	48486.7
315.437	48484.4
315.502	48496.84
315.567	48574.45
315.632	48561.63
315.698	48592.41
315.763	48602.12
315.828	48605.48
315.893	48631.49
315.958	48648.66
316.023	48653.43
316.088	48603.25
316.153	48541.73
316.218	48526.57
316.283	48486.65
316.348	48438.64
316.413	48442.49
316.479	48406.93
316.544	48284.79
316.609	48153.3
316.674	48018.99
316.739	47898.4
316.804	47775.4
316.869	47627.88
316.934	47472.22
316.999	47338.67
317.064	47130.54
317.129	46946.82
317.194	46785.98
317.259	46574.67
317.324	46357.53
317.389	46159.29
317.454	45991.61
317.518	45847.26
317.583	45729.99
317.648	45597.36
317.713	45440.46
317.778	45195.91
317.843	45067.15
317.908	44886.63
317.973	44719.27
318.038	44582.73
318.103	44396.99
318.168	44231.66
318.233	44088.36
318.297	43857.67
318.362	43682.59
318.427	43504.95
318.492	43352.59
318.557	43126.38
318.622	42969.71
318.687	42824.04
318.751	42620.88
318.816	42430.12
318.881	42240.5
318.946	41960.83
319.011	41727.32
319.075	41503.27
319.14	41300.74
319.205	41056.03
319.27	40869.76
319.335	40616.91
319.399	40396.46
319.464	40202.2
319.529	39936.33
319.594	39687.38
319.658	39492.47
319.723	39243.98
319.788	39044.63
319.853	38767.73
319.917	38570.56
319.982	38278.69
320.047	38049.27
320.112	37872.41
320.176	37601.33
320.241	37372.29
320.306	37180.96
320.37	36940.23
320.435	36738.57
320.5	36535.53
320.564	36291.6
320.629	36034
320.694	35840.44
320.758	35584.11
320.823	35339.07
320.888	35135.41
320.952	34859.69
321.017	34605.8
321.082	34366.79
321.146	34143.14
321.211	33925.01
321.275	33684.98
321.34	33427.95
321.405	33164.79
321.469	32884.6
321.534	32637.26
321.598	32351.5
321.663	32134.7
321.727	31908.5
321.792	31619.81
321.857	31355.58
321.921	31109.88
321.986	30859.44
322.05	30542.19
322.115	30300.36
322.179	30032.93
322.244	29724.01
322.308	29498.82
322.373	29232.89
322.437	28979.32
322.502	28770.62
322.566	28495.23
322.631	28252.13
322.695	28006.91
322.76	27737.74
322.824	27500.95
322.889	27227.45
322.953	26956.79
323.018	26604.68
323.082	26263.81
323.146	25961.59
323.211	25652.3
323.275	25374.83
323.34	25096.35
323.404	24862.5
323.468	24575.66
323.533	24301.8
323.597	24028.97
323.662	23717.99
323.726	23472.34
323.79	23189
323.855	22826.19
323.919	22533.25
323.983	22245.33
324.048	21823.14
324.112	22014.53
324.177	21148.49
324.241	20006.89
324.305	18878.21
324.37	17769.45
324.434	16695.46
324.498	16403.3
324.562	16078.58
324.627	15699.15
324.691	15325.47
324.755	14896.23
324.82	14422.57
324.884	13923.26
324.948	13412.21
325.012	12810.93
325.077	12040.15
