Data from 20250701_urea_2M_exp3_MAYP1162681_05-39-48-876.txt Node
Date: Wed Jul 02 05:39:48 BST 2025
User: adleo
Spectrometer: MAYP116268
Trigger mode: 0
Integration Time (sec): 4.000000E0
Scans to average: 1
Electric dark correction enabled: true
Nonlinearity correction enabled: true
Boxcar width: 10
XAxis mode: Wavelengths
Number of Pixels in Spectrum: 2068
>>>>>Begin Spectral Data<<<<<
179.565	3556.55
179.642	3747.33
179.718	3886.45
179.795	4019.8
179.871	4136.44
179.948	4197.61
180.024	4266.2
180.101	4345.01
180.177	4396.82
180.254	4476.48
180.33	4553.97
180.407	4810.99
180.483	5087.05
180.56	5369.82
180.636	5627.67
180.712	5594.09
180.789	5628.61
180.865	5667.72
180.942	5701.28
181.018	5742.51
181.095	5790.35
181.171	5812.17
181.248	5811.02
181.324	5865.73
181.4	5890.05
181.477	5922.92
181.553	5968.51
181.63	6032.61
181.706	6081.18
181.782	6102.66
181.859	6096.32
181.935	6108.32
182.011	6099.54
182.088	6152.47
182.164	6214.32
182.24	6263.3
182.317	6288.97
182.393	6281.87
182.469	6329.76
182.546	6370.42
182.622	6380.55
182.698	6364.22
182.775	6400.95
182.851	6448.23
182.927	6423.6
183.003	6408.96
183.08	6392.07
183.156	6421.83
183.232	6418.04
183.308	6382.33
183.385	6409.91
183.461	6468.87
183.537	6475.16
183.613	6514.77
183.69	6490.43
183.766	6459.1
183.842	6480.47
183.918	6498.53
183.995	6541.54
184.071	6553.31
184.147	6538.9
184.223	6507.1
184.299	6551.14
184.375	6517.68
184.452	6540.84
184.528	6669.96
184.604	6705.29
184.68	6742.06
184.756	6765.36
184.832	6780.06
184.908	6797.14
184.985	6800.55
185.061	6748.74
185.137	6778.04
185.213	6742.46
185.289	6747.55
185.365	6724.7
185.441	6720.96
185.517	6762.52
185.593	6748.5
185.669	6739.23
185.745	6772.51
185.822	6826.17
185.898	6796.67
185.974	6825.86
186.05	6798.09
186.126	6718.19
186.202	6694.86
186.278	6683.33
186.354	6645.67
186.43	6663.6
186.506	6660.05
186.582	6652.89
186.658	6672.52
186.734	6607.48
186.81	6615.11
186.886	6626.29
186.962	6665.43
187.038	6652.03
187.114	6628.38
187.19	6653.89
187.266	6626.18
187.341	6628.01
187.417	6606.5
187.493	6608.18
187.569	6615.77
187.645	6597.62
187.721	6562.41
187.797	6588.1
187.873	6602.12
187.949	6588.87
188.025	6566.29
188.101	6577.62
188.176	6598.84
188.252	6584.73
188.328	6608.29
188.404	6608.09
188.48	6589.76
188.556	6569.63
188.632	6564.25
188.707	6569.88
188.783	6561.28
188.859	6543.19
188.935	6502.17
189.011	6525.84
189.086	6506.16
189.162	6476.87
189.238	6469.43
189.314	6458.1
189.39	6434.86
189.465	6410.71
189.541	6465.89
189.617	6416.64
189.693	6393.08
189.768	6406.67
189.844	6488.87
189.92	6464.6
189.996	6496.19
190.071	6532.11
190.147	6525.49
190.223	6561.56
190.298	6534.61
190.374	6496.05
190.45	6532.67
190.526	6559.27
190.601	6545.97
190.677	6548.61
190.753	6638.71
190.828	6653.35
190.904	6705.13
190.98	6758.3
191.055	6794.28
191.131	6763.63
191.207	6839.35
191.282	6872.81
191.358	6834.49
191.433	6784.7
191.509	6827.93
191.585	6817.99
191.66	6818.47
191.736	6838.45
191.811	6811.07
191.887	6864.5
191.963	6938.29
192.038	6956.11
192.114	6957.5
192.189	6962.93
192.265	6951.46
192.34	6880.89
192.416	6872.78
192.491	6860.53
192.567	6869.13
192.642	6877.35
192.718	6879.94
192.793	6836.8
192.869	6821.58
192.944	6836.32
193.02	6865.49
193.095	6878.74
193.171	6896.23
193.246	6896.61
193.322	6895.7
193.397	6893.21
193.473	6843.56
193.548	6787.06
193.624	6804.98
193.699	6801.76
193.775	6857.46
193.85	6867.59
193.925	6898.38
194.001	6900.3
194.076	6872.54
194.152	6837.56
194.227	6811.8
194.302	6776.76
194.378	6786.51
194.453	6781.13
194.529	6822.74
194.604	6771.77
194.679	6754.96
194.755	6690.58
194.83	6732.74
194.905	6719.34
194.981	6745.85
195.056	6724.82
195.131	6741.1
195.207	6742.11
195.282	6713.4
195.357	6650.4
195.433	6698.04
195.508	6660.62
195.583	6682.61
195.659	6730.71
195.734	6753.91
195.809	6749.74
195.884	6781.51
195.96	6785.5
196.035	6832.08
196.11	6814.4
196.185	6853.35
196.261	6862.43
196.336	6965.46
196.411	6912.98
196.486	6933.68
196.561	6911.77
196.637	6940.1
196.712	6994.51
196.787	7001.82
196.862	7046.82
196.937	7083.04
197.013	7098.04
197.088	7129.84
197.163	7203.3
197.238	7261.89
197.313	7263.14
197.388	7307.88
197.464	7408.47
197.539	7444.85
197.614	7426.73
197.689	7469.85
197.764	7526.16
197.839	7594.71
197.914	7572.4
197.989	7650.81
198.065	7693.59
198.14	7861.26
198.215	7946.27
198.29	7980.39
198.365	8018.82
198.44	8059.83
198.515	8147.33
198.59	8198.13
198.665	8288.76
198.74	8312.29
198.815	8317.15
198.89	8387.77
198.965	8482.05
199.04	8466.31
199.115	8519.56
199.19	8655.23
199.265	8662.39
199.34	8694.98
199.415	8806.83
199.49	8882.75
199.565	8909.22
199.64	8993.21
199.715	8985.98
199.79	9010.24
199.865	9033.11
199.94	9031.18
200.015	9132.09
200.09	9150.73
200.165	9175.52
200.24	9192.18
200.315	9319.35
200.39	9361.96
200.464	9380.79
200.539	9389.36
200.614	9445.44
200.689	9521.62
200.764	9550.33
200.839	9613.24
200.914	9628.02
200.989	9587.85
201.063	9628.88
201.138	9575.42
201.213	9572.34
201.288	9507.19
201.363	9527.89
201.438	9528.33
201.512	9581.37
201.587	9526.76
201.662	9534.8
201.737	9570.63
201.812	9599.67
201.886	9495.99
201.961	9530.29
202.036	9491.49
202.111	9483.98
202.186	9389.71
202.26	9328.45
202.335	9248.94
202.41	9221.65
202.485	9163.94
202.559	9097.98
202.634	9008.88
202.709	9038.03
202.784	8975.79
202.858	8973.29
202.933	8901.57
203.008	8881.45
203.082	8812.29
203.157	8803.81
203.232	8664.55
203.306	8594.26
203.381	8486.53
203.456	8410.74
203.53	8332.34
203.605	8268.14
203.68	8187.91
203.754	8164.4
203.829	8116.62
203.904	8054.76
203.978	8013.91
204.053	8026.57
204.127	7985.93
204.202	7988.33
204.277	7934.18
204.351	7910.9
204.426	7886.22
204.5	7862.41
204.575	7744.93
204.65	7782.21
204.724	7762.82
204.799	7790.83
204.873	7776.35
204.948	7767.74
205.022	7726.26
205.097	7700.13
205.171	7741.71
205.246	7766.63
205.32	7759.62
205.395	7758.13
205.469	7728.92
205.544	7750.81
205.618	7692.38
205.693	7731.24
205.767	7682.49
205.842	7753.1
205.916	7733.34
205.991	7702.71
206.065	7726.41
206.14	7781.56
206.214	7762.31
206.289	7734.46
206.363	7773.41
206.438	7788.13
206.512	7815.59
206.586	7873.9
206.661	7904.65
206.735	7835.07
206.81	7838.44
206.884	7893.24
206.958	7853.73
207.033	7908.37
207.107	7933.01
207.181	8035
207.256	8013.12
207.33	8075.25
207.405	8115.88
207.479	8179.57
207.553	8204.52
207.628	8144.24
207.702	8180.36
207.776	8158.18
207.851	8165.97
207.925	8220.12
207.999	8202.13
208.073	8198.71
208.148	8211.89
208.222	8167
208.296	8276.28
208.371	8322.59
208.445	8358.1
208.519	8448.58
208.593	8485.82
208.668	8472.68
208.742	8487.46
208.816	8496.84
208.89	8542.81
208.965	8534.05
209.039	8556.14
209.113	8612.01
209.187	8680.09
209.261	8662.05
209.336	8728.6
209.41	8802.58
209.484	8795.6
209.558	8866.98
209.632	8910.73
209.707	8948.32
209.781	9015.26
209.855	9063.12
209.929	9120.74
210.003	9138.79
210.077	9139.85
210.151	9301.86
210.226	9417.46
210.3	9507.46
210.374	9582.6
210.448	9598.87
210.522	9634.37
210.596	9676.85
210.67	9709.35
210.744	9869.06
210.818	9981.47
210.892	10054.69
210.966	10033.06
211.041	10091.1
211.115	10086.24
211.189	10153.67
211.263	10207.99
211.337	10240.02
211.411	10288.54
211.485	10268.97
211.559	10307.79
211.633	10309.96
211.707	10204.76
211.781	10222.74
211.855	10098.26
211.929	10070.09
212.003	10002.07
212.077	10026.6
212.151	10054.83
212.225	10081.32
212.299	10046.48
212.373	10001.93
212.447	9980.34
212.52	10072.21
212.594	10075.97
212.668	10105.39
212.742	10059.44
212.816	10040.07
212.89	10014.84
212.964	10001.92
213.038	10009.15
213.112	10039.7
213.186	10086.02
213.26	10008.42
213.333	9852.28
213.407	9860.75
213.481	9863.83
213.555	9896.61
213.629	9852.72
213.703	9793.33
213.777	9778.49
213.85	9697.61
213.924	9799.46
213.998	9789.05
214.072	9753.06
214.146	9697.62
214.219	9679.94
214.293	9658.22
214.367	9652.35
214.441	9672.24
214.515	9622.96
214.588	9534.16
214.662	9410.94
214.736	9328.9
214.81	9337.66
214.883	9359.93
214.957	9320.57
215.031	9260.95
215.105	9172.92
215.178	9115.15
215.252	9075.24
215.326	8973.14
215.4	8895.82
215.473	8723.34
215.547	8635.47
215.621	8568.72
215.694	8562.65
215.768	8471.02
215.842	8407.5
215.915	8335.77
215.989	8221.13
216.063	8162.94
216.136	8140.51
216.21	8113.63
216.284	8122.24
216.357	8099.87
216.431	8052.49
216.504	8045.61
216.578	8099.64
216.652	8111.18
216.725	8081.4
216.799	8087.27
216.873	8077.51
216.946	8084.43
217.02	8041.22
217.093	8012.84
217.167	7916.42
217.24	7840.69
217.314	7801.51
217.387	7755.33
217.461	7711.18
217.535	7735.52
217.608	7674.74
217.682	7643.29
217.755	7659.16
217.829	7607.31
217.902	7592.31
217.976	7571.64
218.049	7527.88
218.123	7456.16
218.196	7455.44
218.27	7420.58
218.343	7350.6
218.417	7342.67
218.49	7314.74
218.563	7360.21
218.637	7360.5
218.71	7435.99
218.784	7459.21
218.857	7493.38
218.931	7510.34
219.004	7519.57
219.077	7538.09
219.151	7559.91
219.224	7555.44
219.298	7548.61
219.371	7588.91
219.444	7545.33
219.518	7556
219.591	7567.29
219.665	7666.23
219.738	7678.68
219.811	7661.81
219.885	7704.03
219.958	7735.96
220.031	7742.4
220.105	7761.59
220.178	7772.89
220.251	7743.5
220.325	7765.15
220.398	7780.44
220.471	7810.73
220.544	7844.58
220.618	7815.19
220.691	7842.12
220.764	7860.97
220.838	7889.92
220.911	7877.47
220.984	7964.05
221.057	8000.46
221.131	8028.4
221.204	7935.14
221.277	8003.31
221.35	8122.08
221.424	8116.11
221.497	8124.63
221.57	8147.85
221.643	8176.34
221.716	8225.13
221.79	8228.59
221.863	8238.79
221.936	8243.7
222.009	8255.1
222.082	8280.51
222.155	8293.25
222.229	8356.2
222.302	8391.71
222.375	8396.81
222.448	8436.7
222.521	8440.84
222.594	8439.87
222.667	8408.86
222.74	8460.86
222.814	8453.54
222.887	8439.87
222.96	8496.8
223.033	8541.85
223.106	8568.26
223.179	8600.85
223.252	8607.16
223.325	8640.46
223.398	8652.58
223.471	8682.66
223.544	8707.24
223.617	8719.76
223.69	8743.09
223.763	8701.98
223.837	8721.14
223.91	8745.64
223.983	8695.36
224.056	8668.37
224.129	8693.97
224.202	8749.23
224.275	8739.75
224.348	8714.1
224.42	8678.72
224.493	8620.11
224.566	8593.97
224.639	8607.54
224.712	8580.48
224.785	8571.48
224.858	8563.73
224.931	8546.93
225.004	8508.34
225.077	8499.54
225.15	8414.97
225.223	8417.09
225.296	8502.12
225.369	8441.5
225.442	8412.24
225.514	8433.88
225.587	8448.75
225.66	8454.38
225.733	8457.27
225.806	8467.03
225.879	8452.79
225.952	8423.45
226.025	8468.25
226.097	8520.11
226.17	8518.86
226.243	8451.41
226.316	8449.05
226.389	8452.42
226.461	8472.59
226.534	8495.05
226.607	8486.73
226.68	8569.37
226.753	8561.63
226.825	8476.78
226.898	8533.41
226.971	8536.3
227.044	8551.26
227.117	8558.43
227.189	8574.56
227.262	8609.89
227.335	8628.96
227.407	8627.66
227.48	8657.43
227.553	8674.28
227.626	8649.33
227.698	8653.57
227.771	8697.43
227.844	8675.54
227.916	8690.36
227.989	8657.39
228.062	8656.91
228.134	8745.01
228.207	8743.81
228.28	8741.69
228.352	8754.59
228.425	8766.53
228.498	8815.53
228.57	8796.04
228.643	8857.67
228.716	8855.02
228.788	8839.9
228.861	8832.3
228.934	8891.88
229.006	8901.41
229.079	8897.12
229.151	8886.09
229.224	8853.47
229.296	8877.15
229.369	8978.61
229.442	9028.16
229.514	9006.95
229.587	9046.51
229.659	8965.92
229.732	8977.81
229.804	9013.62
229.877	9097.47
229.949	9129.64
230.022	9180.94
230.094	9182.48
230.167	9166.53
230.239	9127.55
230.312	9120.86
230.384	9194.54
230.457	9186.65
230.529	9196.9
230.602	9210.09
230.674	9218.95
230.747	9259.56
230.819	9288.64
230.892	9174.34
230.964	9170.48
231.037	9197.18
231.109	9187.75
231.181	9229.77
231.254	9194.58
231.326	9179.94
231.399	9145.88
231.471	9115.55
231.544	9029.73
231.616	9075.16
231.688	9083.92
231.761	9069.92
231.833	9051.59
231.905	8962.16
231.978	8967.55
232.05	8950.28
232.122	8946.47
232.195	8924.42
232.267	8959.38
232.339	8934.29
232.412	8997.3
232.484	8972.35
232.556	8954.26
232.629	9022.36
232.701	9042.2
232.773	9050.09
232.846	9045.81
232.918	9060.31
232.99	9079.52
233.062	9122.52
233.135	9140.09
233.207	9098.78
233.279	9146.95
233.351	9186.71
233.424	9194.32
233.496	9174.29
233.568	9256.91
233.64	9215.76
233.713	9231.74
233.785	9224.76
233.857	9241.66
233.929	9190.63
234.001	9258.12
234.074	9316.54
234.146	9247.14
234.218	9241.99
234.29	9248.05
234.362	9235.59
234.434	9189.31
234.507	9152.96
234.579	9101.54
234.651	9072.6
234.723	9107.61
234.795	9118.1
234.867	9110.64
234.939	9168.76
235.012	9182.52
235.084	9188.16
235.156	9225.56
235.228	9209.87
235.3	9196
235.372	9205.3
235.444	9263.11
235.516	9181.57
235.588	9195.1
235.66	9214.74
235.732	9189.56
235.804	9382.48
235.876	9422.24
235.948	9481.24
236.02	9492.55
236.092	9506.13
236.164	9522.88
236.236	9512.96
236.308	9515.95
236.38	9542.24
236.452	9520.03
236.524	9542.43
236.596	9602.13
236.668	9638.25
236.74	9662.76
236.812	9692.27
236.884	9723.34
236.956	9739.53
237.028	9735.67
237.1	9716.41
237.172	9778.51
237.244	9861.4
237.316	9746.06
237.388	9731.33
237.46	9712.2
237.532	9769.56
237.604	9766
237.675	9843.41
237.747	9896.64
237.819	9884.84
237.891	9887.2
237.963	9878.53
238.035	9875.06
238.107	9773.26
238.178	9832.77
238.25	9837.3
238.322	9924.89
238.394	9878.85
238.466	9879.52
238.538	9923.44
238.609	9965.29
238.681	9911.77
238.753	9883.63
238.825	9899.63
238.897	9931.79
238.968	10006.34
239.04	9997.52
239.112	10104.69
239.184	10062.39
239.255	10060.65
239.327	10091.71
239.399	10120.28
239.471	10166.71
239.542	10196.33
239.614	10260.11
239.686	10183.41
239.758	10238.47
239.829	10213.12
239.901	10283.49
239.973	10293.51
240.044	10326.22
240.116	10334.84
240.188	10352.28
240.259	10370.06
240.331	10366.68
240.403	10401.99
240.474	10350.05
240.546	10333.91
240.618	10280
240.689	10279.37
240.761	10299.17
240.833	10371.49
240.904	10364.6
240.976	10361.04
241.048	10381.37
241.119	10411.73
241.191	10453.21
241.262	10520.15
241.334	10510.94
241.405	10513.21
241.477	10517.93
241.549	10527.18
241.62	10551.13
241.692	10597.81
241.763	10655.88
241.835	10671.11
241.906	10687.59
241.978	10666.25
242.049	10733.99
242.121	10789.78
242.192	10851.21
242.264	10815.61
242.335	10771.47
242.407	10814.74
242.478	10821.96
242.55	10845.77
242.621	10828.85
242.693	10831.36
242.764	10814.34
242.836	10827.79
242.907	10854.44
242.979	10881.85
243.05	10898.72
243.122	10921.08
243.193	10913.47
243.264	10843.54
243.336	10843.3
243.407	10877.04
243.479	10956.74
243.55	10974.71
243.622	10989.37
243.693	10992.02
243.764	11059.33
243.836	11034.91
243.907	11028.79
243.978	11032.64
244.05	11051.05
244.121	11008.89
244.192	11051.35
244.264	11008.65
244.335	11015.93
244.407	10969.28
244.478	10990.58
244.549	10989.67
244.62	10947.12
244.692	10956.51
244.763	11000.55
244.834	10992.41
244.906	10966.34
244.977	10987.4
245.048	11033.58
245.119	11014.21
245.191	10988.95
245.262	10929.3
245.333	11000.32
245.405	11019.35
245.476	11052.12
245.547	11068.46
245.618	11126.81
245.689	11132.84
245.761	11169.27
245.832	11175.39
245.903	11221.31
245.974	11245.22
246.045	11254.37
246.117	11340.2
246.188	11316.83
246.259	11296.64
246.33	11314.91
246.401	11329.41
246.473	11293.22
246.544	11276.34
246.615	11330.32
246.686	11334.81
246.757	11410.22
246.828	11389.21
246.899	11453.22
246.97	11420.74
247.042	11409.95
247.113	11447.11
247.184	11525.49
247.255	11515.75
247.326	11541.73
247.397	11546.26
247.468	11552.48
247.539	11565.78
247.61	11528.86
247.681	11573.29
247.752	11628.67
247.823	11608.72
247.894	11620.43
247.965	11590.31
248.037	11578.06
248.108	11528.81
248.179	11542.69
248.25	11532.85
248.321	11569.96
248.392	11525.62
248.463	11608.27
248.534	11604.22
248.605	11631.31
248.675	11610.2
248.746	11636.61
248.817	11657.67
248.888	11677.34
248.959	11627.94
249.03	11657.58
249.101	11658.45
249.172	11650.54
249.243	11576.52
249.314	11641.39
249.385	11657.3
249.456	11684.62
249.527	11680.48
249.598	11706.6
249.669	11705.97
249.739	11715.56
249.81	11722.51
249.881	11678.5
249.952	11671.27
250.023	11671.8
250.094	11613.09
250.165	11585.47
250.235	11580.89
250.306	11574.29
250.377	11546.82
250.448	11574.19
250.519	11506.43
250.59	11566.63
250.66	11566.34
250.731	11634.15
250.802	11631.16
250.873	11648.27
250.944	11677.57
251.014	11668.94
251.085	11752.43
251.156	11773.74
251.227	11822.61
251.297	11872.26
251.368	11926.05
251.439	11962.88
251.51	12012.33
251.58	11994.93
251.651	11988.43
251.722	12032.53
251.792	11982.94
251.863	11988.33
251.934	12048.87
252.005	12160.84
252.075	12170.24
252.146	12212.56
252.217	12265.05
252.287	12303.42
252.358	12305.98
252.429	12371.92
252.499	12368.6
252.57	12373.46
252.641	12419.4
252.711	12426.63
252.782	12387.35
252.852	12463.32
252.923	12467.56
252.994	12485.35
253.064	12537.69
253.135	12518.65
253.205	12495.8
253.276	12575.19
253.347	12641.13
253.417	12618.33
253.488	12597.21
253.558	12572.53
253.629	12569.45
253.699	12583.52
253.77	12612.16
253.841	12607.77
253.911	12617.99
253.982	12634.38
254.052	12668.12
254.123	12675.98
254.193	12680.32
254.264	12807.73
254.334	12776.97
254.405	12742.75
254.475	12709.34
254.546	12716.23
254.616	12780.73
254.687	12815
254.757	12834.77
254.827	12830.28
254.898	12852.12
254.968	12860.94
255.039	12847.98
255.109	12881.33
255.18	12850.82
255.25	12778.99
255.321	12814.62
255.391	12773.45
255.461	12862.19
255.532	12784.48
255.602	12785.98
255.673	12732.76
255.743	12701.96
255.813	12625.32
255.884	12668.22
255.954	12700.71
256.024	12770.9
256.095	12776.73
256.165	12742.12
256.235	12762.8
256.306	12747.04
256.376	12797.17
256.446	12835.74
256.517	12870.73
256.587	12911.47
256.657	12938.03
256.728	12963.34
256.798	12969.6
256.868	12965.5
256.938	12931.28
257.009	12973.17
257.079	12998
257.149	13094.94
257.219	13023.45
257.29	13068.61
257.36	13015.34
257.43	13056.85
257.5	12977.98
257.571	12963.62
257.641	12996.69
257.711	12964.15
257.781	12994.81
257.852	13007
257.922	12950.55
257.992	12960.15
258.062	12958.07
258.132	12991.29
258.202	12988.3
258.273	12999.15
258.343	13079.51
258.413	13066.3
258.483	13073.62
258.553	13045.42
258.623	13020.07
258.693	13054.82
258.764	13117.54
258.834	13189.7
258.904	13200.45
258.974	13201.37
259.044	13217.18
259.114	13244.51
259.184	13274.88
259.254	13285.92
259.324	13230.73
259.394	13277.63
259.464	13353.75
259.535	13363.87
259.605	13356.4
259.675	13357.75
259.745	13392.36
259.815	13361.46
259.885	13364.69
259.955	13468.72
260.025	13460.91
260.095	13470.35
260.165	13500.15
260.235	13561.46
260.305	13544.78
260.375	13515.23
260.445	13604.99
260.515	13664.91
260.585	13717.51
260.655	13719.72
260.725	13763.88
260.795	13804.52
260.865	13867.14
260.934	13830.89
261.004	13854.56
261.074	13864.82
261.144	13919.78
261.214	13954.78
261.284	13952.13
261.354	14000.81
261.424	13958.3
261.494	14025.88
261.564	14033.36
261.634	14061.08
261.703	13990.5
261.773	14023.86
261.843	14065.56
261.913	14057.36
261.983	13999.42
262.053	14017.59
262.123	14020.2
262.192	13983.27
262.262	14018.36
262.332	13972.18
262.402	14005.83
262.472	14015.04
262.541	13958.49
262.611	14004
262.681	13980.43
262.751	14027.62
262.821	14018.03
262.89	13993.11
262.96	14024.97
263.03	14100.65
263.1	14120.94
263.169	14144.32
263.239	14169.15
263.309	14228.49
263.379	14260.5
263.448	14283.98
263.518	14303.16
263.588	14317.77
263.657	14385.5
263.727	14432.3
263.797	14443.73
263.867	14443.68
263.936	14406.7
264.006	14462.43
264.076	14457.75
264.145	14461.27
264.215	14441.99
264.285	14488.03
264.354	14443.58
264.424	14427.63
264.494	14381.98
264.563	14374.31
264.633	14450.09
264.702	14469.61
264.772	14413.07
264.842	14404.44
264.911	14438.33
264.981	14401.79
265.05	14413.84
265.12	14403.86
265.19	14415.14
265.259	14461.47
265.329	14495.74
265.398	14525.44
265.468	14623.53
265.537	14617.7
265.607	14646.77
265.676	14695.74
265.746	14714.44
265.815	14773.74
265.885	14781.45
265.955	14771.23
266.024	14764.53
266.094	14706.93
266.163	14763.28
266.232	14833.94
266.302	14851.73
266.371	14882.58
266.441	14901.14
266.51	14945.15
266.58	14949.1
266.649	14927.36
266.719	14979.9
266.788	15006.65
266.858	15074.52
266.927	15011.23
266.996	15042.33
267.066	15067.97
267.135	15038.08
267.205	15079.63
267.274	15100.46
267.343	15151.21
267.413	15165.24
267.482	15236.53
267.552	15297.37
267.621	15264.01
267.69	15220.53
267.76	15240.63
267.829	15263.34
267.898	15283.44
267.968	15269.55
268.037	15312.41
268.106	15359.74
268.176	15325.85
268.245	15337.09
268.314	15328.65
268.384	15378.35
268.453	15408.43
268.522	15439.8
268.592	15501.98
268.661	15496.25
268.73	15528.93
268.799	15522.52
268.869	15602.82
268.938	15557.95
269.007	15543.1
269.076	15562.19
269.146	15616.42
269.215	15640.66
269.284	15714.84
269.353	15719.22
269.422	15734.94
269.492	15729.93
269.561	15654.73
269.63	15693.39
269.699	15681.14
269.768	15705.1
269.838	15731.9
269.907	15766.84
269.976	15730.45
270.045	15678.15
270.114	15714.4
270.183	15720.13
270.253	15750.84
270.322	15709.34
270.391	15735.51
270.46	15811.95
270.529	15856.05
270.598	15898.37
270.667	15914.76
270.736	15877.94
270.806	15909.36
270.875	15963.3
270.944	15974.34
271.013	16103.27
271.082	16129.3
271.151	16170.89
271.22	16140.67
271.289	16157.3
271.358	16161.01
271.427	16206.22
271.496	16239.96
271.565	16230.66
271.634	16258.28
271.703	16385.46
271.772	16447.4
271.841	16456.51
271.91	16424.46
271.979	16449.95
272.048	16422.14
272.117	16466.53
272.186	16472.07
272.255	16521.62
272.324	16558.44
272.393	16597.09
272.462	16585.77
272.531	16606.44
272.6	16618.25
272.669	16691.37
272.738	16702.84
272.807	16732.09
272.876	16713.1
272.945	16842.99
273.013	16911.14
273.082	16961.89
273.151	16866.32
273.22	16896.25
273.289	16926.28
273.358	17001.61
273.427	16995.44
273.496	17046.14
273.564	17084.31
273.633	17139.49
273.702	17124.36
273.771	17141.75
273.84	17177.8
273.909	17216.94
273.977	17250.72
274.046	17265.85
274.115	17326.67
274.184	17326
274.253	17347.2
274.322	17426.34
274.39	17373.52
274.459	17358.97
274.528	17322.44
274.597	17348.12
274.665	17383.26
274.734	17456.65
274.803	17465.04
274.872	17499.16
274.94	17501.96
275.009	17705.52
275.078	17703.07
275.147	17748.7
275.215	17768.41
275.284	17830
275.353	17844.12
275.421	17821.86
275.49	17918.48
275.559	17916.22
275.627	17943.54
275.696	17967.06
275.765	18010
275.833	18029.9
275.902	18081.66
275.971	18164.02
276.039	18254.86
276.108	18314.47
276.177	18347.82
276.245	18355.77
276.314	18385.17
276.383	18450.03
276.451	18300
276.52	18356.39
276.588	18439.42
276.657	18506.11
276.725	18521.24
276.794	18558.35
276.863	18629.19
276.931	18597.77
277	18663.7
277.068	18731.02
277.137	18829.81
277.205	18859.11
277.274	18964.5
277.342	19028.26
277.411	19009.75
277.48	19013.27
277.548	19014.67
277.617	19061.41
277.685	19098.03
277.754	19165.31
277.822	19178.9
277.89	19269.4
277.959	19291.28
278.027	19266.94
278.096	19271.13
278.164	19399.71
278.233	19427.13
278.301	19437.69
278.37	19500.62
278.438	19499.85
278.507	19564.04
278.575	19524.19
278.643	19563.32
278.712	19545.29
278.78	19557.15
278.849	19635.02
278.917	19712.66
278.985	19748.13
279.054	19801.96
279.122	19888.08
279.191	19913.86
279.259	19944.41
279.327	19927.88
279.396	20017.76
279.464	20050.1
279.532	20123.68
279.601	20147.4
279.669	20172.94
279.737	20263.3
279.806	20310.87
279.874	20378.77
279.942	20403.64
280.011	20429.47
280.079	20489.56
280.147	20585.18
280.215	20645.18
280.284	20672.6
280.352	20660.46
280.42	20724.8
280.488	20734.77
280.557	20750.29
280.625	20805.52
280.693	20851.26
280.761	20885.14
280.83	20878.73
280.898	20959.21
280.966	20943.69
281.034	20875.69
281.102	20887.97
281.171	20912.75
281.239	20993.49
281.307	21015.99
281.375	21029.1
281.443	21162.81
281.512	21195.2
281.58	21260.47
281.648	21238.25
281.716	21282.15
281.784	21332.57
281.852	21355.46
281.92	21393.73
281.989	21467.77
282.057	21459.58
282.125	21654.75
282.193	21697.75
282.261	21736.21
282.329	21770.63
282.397	21813.14
282.465	21867.74
282.533	21957.1
282.601	21968.82
282.67	21934.44
282.738	21957.53
282.806	22034.56
282.874	22030.46
282.942	22086.05
283.01	22103.69
283.078	22176.72
283.146	22214.56
283.214	22292.8
283.282	22344.82
283.35	22429.38
283.418	22452.29
283.486	22512.93
283.554	22414.59
283.622	22463.91
283.69	22512.07
283.758	22535.16
283.826	22605.45
283.894	22683.93
283.962	22788.48
284.03	22879.17
284.098	22920.58
284.165	22957.99
284.233	23001.62
284.301	23028.24
284.369	23047.33
284.437	23063.1
284.505	23100.75
284.573	23196.42
284.641	23197.09
284.709	23265.38
284.777	23254.72
284.845	23323.59
284.912	23383.19
284.98	23442.12
285.048	23474.48
285.116	23545.03
285.184	23646.69
285.252	23697.57
285.319	23697.96
285.387	23710.02
285.455	23708.09
285.523	23785.68
285.591	23823.92
285.659	23887.1
285.726	23984.73
285.794	23987.1
285.862	24026.26
285.93	24072.84
285.997	24105.45
286.065	24140.95
286.133	24158.7
286.201	24200.61
286.269	24204.38
286.336	24218.6
286.404	24240.65
286.472	24314.27
286.539	24286.63
286.607	24272.59
286.675	24321.22
286.743	24397
286.81	24435.12
286.878	24518.82
286.946	24537.25
287.013	24576.31
287.081	24607.44
287.149	24588.96
287.216	24708.22
287.284	24745.51
287.352	24787.44
287.419	24823.05
287.487	24916.13
287.555	24976.45
287.622	25004.24
287.69	25068.42
287.758	25164.2
287.825	25204.73
287.893	25207.19
287.96	25277.43
288.028	25363.57
288.096	25416.42
288.163	25479.51
288.231	25482.45
288.298	25527.97
288.366	25622.38
288.433	25667.78
288.501	25689.98
288.569	25753.01
288.636	25764.4
288.704	25859.5
288.771	25927.85
288.839	25937.41
288.906	25960.82
288.974	26031.43
289.041	26076.5
289.109	26092.48
289.176	26158.45
289.244	26207.87
289.311	26298.49
289.379	26377.81
289.446	26431.03
289.514	26470.53
289.581	26505.88
289.649	26568.01
289.716	26612.05
289.783	26625.58
289.851	26735.42
289.918	26776.31
289.986	26858.37
290.053	26922.07
290.121	26958.06
290.188	27016.7
290.255	27163.44
290.323	27191.64
290.39	27228.27
290.458	27289.35
290.525	27379.49
290.592	27417.51
290.66	27481.8
290.727	27512.62
290.794	27604.47
290.862	27644.24
290.929	27703.62
290.996	27761.02
291.064	27830.49
291.131	27914.39
291.198	28007.94
291.266	28048.49
291.333	28112.88
291.4	28166.53
291.468	28262.15
291.535	28282.78
291.602	28340.01
291.669	28360.02
291.737	28427.52
291.804	28461.03
291.871	28568.32
291.938	28638.62
292.006	28766.26
292.073	28838.86
292.14	28913.94
292.207	28927.91
292.275	28976.74
292.342	29038.77
292.409	29148.27
292.476	29269.47
292.543	29282.05
292.611	29332.25
292.678	29431.35
292.745	29548.81
292.812	29631.68
292.879	29664.14
292.946	29735.79
293.014	29812.07
293.081	29883.53
293.148	29962.16
293.215	30055.05
293.282	30085.52
293.349	30152.25
293.416	30134.34
293.484	30225.11
293.551	30307.9
293.618	30415.8
293.685	30543.56
293.752	30572.98
293.819	30617.71
293.886	30615.04
293.953	30698.17
294.02	30773.97
294.087	30834.48
294.154	30857.95
294.221	30940.9
294.288	30991
294.356	31097.04
294.423	31164.39
294.49	31190.96
294.557	31285.36
294.624	31306.03
294.691	31417.92
294.758	31469.53
294.825	31540.9
294.892	31569.08
294.959	31615.86
295.026	31691.56
295.093	31710.94
295.16	31771.64
295.226	31807.43
295.293	31945
295.36	32006.26
295.427	32098.75
295.494	32170.45
295.561	32252.1
295.628	32369.85
295.695	32468.87
295.762	32534.18
295.829	32620.53
295.896	32715.91
295.963	32796.4
296.03	32876.23
296.096	32944.07
296.163	33037.27
296.23	33135.4
296.297	33235.17
296.364	33284.39
296.431	33341.4
296.498	33388.3
296.564	33525.1
296.631	33605.31
296.698	33616.6
296.765	33724.11
296.832	33728.91
296.899	33750.73
296.965	33857.04
297.032	33842.25
297.099	33956.36
297.166	34029.19
297.233	34060.46
297.299	34087.17
297.366	34131.59
297.433	34199.26
297.5	34271.91
297.566	34308.28
297.633	34357.37
297.7	34410.17
297.767	34465.97
297.833	34538.78
297.9	34605.3
297.967	34601.95
298.033	34688.68
298.1	34829.66
298.167	34863.03
298.234	34942.37
298.3	35035.01
298.367	35078.04
298.434	35166.3
298.5	35173.72
298.567	35204.72
298.634	35259.39
298.7	35372.06
298.767	35433.87
298.834	35527.9
298.9	35573.61
298.967	35616.1
299.033	35693.36
299.1	35791.13
299.167	35880.45
299.233	35913.06
299.3	35998.45
299.366	36097.96
299.433	36192.71
299.5	36153.54
299.566	36214.3
299.633	36306.41
299.699	36393.93
299.766	36431.73
299.832	36477.22
299.899	36565.66
299.965	36657.83
300.032	36691.51
300.099	36768.06
300.165	36850.3
300.232	36885.92
300.298	36918.88
300.365	37018.3
300.431	37079.91
300.498	37117.44
300.564	37189.04
300.631	37275.95
300.697	37375.48
300.763	37428.59
300.83	37473.37
300.896	37569.64
300.963	37645.81
301.029	37718.75
301.096	37775.14
301.162	37845.25
301.229	37888.8
301.295	37901.62
301.361	37958.83
301.428	38023.39
301.494	38006.64
301.561	38057.2
301.627	38117.61
301.693	38185.15
301.76	38227.64
301.826	38257.66
301.892	38337.07
301.959	38406.43
302.025	38453.93
302.092	38476.28
302.158	38557.04
302.224	38605.62
302.291	38637.24
302.357	38680.61
302.423	38690.47
302.49	38694.36
302.556	38782.48
302.622	38833.43
302.688	38913.92
302.755	39006.13
302.821	39075.68
302.887	39164.71
302.954	39200.95
303.02	39268.52
303.086	39341.82
303.152	39389.04
303.219	39421.3
303.285	39469.11
303.351	39540.54
303.417	39575.81
303.483	39595.14
303.55	39612.34
303.616	39657.73
303.682	39703.83
303.748	39716.46
303.815	39823.99
303.881	39912.71
303.947	39923.4
304.013	39971.89
304.079	39978.5
304.145	39954.5
304.212	40010.08
304.278	40032.48
304.344	40066.44
304.41	40078
304.476	40085.15
304.542	40118.29
304.608	40191.37
304.674	40191.85
304.741	40215.09
304.807	40275.2
304.873	40344.25
304.939	40430.61
305.005	40400.62
305.071	40429.39
305.137	40485.12
305.203	40443.28
305.269	40480.99
305.335	40550.79
305.401	40579.56
305.467	40609.34
305.533	40667.18
305.599	40728.8
305.666	40807.34
305.732	40842.96
305.798	40928.31
305.864	41064.95
305.93	41115.16
305.996	41145.1
306.062	41190.83
306.128	41219.22
306.194	41214.12
306.259	41252.66
306.325	41269.34
306.391	41363.63
306.457	41431.53
306.523	41489.76
306.589	41626.75
306.655	41638.22
306.721	41627.97
306.787	41639.39
306.853	41741.18
306.919	41737.58
306.985	41748.96
307.051	41766.9
307.117	41790.28
307.183	41803.26
307.248	41739.42
307.314	41793.77
307.38	41839.76
307.446	41900.87
307.512	41912.4
307.578	41974.81
307.644	41992.12
307.709	42039.58
307.775	42064.08
307.841	42098.31
307.907	42141.38
307.973	42089.16
308.039	42128.69
308.104	42203.32
308.17	42250.96
308.236	42237.88
308.302	42296.12
308.368	42315.08
308.433	42352.61
308.499	42385.28
308.565	42381.44
308.631	42436.38
308.696	42412.6
308.762	42415.96
308.828	42438.28
308.894	42420.15
308.959	42386.5
309.025	42410.72
309.091	42438.73
309.156	42455.89
309.222	42500.63
309.288	42491.69
309.354	42482.84
309.419	42515.23
309.485	42478.81
309.551	42526.9
309.616	42545.13
309.682	42573.24
309.748	42580.04
309.813	42605.53
309.879	42618.26
309.945	42633
310.01	42638.78
310.076	42683.91
310.141	42709.34
310.207	42711.14
310.273	42763.16
310.338	42811.93
310.404	42794.03
310.469	42788.63
310.535	42778.57
310.601	42739.52
310.666	42803.76
310.732	42868.34
310.797	42865.37
310.863	42886.04
310.928	42898.1
310.994	42922.46
311.059	42941.96
311.125	42975.13
311.191	43050.63
311.256	43058.02
311.322	43109.42
311.387	43098.43
311.453	44025
311.518	44047.38
311.584	44070.24
311.649	44113.91
311.715	44124.12
311.78	44169.83
311.846	44179.41
311.911	44236.76
311.976	44286.75
312.042	44267.59
312.107	44259.85
312.173	44287.38
312.238	44308.78
312.304	44334.66
312.369	44347.69
312.434	44348.28
312.5	44361.07
312.565	44276.28
312.631	44314.31
312.696	44322.14
312.761	44379.48
312.827	43494.78
312.892	43579.35
312.958	43614.13
313.023	43649.6
313.088	43689.33
313.154	43682.43
313.219	43678.2
313.284	43695.32
313.35	43713.07
313.415	43707.14
313.48	43736.23
313.546	43759.14
313.611	43820.43
313.676	43827.39
313.741	43835.75
313.807	43900.17
313.872	43939.71
313.937	44000.85
314.003	44073.34
314.068	44119.08
314.133	44155.71
314.198	44163.06
314.264	44126.36
314.329	44122.57
314.394	44143.44
314.459	44169.42
314.525	44256.74
314.59	44286.46
314.655	44277.8
314.72	44324.12
314.785	44384.64
314.851	44379.24
314.916	44352.63
314.981	44337.4
315.046	44323.83
315.111	44322.61
315.176	44320.38
315.242	44352.39
315.307	44365.04
315.372	44328.55
315.437	44328.3
315.502	44328.55
315.567	44385.38
315.632	44377.89
315.698	44411.81
315.763	44406.94
315.828	44394.68
315.893	44394.34
315.958	44394.34
316.023	44398.04
316.088	44362.17
316.153	44303.51
316.218	44300.83
316.283	44275.73
316.348	44239.45
316.413	44252.44
316.479	44211.97
316.544	44105.89
316.609	44021.68
316.674	43912.68
316.739	43804.96
316.804	43679.53
316.869	43559.78
316.934	43419.93
316.999	43302.09
317.064	43109.12
317.129	42958.15
317.194	42822.78
317.259	42652.95
317.324	42476.47
317.389	42293.7
317.454	42133.97
317.518	41997.6
317.583	41874.39
317.648	41753.63
317.713	41599.58
317.778	41355.84
317.843	41228.58
317.908	41061.98
317.973	40885.73
318.038	40746.98
318.103	40578.22
318.168	40443.99
318.233	40289.94
318.297	40080.03
318.362	39891.7
318.427	39720.6
318.492	39578.96
318.557	39376.06
318.622	39223.35
318.687	39083.46
318.751	38888.47
318.816	38719.28
318.881	38538.89
318.946	38304.93
319.011	38093.43
319.075	37885.79
319.14	37708.69
319.205	37486.92
319.27	37307.74
319.335	37093.12
319.399	36890.88
319.464	36716.1
319.529	36458.87
319.594	36237.4
319.658	36062.21
319.723	35868.89
319.788	35699.18
319.853	35448.11
319.917	35269.07
319.982	35013.69
320.047	34793.43
320.112	34631.85
320.176	34371.43
320.241	34161.79
320.306	33967.12
320.37	33739.09
320.435	33545.28
320.5	33376.25
320.564	33145.58
320.629	32911.8
320.694	32714.06
320.758	32485.24
320.823	32256.64
320.888	32077.59
320.952	31833.92
321.017	31590.88
321.082	31360.44
321.146	31145.02
321.211	30929.84
321.275	30686.13
321.34	30431.25
321.405	30200.93
321.469	29950.3
321.534	29726.76
321.598	29475.19
321.663	29277.81
321.727	29072.53
321.792	28805.41
321.857	28558.59
321.921	28357.12
321.986	28118.9
322.05	27831.66
322.115	27611.65
322.179	27364.45
322.244	27080.3
322.308	26879.67
322.373	26633.59
322.437	26396.63
322.502	26200.37
322.566	25945.41
322.631	25727.76
322.695	25512.97
322.76	25265.93
322.824	25045.82
322.889	24798.27
322.953	24541.29
323.018	24213.84
323.082	23897.67
323.146	23635.09
323.211	23349.56
323.275	23085.11
323.34	22831.06
323.404	22606.4
323.468	22340.24
323.533	22090.37
323.597	21832.58
323.662	21545.06
323.726	21323.66
323.79	21058.93
323.855	20737.86
323.919	20471.76
323.983	20206.33
324.048	19815.21
324.112	19870.37
324.177	19068.34
324.241	18021.72
324.305	16994.38
324.37	15994.29
324.434	15021.8
324.498	14746.12
324.562	14437.9
324.627	14081.49
324.691	13735.48
324.755	13347.42
324.82	12904.92
324.884	12433.47
324.948	11958.77
325.012	11383.62
325.077	10661.57
