Data from 20250701_urea_2M_exp3_MAYP1162681_17-59-52-257.txt Node
Date: Tue Jul 01 17:59:52 BST 2025
User: adleo
Spectrometer: MAYP116268
Trigger mode: 0
Integration Time (sec): 4.000000E0
Scans to average: 1
Electric dark correction enabled: true
Nonlinearity correction enabled: true
Boxcar width: 10
XAxis mode: Wavelengths
Number of Pixels in Spectrum: 2068
>>>>>Begin Spectral Data<<<<<
179.565	4086.75
179.642	4300.31
179.718	4464.02
179.795	4609.24
179.871	4734.49
179.948	4803.34
180.024	4881.87
180.101	4971.1
180.177	5029.45
180.254	5117.61
180.33	5201.98
180.407	5499.02
180.483	5815.48
180.56	6134.87
180.636	6430.51
180.712	6388.38
180.789	6423.38
180.865	6469.4
180.942	6498.15
181.018	6543.57
181.095	6591.28
181.171	6611.93
181.248	6613.66
181.324	6670.55
181.4	6698.02
181.477	6739.91
181.553	6790.84
181.63	6869.68
181.706	6925.95
181.782	6956.38
181.859	6948.98
181.935	6969.89
182.011	6956.77
182.088	7021.36
182.164	7094.04
182.24	7143.51
182.317	7173.15
182.393	7168.15
182.469	7216.58
182.546	7266.46
182.622	7277.9
182.698	7263.58
182.775	7306.59
182.851	7356.81
182.927	7334.65
183.003	7317.98
183.08	7292.23
183.156	7325.05
183.232	7306.64
183.308	7263.72
183.385	7288.08
183.461	7357.05
183.537	7358.06
183.613	7412.57
183.69	7372.53
183.766	7334.35
183.842	7365.79
183.918	7381.12
183.995	7427.07
184.071	7439.81
184.147	7425.73
184.223	7385.76
184.299	7428.6
184.375	7383.33
184.452	7405.6
184.528	7536.63
184.604	7578.53
184.68	7625.49
184.756	7650.93
184.832	7672.33
184.908	7688.09
184.985	7688.9
185.061	7630.74
185.137	7666.95
185.213	7618.82
185.289	7623.82
185.365	7602.1
185.441	7590.8
185.517	7644.33
185.593	7634.38
185.669	7625
185.745	7659.19
185.822	7721.22
185.898	7693.09
185.974	7726.82
186.05	7703.11
186.126	7627.76
186.202	7601.47
186.278	7584.84
186.354	7546.56
186.43	7571.24
186.506	7570.37
186.582	7565.81
186.658	7585.17
186.734	7509.86
186.81	7514.32
186.886	7532.3
186.962	7570.71
187.038	7559.7
187.114	7533.81
187.19	7560.6
187.266	7528.59
187.341	7528.54
187.417	7506.09
187.493	7504.36
187.569	7523.02
187.645	7494.37
187.721	7453.68
187.797	7478.63
187.873	7494.4
187.949	7478.44
188.025	7458.33
188.101	7469.19
188.176	7496.93
188.252	7483.48
188.328	7508.16
188.404	7514.03
188.48	7491.97
188.556	7464.23
188.632	7459.18
188.707	7463.56
188.783	7452.93
188.859	7434.58
188.935	7391.5
189.011	7416.11
189.086	7391.5
189.162	7355.98
189.238	7349.2
189.314	7334.54
189.39	7319.64
189.465	7293.82
189.541	7353.59
189.617	7292.6
189.693	7271.12
189.768	7279.53
189.844	7368.8
189.92	7344.64
189.996	7370.93
190.071	7412.99
190.147	7413.48
190.223	7450.12
190.298	7417.66
190.374	7367.67
190.45	7412.06
190.526	7443.02
190.601	7423.7
190.677	7428.89
190.753	7529.67
190.828	7544.47
190.904	7601.5
190.98	7656.33
191.055	7701.43
191.131	7665.41
191.207	7746.32
191.282	7780.25
191.358	7741.35
191.433	7689.87
191.509	7738.59
191.585	7731.48
191.66	7731.28
191.736	7760.42
191.811	7725.08
191.887	7785.06
191.963	7873.59
192.038	7891.96
192.114	7896.38
192.189	7906.09
192.265	7898.74
192.34	7818.67
192.416	7816.94
192.491	7802.41
192.567	7806.5
192.642	7810.98
192.718	7818.96
192.793	7775.1
192.869	7766.25
192.944	7776.39
193.02	7804.87
193.095	7815.11
193.171	7836.13
193.246	7827.52
193.322	7814.53
193.397	7816.99
193.473	7764.6
193.548	7694.91
193.624	7718.09
193.699	7715.21
193.775	7779.43
193.85	7786.35
193.925	7820.69
194.001	7819.54
194.076	7785.54
194.152	7749.9
194.227	7720.61
194.302	7681.29
194.378	7689.9
194.453	7676.11
194.529	7719.82
194.604	7665.19
194.679	7641.87
194.755	7571.7
194.83	7627.56
194.905	7619.39
194.981	7647.18
195.056	7622.18
195.131	7645.4
195.207	7630.63
195.282	7595.3
195.357	7523.58
195.433	7575.36
195.508	7531.93
195.583	7561.5
195.659	7618.83
195.734	7643.12
195.809	7640.76
195.884	7680.94
195.96	7680.84
196.035	7736.53
196.11	7721.37
196.185	7764.26
196.261	7782.19
196.336	7900.01
196.411	7847.27
196.486	7869.92
196.561	7846.41
196.637	7873.76
196.712	7938.91
196.787	7952.43
196.862	8005.22
196.937	8040.57
197.013	8062.08
197.088	8096.51
197.163	8172.93
197.238	8230.95
197.313	8235.08
197.388	8285.02
197.464	8391.82
197.539	8435.21
197.614	8412.41
197.689	8456.58
197.764	8512.7
197.839	8584.97
197.914	8558.16
197.989	8638.34
198.065	8687.66
198.14	8877.95
198.215	8978.49
198.29	9011.14
198.365	9059.03
198.44	9099.99
198.515	9202.06
198.59	9257.96
198.665	9358.1
198.74	9385.94
198.815	9392.73
198.89	9470.44
198.965	9576.25
199.04	9557.76
199.115	9613.8
199.19	9759.78
199.265	9778.46
199.34	9824.79
199.415	9944.28
199.49	10021.46
199.565	10053.63
199.64	10142.07
199.715	10130.21
199.79	10154.44
199.865	10180.02
199.94	10171.83
200.015	10285.48
200.09	10303.55
200.165	10319.92
200.24	10334.47
200.315	10476.98
200.39	10527.48
200.464	10548.24
200.539	10550.02
200.614	10604.22
200.689	10680.92
200.764	10713.11
200.839	10771.97
200.914	10780.84
200.989	10747.49
201.063	10794.27
201.138	10736.63
201.213	10732.53
201.288	10663.59
201.363	10683.77
201.438	10687.53
201.512	10748.13
201.587	10686.49
201.662	10700.76
201.737	10754.29
201.812	10791.35
201.886	10671.91
201.961	10705.46
202.036	10661.43
202.111	10656.47
202.186	10557.31
202.26	10506.18
202.335	10426.97
202.41	10406.16
202.485	10344.89
202.559	10270.03
202.634	10177.49
202.709	10208.35
202.784	10139.57
202.858	10137.01
202.933	10064.71
203.008	10032
203.082	9964.19
203.157	9958.79
203.232	9800.35
203.306	9715.84
203.381	9598.69
203.456	9519.76
203.53	9436.44
203.605	9365.79
203.68	9279.09
203.754	9250.41
203.829	9194.78
203.904	9120.84
203.978	9071.57
204.053	9083.8
204.127	9035.57
204.202	9033.79
204.277	8964.86
204.351	8944.49
204.426	8914.88
204.5	8883.59
204.575	8761.81
204.65	8795.76
204.724	8766.43
204.799	8799.9
204.873	8783.34
204.948	8774.05
205.022	8727.57
205.097	8697.37
205.171	8747.08
205.246	8773.37
205.32	8771.16
205.395	8763.27
205.469	8730.56
205.544	8755.79
205.618	8691.58
205.693	8736.73
205.767	8688.22
205.842	8772.47
205.916	8748.41
205.991	8709.61
206.065	8728.87
206.14	8792.97
206.214	8773.47
206.289	8745.69
206.363	8788.14
206.438	8806.05
206.512	8830.6
206.586	8898.89
206.661	8925.33
206.735	8845.81
206.81	8845.04
206.884	8901
206.958	8856.15
207.033	8918.7
207.107	8947.6
207.181	9067.16
207.256	9041.16
207.33	9113.46
207.405	9155.47
207.479	9225.08
207.553	9256.99
207.628	9198.19
207.702	9231.79
207.776	9211.67
207.851	9228.37
207.925	9286.17
207.999	9270.14
208.073	9262.77
208.148	9274.28
208.222	9240.86
208.296	9358.09
208.371	9422.21
208.445	9466.42
208.519	9565.68
208.593	9605.22
208.668	9581.23
208.742	9587.73
208.816	9597.46
208.89	9646.26
208.965	9639.75
209.039	9669.23
209.113	9730.4
209.187	9814.37
209.261	9799.25
209.336	9866.68
209.41	9928.43
209.484	9924.86
209.558	10001.17
209.632	10049.56
209.707	10087.76
209.781	10159.58
209.855	10212
209.929	10274.22
210.003	10296.77
210.077	10303.22
210.151	10484.34
210.226	10615.84
210.3	10717.54
210.374	10800.39
210.448	10812
210.522	10846.84
210.596	10884.09
210.67	10918.44
210.744	11079.44
210.818	11200.79
210.892	11279.24
210.966	11267.82
211.041	11320.25
211.115	11311.39
211.189	11401.79
211.263	11463.57
211.337	11491.85
211.411	11547.04
211.485	11522.46
211.559	11554.21
211.633	11557.39
211.707	11431.68
211.781	11462.29
211.855	11331.83
211.929	11298.73
212.003	11232.16
212.077	11268.11
212.151	11309.32
212.225	11337.95
212.299	11301.46
212.373	11256.88
212.447	11229.36
212.52	11334.42
212.594	11349.36
212.668	11384.69
212.742	11330.52
212.816	11303.29
212.89	11270.04
212.964	11254.47
213.038	11260.3
213.112	11306.86
213.186	11354.71
213.26	11271.47
213.333	11089.66
213.407	11100.79
213.481	11100.93
213.555	11132.63
213.629	11078.79
213.703	11011.08
213.777	10999.41
213.85	10913.44
213.924	11021.21
213.998	11014.46
214.072	10973.68
214.146	10909.06
214.219	10889.49
214.293	10861.93
214.367	10855.91
214.441	10885.21
214.515	10835.81
214.588	10737.17
214.662	10591.33
214.736	10499.8
214.81	10518.19
214.883	10540.05
214.957	10481.15
215.031	10418.5
215.105	10324.33
215.178	10258.71
215.252	10214.35
215.326	10103.4
215.4	10014.71
215.473	9821.51
215.547	9729.35
215.621	9651.04
215.694	9647.48
215.768	9538.1
215.842	9466.25
215.915	9382.68
215.989	9256.15
216.063	9193.38
216.136	9170.08
216.21	9144.47
216.284	9159.2
216.357	9124.44
216.431	9075.33
216.504	9075.04
216.578	9140.1
216.652	9148.13
216.725	9121.46
216.799	9122.42
216.873	9105.19
216.946	9115.01
217.02	9071.8
217.093	9033.48
217.167	8927.78
217.24	8836.63
217.314	8798.86
217.387	8749.31
217.461	8707.82
217.535	8729.58
217.608	8658.73
217.682	8631.2
217.755	8646.6
217.829	8586.66
217.902	8572.85
217.976	8549.42
218.049	8494.55
218.123	8409.19
218.196	8404.72
218.27	8366.07
218.343	8290.64
218.417	8287.41
218.49	8263.69
218.563	8313.54
218.637	8327.98
218.71	8407.48
218.784	8443.29
218.857	8474.42
218.931	8493.27
219.004	8501.06
219.077	8528.37
219.151	8552.71
219.224	8541.78
219.298	8532.69
219.371	8577.36
219.444	8538.2
219.518	8552.54
219.591	8573.37
219.665	8686.24
219.738	8704.48
219.811	8680.14
219.885	8732.41
219.958	8762.88
220.031	8767.11
220.105	8790.08
220.178	8796.53
220.251	8768.8
220.325	8783.39
220.398	8808.61
220.471	8835.12
220.544	8874.59
220.618	8845.41
220.691	8868.95
220.764	8891.23
220.838	8923.01
220.911	8906.15
220.984	8999.86
221.057	9039.72
221.131	9066.77
221.204	8963.8
221.277	9036.08
221.35	9173.77
221.424	9169.29
221.497	9182.34
221.57	9206.93
221.643	9242.09
221.716	9291.5
221.79	9293.81
221.863	9306.19
221.936	9312.25
222.009	9322.89
222.082	9354.63
222.155	9362.62
222.229	9437.51
222.302	9467.17
222.375	9477.62
222.448	9525.2
222.521	9528.33
222.594	9528.09
222.667	9494.5
222.74	9558.2
222.814	9552.85
222.887	9535.99
222.96	9592.1
223.033	9639.21
223.106	9669.63
223.179	9697.77
223.252	9706.87
223.325	9750.98
223.398	9766.59
223.471	9805.07
223.544	9836.89
223.617	9850.62
223.69	9875.13
223.763	9836.35
223.837	9858.51
223.91	9883.94
223.983	9823.51
224.056	9787.01
224.129	9810.85
224.202	9874.97
224.275	9863.89
224.348	9828.68
224.42	9791.93
224.493	9731.15
224.566	9706.58
224.639	9721.56
224.712	9688.89
224.785	9678.54
224.858	9661.78
224.931	9642.17
225.004	9589.83
225.077	9585.01
225.15	9488.67
225.223	9489.25
225.296	9571.64
225.369	9514.05
225.442	9481.15
225.514	9506.91
225.587	9533.87
225.66	9535.07
225.733	9534.98
225.806	9543.84
225.879	9536.04
225.952	9503.35
226.025	9547.75
226.097	9597.91
226.17	9594.15
226.243	9527.41
226.316	9529.34
226.389	9540.22
226.461	9566.48
226.534	9591.8
226.607	9581.45
226.68	9670.71
226.753	9666.47
226.825	9577.1
226.898	9640.71
226.971	9642.88
227.044	9663.59
227.117	9671.29
227.189	9699.62
227.262	9737.34
227.335	9753.91
227.407	9755.88
227.48	9792.23
227.553	9809.86
227.626	9782.16
227.698	9786.06
227.771	9826.54
227.844	9793.99
227.916	9808.73
227.989	9766.15
228.062	9766.39
228.134	9863.17
228.207	9863.94
228.28	9860.52
228.352	9877.76
228.425	9883.98
228.498	9939.09
228.57	9920.16
228.643	9979.61
228.716	9973.06
228.788	9958.66
228.861	9962.7
228.934	10028.59
229.006	10033.12
229.079	10036.83
229.151	10031.68
229.224	9998.69
229.296	10034.43
229.369	10154.35
229.442	10207.64
229.514	10194.31
229.587	10248.45
229.659	10169.63
229.732	10182.54
229.804	10222.67
229.877	10309.79
229.949	10346.69
230.022	10402.21
230.094	10409.44
230.167	10397.58
230.239	10355
230.312	10350.67
230.384	10423.63
230.457	10422.52
230.529	10429.94
230.602	10434.95
230.674	10451.18
230.747	10498.18
230.819	10527.29
230.892	10396.24
230.964	10400.09
231.037	10430.29
231.109	10419.35
231.181	10462.27
231.254	10430.09
231.326	10419.25
231.399	10391.39
231.471	10353.28
231.544	10262.26
231.616	10306.96
231.688	10321.08
231.761	10312.46
231.833	10304.65
231.905	10210.55
231.978	10203.22
232.05	10189.59
232.122	10190.51
232.195	10164.59
232.267	10210.26
232.339	10181.26
232.412	10253.12
232.484	10223.58
232.556	10195.99
232.629	10271.7
232.701	10287.94
232.773	10300.7
232.846	10289.72
232.918	10296.71
232.99	10318.05
233.062	10372.35
233.135	10384.54
233.207	10338.09
233.279	10385.05
233.351	10420.75
233.424	10430.67
233.496	10406.92
233.568	10497.98
233.64	10462.29
233.713	10485.56
233.785	10476.93
233.857	10501.79
233.929	10447.45
234.001	10520.18
234.074	10596.33
234.146	10512.91
234.218	10516.72
234.29	10519.9
234.362	10511.38
234.434	10466.27
234.507	10432.07
234.579	10374.54
234.651	10357.73
234.723	10392.7
234.795	10413.37
234.867	10403.69
234.939	10461.7
235.012	10484.87
235.084	10495.28
235.156	10537.97
235.228	10518.79
235.3	10508.14
235.372	10520.53
235.444	10586
235.516	10498.33
235.588	10509.95
235.66	10532.3
235.732	10503.87
235.804	10711.37
235.876	10758.05
235.948	10824.26
236.02	10844.16
236.092	10860.63
236.164	10878.07
236.236	10884.19
236.308	10889.25
236.38	10924.77
236.452	10902.65
236.524	10926.5
236.596	10997.98
236.668	11028.34
236.74	11053.78
236.812	11084.86
236.884	11123.28
236.956	11136.82
237.028	11137.59
237.1	11118.07
237.172	11196.58
237.244	11281.11
237.316	11157.13
237.388	11143.64
237.46	11116.6
237.532	11188.26
237.604	11186.53
237.675	11269.28
237.747	11316.7
237.819	11305.91
237.891	11314.29
237.963	11310.83
238.035	11316.27
238.107	11192.21
238.178	11269.67
238.25	11274.49
238.322	11372.53
238.394	11319.28
238.466	11326.36
238.538	11373.1
238.609	11414.98
238.681	11359.65
238.753	11336.7
238.825	11357.04
238.897	11394.05
238.968	11489.97
239.04	11470.45
239.112	11591.03
239.184	11539.7
239.255	11531.12
239.327	11571.74
239.399	11596.08
239.471	11648.32
239.542	11686.06
239.614	11772.33
239.686	11676.51
239.758	11736.95
239.829	11704.65
239.901	11783.64
239.973	11800.56
240.044	11841.24
240.116	11863.51
240.188	11882.98
240.259	11904.38
240.331	11908.43
240.403	11951.85
240.474	11903.26
240.546	11896.32
240.618	11836.46
240.689	11844.89
240.761	11879.74
240.833	11952.14
240.904	11943.22
240.976	11951.66
241.048	11973.73
241.119	12005.6
241.191	12060.44
241.262	12137.57
241.334	12141.33
241.405	12148.47
241.477	12154.83
241.549	12168.13
241.62	12199.08
241.692	12247.14
241.763	12314.72
241.835	12330.96
241.906	12348.22
241.978	12320.8
242.049	12390.25
242.121	12458.31
242.192	12540.11
242.264	12508.01
242.335	12456
242.407	12514.57
242.478	12517.07
242.55	12539.15
242.621	12525.99
242.693	12534.28
242.764	12524.93
242.836	12534.81
242.907	12570.39
242.979	12603.98
243.05	12633.87
243.122	12653.15
243.193	12658.5
243.264	12573.04
243.336	12580.85
243.407	12621.92
243.479	12706.85
243.55	12730.43
243.622	12751.45
243.693	12742.33
243.764	12816.95
243.836	12795.41
243.907	12791.89
243.978	12797.82
244.05	12826.36
244.121	12782.49
244.192	12829.93
244.264	12775.94
244.335	12784.66
244.407	12732.89
244.478	12754.24
244.549	12735.88
244.62	12695.29
244.692	12693.6
244.763	12753.57
244.834	12741.52
244.906	12718.43
244.977	12740.89
245.048	12797.44
245.119	12772.03
245.191	12751.88
245.262	12680.83
245.333	12772.32
245.405	12790.83
245.476	12835.56
245.547	12858.6
245.618	12918.71
245.689	12929.03
245.761	12972.9
245.832	12984.42
245.903	13033.44
245.974	13066.03
246.045	13083.24
246.117	13175.99
246.188	13158.54
246.259	13141.67
246.33	13166.16
246.401	13182.4
246.473	13148.56
246.544	13137.47
246.615	13202.21
246.686	13212.72
246.757	13299.44
246.828	13276.69
246.899	13352.81
246.97	13318.39
247.042	13310.14
247.113	13355.84
247.184	13456.54
247.255	13459.34
247.326	13496.94
247.397	13511.5
247.468	13531.07
247.539	13551.08
247.61	13509.47
247.681	13566.31
247.752	13628.4
247.823	13603.48
247.894	13622.13
247.965	13600.82
248.037	13590.32
248.108	13536.37
248.179	13549.63
248.25	13541.29
248.321	13568.62
248.392	13526.35
248.463	13617.26
248.534	13614.71
248.605	13639.53
248.675	13606.61
248.746	13629.65
248.817	13640.84
248.888	13662.53
248.959	13592.73
249.03	13622.66
249.101	13628.59
249.172	13609.84
249.243	13535.56
249.314	13611.24
249.385	13622.57
249.456	13658.87
249.527	13651.06
249.598	13683.98
249.669	13683.98
249.739	13703.41
249.81	13724
249.881	13670.58
249.952	13668.51
250.023	13667.64
250.094	13612.98
250.165	13581.93
250.235	13573.35
250.306	13577.64
250.377	13541.15
250.448	13575.14
250.519	13509.96
250.59	13578.03
250.66	13581.98
250.731	13659.93
250.802	13651.73
250.873	13673.62
250.944	13693.48
251.014	13685.62
251.085	13776.97
251.156	13806.52
251.227	13864.66
251.297	13924.53
251.368	13990.42
251.439	14024.99
251.51	14085.92
251.58	14073.1
251.651	14063.79
251.722	14125.3
251.792	14073.24
251.863	14082.64
251.934	14159.82
252.005	14282.93
252.075	14292.33
252.146	14348.01
252.217	14400.94
252.287	14454.83
252.358	14458.59
252.429	14537.46
252.499	14529.7
252.57	14544.78
252.641	14602.19
252.711	14600.56
252.782	14544.83
252.852	14626.97
252.923	14629.67
252.994	14642.92
253.064	14697.01
253.135	14679.32
253.205	14656.47
253.276	14736.88
253.347	14813.67
253.417	14786.58
253.488	14772.21
253.558	14757.85
253.629	14751.82
253.699	14760.4
253.77	14782
253.841	14774.24
253.911	14782.96
253.982	14805.33
254.052	14832.32
254.123	14834.34
254.193	14850.78
254.264	15007.24
254.334	14969.6
254.405	14935.76
254.475	14899.12
254.546	14911.32
254.616	14994.47
254.687	15030.72
254.757	15054
254.827	15049.37
254.898	15081.14
254.968	15087.12
255.039	15073.04
255.109	15117.49
255.18	15092.23
255.25	15013.17
255.321	15060.56
255.391	15022.82
255.461	15117.54
255.532	15029.57
255.602	15023.88
255.673	14957.31
255.743	14918.66
255.813	14842.54
255.884	14895.81
255.954	14941.94
256.024	15009.9
256.095	15009.13
256.165	14969.51
256.235	14999.2
256.306	14984.59
256.376	15030.77
256.446	15074.68
256.517	15112.04
256.587	15165.54
256.657	15183.28
256.728	15223.39
256.798	15236.93
256.868	15237.75
256.938	15201.31
257.009	15257.03
257.079	15291.6
257.149	15401.4
257.219	15337.73
257.29	15389.31
257.36	15332.57
257.43	15370.02
257.5	15306.59
257.571	15294.2
257.641	15345.25
257.711	15307.07
257.781	15339.23
257.852	15364.77
257.922	15292.76
257.992	15299.65
258.062	15286.3
258.132	15339.37
258.202	15339.8
258.273	15340.48
258.343	15420.63
258.413	15417.89
258.483	15428.39
258.553	15404.73
258.623	15375.23
258.693	15409.74
258.764	15472.36
258.834	15550.78
258.904	15572.33
258.974	15563.75
259.044	15581.92
259.114	15602.4
259.184	15636.58
259.254	15651.95
259.324	15585.68
259.394	15642.27
259.464	15729.65
259.535	15740.79
259.605	15734.28
259.675	15730.76
259.745	15773.18
259.815	15744.02
259.885	15742.04
259.955	15864.69
260.025	15851.63
260.095	15870.67
260.165	15904.36
260.235	15978.48
260.305	15964.41
260.375	15934.29
260.445	16032.52
260.515	16098.89
260.585	16158.56
260.655	16165.93
260.725	16211.91
260.795	16261.56
260.865	16336.6
260.934	16296.41
261.004	16331.15
261.074	16338.58
261.144	16402.4
261.214	16444.28
261.284	16449.39
261.354	16498.79
261.424	16444.14
261.494	16534.09
261.564	16539.58
261.634	16569.22
261.703	16493.41
261.773	16514.81
261.843	16545.61
261.913	16533.03
261.983	16473.12
262.053	16492.35
262.123	16491.19
262.192	16449.69
262.262	16487.72
262.332	16440.34
262.402	16477.84
262.472	16486.75
262.541	16427.95
262.611	16479.86
262.681	16449.11
262.751	16493.02
262.821	16494.65
262.89	16468.29
262.96	16486.27
263.03	16575.19
263.1	16594.13
263.169	16614.51
263.239	16651.63
263.309	16732.4
263.379	16764.69
263.448	16788.93
263.518	16808.4
263.588	16825.71
263.657	16906.05
263.727	16944.84
263.797	16958.68
263.867	16961.62
263.936	16915.88
264.006	16977.53
264.076	16971.36
264.145	16978.97
264.215	16955.74
264.285	17004.52
264.354	16948.46
264.424	16925.91
264.494	16868.85
264.563	16865.14
264.633	16959.4
264.702	16983.26
264.772	16921.62
264.842	16918.44
264.911	16953.67
264.981	16909.53
265.05	16923.36
265.12	16916.52
265.19	16931.46
265.259	16975.22
265.329	17007.94
265.398	17039.99
265.468	17151.9
265.537	17155.08
265.607	17192.72
265.676	17247.13
265.746	17266.45
265.815	17338.41
265.885	17355.04
265.955	17342.46
266.024	17333.06
266.094	17263.23
266.163	17326.46
266.232	17396.43
266.302	17408.67
266.371	17444.24
266.441	17469.2
266.51	17522.79
266.58	17523.52
266.649	17504.39
266.719	17556.33
266.788	17589.92
266.858	17674.69
266.927	17595.27
266.996	17612.14
267.066	17636.29
267.135	17597.1
267.205	17643.22
267.274	17665.63
267.343	17726.79
267.413	17736.86
267.482	17800.86
267.552	17861.92
267.621	17806.69
267.69	17756.86
267.76	17784.77
267.829	17802.26
267.898	17826.93
267.968	17805.15
268.037	17842.12
268.106	17896.52
268.176	17863.08
268.245	17867.22
268.314	17854.89
268.384	17918.64
268.453	17948.38
268.522	17981.44
268.592	18051.22
268.661	18029.97
268.73	18058.74
268.799	18044.04
268.869	18143.36
268.938	18104.33
269.007	18090.11
269.076	18120.86
269.146	18176.47
269.215	18208.9
269.284	18283.89
269.353	18283.69
269.422	18289.57
269.492	18294.3
269.561	18212.27
269.63	18245.91
269.699	18239.65
269.768	18259.26
269.838	18280.08
269.907	18317.52
269.976	18279.45
270.045	18223.5
270.114	18265.71
270.183	18274.73
270.253	18303.16
270.322	18246.29
270.391	18270.2
270.46	18352.41
270.529	18406.09
270.598	18450.48
270.667	18469.13
270.736	18445.95
270.806	18477.56
270.875	18544.88
270.944	18553.51
271.013	18696.06
271.082	18732.68
271.151	18779.09
271.22	18735.86
271.289	18753.4
271.358	18763.62
271.427	18809.4
271.496	18842.55
271.565	18840.19
271.634	18858.65
271.703	18993.39
271.772	19079.12
271.841	19095.89
271.91	19059.42
271.979	19073.29
272.048	19043.71
272.117	19077.05
272.186	19068.81
272.255	19121.48
272.324	19161.1
272.393	19198.92
272.462	19178.4
272.531	19190.73
272.6	19195.21
272.669	19272.85
272.738	19278.82
272.807	19317.86
272.876	19294.82
272.945	19445.66
273.013	19503.3
273.082	19578.38
273.151	19485.7
273.22	19503.97
273.289	19526.47
273.358	19616.01
273.427	19632.39
273.496	19691.86
273.564	19740.92
273.633	19801.3
273.702	19785.01
273.771	19802.07
273.84	19833.4
273.909	19882.75
273.977	19933.73
274.046	19955.52
274.115	20017.88
274.184	20018.45
274.253	20029.83
274.322	20115.61
274.39	20053.1
274.459	20047.61
274.528	19991.41
274.597	20013.82
274.665	20037.92
274.734	20120.86
274.803	20119.65
274.872	20131.99
274.94	20126.45
275.009	20353.61
275.078	20352.06
275.147	20384.16
275.215	20408.93
275.284	20483.48
275.353	20486.14
275.421	20441.75
275.49	20536.46
275.559	20538
275.627	20558.05
275.696	20579.49
275.765	20613.08
275.833	20627.64
275.902	20677.27
275.971	20762.24
276.039	20857.76
276.108	20921.81
276.177	20956.28
276.245	20967.07
276.314	21008.08
276.383	21069.68
276.451	20898.71
276.52	20950.23
276.588	21049.04
276.657	21107.12
276.725	21112.61
276.794	21156.04
276.863	21241.1
276.931	21200.76
277	21267.95
277.068	21354.65
277.137	21470.15
277.205	21518.87
277.274	21631.18
277.342	21717.37
277.411	21698.28
277.48	21693.46
277.548	21698.47
277.617	21728.75
277.685	21755.11
277.754	21810.68
277.822	21832.37
277.89	21921.66
277.959	21945.19
278.027	21924.46
278.096	21930.97
278.164	22065.2
278.233	22078.55
278.301	22085.25
278.37	22158.47
278.438	22159.09
278.507	22204.41
278.575	22153.74
278.643	22176.06
278.712	22149.74
278.78	22134.31
278.849	22224.25
278.917	22303.61
278.985	22336.24
279.054	22394.73
279.122	22479.43
279.191	22514.72
279.259	22543.01
279.327	22507.62
279.396	22612.44
279.464	22633.41
279.532	22705.88
279.601	22737.57
279.669	22774.26
279.737	22871.7
279.806	22926.33
279.874	23003.38
279.942	23040.22
280.011	23063.6
280.079	23129.85
280.147	23230.42
280.215	23286.46
280.284	23309.6
280.352	23303.33
280.42	23372.33
280.488	23386.37
280.557	23399.34
280.625	23458.94
280.693	23503.44
280.761	23553.89
280.83	23528.18
280.898	23618.35
280.966	23590.29
281.034	23515.77
281.102	23515.91
281.171	23533.03
281.239	23610.75
281.307	23614.8
281.375	23623.68
281.443	23766.83
281.512	23805.75
281.58	23878.12
281.648	23870.02
281.716	23908.6
281.784	23951.28
281.852	23967.44
281.92	23997.73
281.989	24067.77
282.057	24049.1
282.125	24268.08
282.193	24306.82
282.261	24360.4
282.329	24391.04
282.397	24458.7
282.465	24521.5
282.533	24625.72
282.601	24631.9
282.67	24586.88
282.738	24607.81
282.806	24691.02
282.874	24677.41
282.942	24733.68
283.01	24745.45
283.078	24818.58
283.146	24852.06
283.214	24933.66
283.282	24988.71
283.35	25090.1
283.418	25123.25
283.486	25190.26
283.554	25072.48
283.622	25125.28
283.69	25166.19
283.758	25188.87
283.826	25248.51
283.894	25325.63
283.962	25436.62
284.03	25534.05
284.098	25583.85
284.165	25623.55
284.233	25668.34
284.301	25692.66
284.369	25706.18
284.437	25728.14
284.505	25756.91
284.573	25866.95
284.641	25871.54
284.709	25943.62
284.777	25925.23
284.845	26000.55
284.912	26068.13
284.98	26134.89
285.048	26156.42
285.116	26228.26
285.184	26323.37
285.252	26373.44
285.319	26361.42
285.387	26365.81
285.455	26366.73
285.523	26448.47
285.591	26485.73
285.659	26529.91
285.726	26625.38
285.794	26617.75
285.862	26657.59
285.93	26693.07
285.997	26718.09
286.065	26752.81
286.133	26769.81
286.201	26807.28
286.269	26800.52
286.336	26807.86
286.404	26821.91
286.472	26903.78
286.539	26870.27
286.607	26865.63
286.675	26915.87
286.743	26981.54
286.81	27015.94
286.878	27099.46
286.946	27107.62
287.013	27146.15
287.081	27195.91
287.149	27190.84
287.216	27315.08
287.284	27343.14
287.352	27393.13
287.419	27419.07
287.487	27512.81
287.555	27574.18
287.622	27617.46
287.69	27679.93
287.758	27775.36
287.825	27801.25
287.893	27805.12
287.96	27875.29
288.028	27951.99
288.096	27994.81
288.163	28059.8
288.231	28063.14
288.298	28098.71
288.366	28194.42
288.433	28238.42
288.501	28255.24
288.569	28308.45
288.636	28320.73
288.704	28412.57
288.771	28501.36
288.839	28523.55
288.906	28551.25
288.974	28625.01
289.041	28660.48
289.109	28680.68
289.176	28749.17
289.244	28817.22
289.311	28903.67
289.379	28982.03
289.446	29037.74
289.514	29077.73
289.581	29112.69
289.649	29172.83
289.716	29233.09
289.783	29249.88
289.851	29366.21
289.918	29405.71
289.986	29483.33
290.053	29550.75
290.121	29589.69
290.188	29641.31
290.255	29793.66
290.323	29815.04
290.39	29842.52
290.458	29920.48
290.525	30013.35
290.592	30037.69
290.66	30091.19
290.727	30115.77
290.794	30213.81
290.862	30256.2
290.929	30324.9
290.996	30384.46
291.064	30461.98
291.131	30555.98
291.198	30650.8
291.266	30695.52
291.333	30755.99
291.4	30813.59
291.468	30919.52
291.535	30949.96
291.602	30997.6
291.669	31006.6
291.737	31056.25
291.804	31104.18
291.871	31196.45
291.938	31273.53
292.006	31414.3
292.073	31510.69
292.14	31603.5
292.207	31619.43
292.275	31672.74
292.342	31737.15
292.409	31876.07
292.476	32005.27
292.543	32007.5
292.611	32037.04
292.678	32140.7
292.745	32275.34
292.812	32364.19
292.879	32383.18
292.946	32452.92
293.014	32549.23
293.081	32631.94
293.148	32729.23
293.215	32817.76
293.282	32838.1
293.349	32904.49
293.416	32876.77
293.484	32954.11
293.551	33031.41
293.618	33136.12
293.685	33260.35
293.752	33290.58
293.819	33315.06
293.886	33306.77
293.953	33386.1
294.02	33487.69
294.087	33543.11
294.154	33564.39
294.221	33655.65
294.288	33716.04
294.356	33812.26
294.423	33883.98
294.49	33893.67
294.557	33990.92
294.624	34010.12
294.691	34140.15
294.758	34194.31
294.825	34272.61
294.892	34299.62
294.959	34339.96
295.026	34409.17
295.093	34435.7
295.16	34491.3
295.226	34543.34
295.293	34691.59
295.36	34758.36
295.427	34835.4
295.494	34934.86
295.561	35006.01
295.628	35126.23
295.695	35229.51
295.762	35288.3
295.829	35369.58
295.896	35501.62
295.963	35597.36
296.03	35683.9
296.096	35759.01
296.163	35853.54
296.23	35954.22
296.297	36050.04
296.364	36106.42
296.431	36183.14
296.498	36229.34
296.564	36373.78
296.631	36436.52
296.698	36424.97
296.765	36543.3
296.832	36573.87
296.899	36586.54
296.965	36705.94
297.032	36689.09
297.099	36796.54
297.166	36893.13
297.233	36914.54
297.299	36932.21
297.366	36969.59
297.433	37028.95
297.5	37093.96
297.566	37145.33
297.633	37209.18
297.7	37279.87
297.767	37332.82
297.833	37403.86
297.9	37471.04
297.967	37457.35
298.033	37555.29
298.1	37714.53
298.167	37735.46
298.234	37797.94
298.3	37879.32
298.367	37917.45
298.434	38005.26
298.5	38022.26
298.567	38048.04
298.634	38103.84
298.7	38211.69
298.767	38273.27
298.834	38381.09
298.9	38416.16
298.967	38436.46
299.033	38508.15
299.1	38611.91
299.167	38718.08
299.233	38751.11
299.3	38846.45
299.366	38963.39
299.433	39062.79
299.5	39025.77
299.566	39087.75
299.633	39184.71
299.699	39271.63
299.766	39303.2
299.832	39368.21
299.899	39446.73
299.965	39546.56
300.032	39598.25
300.099	39667.43
300.165	39744.45
300.232	39777.24
300.298	39837.34
300.365	39942.08
300.431	40000.79
300.498	40021.24
300.564	40089.9
300.631	40183.25
300.697	40277.38
300.763	40326.75
300.83	40368.98
300.896	40464.61
300.963	40554.27
301.029	40621.87
301.096	40683.6
301.162	40778.5
301.229	40796.29
301.295	40806.49
301.361	40869.92
301.428	40928.62
301.494	40930.61
301.561	40985.68
301.627	41052.65
301.693	41110.1
301.76	41174.26
301.826	41204.88
301.892	41282.7
301.959	41354.64
302.025	41392.61
302.092	41415.26
302.158	41492.69
302.224	41545.68
302.291	41564.93
302.357	41590.16
302.423	41615.93
302.49	41620.79
302.556	41714.43
302.622	41782.15
302.688	41886.72
302.755	41973.12
302.821	42047.59
302.887	42128.19
302.954	42184.25
303.02	42267.54
303.086	42349.56
303.152	42375.13
303.219	42411.2
303.285	42476.8
303.351	42534.38
303.417	42585.58
303.483	42598.51
303.55	42624.38
303.616	42681.43
303.682	42738.02
303.748	42755.91
303.815	42862.96
303.881	42959.92
303.947	42956.71
304.013	43002.57
304.079	43014.14
304.145	43001.69
304.212	43042.83
304.278	43066.85
304.344	43097.88
304.41	43091.02
304.476	43101.23
304.542	43134.45
304.608	43207.44
304.674	43207.15
304.741	43231.13
304.807	43283.37
304.873	43367.22
304.939	43464.16
305.005	43434.58
305.071	43466.63
305.137	43537.29
305.203	43499.88
305.269	43537.63
305.335	43627.78
305.401	43681.68
305.467	43709.75
305.533	43773.47
305.599	43861.04
305.666	43941.45
305.732	43986.1
305.798	44072.36
305.864	44199.41
305.93	44275.69
305.996	44309.45
306.062	44353.87
306.128	44394.01
306.194	44407.1
306.259	44437.84
306.325	44457.84
306.391	44537.87
306.457	44615.76
306.523	44683.39
306.589	44820.34
306.655	44842.97
306.721	44807.4
306.787	44783.66
306.853	44881.86
306.919	44868.97
306.985	44872.86
307.051	44887.41
307.117	44898.41
307.183	44912.76
307.248	44845.59
307.314	44896.26
307.38	44953.84
307.446	45024.46
307.512	45036.24
307.578	45092.35
307.644	45120.63
307.709	45162.73
307.775	45186.05
307.841	45213.98
307.907	45247.23
307.973	45203.26
308.039	45237.05
308.104	45318.32
308.17	45371.17
308.236	45356.13
308.302	45416.33
308.368	45414.18
308.433	45460.77
308.499	45488.75
308.565	45497.32
308.631	45572.32
308.696	45527.06
308.762	45522.53
308.828	45550.28
308.894	45539.19
308.959	45511.01
309.025	45527.31
309.091	45551.22
309.156	45574.4
309.222	45623.57
309.288	45613.74
309.354	45586.92
309.419	45605.37
309.485	45602.16
309.551	45663.16
309.616	45666.08
309.682	45677.48
309.748	45698.21
309.813	45721.44
309.879	45732.39
309.945	45729.66
310.01	45734.19
310.076	45804.83
310.141	45827.42
310.207	45812.42
310.273	45860.56
310.338	45919.76
310.404	45908.56
310.469	45894.78
310.535	45901.64
310.601	45862.1
310.666	45930.14
310.732	46020.35
310.797	46021.91
310.863	46018.26
310.928	46031.46
310.994	46072.41
311.059	46111.56
311.125	46151.04
311.191	46223.39
311.256	46227.63
311.322	46289.66
311.387	46258.45
311.453	47027.41
311.518	47048.25
311.584	47077.82
311.649	47135.73
311.715	47139.77
311.78	47179.74
311.846	47198.24
311.911	47256.84
311.976	47300.96
312.042	47277.14
312.107	47247.09
312.173	47256.29
312.238	47283.9
312.304	47306.26
312.369	47319.32
312.434	47308.65
312.5	47327.06
312.565	47237.57
312.631	47291.87
312.696	47297.91
312.761	47343.43
312.827	46606.18
312.892	46705.66
312.958	46728.41
313.023	46762.72
313.088	46799.06
313.154	46794.68
313.219	46780.94
313.284	46784.3
313.35	46798.72
313.415	46795.51
313.48	46814.31
313.546	46877.5
313.611	46931.43
313.676	46923.58
313.741	46930.94
313.807	46991.74
313.872	47039.29
313.937	47111.38
314.003	47194.09
314.068	47235.07
314.133	47301.77
314.198	47292.57
314.264	47247.32
314.329	47255.6
314.394	47253.65
314.459	47265.4
314.525	47352.6
314.59	47385.72
314.655	47373.35
314.72	47433.88
314.785	47475.38
314.851	47490.58
314.916	47448.97
314.981	47424.21
315.046	47436.2
315.111	47438.64
315.176	47432.3
315.242	47461.01
315.307	47486.45
315.372	47430.73
315.437	47425.42
315.502	47418.65
315.567	47489.95
315.632	47482.83
315.698	47518.81
315.763	47531.58
315.828	47533.77
315.893	47555.08
315.958	47584.07
316.023	47587.92
316.088	47538.3
316.153	47483.89
316.218	47479.51
316.283	47436.07
316.348	47399.24
316.413	47391.79
316.479	47334.57
316.544	47231.17
316.609	47119.89
316.674	46992.52
316.739	46879.79
316.804	46771.53
316.869	46642.66
316.934	46494.38
316.999	46360.8
317.064	46165.77
317.129	45998.38
317.194	45849.01
317.259	45643.74
317.324	45426.31
317.389	45242.9
317.454	45087.56
317.518	44943.87
317.583	44820.41
317.648	44704.02
317.713	44544.56
317.778	44309.27
317.843	44175.47
317.908	43996.47
317.973	43823.08
318.038	43671.46
318.103	43497.11
318.168	43339.85
318.233	43181.43
318.297	42957.25
318.362	42783.97
318.427	42598.54
318.492	42450.26
318.557	42219.44
318.622	42069.63
318.687	41927.44
318.751	41715.67
318.816	41526.41
318.881	41349.82
318.946	41091.02
319.011	40862.48
319.075	40643.4
319.14	40437.72
319.205	40199.89
319.27	40010.32
319.335	39768.17
319.399	39562.88
319.464	39386.28
319.529	39111.34
319.594	38894.52
319.658	38716.75
319.723	38490.75
319.788	38290.72
319.853	38002.09
319.917	37816.86
319.982	37533.77
320.047	37310.13
320.112	37130.9
320.176	36863.51
320.241	36639.33
320.306	36439.4
320.37	36205.25
320.435	36013.21
320.5	35833.52
320.564	35610.15
320.629	35376.1
320.694	35178.14
320.758	34928.52
320.823	34665.59
320.888	34479.3
320.952	34199.48
321.017	33950.5
321.082	33697.07
321.146	33470.7
321.211	33263.08
321.275	33018.42
321.34	32770.83
321.405	32517.3
321.469	32258.47
321.534	32010.24
321.598	31735.12
321.663	31531.22
321.727	31320.34
321.792	31032.38
321.857	30762
321.921	30524.8
321.986	30271.28
322.05	29970.78
322.115	29732.46
322.179	29471.69
322.244	29167.45
322.308	28945.57
322.373	28674.26
322.437	28424.65
322.502	28232.91
322.566	27966.07
322.631	27731.52
322.695	27495.44
322.76	27233.68
322.824	27000.32
322.889	26735.14
322.953	26468.21
323.018	26109.46
323.082	25763.16
323.146	25476.78
323.211	25173.47
323.275	24897.46
323.34	24626.84
323.404	24387.77
323.468	24109.91
323.533	23839.52
323.597	23568.76
323.662	23274.31
323.726	23037.86
323.79	22762.38
323.855	22405.61
323.919	22107.84
323.983	21830.17
324.048	21406.08
324.112	21600.77
324.177	20745.8
324.241	19623.44
324.305	18512.89
324.37	17428.82
324.434	16379.75
324.498	16088.1
324.562	15774.96
324.627	15406
324.691	15034.24
324.755	14619.61
324.82	14147.88
324.884	13663.85
324.948	13162.5
325.012	12554.4
325.077	11798.29
