Data from 20250701_urea_2M_exp3_MAYP1162681_07-29-52-314.txt Node
Date: Wed Jul 02 07:29:52 BST 2025
User: adleo
Spectrometer: MAYP116268
Trigger mode: 0
Integration Time (sec): 4.000000E0
Scans to average: 1
Electric dark correction enabled: true
Nonlinearity correction enabled: true
Boxcar width: 10
XAxis mode: Wavelengths
Number of Pixels in Spectrum: 2068
>>>>>Begin Spectral Data<<<<<
179.565	3744.06
179.642	3939.33
179.718	4086.74
179.795	4213.74
179.871	4330.19
179.948	4392.62
180.024	4467.9
180.101	4550.88
180.177	4605.56
180.254	4684.59
180.33	4765.35
180.407	5036.34
180.483	5325.16
180.56	5623.95
180.636	5893.93
180.712	5849.87
180.789	5888.21
180.865	5928.33
180.942	5961.52
181.018	5998.8
181.095	6040.56
181.171	6058.08
181.248	6057.31
181.324	6111.84
181.4	6140.06
181.477	6176.97
181.553	6222.34
181.63	6290.56
181.706	6338.86
181.782	6361.78
181.859	6358.13
181.935	6374.08
182.011	6362.36
182.088	6422.43
182.164	6485.75
182.24	6533.25
182.317	6565.74
182.393	6555.28
182.469	6605.98
182.546	6652.18
182.622	6670.23
182.698	6658.61
182.775	6698.51
182.851	6748.89
182.927	6723.38
183.003	6711.05
183.08	6690.55
183.156	6723.63
183.232	6707.68
183.308	6671
183.385	6700.18
183.461	6763.2
183.537	6766.08
183.613	6805.65
183.69	6777.12
183.766	6737.71
183.842	6766.63
183.918	6786.37
183.995	6834.88
184.071	6839.69
184.147	6825.18
184.223	6786.92
184.299	6826.28
184.375	6791.12
184.452	6815.49
184.528	6945.95
184.604	6981.48
184.68	7021.92
184.756	7045.33
184.832	7072.24
184.908	7090.38
184.985	7086.25
185.061	7028.8
185.137	7060.23
185.213	7019.17
185.289	7017.1
185.365	6993.48
185.441	6982.76
185.517	7027.95
185.593	7016.75
185.669	7005.46
185.745	7036.79
185.822	7094.64
185.898	7069.9
185.974	7099.72
186.05	7070.25
186.126	6993.56
186.202	6972.14
186.278	6962
186.354	6928.99
186.43	6947.4
186.506	6942.6
186.582	6944.37
186.658	6970.69
186.734	6900.28
186.81	6917.47
186.886	6930.44
186.962	6977.22
187.038	6961.8
187.114	6934.34
187.19	6957.27
187.266	6931.29
187.341	6928.17
187.417	6901.89
187.493	6899.34
187.569	6912.8
187.645	6895.03
187.721	6858.26
187.797	6886.89
187.873	6898.04
187.949	6879.93
188.025	6856.57
188.101	6866.56
188.176	6881.06
188.252	6863.25
188.328	6890.03
188.404	6882.49
188.48	6865.78
188.556	6835.61
188.632	6845.36
188.707	6850.36
188.783	6836.95
188.859	6823.27
188.935	6786.85
189.011	6812.31
189.086	6794.39
189.162	6763.31
189.238	6756.73
189.314	6745.98
189.39	6722.05
189.465	6700.1
189.541	6754.72
189.617	6701.18
189.693	6683.03
189.768	6701.34
189.844	6787.32
189.92	6760.68
189.996	6793.35
190.071	6828.41
190.147	6824.57
190.223	6849.22
190.298	6824.28
190.374	6782.35
190.45	6822.82
190.526	6850.64
190.601	6832.96
190.677	6834.59
190.753	6927.91
190.828	6938.19
190.904	6987.49
190.98	7037.51
191.055	7074.89
191.131	7047.4
191.207	7120.99
191.282	7152.93
191.358	7116.9
191.433	7061.6
191.509	7109.81
191.585	7101.64
191.66	7109.71
191.736	7136.71
191.811	7106.15
191.887	7161.57
191.963	7242.11
192.038	7259.22
192.114	7263.98
192.189	7279.4
192.265	7267.25
192.34	7192.91
192.416	7186.62
192.491	7174.17
192.567	7183.11
192.642	7186
192.718	7188.83
192.793	7149.57
192.869	7139.67
192.944	7148.51
193.02	7177.3
193.095	7183.16
193.171	7199.64
193.246	7193.25
193.322	7184.6
193.397	7189.02
193.473	7139.79
193.548	7077.11
193.624	7102.55
193.699	7095.96
193.775	7149.76
193.85	7159.41
193.925	7187.67
194.001	7192.14
194.076	7170.52
194.152	7138.5
194.227	7114.9
194.302	7076.15
194.378	7090.8
194.453	7080.43
194.529	7120.79
194.604	7070.77
194.679	7051.41
194.755	6988.6
194.83	7033.6
194.905	7024.86
194.981	7052.01
195.056	7025.35
195.131	7045.05
195.207	7035.24
195.282	7002.48
195.357	6933.64
195.433	6984.24
195.508	6943.54
195.583	6965.97
195.659	7008.65
195.734	7023.36
195.809	7018.51
195.884	7055.87
195.96	7052.94
196.035	7106.18
196.11	7088.2
196.185	7128.99
196.261	7140.42
196.336	7249.6
196.411	7204.88
196.486	7228.42
196.561	7206.89
196.637	7235.9
196.712	7291.39
196.787	7295.67
196.862	7350.3
196.937	7389.37
197.013	7400.33
197.088	7438.54
197.163	7509.76
197.238	7572.03
197.313	7576.26
197.388	7623.8
197.464	7723.22
197.539	7757.07
197.614	7734.33
197.689	7779.96
197.764	7836.87
197.839	7907.5
197.914	7885.08
197.989	7958.05
198.065	8005.7
198.14	8180.84
198.215	8274.49
198.29	8315.16
198.365	8360.63
198.44	8396.56
198.515	8487.75
198.59	8546.98
198.665	8634.46
198.74	8660.6
198.815	8667.24
198.89	8745.14
198.965	8844.69
199.04	8828.04
199.115	8887.99
199.19	9026.54
199.265	9035.1
199.34	9066.44
199.415	9185.44
199.49	9253.97
199.565	9285.6
199.64	9371.21
199.715	9356.94
199.79	9381.36
199.865	9404.18
199.94	9401.34
200.015	9507.19
200.09	9518.22
200.165	9541.52
200.24	9563.38
200.315	9697.66
200.39	9738.75
200.464	9765.38
200.539	9765.76
200.614	9820.32
200.689	9900.27
200.764	9924.7
200.839	9986.32
200.914	10001.88
200.989	9959.04
201.063	10010.82
201.138	9947.53
201.213	9940.35
201.288	9874.8
201.363	9892.29
201.438	9890.12
201.512	9947.08
201.587	9885.56
201.662	9905.75
201.737	9945.1
201.812	9975.31
201.886	9865.68
201.961	9899.94
202.036	9856.17
202.111	9853.52
202.186	9755.43
202.26	9692.46
202.335	9621.95
202.41	9603.75
202.485	9549.25
202.559	9486.51
202.634	9392.08
202.709	9430.19
202.784	9362.83
202.858	9365
202.933	9297.88
203.008	9271.16
203.082	9199.28
203.157	9197.74
203.232	9049.1
203.306	8974.79
203.381	8862.94
203.456	8781.16
203.53	8702.55
203.605	8634.48
203.68	8553.7
203.754	8532.83
203.829	8482.67
203.904	8406.27
203.978	8362.95
204.053	8372.04
204.127	8328.69
204.202	8325.23
204.277	8260.48
204.351	8243.54
204.426	8218.08
204.5	8191.95
204.575	8075.29
204.65	8109.61
204.724	8080.97
204.799	8109.61
204.873	8097.58
204.948	8088.25
205.022	8055.12
205.097	8029.51
205.171	8071.16
205.246	8094.93
205.32	8089.79
205.395	8085.31
205.469	8057.29
205.544	8074.91
205.618	8021.61
205.693	8064.47
205.767	8024.46
205.842	8095.23
205.916	8069.02
205.991	8036.4
206.065	8054.49
206.14	8111.53
206.214	8095.89
206.289	8071.01
206.363	8112.91
206.438	8119.35
206.512	8147.84
206.586	8211.85
206.661	8237.99
206.735	8167.66
206.81	8170.88
206.884	8229.03
206.958	8186.47
207.033	8248.3
207.107	8273.76
207.181	8378.73
207.256	8352.89
207.33	8413.02
207.405	8457.52
207.479	8523.57
207.553	8544.02
207.628	8481.56
207.702	8520.81
207.776	8497.48
207.851	8508.4
207.925	8561.26
207.999	8547.64
208.073	8540.37
208.148	8546.68
208.222	8506.1
208.296	8619.95
208.371	8682.12
208.445	8713.79
208.519	8807.8
208.593	8847.36
208.668	8833.45
208.742	8844.38
208.816	8848.86
208.89	8895.32
208.965	8891.13
209.039	8916.07
209.113	8978.07
209.187	9057.43
209.261	9043.61
209.336	9110.57
209.41	9180.14
209.484	9176.1
209.558	9252.84
209.632	9293.32
209.707	9330.92
209.781	9399.53
209.855	9446.82
209.929	9499.54
210.003	9524.96
210.077	9529.3
210.151	9695.19
210.226	9806.03
210.3	9898.41
210.374	9978.13
210.448	9990.71
210.522	10025.15
210.596	10058.19
210.67	10087.67
210.744	10242.84
210.818	10351.91
210.892	10420.08
210.966	10401.78
211.041	10458.38
211.115	10444.27
211.189	10528.33
211.263	10581.51
211.337	10609.16
211.411	10658.7
211.485	10633.2
211.559	10666.3
211.633	10673.42
211.707	10563.35
211.781	10592.56
211.855	10467.14
211.929	10437.43
212.003	10373.24
212.077	10401.82
212.151	10443.3
212.225	10472.21
212.299	10431.97
212.373	10387.17
212.447	10370.88
212.52	10466.81
212.594	10473.31
212.668	10508.04
212.742	10458.18
212.816	10440.2
212.89	10413.95
212.964	10398.91
213.038	10407.06
213.112	10448.26
213.186	10491.37
213.26	10408.31
213.333	10245.4
213.407	10258.59
213.481	10260.47
213.555	10296.91
213.629	10251.86
213.703	10196.35
213.777	10185.32
213.85	10107.9
213.924	10211.64
213.998	10205.52
214.072	10165.62
214.146	10105.21
214.219	10084.11
214.293	10059.69
214.367	10047.26
214.441	10073.47
214.515	10025.14
214.588	9933.04
214.662	9795.93
214.736	9711.36
214.81	9725.22
214.883	9750.44
214.957	9703.74
215.031	9650.32
215.105	9552.79
215.178	9480.55
215.252	9435.53
215.326	9326.8
215.4	9245.66
215.473	9057.11
215.547	8967.78
215.621	8901.45
215.694	8895.53
215.768	8799.1
215.842	8734.08
215.915	8666.96
215.989	8549.97
216.063	8487.04
216.136	8463.84
216.21	8436.9
216.284	8447.3
216.357	8422.03
216.431	8370.06
216.504	8363.13
216.578	8418.78
216.652	8432.28
216.725	8412.31
216.799	8418.52
216.873	8404.38
216.946	8405.15
217.02	8371.55
217.093	8335.85
217.167	8239.19
217.24	8154.5
217.314	8117.24
217.387	8071.23
217.461	8021.06
217.535	8039.67
217.608	7979.5
217.682	7950.35
217.755	7969.93
217.829	7910.6
217.902	7890.21
217.976	7874.68
218.049	7822.93
218.123	7743.04
218.196	7742.37
218.27	7704.47
218.343	7627.4
218.417	7618.69
218.49	7605.66
218.563	7647.63
218.637	7650.47
218.71	7723.53
218.784	7754.17
218.857	7788.6
218.931	7809.41
219.004	7817.2
219.077	7838.03
219.151	7855.92
219.224	7850.72
219.298	7837.59
219.371	7884.45
219.444	7847.1
219.518	7856.23
219.591	7871.91
219.665	7978.23
219.738	7994.72
219.811	7976.03
219.885	8023.64
219.958	8059.39
220.031	8055.35
220.105	8077.53
220.178	8089.94
220.251	8060.59
220.325	8084.22
220.398	8106.39
220.471	8122.84
220.544	8163.2
220.618	8134.91
220.691	8163
220.764	8183.77
220.838	8215.34
220.911	8201.67
220.984	8290.02
221.057	8321.44
221.131	8351.16
221.204	8253.64
221.277	8320.39
221.35	8445.73
221.424	8437.51
221.497	8447.52
221.57	8476.75
221.643	8509.39
221.716	8558.44
221.79	8567.19
221.863	8575.18
221.936	8580.28
222.009	8596.06
222.082	8622.73
222.155	8634.18
222.229	8699.31
222.302	8721.35
222.375	8727.32
222.448	8766.31
222.521	8771.02
222.594	8779.11
222.667	8754
222.74	8805.48
222.814	8803.32
222.887	8785.6
222.96	8838.78
223.033	8884
223.106	8913.78
223.179	8945.28
223.252	8952.26
223.325	8982.1
223.398	9000.92
223.471	9027.64
223.544	9049
223.617	9064.22
223.69	9089.82
223.763	9053.8
223.837	9079.41
223.91	9104.11
223.983	9052.95
224.056	9017.87
224.129	9036.69
224.202	9096.11
224.275	9086.82
224.348	9049.85
224.42	9017.84
224.493	8960.41
224.566	8930.37
224.639	8944.37
224.712	8913.21
224.785	8903.97
224.858	8890.49
224.931	8867.96
225.004	8829.41
225.077	8831.62
225.15	8738.08
225.223	8732.54
225.296	8818.52
225.369	8763.84
225.442	8738.23
225.514	8756.32
225.587	8777.98
225.66	8785.39
225.733	8782.6
225.806	8794.06
225.879	8790.64
225.952	8759.61
226.025	8805.76
226.097	8862.26
226.17	8855.56
226.243	8795.02
226.316	8786.02
226.389	8794.64
226.461	8822.85
226.534	8848.98
226.607	8838.83
226.68	8922.84
226.753	8919.47
226.825	8827.62
226.898	8885.04
226.971	8889.08
227.044	8906.36
227.117	8910.98
227.189	8926.78
227.262	8955.76
227.335	8974.2
227.407	8967.08
227.48	8999.8
227.553	9015.31
227.626	8990.79
227.698	8995.79
227.771	9034.53
227.844	9015.37
227.916	9033.71
227.989	8988.12
228.062	8976.91
228.134	9065.75
228.207	9065.85
228.28	9061.37
228.352	9076.44
228.425	9080
228.498	9123.14
228.57	9105
228.643	9164.66
228.716	9162.21
228.788	9147.52
228.861	9144.1
228.934	9205.96
229.006	9211.54
229.079	9208.27
229.151	9197.19
229.224	9161.67
229.296	9182.71
229.369	9290.02
229.442	9340.3
229.514	9327.5
229.587	9375.98
229.659	9300.66
229.732	9320.65
229.804	9360.8
229.877	9441.72
229.949	9475.05
230.022	9528.57
230.094	9533
230.167	9516.86
230.239	9475.22
230.312	9470.26
230.384	9541.6
230.457	9541.32
230.529	9556.14
230.602	9560.57
230.674	9568.52
230.747	9609.96
230.819	9642.03
230.892	9522.65
230.964	9517.97
231.037	9545.55
231.109	9540.2
231.181	9578.48
231.254	9538.42
231.326	9524.84
231.399	9494.73
231.471	9466.12
231.544	9384.13
231.616	9431.55
231.688	9444.85
231.761	9442.2
231.833	9425.5
231.905	9332.73
231.978	9328.49
232.05	9312.8
232.122	9313.67
232.195	9290.98
232.267	9332.25
232.339	9309.62
232.412	9376.92
232.484	9351.59
232.556	9322.62
232.629	9392.28
232.701	9408.94
232.773	9426.08
232.846	9417.17
232.918	9434.28
232.99	9452.05
233.062	9497.8
233.135	9506.8
233.207	9465.72
233.279	9507.8
233.351	9541.69
233.424	9549.88
233.496	9533.02
233.568	9615.43
233.64	9583.31
233.713	9602.91
233.785	9599.73
233.857	9616.45
233.929	9568.01
234.001	9636.08
234.074	9711.28
234.146	9633
234.218	9633.77
234.29	9631.6
234.362	9618.32
234.434	9566.1
234.507	9530.66
234.579	9478.7
234.651	9464.73
234.723	9501.81
234.795	9512.41
234.867	9512.99
234.939	9574.92
235.012	9591.15
235.084	9598.28
235.156	9637.48
235.228	9613.45
235.3	9597.36
235.372	9616.58
235.444	9674.46
235.516	9593.86
235.588	9598.39
235.66	9616.16
235.732	9589.38
235.804	9786.91
235.876	9833.85
235.948	9894.16
236.02	9915.54
236.092	9932.01
236.164	9944.67
236.236	9940.67
236.308	9946.07
236.38	9974.53
236.452	9953.63
236.524	9975.45
236.596	10035.3
236.668	10069.17
236.74	10100.37
236.812	10129.66
236.884	10153.99
236.956	10163
237.028	10155
237.1	10137.18
237.172	10211.28
237.244	10289.23
237.316	10168.82
237.388	10153.85
237.46	10138.77
237.532	10192.53
237.604	10177.12
237.675	10254.16
237.747	10306.58
237.819	10290.78
237.891	10293.77
237.963	10285.63
238.035	10284.86
238.107	10168.45
238.178	10229.75
238.25	10237.6
238.322	10331.23
238.394	10284.45
238.466	10291.2
238.538	10338.5
238.609	10380.4
238.681	10327.3
238.753	10304.66
238.825	10321.33
238.897	10351.43
238.968	10432.06
239.04	10421.02
239.112	10542.38
239.184	10496.98
239.255	10490.96
239.327	10528.91
239.399	10553.15
239.471	10595.69
239.542	10622.67
239.614	10699.46
239.686	10618.84
239.758	10674.11
239.829	10634.25
239.901	10704.78
239.973	10720.63
240.044	10760.34
240.116	10772.82
240.188	10789
240.259	10803.41
240.331	10792.04
240.403	10834.68
240.474	10779.69
240.546	10768.36
240.618	10708.27
240.689	10706.25
240.761	10721.38
240.833	10786.34
240.904	10782.63
240.976	10786.48
241.048	10809.42
241.119	10844.65
241.191	10895.48
241.262	10956.31
241.334	10959.54
241.405	10961.08
241.477	10964.12
241.549	10967.06
241.62	10991.01
241.692	11039.44
241.763	11104.55
241.835	11135.39
241.906	11151.92
241.978	11127.74
242.049	11197.27
242.121	11255.77
242.192	11330.66
242.264	11293.17
242.335	11251.73
242.407	11300.21
242.478	11310.23
242.55	11333.7
242.621	11319.19
242.693	11316.01
242.764	11303.96
242.836	11313.22
242.907	11351.1
242.979	11384.45
243.05	11405.22
243.122	11431.73
243.193	11427.44
243.264	11349.51
243.336	11349.07
243.407	11379.29
243.479	11464.21
243.55	11486.19
243.622	11502.96
243.693	11502.14
243.764	11583.44
243.836	11557.86
243.907	11546.15
243.978	11544.36
244.05	11570.3
244.121	11522.63
244.192	11572.95
244.264	11529.57
244.335	11537
244.407	11486.29
244.478	11501.67
244.549	11497.48
244.62	11449.86
244.692	11449.04
244.763	11498.87
244.834	11485.91
244.906	11466.53
244.977	11486.92
245.048	11529.44
245.119	11505.53
245.191	11481.91
245.262	11409.19
245.333	11491.45
245.405	11506.01
245.476	11548.27
245.547	11561.67
245.618	11616.23
245.689	11618.15
245.761	11651.41
245.832	11670.64
245.903	11720.57
245.974	11751.13
246.045	11768.2
246.117	11852.93
246.188	11837.36
246.259	11823
246.33	11844.69
246.401	11860.98
246.473	11819.72
246.544	11807.47
246.615	11868.59
246.686	11875.1
246.757	11958.47
246.828	11932.78
246.899	12012.47
246.97	11970.1
247.042	11961.09
247.113	12006.69
247.184	12095.34
247.255	12094.62
247.326	12111.78
247.397	12110.04
247.468	12116.79
247.539	12132.36
247.61	12096.16
247.681	12144.79
247.752	12204.56
247.823	12181.04
247.894	12191.3
247.965	12172.8
248.037	12159.35
248.108	12104.64
248.179	12106.57
248.25	12089.94
248.321	12123.63
248.392	12074.84
248.463	12167.58
248.534	12165.07
248.605	12188.45
248.675	12167.58
248.746	12190.62
248.817	12210.87
248.888	12238.34
248.959	12183.63
249.03	12205.47
249.101	12213.04
249.172	12198.96
249.243	12123.68
249.314	12189.57
249.385	12198.53
249.456	12227.35
249.527	12227.79
249.598	12268.57
249.669	12272.23
249.739	12297.29
249.81	12317.88
249.881	12270.35
249.952	12261.63
250.023	12258.25
250.094	12205.85
250.165	12174.09
250.235	12161.89
250.306	12155.48
250.377	12122.07
250.448	12149.69
250.519	12085.01
250.59	12147
250.66	12141.41
250.731	12221.08
250.802	12218.67
250.873	12243.83
250.944	12268.56
251.014	12259.98
251.085	12339.38
251.156	12367.53
251.227	12417.85
251.297	12462.11
251.368	12527.37
251.439	12564.49
251.51	12621.76
251.58	12602.28
251.651	12595.78
251.722	12655.98
251.792	12609.66
251.863	12616.07
251.934	12680.91
252.005	12799.2
252.075	12799.68
252.146	12857.76
252.217	12897.63
252.287	12940.49
252.358	12939.81
252.429	13011.16
252.499	13005.13
252.57	13015.3
252.641	13067.7
252.711	13073.82
252.782	13034.34
252.852	13104.53
252.923	13107.81
252.994	13117.69
253.064	13180.02
253.135	13162.86
253.205	13142.85
253.276	13225.28
253.347	13286.5
253.417	13256.47
253.488	13234.73
253.558	13227.5
253.629	13223.64
253.699	13241.04
253.77	13269.29
253.841	13267.75
253.911	13276.71
253.982	13288.96
254.052	13314.75
254.123	13318.32
254.193	13324.92
254.264	13456.33
254.334	13420.32
254.405	13387.73
254.475	13363.87
254.546	13369.99
254.616	13427.21
254.687	13453.68
254.757	13479.18
254.827	13480.24
254.898	13510.22
254.968	13519.62
255.039	13502.65
255.109	13538.33
255.18	13499.62
255.25	13431.21
255.321	13460.95
255.391	13416.41
255.461	13509.06
255.532	13428.95
255.602	13418.87
255.673	13359.19
255.743	13326.22
255.813	13256.18
255.884	13305.16
255.954	13334.85
256.024	13396.12
256.095	13408.03
256.165	13378.57
256.235	13395.01
256.306	13379.73
256.376	13424.51
256.446	13467.03
256.517	13500.63
256.587	13543.83
256.657	13568.75
256.728	13592.61
256.798	13605.14
256.868	13608.23
256.938	13573.42
257.009	13617.87
257.079	13657.59
257.149	13760.22
257.219	13690.61
257.29	13731.44
257.36	13673.4
257.43	13716.98
257.5	13650.46
257.571	13635.8
257.641	13678.03
257.711	13648.09
257.781	13680.2
257.852	13705.99
257.922	13638.98
257.992	13640.62
258.062	13632.04
258.132	13684.25
258.202	13686.95
258.273	13695.77
258.343	13766.54
258.413	13762.82
258.483	13769.86
258.553	13739.68
258.623	13715.1
258.693	13749.95
258.764	13815.47
258.834	13887.2
258.904	13907.63
258.974	13900.36
259.044	13908.65
259.114	13936.8
259.184	13959.46
259.254	13968.23
259.324	13909.52
259.394	13959.6
259.464	14050.32
259.535	14062.81
259.605	14042.8
259.675	14039.67
259.745	14081.37
259.815	14058.09
259.885	14049.99
259.955	14163.89
260.025	14152.27
260.095	14160.22
260.165	14192.04
260.235	14257.98
260.305	14235.23
260.375	14197.29
260.445	14285.89
260.515	14358.88
260.585	14402.6
260.655	14407.37
260.725	14449.4
260.795	14490.67
260.865	14559.36
260.934	14518.92
261.004	14545.19
261.074	14555.17
261.144	14611.13
261.214	14649.79
261.284	14651.34
261.354	14696.02
261.424	14644.88
261.494	14722.4
261.564	14725.87
261.634	14753.15
261.703	14684.66
261.773	14719.12
261.843	14749.01
261.913	14738.74
261.983	14682.15
262.053	14706.01
262.123	14710.4
262.192	14673.28
262.262	14711.46
262.332	14663.06
262.402	14692.32
262.472	14703.36
262.541	14637.85
262.611	14692.32
262.681	14664.46
262.751	14702.58
262.821	14706.92
262.89	14681.09
262.96	14708.37
263.03	14792.92
263.1	14815.72
263.169	14837.46
263.239	14875.34
263.309	14949.19
263.379	14987.61
263.448	15006.26
263.518	15015.13
263.588	15028
263.657	15105.03
263.727	15137.13
263.797	15147.5
263.867	15150.1
263.936	15108.74
264.006	15170.98
264.076	15162.83
264.145	15161.77
264.215	15139.84
264.285	15177.44
264.354	15135.06
264.424	15112.36
264.494	15061.36
264.563	15049.17
264.633	15121.52
264.702	15131.5
264.772	15070.72
264.842	15058.43
264.911	15091.25
264.981	15062.81
265.05	15080.89
265.12	15068.7
265.19	15086
265.259	15139.65
265.329	15174.4
265.398	15206.41
265.468	15314.43
265.537	15305.89
265.607	15338.91
265.676	15394.44
265.746	15418.74
265.815	15476.73
265.885	15477.69
265.955	15457.49
266.024	15457.06
266.094	15396.33
266.163	15464.04
266.232	15531.19
266.302	15549.94
266.371	15575.29
266.441	15596.5
266.51	15639.78
266.58	15647.88
266.649	15628.75
266.719	15674.92
266.788	15703.7
266.858	15771.8
266.927	15697.38
266.996	15726.16
267.066	15759.85
267.135	15731.02
267.205	15776.62
267.274	15798.89
267.343	15865.02
267.413	15888.11
267.482	15955.54
267.552	16018.39
267.621	15976.61
267.69	15939.11
267.76	15968.61
267.829	15990.97
267.898	16006.83
267.968	15988.85
268.037	16030.2
268.106	16082.84
268.176	16048.33
268.245	16056.47
268.314	16054.01
268.384	16116.91
268.453	16134.22
268.522	16155.28
268.592	16219
268.661	16205.65
268.73	16244.4
268.799	16229.03
268.869	16313.66
268.938	16264.21
269.007	16255.78
269.076	16269.47
269.146	16321.66
269.215	16341.33
269.284	16416.61
269.353	16413.38
269.422	16423.89
269.492	16420.8
269.561	16338.24
269.63	16374.15
269.699	16368.31
269.768	16386.34
269.838	16410.24
269.907	16455.21
269.976	16426.97
270.045	16374.53
270.114	16407.25
270.183	16402.87
270.253	16432.36
270.322	16384.46
270.391	16408.94
270.46	16475.26
270.529	16524.08
270.598	16568.42
270.667	16581.05
270.736	16550.06
270.806	16585.63
270.875	16654.31
270.944	16662.79
271.013	16791.28
271.082	16825.31
271.151	16861.31
271.22	16814.32
271.289	16826.65
271.358	16838.07
271.427	16873.69
271.496	16906.52
271.565	16905.07
271.634	16936.78
271.703	16987.1
271.772	17043.49
271.841	17060.6
271.91	17029.46
271.979	17055.63
272.048	17011.39
272.117	17051.82
272.186	17053.99
272.255	17107.2
272.324	17137.22
272.393	17172.21
272.462	17161.8
272.531	17173.22
272.6	17186.24
272.669	17262.34
272.738	17276.51
272.807	17301.71
272.876	17282.67
272.945	17419.69
273.013	17483.73
273.082	17541.85
273.151	17523.68
273.22	17566.96
273.289	17591.15
273.358	17680.98
273.427	17688.6
273.496	17755.78
273.564	17800.65
273.633	17858.19
273.702	17841.66
273.771	17850.28
273.84	17880.74
273.909	17920.31
273.977	17964.69
274.046	17974.76
274.115	18032.01
274.184	18025.7
274.253	18042.71
274.322	18132.11
274.39	18057.03
274.459	18049.36
274.528	18001.41
274.597	18035.53
274.665	18060.11
274.734	18130.13
274.803	18138.23
274.872	18157.02
274.94	18149.36
275.009	18279.38
275.078	18270.42
275.147	18308.49
275.215	18342.22
275.284	18414.56
275.353	18429.11
275.421	18393.5
275.49	18492.77
275.559	18502.74
275.627	18525.15
275.696	18550.21
275.765	18585.82
275.833	18611.8
275.902	18645.92
275.971	18734.35
276.039	18813.67
276.108	18877.23
276.177	18917.28
276.245	18928.41
276.314	18962.29
276.383	19024.6
276.451	18947.87
276.52	19005.32
276.588	19089.84
276.657	19146.37
276.725	19146.13
276.794	19187.57
276.863	19269.11
276.931	19233.4
277	19302.5
277.068	19381.73
277.137	19480.66
277.205	19513.82
277.274	19619.16
277.342	19699.45
277.411	19666.58
277.48	19668.75
277.548	19671.26
277.617	19717.28
277.685	19744.51
277.754	19804.12
277.822	19813.76
277.89	19904.56
277.959	19931.01
278.027	19903.78
278.096	19909.71
278.164	20049.86
278.233	20066.25
278.301	20076.47
278.37	20144.27
278.438	20142.92
278.507	20195.79
278.575	20150.97
278.643	20180.32
278.712	20165.72
278.78	20165.62
278.849	20262.34
278.917	20346
278.985	20370
279.054	20413.76
279.122	20486.49
279.191	20516.51
279.259	20558.34
279.327	20515.01
279.396	20613.77
279.464	20646.97
279.532	20714.1
279.601	20737.63
279.669	20773.68
279.737	20858.16
279.806	20904.63
279.874	20981.79
279.942	21004.83
280.011	21047.62
280.079	21109.75
280.147	21205.7
280.215	21258.91
280.284	21283.45
280.352	21275.83
280.42	21343.35
280.488	21368.42
280.557	21378.11
280.625	21429.29
280.693	21471.37
280.761	21536.44
280.83	21515.47
280.898	21605.89
280.966	21583.24
281.034	21519.61
281.102	21519.46
281.171	21535.27
281.239	21613.95
281.307	21622.58
281.375	21637.28
281.443	21758.61
281.512	21796.55
281.58	21864.67
281.648	21860.81
281.716	21901.98
281.784	21946.8
281.852	21975.39
281.92	21996.65
281.989	22084.29
282.057	22074.6
282.125	22268.65
282.193	22302.69
282.261	22347.42
282.329	22369.69
282.397	22437.03
282.465	22491.31
282.533	22591.09
282.601	22602.66
282.67	22555.65
282.738	22562.3
282.806	22637.36
282.874	22627.57
282.942	22669.33
283.01	22681.67
283.078	22746.61
283.146	22776.02
283.214	22848.34
283.282	22898.15
283.35	22988.32
283.418	23009.54
283.486	23063.34
283.554	22966.48
283.622	23006.16
283.69	23052.06
283.758	23079.5
283.826	23140.88
283.894	23221.51
283.962	23324.49
284.03	23424.21
284.098	23488.09
284.165	23530.52
284.233	23579.71
284.301	23609.94
284.369	23643.56
284.437	23657.78
284.505	23688.79
284.573	23791.95
284.641	23799.52
284.709	23867.19
284.777	23851.33
284.845	23920.74
284.912	23981.17
284.98	24047.44
285.048	24088.19
285.116	24149.84
285.184	24242.55
285.252	24292.33
285.319	24283.26
285.387	24287.31
285.455	24276.17
285.523	24347.95
285.591	24388.89
285.659	24442.87
285.726	24530.34
285.794	24514.81
285.862	24560.83
285.93	24603.08
285.997	24626.92
286.065	24660.44
286.133	24667.1
286.201	24709.79
286.269	24705.59
286.336	24723.97
286.404	24738.98
286.472	24809.96
286.539	24787.38
286.607	24774.74
286.675	24813.83
286.743	24883.93
286.81	24908.74
286.878	24999.74
286.946	25012.87
287.013	25066.99
287.081	25100.1
287.149	25096.58
287.216	25215.23
287.284	25243.8
287.352	25287.66
287.419	25311.36
287.487	25405.33
287.555	25472.57
287.622	25510.25
287.69	25565.56
287.758	25652.82
287.825	25690.22
287.893	25685.44
287.96	25741.56
288.028	25828.15
288.096	25879.52
288.163	25936
288.231	25947.05
288.298	25987.27
288.366	26080.36
288.433	26105.84
288.501	26131.14
288.569	26186.12
288.636	26205.92
288.704	26289.88
288.771	26370.75
288.839	26392.18
288.906	26406.28
288.974	26481.69
289.041	26526.78
289.109	26545.51
289.176	26625.89
289.244	26677.55
289.311	26769.74
289.379	26862.34
289.446	26905.58
289.514	26945.13
289.581	26984.74
289.649	27054.37
289.716	27103.16
289.783	27115.48
289.851	27237.53
289.918	27277.22
289.986	27361.23
290.053	27418.23
290.121	27463.17
290.188	27512.5
290.255	27650.05
290.323	27680.77
290.39	27701.36
290.458	27760.14
290.525	27856.14
290.592	27877.79
290.66	27940.98
290.727	27963.69
290.794	28052.19
290.862	28108.01
290.929	28170.06
290.996	28213.07
291.064	28276.72
291.131	28353.14
291.198	28430.77
291.266	28466.25
291.333	28524.47
291.4	28575.53
291.468	28681.22
291.535	28709.6
291.602	28759.92
291.669	28777.38
291.737	28853.94
291.804	28899.34
291.871	28994.68
291.938	29056.58
292.006	29193.68
292.073	29258.37
292.14	29355.18
292.207	29369.21
292.275	29403.06
292.342	29470.58
292.409	29602.59
292.476	29725.67
292.543	29741.15
292.611	29793.05
292.678	29887.68
292.745	30011.51
292.812	30086.79
292.879	30122.75
292.946	30186.98
293.014	30279.83
293.081	30364.7
293.148	30437.75
293.215	30536.96
293.282	30564.82
293.349	30641.44
293.416	30610.5
293.484	30709.81
293.551	30780.63
293.618	30880.52
293.685	31015.52
293.752	31045.96
293.819	31077.58
293.886	31089.74
293.953	31165.72
294.02	31243.27
294.087	31305.69
294.154	31321.18
294.221	31411.84
294.288	31457.5
294.356	31559.99
294.423	31617.67
294.49	31627.5
294.557	31717.81
294.624	31730.84
294.691	31846.13
294.758	31898.49
294.825	31963.76
294.892	31980.47
294.959	32015.34
295.026	32090.33
295.093	32118
295.16	32162.93
295.226	32204.44
295.293	32326.17
295.36	32388.07
295.427	32477.08
295.494	32564.85
295.561	32642.25
295.628	32763.08
295.695	32852.48
295.762	32900.69
295.829	32992.64
295.896	33096.22
295.963	33183.67
296.03	33265.21
296.096	33331.81
296.163	33414.84
296.23	33538.15
296.297	33633.18
296.364	33688.57
296.431	33735.98
296.498	33777.47
296.564	33920.79
296.631	33989.62
296.698	33987.49
296.765	34097.64
296.832	34110.73
296.899	34110.34
296.965	34231.9
297.032	34209.29
297.099	34334.59
297.166	34432.83
297.233	34451.16
297.299	34472.64
297.366	34510.72
297.433	34569.34
297.5	34655.15
297.566	34707.73
297.633	34744.3
297.7	34808.42
297.767	34850.12
297.833	34943.16
297.9	34995.24
297.967	34985.88
298.033	35078.82
298.1	35224.82
298.167	35249.75
298.234	35317.75
298.3	35406.18
298.367	35420.83
298.434	35494.15
298.5	35488.28
298.567	35503.95
298.634	35562.7
298.7	35689.18
298.767	35752.55
298.834	35854.4
298.9	35879.06
298.967	35899.14
299.033	35980.05
299.1	36074.2
299.167	36172.45
299.233	36187.64
299.3	36269.5
299.366	36379.02
299.433	36475.63
299.5	36442.91
299.566	36508.76
299.633	36614.24
299.699	36699.67
299.766	36759.42
299.832	36830.16
299.899	36905.84
299.965	37004.37
300.032	37046.12
300.099	37113.02
300.165	37188.32
300.232	37225.08
300.298	37272.02
300.365	37376.34
300.431	37438.5
300.498	37467
300.564	37545.94
300.631	37636.59
300.697	37743.76
300.763	37782.02
300.83	37810.53
300.896	37910.45
300.963	38000.38
301.029	38069.1
301.096	38124.62
301.162	38205.23
301.229	38234.41
301.295	38254.13
301.361	38315.33
301.428	38374.27
301.494	38365.82
301.561	38405.7
301.627	38461.69
301.693	38528.76
301.76	38586.22
301.826	38610.8
301.892	38698.04
301.959	38773.72
302.025	38812.33
302.092	38839.39
302.158	38914.14
302.224	38973.95
302.291	38997.41
302.357	39025.29
302.423	39053.57
302.49	39073.24
302.556	39151.9
302.622	39202.03
302.688	39297.3
302.755	39390.78
302.821	39465.59
302.887	39552.15
302.954	39601.94
303.02	39674.68
303.086	39738.37
303.152	39782.78
303.219	39819.07
303.285	39878.31
303.351	39941.92
303.417	39999.88
303.483	40031.42
303.55	40051.43
303.616	40104.31
303.682	40138.31
303.748	40166.83
303.815	40252.42
303.881	40337.5
303.947	40346.54
304.013	40407.72
304.079	40415.93
304.145	40386.92
304.212	40422.73
304.278	40439.06
304.344	40478.52
304.41	40474.92
304.476	40496.25
304.542	40522.84
304.608	40594.08
304.674	40592.33
304.741	40616.88
304.807	40664.36
304.873	40724.92
304.939	40826.64
305.005	40803.36
305.071	40837.95
305.137	40877.66
305.203	40833.77
305.269	40875.96
305.335	40954.03
305.401	40979.45
305.467	41011.28
305.533	41088.61
305.599	41157.88
305.666	41240.84
305.732	41272.34
305.798	41358.9
305.864	41469.5
305.93	41522.24
305.996	41554.96
306.062	41580.47
306.128	41606.29
306.194	41608.33
306.259	41646.1
306.325	41659.72
306.391	41732.77
306.457	41813.71
306.523	41862.22
306.589	41992.8
306.655	42000.92
306.721	41976.13
306.787	41979.33
306.853	42072.53
306.919	42051.39
306.985	42067.48
307.051	42086.39
307.117	42108.65
307.183	42129.32
307.248	42081.13
307.314	42135.98
307.38	42180.81
307.446	42251.84
307.512	42261.96
307.578	42315.97
307.644	42327.1
307.709	42368.24
307.775	42394.93
307.841	42413.22
307.907	42460.96
307.973	42425.07
308.039	42456.73
308.104	42519.79
308.17	42570.94
308.236	42565.25
308.302	42618.43
308.368	42615.03
308.433	42642.84
308.499	42678.87
308.565	42685.78
308.631	42733.33
308.696	42703.77
308.762	42695.26
308.828	42724.24
308.894	42698.47
308.959	42677.91
309.025	42698.33
309.091	42727.03
309.156	42741.76
309.222	42804.11
309.288	42809.31
309.354	42801
309.419	42839.71
309.485	42833.2
309.551	42883
309.616	42867.1
309.682	42900.46
309.748	42932.6
309.813	42958.18
309.879	42956.72
309.945	42954.92
310.01	42975.44
310.076	43017.75
310.141	43036.57
310.207	43019.25
310.273	43070.7
310.338	43117.18
310.404	43099.48
310.469	43090.78
310.535	43095.2
310.601	43040
310.666	43094.72
310.732	43157.8
310.797	43150.35
310.863	43151.47
310.928	43165.34
310.994	43216.25
311.059	43229.44
311.125	43240.67
311.191	43302.3
311.256	43308.14
311.322	43363.78
311.387	43334.26
311.453	44250.13
311.518	44293.33
311.584	44326.6
311.649	44384.82
311.715	44396.15
311.78	44451.01
311.846	44458.06
311.911	44530.88
311.976	44574.9
312.042	44552.67
312.107	44534.09
312.173	44543.82
312.238	44569.4
312.304	44589.59
312.369	44595.04
312.434	44603.5
312.5	44621.93
312.565	44553
312.631	44604.56
312.696	44624.55
312.761	44666.04
312.827	43795.93
312.892	43875.94
312.958	43907.61
313.023	43918.02
313.088	43951.44
313.154	43928.97
313.219	43933.78
313.284	43909.89
313.35	43933.29
313.415	43951.49
313.48	43970.16
313.546	44026.11
313.611	44089.12
313.676	44088.48
313.741	44107.89
313.807	44159.95
313.872	44228.26
313.937	44288.29
314.003	44356.31
314.068	44374.12
314.133	44433.72
314.198	44429.63
314.264	44395.56
314.329	44393.62
314.394	44420.57
314.459	44434.29
314.525	44527.8
314.59	44540.2
314.655	44544.53
314.72	44604
314.785	44632.02
314.851	44639.81
314.916	44601.85
314.981	44576.46
315.046	44572.76
315.111	44569.01
315.176	44550.81
315.242	44563.81
315.307	44598.07
315.372	44574.32
315.437	44577.82
315.502	44579.72
315.567	44651.5
315.632	44627.75
315.698	44653.88
315.763	44672.33
315.828	44674.37
315.893	44675.69
315.958	44694.03
316.023	44697.09
316.088	44642.15
316.153	44590.39
316.218	44601.19
316.283	44557.02
316.348	44520.83
316.413	44534.55
316.479	44497.58
316.544	44409.11
316.609	44308.84
316.674	44175.84
316.739	44043.59
316.804	43941.98
316.869	43819.6
316.934	43661.3
316.999	43538.98
317.064	43350.76
317.129	43183.14
317.194	43052.28
317.259	42871.4
317.324	42678.27
317.389	42497.59
317.454	42351.71
317.518	42220.14
317.583	42097.5
317.648	41988.55
317.713	41835.65
317.778	41595.09
317.843	41458.29
317.908	41296.39
317.973	41136.47
318.038	41000.33
318.103	40844.58
318.168	40688.77
318.233	40537.62
318.297	40335.96
318.362	40175.75
318.427	40012.27
318.492	39878.63
318.557	39663.17
318.622	39535.38
318.687	39413.7
318.751	39231.56
318.816	39056.77
318.881	38878.55
318.946	38633.1
319.011	38426.72
319.075	38228.53
319.14	38041.41
319.205	37811.81
319.27	37626.88
319.335	37406.08
319.399	37202.31
319.464	37029.98
319.529	36775.41
319.594	36566.76
319.658	36396.32
319.723	36169.74
319.788	35984.48
319.853	35711.47
319.917	35523.4
319.982	35244.75
320.047	35009.67
320.112	34838.65
320.176	34580.53
320.241	34368.05
320.306	34179.12
320.37	33951.1
320.435	33755.02
320.5	33568.64
320.564	33358.91
320.629	33127.48
320.694	32929.28
320.758	32702.66
320.823	32460.51
320.888	32284.01
320.952	32030.01
321.017	31800.57
321.082	31583.35
321.146	31379.1
321.211	31182.54
321.275	30957.38
321.34	30723.66
321.405	30496.95
321.469	30247.39
321.534	30023.48
321.598	29766.85
321.663	29564.4
321.727	29361.16
321.792	29099
321.857	28867.51
321.921	28638.64
321.986	28406.38
322.05	28123.73
322.115	27898.38
322.179	27661.98
322.244	27369.01
322.308	27154.1
322.373	26896.18
322.437	26658.92
322.502	26463.84
322.566	26214.33
322.631	25993.41
322.695	25767.77
322.76	25522.88
322.824	25300.57
322.889	25050.54
322.953	24793.4
323.018	24474.3
323.082	24151.58
323.146	23877.68
323.211	23598.16
323.275	23341.72
323.34	23081.66
323.404	22863.44
323.468	22602.52
323.533	22344.96
323.597	22096.72
323.662	21818.4
323.726	21596.79
323.79	21337.84
323.855	21012.94
323.919	20736.36
323.983	20473.62
324.048	20078.98
324.112	20266.63
324.177	19462.47
324.241	18406.88
324.305	17371.78
324.37	16349.08
324.434	15364.64
324.498	15095.14
324.562	14787.2
324.627	14441.83
324.691	14102.87
324.755	13710.6
324.82	13274.25
324.884	12814.74
324.948	12349.39
325.012	11785.06
325.077	11072.5
