Data from 20250701_urea_2M_exp3_MAYP1162681_15-19-49-014.txt Node
Date: Tue Jul 01 15:19:49 BST 2025
User: adleo
Spectrometer: MAYP116268
Trigger mode: 0
Integration Time (sec): 4.000000E0
Scans to average: 1
Electric dark correction enabled: true
Nonlinearity correction enabled: true
Boxcar width: 10
XAxis mode: Wavelengths
Number of Pixels in Spectrum: 2068
>>>>>Begin Spectral Data<<<<<
179.565	4187.63
179.642	4410.95
179.718	4585.17
179.795	4733.06
179.871	4866.4
179.948	4937.28
180.024	5016.29
180.101	5106.86
180.177	5166.41
180.254	5259.08
180.33	5347.63
180.407	5655.8
180.483	5981.39
180.56	6308.66
180.636	6611.26
180.712	6571.04
180.789	6607.69
180.865	6654.58
180.942	6685.6
181.018	6727
181.095	6780.82
181.171	6799.26
181.248	6801.38
181.324	6857.65
181.4	6884.7
181.477	6919.73
181.553	6976.97
181.63	7061.06
181.706	7117.72
181.782	7146.05
181.859	7141.34
181.935	7156.53
182.011	7143.41
182.088	7202.86
182.164	7283.17
182.24	7338.41
182.317	7370.56
182.393	7364.79
182.469	7411.55
182.546	7459.81
182.622	7479.23
182.698	7465.91
182.775	7511.63
182.851	7564.6
182.927	7531.48
183.003	7517.21
183.08	7497.55
183.156	7526.59
183.232	7514.47
183.308	7473.27
183.385	7503.93
183.461	7564.89
183.537	7575.23
183.613	7619.07
183.69	7587.73
183.766	7543.56
183.842	7563.62
183.918	7579.67
183.995	7625.1
184.071	7640.97
184.147	7622.99
184.223	7581.72
184.299	7622.84
184.375	7578.9
184.452	7597.13
184.528	7738.71
184.604	7778.85
184.68	7822.4
184.756	7846.26
184.832	7859.54
184.908	7878.18
184.985	7876.84
185.061	7824.04
185.137	7855.31
185.213	7816.75
185.289	7830.49
185.365	7807.9
185.441	7808.33
185.517	7866.74
185.593	7851.16
185.669	7842.36
185.745	7877.08
185.822	7940.33
185.898	7914.16
185.974	7948.92
186.05	7922.89
186.126	7844.17
186.202	7820.75
186.278	7808.2
186.354	7772.47
186.43	7796.19
186.506	7790.76
186.582	7790.47
186.658	7813.3
186.734	7731.87
186.81	7745.04
186.886	7746.24
186.962	7789.32
187.038	7775.47
187.114	7741.4
187.19	7773.67
187.266	7739.49
187.341	7745.89
187.417	7713.72
187.493	7710.55
187.569	7722.62
187.645	7709.21
187.721	7666.83
187.797	7694.71
187.873	7715.06
187.949	7693.62
188.025	7671.06
188.101	7681.82
188.176	7696.49
188.252	7686.58
188.328	7719.83
188.404	7714.4
188.48	7693.78
188.556	7666.75
188.632	7660.45
188.707	7667.19
188.783	7649.48
188.859	7626.66
188.935	7586.36
189.011	7615.54
189.086	7589.06
189.162	7560.21
189.238	7546.17
189.314	7534.82
189.39	7509.49
189.465	7479.05
189.541	7542.71
189.617	7484.69
189.693	7465.18
189.768	7483.6
189.844	7565.14
189.92	7534.73
189.996	7567.81
190.071	7611.9
190.147	7608.2
190.223	7642.63
190.298	7609.3
190.374	7565.99
190.45	7616.59
190.526	7643.47
190.601	7622.61
190.677	7635.39
190.753	7733.45
190.828	7747.06
190.904	7807.04
190.98	7869.18
191.055	7907.61
191.131	7870.66
191.207	7949.47
191.282	7984.71
191.358	7945.9
191.433	7893.11
191.509	7944.44
191.585	7936.26
191.66	7938.04
191.736	7966.99
191.811	7932.65
191.887	7995.1
191.963	8087.78
192.038	8103.56
192.114	8108.03
192.189	8125.58
192.265	8113.28
192.34	8039.5
192.416	8035.51
192.491	8014.05
192.567	8022.71
192.642	8033.2
192.718	8040.32
192.793	7998.32
192.869	7982.31
192.944	7988.85
193.02	8013.87
193.095	8028.06
193.171	8045.08
193.246	8045.81
193.322	8029.79
193.397	8034.21
193.473	7981.09
193.548	7910.95
193.624	7937.07
193.699	7929.71
193.775	7988.9
193.85	7990.82
193.925	8019.16
194.001	8013.49
194.076	7990.64
194.152	7952.87
194.227	7920.11
194.302	7881.51
194.378	7892.14
194.453	7882.71
194.529	7933.65
194.604	7885.84
194.679	7861.08
194.755	7793.67
194.83	7835.45
194.905	7832.27
194.981	7867.77
195.056	7841.71
195.131	7860.42
195.207	7850.7
195.282	7815.31
195.357	7745.25
195.433	7803.54
195.508	7756.21
195.583	7785.44
195.659	7834.85
195.734	7856.69
195.809	7853.91
195.884	7888.61
195.96	7888.71
196.035	7943.34
196.11	7923.66
196.185	7961.8
196.261	7976.27
196.336	8090.6
196.411	8041.85
196.486	8065.75
196.561	8034.87
196.637	8067.95
196.712	8133.45
196.787	8150.01
196.862	8207
196.937	8240.62
197.013	8265.31
197.088	8304.79
197.163	8380.7
197.238	8445.95
197.313	8443.01
197.388	8498.1
197.464	8612.52
197.539	8653.03
197.614	8633.31
197.689	8681
197.764	8745.17
197.839	8820.87
197.914	8796.22
197.989	8876.99
198.065	8927.58
198.14	9117.84
198.215	9215.66
198.29	9256.36
198.365	9292.95
198.44	9333.29
198.515	9437.73
198.59	9492.63
198.665	9592.21
198.74	9625.97
198.815	9626.5
198.89	9710.91
198.965	9817.46
199.04	9801.08
199.115	9860.36
199.19	10011.57
199.265	10017.54
199.34	10055.16
199.415	10177.3
199.49	10256.95
199.565	10290
199.64	10376.85
199.715	10367.74
199.79	10388.89
199.865	10412.89
199.94	10414.76
200.015	10529.82
200.09	10549.43
200.165	10567.35
200.24	10592.02
200.315	10734.35
200.39	10786.34
200.464	10809.08
200.539	10812.55
200.614	10870.36
200.689	10958.4
200.764	10989.44
200.839	11056.54
200.914	11068.68
200.989	11030.32
201.063	11081.44
201.138	11021.24
201.213	11021.92
201.288	10947.23
201.363	10966.02
201.438	10963.27
201.512	11021.52
201.587	10959.21
201.662	10973.81
201.737	11016.7
201.812	11047.49
201.886	10927.38
201.961	10963.09
202.036	10921.13
202.111	10910.96
202.186	10796.96
202.26	10735.95
202.335	10648.2
202.41	10636.64
202.485	10578.35
202.559	10506.56
202.634	10406.64
202.709	10436.01
202.784	10371.5
202.858	10371.74
202.933	10303.05
203.008	10275.54
203.082	10196.3
203.157	10191.53
203.232	10032.87
203.306	9956.16
203.381	9835.05
203.456	9750.71
203.53	9666.9
203.605	9593.83
203.68	9509.57
203.754	9488.31
203.829	9422.22
203.904	9352.74
203.978	9301.59
204.053	9312.91
204.127	9261.73
204.202	9257.93
204.277	9194.04
204.351	9163.46
204.426	9142.13
204.5	9110.83
204.575	8981.62
204.65	9021.16
204.724	8992.69
204.799	9023.67
204.873	9005.13
204.948	8996.32
205.022	8955.51
205.097	8923.19
205.171	8968.43
205.246	8993.19
205.32	8991.79
205.395	8995.07
205.469	8961.29
205.544	8981.52
205.618	8921.39
205.693	8966.02
205.767	8922.41
205.842	9001.27
205.916	8974.61
205.991	8931.14
206.065	8953.91
206.14	9024.33
206.214	9008.19
206.289	8981.8
206.363	9023.73
206.438	9035.58
206.512	9067.6
206.586	9134.12
206.661	9171.11
206.735	9095.42
206.81	9099.32
206.884	9159.3
206.958	9111.07
207.033	9169.97
207.107	9193.72
207.181	9308.67
207.256	9288.06
207.33	9356.09
207.405	9404.61
207.479	9475.43
207.553	9501.81
207.628	9438.72
207.702	9472.32
207.776	9448.73
207.851	9460.96
207.925	9515.49
207.999	9498.25
208.073	9483.22
208.148	9491.99
208.222	9447.15
208.296	9566.13
208.371	9631.66
208.445	9669.04
208.519	9773.13
208.593	9822.5
208.668	9811.18
208.742	9825.34
208.816	9827.7
208.89	9881.71
208.965	9875.78
209.039	9900.02
209.113	9972.17
209.187	10051.87
209.261	10041.96
209.336	10110.16
209.41	10179.48
209.484	10177.22
209.558	10262.43
209.632	10316.04
209.707	10358.72
209.781	10437.44
209.855	10495.36
209.929	10555.27
210.003	10573.29
210.077	10570.25
210.151	10741.59
210.226	10866.27
210.3	10959.73
210.374	11052.8
210.448	11061.91
210.522	11097.43
210.596	11145.76
210.67	11171.2
210.744	11348.26
210.818	11466.06
210.892	11544.71
210.966	11520.81
211.041	11591.47
211.115	11578.98
211.189	11660.38
211.263	11722.41
211.337	11745.68
211.411	11791.18
211.485	11766.26
211.559	11809.06
211.633	11826.55
211.707	11715.24
211.781	11742.34
211.855	11608.93
211.929	11572.79
212.003	11501.2
212.077	11533.01
212.151	11572.15
212.225	11607.38
212.299	11562.36
212.373	11514.16
212.447	11490.16
212.52	11599.32
212.594	11597.68
212.668	11642.79
212.742	11589.34
212.816	11564.95
212.89	11537.34
212.964	11533.92
213.038	11538.54
213.112	11580.58
213.186	11623.85
213.26	11536.21
213.333	11358.05
213.407	11371.26
213.481	11374.39
213.555	11411.62
213.629	11360.68
213.703	11286.36
213.777	11272.09
213.85	11191.17
213.924	11299.33
213.998	11300.72
214.072	11260.43
214.146	11197.34
214.219	11166.59
214.293	11144.62
214.367	11130.4
214.441	11154.55
214.515	11097.63
214.588	10998.36
214.662	10854.04
214.736	10762.69
214.81	10774.97
214.883	10797.03
214.957	10742.69
215.031	10685.09
215.105	10584.98
215.178	10513.48
215.252	10474.46
215.326	10357
215.4	10263.33
215.473	10068.47
215.547	9964.64
215.621	9892.26
215.694	9887.49
215.768	9780.7
215.842	9703.4
215.915	9626.22
215.989	9502.91
216.063	9436.42
216.136	9411.09
216.21	9389.37
216.284	9401.22
216.357	9375.7
216.431	9327.83
216.504	9326.25
216.578	9380.72
216.652	9392.6
216.725	9366.17
216.799	9366.89
216.873	9352.25
216.946	9361.06
217.02	9323.05
217.093	9293.63
217.167	9186.55
217.24	9095.05
217.314	9058.53
217.387	9007.58
217.461	8959.2
217.535	8978.55
217.608	8908.61
217.682	8883.91
217.755	8895.32
217.829	8828.01
217.902	8809.95
217.976	8787.53
218.049	8734.72
218.123	8653.82
218.196	8646.36
218.27	8608.77
218.343	8538.62
218.417	8531.73
218.49	8503.58
218.563	8546.94
218.637	8553.73
218.71	8631.47
218.784	8661.31
218.857	8693.55
218.931	8724.05
219.004	8738.78
219.077	8760.25
219.151	8781.95
219.224	8767.13
219.298	8761.11
219.371	8812.33
219.444	8771.39
219.518	8783.03
219.591	8803.68
219.665	8918.02
219.738	8940.2
219.811	8919.95
219.885	8964.58
219.958	9004.97
220.031	9009.3
220.105	9035.83
220.178	9040.36
220.251	9018.01
220.325	9047.44
220.398	9076.18
220.471	9096.06
220.544	9132.31
220.618	9117.67
220.691	9151.56
220.764	9173.12
220.838	9205.77
220.911	9193.25
220.984	9290.69
221.057	9329.59
221.131	9354.76
221.204	9252.02
221.277	9326.86
221.35	9461.78
221.424	9463.37
221.497	9476.38
221.57	9503.62
221.643	9535.36
221.716	9590.99
221.79	9596.82
221.863	9609.58
221.936	9614.11
222.009	9635.24
222.082	9668.81
222.155	9672.14
222.229	9738.95
222.302	9774.73
222.375	9782.87
222.448	9827.23
222.521	9830.02
222.594	9836.24
222.667	9804.37
222.74	9865.05
222.814	9861.63
222.887	9846.25
222.96	9899.05
223.033	9948.91
223.106	9980.5
223.179	10021.46
223.252	10031.34
223.325	10070.16
223.398	10086.78
223.471	10123.34
223.544	10144.24
223.617	10161.15
223.69	10191.44
223.763	10160.32
223.837	10185.95
223.91	10218.66
223.983	10172.66
224.056	10130.76
224.129	10155.18
224.202	10223.26
224.275	10210.93
224.348	10178.03
224.42	10145.71
224.493	10085.74
224.566	10058.51
224.639	10084.96
224.712	10047.13
224.785	10039.71
224.858	10025.17
224.931	10005.32
225.004	9959.85
225.077	9962.16
225.15	9865.41
225.223	9859.92
225.296	9951.14
225.369	9887.38
225.442	9853.37
225.514	9871.14
225.587	9903.31
225.66	9913.76
225.733	9913.04
225.806	9930.14
225.879	9927.63
225.952	9894.5
226.025	9948.02
226.097	10000.88
226.17	9989.7
226.243	9925.84
226.316	9919.53
226.389	9925.26
226.461	9955.23
226.534	9980.95
226.607	9970.16
226.68	10065.61
226.753	10065.99
226.825	9969.61
226.898	10041.33
226.971	10048.94
227.044	10066.71
227.117	10076.83
227.189	10099.04
227.262	10143.37
227.335	10156.57
227.407	10154.4
227.48	10192.16
227.553	10201.94
227.626	10185.94
227.698	10199.86
227.771	10241.61
227.844	10224.51
227.916	10254.38
227.989	10213.72
228.062	10217.43
228.134	10328.06
228.207	10331.91
228.28	10327.14
228.352	10343.38
228.425	10351.91
228.498	10405
228.57	10392.24
228.643	10457.77
228.716	10459.22
228.788	10442.06
228.861	10442.35
228.934	10515.72
229.006	10532.06
229.079	10551.09
229.151	10540.49
229.224	10501.33
229.296	10535.77
229.369	10655.34
229.442	10707.53
229.514	10686.24
229.587	10735.29
229.659	10647.44
229.732	10662.86
229.804	10701.64
229.877	10803.62
229.949	10840.92
230.022	10896.59
230.094	10896.4
230.167	10884.01
230.239	10843.68
230.312	10835.16
230.384	10923.45
230.457	10921.04
230.529	10920.99
230.602	10915.21
230.674	10923.88
230.747	10984.34
230.819	11024.14
230.892	10889.99
230.964	10889.55
231.037	10928.33
231.109	10915.94
231.181	10955.16
231.254	10915.65
231.326	10906.74
231.399	10871.17
231.471	10836.56
231.544	10744.95
231.616	10796.21
231.688	10805.56
231.761	10792.7
231.833	10787.59
231.905	10692.65
231.978	10690.05
232.05	10686.53
232.122	10697.18
232.195	10675.88
232.267	10714.63
232.339	10691.3
232.412	10766.85
232.484	10741.93
232.556	10714.33
232.629	10791.83
232.701	10821.8
232.773	10847.58
232.846	10847.39
232.918	10858.42
232.99	10884.69
233.062	10948.44
233.135	10968.88
233.207	10933.45
233.279	10988.96
233.351	11031.94
233.424	11040.37
233.496	11017.29
233.568	11113.09
233.64	11074.79
233.713	11096.86
233.785	11094.49
233.857	11110.88
233.929	11061.88
234.001	11135.91
234.074	11213.77
234.146	11140.8
234.218	11141.81
234.29	11144.7
234.362	11137.09
234.434	11089.95
234.507	11059.26
234.579	10999.31
234.651	10979.79
234.723	11020.75
234.795	11038.68
234.867	11034.44
234.939	11103.94
235.012	11132.13
235.084	11136.9
235.156	11177.66
235.228	11164.46
235.3	11143.88
235.372	11158.87
235.444	11223.78
235.516	11143.33
235.588	11153.7
235.66	11179.04
235.732	11149.07
235.804	11359.37
235.876	11408.43
235.948	11476.87
236.02	11495.37
236.092	11515.18
236.164	11536.28
236.236	11532.91
236.308	11536.33
236.38	11569.68
236.452	11550.6
236.524	11575.27
236.596	11649.65
236.668	11691.25
236.74	11722.77
236.812	11761.32
236.884	11805.67
236.956	11822.78
237.028	11820.76
237.1	11809.96
237.172	11889.25
237.244	11980.15
237.316	11861.52
237.388	11847.64
237.46	11829.13
237.532	11901.19
237.604	11902.35
237.675	11991.13
237.747	12048.64
237.819	12042.81
237.891	12050.09
237.963	12039.19
238.035	12038.71
238.107	11921.87
238.178	12000.58
238.25	12010.03
238.322	12117.91
238.394	12067.79
238.466	12074.77
238.538	12130.01
238.609	12177.2
238.681	12126.82
238.753	12109.42
238.825	12133.28
238.897	12172.56
238.968	12277.41
239.04	12260.63
239.112	12391.55
239.184	12353.42
239.255	12357.51
239.327	12402.34
239.399	12431.41
239.471	12491.71
239.542	12535.09
239.614	12611.87
239.686	12520.43
239.758	12586.71
239.829	12545.49
239.901	12617.31
239.973	12645.61
240.044	12688.08
240.116	12708.42
240.188	12727.65
240.259	12740.14
240.331	12733.29
240.403	12783.38
240.474	12727.07
240.546	12716.85
240.618	12655.82
240.689	12654.57
240.761	12680.79
240.833	12760.09
240.904	12763.56
240.976	12774.22
241.048	12799.62
241.119	12847.44
241.191	12903.12
241.262	12980.25
241.334	12991.72
241.405	13014.91
241.477	13014.09
241.549	13022.77
241.62	13059.11
241.692	13115.9
241.763	13199.83
241.835	13228.85
241.906	13247.41
241.978	13225.23
242.049	13302.36
242.121	13376.16
242.192	13458.21
242.264	13425.14
242.335	13378.81
242.407	13435.99
242.478	13437.72
242.55	13463.99
242.621	13454.02
242.693	13464.62
242.764	13453.15
242.836	13464.28
242.907	13499.19
242.979	13545.99
243.05	13579.35
243.122	13615.75
243.193	13617.48
243.264	13534.81
243.336	13547.63
243.407	13596.18
243.479	13684.06
243.55	13711.29
243.622	13722.28
243.693	13725.61
243.764	13802.64
243.836	13778.3
243.907	13770.59
243.978	13785.1
244.05	13820.63
244.121	13775.75
244.192	13828.05
244.264	13789.05
244.335	13806.31
244.407	13757.62
244.478	13783.46
244.549	13779.84
244.62	13732.31
244.692	13738.96
244.763	13796.57
244.834	13788.13
244.906	13767.31
244.977	13801.25
245.048	13870.75
245.119	13853.69
245.191	13832.72
245.262	13774.25
245.333	13865.21
245.405	13894.38
245.476	13932.31
245.547	13952.8
245.618	14014.7
245.689	14037.21
245.761	14076.93
245.832	14094.19
245.903	14148.08
245.974	14184.96
246.045	14208.92
246.117	14303.64
246.188	14294.58
246.259	14283.4
246.33	14308.17
246.401	14326.11
246.473	14297.38
246.544	14291.3
246.615	14373.54
246.686	14386.36
246.757	14478.44
246.828	14470.1
246.899	14553.15
246.97	14526.11
247.042	14523.31
247.113	14581.54
247.184	14679.34
247.255	14684.5
247.326	14712.41
247.397	14726.58
247.468	14739.26
247.539	14763.89
247.61	14728.46
247.681	14774.11
247.752	14845.55
247.823	14826.56
247.894	14855.91
247.965	14827.71
248.037	14816.24
248.108	14754.3
248.179	14771.46
248.25	14764.71
248.321	14796.19
248.392	14752.09
248.463	14849.56
248.534	14851.82
248.605	14873.37
248.675	14848.64
248.746	14867.68
248.817	14894.1
248.888	14917.33
248.959	14859.49
249.03	14886.24
249.101	14895.64
249.172	14892.84
249.243	14807.91
249.314	14882.28
249.385	14887.68
249.456	14928.71
249.527	14930.78
249.598	14957.63
249.669	14960.47
249.739	14974.74
249.81	14989.06
249.881	14941.67
249.952	14932.56
250.023	14930.2
250.094	14881.18
250.165	14841.66
250.235	14842.28
250.306	14848.07
250.377	14813.12
250.448	14840.55
250.519	14769.69
250.59	14836.35
250.66	14836.54
250.731	14921.38
250.802	14924.04
250.873	14949.92
250.944	14975.18
251.014	14962.21
251.085	15072.54
251.156	15108.6
251.227	15173.19
251.297	15226.83
251.368	15293.45
251.439	15339.38
251.51	15408.7
251.58	15396.6
251.651	15406.72
251.722	15478.15
251.792	15428.84
251.863	15444.27
251.934	15526.84
252.005	15660.74
252.075	15664.55
252.146	15721.57
252.217	15782.45
252.287	15833.3
252.358	15845.45
252.429	15926.47
252.499	15929.46
252.57	15934.9
252.641	15988.07
252.711	16001.61
252.782	15962.52
252.852	16044.89
252.923	16054.87
252.994	16069.47
253.064	16128.32
253.135	16109.28
253.205	16082.97
253.276	16168.67
253.347	16246.42
253.417	16220.29
253.488	16188.2
253.558	16178.17
253.629	16185.21
253.699	16197.3
253.77	16226.51
253.841	16223.04
253.911	16244.34
253.982	16259.77
254.052	16302.27
254.123	16314.37
254.193	16316.97
254.264	16468.93
254.334	16445.32
254.405	16413.5
254.475	16387.57
254.546	16406.42
254.616	16474.72
254.687	16510.62
254.757	16535.98
254.827	16542
254.898	16570.24
254.968	16597.86
255.039	16590.54
255.109	16636.95
255.18	16613.96
255.25	16543.64
255.321	16576.75
255.391	16518.58
255.461	16609.63
255.532	16524.13
255.602	16519.89
255.673	16463.79
255.743	16431.45
255.813	16344.98
255.884	16403.11
255.954	16443.59
256.024	16512.12
256.095	16524.61
256.165	16497.09
256.235	16520.7
256.306	16507.45
256.376	16571.16
256.446	16615.06
256.517	16662.88
256.587	16706.4
256.657	16735.94
256.728	16766.84
256.798	16787.75
256.868	16811.71
256.938	16794.02
257.009	16848.29
257.079	16892.14
257.149	17001.93
257.219	16934.9
257.29	16995.48
257.36	16937.31
257.43	16992.73
257.5	16923.48
257.571	16904.44
257.641	16948.06
257.711	16928.01
257.781	16964.3
257.852	16976.01
257.922	16911.14
257.992	16918.9
258.062	16923.33
258.132	16974.03
258.202	16983.87
258.273	17000.93
258.343	17070.42
258.413	17061.7
258.483	17069.41
258.553	17034.03
258.623	17012.39
258.693	17058.04
258.764	17128.16
258.834	17207.59
258.904	17221.61
258.974	17214.33
259.044	17240.84
259.114	17281.18
259.184	17309.22
259.254	17320.89
259.324	17271.1
259.394	17327.2
259.464	17413.71
259.535	17420.26
259.605	17419.78
259.675	17419.01
259.745	17466.38
259.815	17454.81
259.885	17457.22
259.955	17579.48
260.025	17575.44
260.095	17588.11
260.165	17623.39
260.235	17702.76
260.305	17687.14
260.375	17658.08
260.445	17765.94
260.515	17839.77
260.585	17898.85
260.655	17913.79
260.725	17966.9
260.795	18008.63
260.865	18087.86
260.934	18053.79
261.004	18089.79
261.074	18091.38
261.144	18159.57
261.214	18197.3
261.284	18189.88
261.354	18227.81
261.424	18179.81
261.494	18269.64
261.564	18279.86
261.634	18309.69
261.703	18224.97
261.773	18259.24
261.843	18294.51
261.913	18289.74
261.983	18229.26
262.053	18245.93
262.123	18240.06
262.192	18192.39
262.262	18244.25
262.332	18187.14
262.402	18222.51
262.472	18233.93
262.541	18166.41
262.611	18208.87
262.681	18180.2
262.751	18227.09
262.821	18240
262.89	18208.24
262.96	18229.5
263.03	18315.8
263.1	18334.6
263.169	18361.68
263.239	18395.85
263.309	18468.28
263.379	18498.93
263.448	18526.2
263.518	18551.31
263.588	18568.32
263.657	18660.22
263.727	18702.63
263.797	18724.7
263.867	18723.16
263.936	18678.92
264.006	18760.42
264.076	18756.17
264.145	18756.08
264.215	18735.69
264.285	18782.92
264.354	18742.92
264.424	18721.67
264.494	18675.46
264.563	18683.74
264.633	18768.13
264.702	18789.81
264.772	18723.45
264.842	18717.77
264.911	18755.31
264.981	18706.2
265.05	18732.32
265.12	18721.96
265.19	18737.91
265.259	18789.04
265.329	18829.47
265.398	18863.06
265.468	18971.97
265.537	18968.16
265.607	19006.91
265.676	19069.12
265.746	19103.53
265.815	19170.8
265.885	19186.71
265.955	19168.87
266.024	19156.01
266.094	19088.59
266.163	19161.7
266.232	19245.31
266.302	19256.92
266.371	19285.11
266.441	19310.12
266.51	19352.29
266.58	19361.59
266.649	19335.23
266.719	19393.68
266.788	19425.92
266.858	19506.16
266.927	19421.59
266.996	19449.97
267.066	19484.23
267.135	19447.37
267.205	19489.68
267.274	19509.39
267.343	19577.24
267.413	19606.2
267.482	19680.23
267.552	19756.41
267.621	19707.11
267.69	19662.44
267.76	19694.2
267.829	19725.38
267.898	19747.98
267.968	19731.64
268.037	19773.04
268.106	19841.95
268.176	19797.28
268.245	19798.48
268.314	19781.57
268.384	19848.79
268.453	19868.26
268.522	19895.68
268.592	19975.87
268.661	19956.69
268.73	19996.59
268.799	19972.26
268.869	20049.89
268.938	19997.22
269.007	19985.12
269.076	20011.34
269.146	20062.86
269.215	20095.58
269.284	20169.12
269.353	20168.79
269.422	20182.04
269.492	20181.36
269.561	20090.52
269.63	20135.49
269.699	20135.39
269.768	20159.49
269.838	20181.22
269.907	20242.18
269.976	20215.29
270.045	20142.86
270.114	20182.81
270.183	20182.86
270.253	20226.04
270.322	20179.05
270.391	20200.55
270.46	20271.2
270.529	20317.18
270.598	20359.44
270.667	20371.44
270.736	20336.79
270.806	20376.11
270.875	20442.04
270.944	20448.84
271.013	20589.03
271.082	20611.69
271.151	20659.93
271.22	20628.27
271.289	20645.62
271.358	20645.52
271.427	20675.35
271.496	20710.39
271.565	20699.78
271.634	20730.24
271.703	20860.88
271.772	20934.95
271.841	20952.35
271.91	20921.93
271.979	20947.09
272.048	20920.15
272.117	20959.82
272.186	20964.3
272.255	21017.66
272.324	21053.85
272.393	21096.94
272.462	21084.55
272.531	21111.3
272.6	21122.53
272.669	21198.29
272.738	21212.22
272.807	21252.9
272.876	21241.91
272.945	21405.07
273.013	21472.75
273.082	21537.33
273.151	21447.96
273.22	21484.83
273.289	21517.31
273.358	21605.37
273.427	21611.5
273.496	21668.52
273.564	21718.36
273.633	21783.43
273.702	21770.85
273.771	21792.25
273.84	21824.83
273.909	21860.07
273.977	21905.24
274.046	21910.49
274.115	21974.27
274.184	21966.75
274.253	21980.78
274.322	22066.23
274.39	21995.56
274.459	21996.86
274.528	21946.83
274.597	21964.23
274.665	21998.26
274.734	22071.96
274.803	22078.38
274.872	22108.02
274.94	22105.32
275.009	22241.58
275.078	22232.9
275.147	22275.9
275.215	22307.23
275.284	22377.77
275.353	22387.79
275.421	22351.25
275.49	22457.23
275.559	22464.32
275.627	22496.46
275.696	22515.22
275.765	22555.14
275.833	22564.34
275.902	22613.28
275.971	22702.89
276.039	22798.6
276.108	22852.8
276.177	22898.08
276.245	22902.99
276.314	22931.25
276.383	22998.11
276.451	22911.04
276.52	22968.75
276.588	23046.15
276.657	23104.69
276.725	23115.59
276.794	23169.74
276.863	23259.32
276.931	23220.26
277	23288.11
277.068	23365.16
277.137	23487.03
277.205	23529.66
277.274	23647.85
277.342	23729.22
277.411	23703.37
277.48	23694.98
277.548	23701.01
277.617	23736.6
277.685	23774.41
277.754	23837.73
277.822	23859.24
277.89	23963.73
277.959	23991.03
278.027	23970.43
278.096	23977.43
278.164	24109.78
278.233	24116.58
278.301	24122.8
278.37	24196.54
278.438	24206.82
278.507	24253.94
278.575	24198.56
278.643	24222.24
278.712	24189.34
278.78	24163
278.849	24251.01
278.917	24329.89
278.985	24357.43
279.054	24410.74
279.122	24489.37
279.191	24522.04
279.259	24550.54
279.327	24505.13
279.396	24605.45
279.464	24634.05
279.532	24700.05
279.601	24729.27
279.669	24774.95
279.737	24875.7
279.806	24927.52
279.874	25004.69
279.942	25055.11
280.011	25080.04
280.079	25158.99
280.147	25274.26
280.215	25349.83
280.284	25380.8
280.352	25386.25
280.42	25460.48
280.488	25479.64
280.557	25498.27
280.625	25559.75
280.693	25604.24
280.761	25668.81
280.83	25644.19
280.898	25746.75
280.966	25727.3
281.034	25655.32
281.102	25648.95
281.171	25658.56
281.239	25728.32
281.307	25727.75
281.375	25734.5
281.443	25877.34
281.512	25911.81
281.58	25976.91
281.648	25957.89
281.716	26005.67
281.784	26057.08
281.852	26074.75
281.92	26100.92
281.989	26175.56
282.057	26157.08
282.125	26364.52
282.193	26407.69
282.261	26465.57
282.329	26480.25
282.397	26539.47
282.465	26602.71
282.533	26712
282.601	26715.91
282.67	26677.71
282.738	26698.76
282.806	26773.65
282.874	26769.4
282.942	26816.25
283.01	26847.85
283.078	26928.68
283.146	26957.26
283.214	27042.77
283.282	27107.11
283.35	27213.39
283.418	27247.93
283.486	27304.86
283.554	27191.71
283.622	27223.15
283.69	27258.89
283.758	27295.02
283.826	27356.32
283.894	27440.43
283.962	27540.37
284.03	27648.72
284.098	27711.9
284.165	27739.57
284.233	27792.91
284.301	27822.82
284.369	27848.24
284.437	27851.77
284.505	27878
284.573	27979.17
284.641	27973.95
284.709	28046.56
284.777	28019.16
284.845	28088.43
284.912	28163.81
284.98	28233.83
285.048	28268.62
285.116	28341.55
285.184	28434.17
285.252	28489.26
285.319	28481.39
285.387	28497.68
285.455	28483.09
285.523	28545.05
285.591	28592.45
285.659	28635.67
285.726	28722.4
285.794	28707.61
285.862	28744.98
285.93	28790.46
285.997	28815.94
286.065	28847.36
286.133	28858.49
286.201	28899.52
286.269	28895.8
286.336	28912.33
286.404	28936.56
286.472	29020.41
286.539	28986.09
286.607	28978.16
286.675	29020.28
286.743	29094.69
286.81	29125.9
286.878	29216.37
286.946	29246.5
287.013	29291.84
287.081	29329.81
287.149	29317.67
287.216	29440.31
287.284	29466.52
287.352	29527.65
287.419	29562.24
287.487	29660.92
287.555	29719.56
287.622	29761.78
287.69	29832.85
287.758	29924.24
287.825	29961.58
287.893	29956.4
287.96	30029.56
288.028	30105.18
288.096	30159.23
288.163	30204.18
288.231	30205.97
288.298	30250.5
288.366	30339.11
288.433	30375.72
288.501	30397.11
288.569	30461.07
288.636	30485.32
288.704	30588.07
288.771	30663.82
288.839	30673.4
288.906	30688.11
288.974	30760.8
289.041	30795.63
289.109	30797.47
289.176	30862.16
289.244	30918.79
289.311	31017.49
289.379	31108.58
289.446	31166.74
289.514	31214.43
289.581	31260.86
289.649	31332.89
289.716	31384.99
289.783	31411.33
289.851	31524.22
289.918	31577.18
289.986	31654.47
290.053	31715.24
290.121	31763.63
290.188	31806.02
290.255	31965.79
290.323	32006.66
290.39	32033.7
290.458	32112.28
290.525	32220.09
290.592	32260.3
290.66	32319.92
290.727	32344.05
290.794	32432.57
290.862	32474.18
290.929	32535.13
290.996	32590.55
291.064	32665.84
291.131	32762.23
291.198	32841.12
291.266	32888.94
291.333	32937.86
291.4	33006.01
291.468	33112.79
291.535	33137.55
291.602	33191.83
291.669	33214.47
291.737	33280.61
291.804	33328.69
291.871	33444.92
291.938	33516.62
292.006	33656.88
292.073	33738.74
292.14	33837.24
292.207	33851.01
292.275	33908.99
292.342	33981.47
292.409	34114.38
292.476	34236.99
292.543	34235.87
292.611	34292.02
292.678	34394.53
292.745	34543.78
292.812	34619.83
292.879	34652.86
292.946	34716.76
293.014	34818.42
293.081	34886.9
293.148	34987.97
293.215	35088.08
293.282	35108.7
293.349	35186.95
293.416	35155.27
293.484	35259.08
293.551	35338.22
293.618	35446.09
293.685	35579.57
293.752	35610.95
293.819	35658.9
293.886	35664.39
293.953	35746.65
294.02	35831.13
294.087	35910
294.154	35932.07
294.221	36048.67
294.288	36105.25
294.356	36229.91
294.423	36295.58
294.49	36319.26
294.557	36398.13
294.624	36421.67
294.691	36543.04
294.758	36590.81
294.825	36673.41
294.892	36690.01
294.959	36733.6
295.026	36810.11
295.093	36835.64
295.16	36895.38
295.226	36942.52
295.293	37091
295.36	37168.71
295.427	37264.8
295.494	37352.99
295.561	37443.1
295.628	37557.98
295.695	37669.52
295.762	37721.04
295.829	37811.95
295.896	37939.35
295.963	38022.49
296.03	38116.92
296.096	38195.89
296.163	38299.54
296.23	38420.08
296.297	38522.15
296.364	38579.11
296.431	38666.05
296.498	38718.89
296.564	38852.38
296.631	38915.67
296.698	38912.95
296.765	39034.87
296.832	39046.67
296.899	39046.43
296.965	39154.85
297.032	39132.07
297.099	39244.75
297.166	39344.73
297.233	39381.26
297.299	39405.69
297.366	39467.4
297.433	39522.78
297.5	39605.58
297.566	39660.24
297.633	39702.8
297.7	39775.44
297.767	39830.53
297.833	39887.67
297.9	39953.74
297.967	39963.31
298.033	40055.73
298.1	40218.2
298.167	40236.91
298.234	40321.74
298.3	40424.61
298.367	40454.69
298.434	40549.71
298.5	40558.31
298.567	40585.43
298.634	40637.47
298.7	40747.54
298.767	40808.29
298.834	40923.38
298.9	40959.79
298.967	40980.69
299.033	41063.42
299.1	41171.53
299.167	41282.73
299.233	41328.85
299.3	41427.52
299.366	41537.31
299.433	41650.3
299.5	41608.58
299.566	41690.68
299.633	41797.25
299.699	41888.65
299.766	41928.5
299.832	41977.37
299.899	42068.24
299.965	42165.09
300.032	42205.58
300.099	42278.75
300.165	42360.24
300.232	42395.25
300.298	42446.98
300.365	42551.61
300.431	42618.72
300.498	42639.34
300.564	42713.35
300.631	42803.75
300.697	42909.62
300.763	42963.4
300.83	42997.74
300.896	43107.35
300.963	43188.23
301.029	43257.25
301.096	43321.02
301.162	43433.4
301.229	43474.31
301.295	43488.66
301.361	43547.66
301.428	43635.19
301.494	43646.03
301.561	43706.94
301.627	43777.66
301.693	43832.47
301.76	43900.29
301.826	43928.11
301.892	44015.63
301.959	44092.6
302.025	44145.92
302.092	44164.46
302.158	44245.16
302.224	44305.55
302.291	44321.32
302.357	44360.53
302.423	44391.58
302.49	44411.67
302.556	44497.18
302.622	44558.97
302.688	44652.35
302.755	44754.91
302.821	44815.19
302.887	44901.3
302.954	44951.67
303.02	45023.46
303.086	45109.69
303.152	45145.81
303.219	45184.3
303.285	45253.42
303.351	45325.24
303.417	45369.92
303.483	45397.56
303.55	45435.04
303.616	45488.25
303.682	45534.58
303.748	45568.65
303.815	45664.28
303.881	45756.1
303.947	45772.8
304.013	45831.9
304.079	45853.61
304.145	45829.56
304.212	45883.2
304.278	45908.9
304.344	45944.88
304.41	45945.13
304.476	45956.52
304.542	45994.88
304.608	46064.31
304.674	46052.43
304.741	46083.65
304.807	46139.75
304.873	46221.17
304.939	46309.91
305.005	46299.59
305.071	46345.15
305.137	46393.99
305.203	46353.61
305.269	46390.3
305.335	46464.3
305.401	46506.63
305.467	46550.56
305.533	46632.15
305.599	46712.83
305.666	46786.61
305.732	46834.98
305.798	46926.22
305.864	47065.8
305.93	47135.56
305.996	47183.21
306.062	47248.09
306.128	47280.7
306.194	47298.33
306.259	47316.61
306.325	47327.08
306.391	47415.86
306.457	47502
306.523	47562.22
306.589	47700.83
306.655	47721.65
306.721	47709.36
306.787	47712.87
306.853	47807.1
306.919	47794.09
306.985	47807.35
307.051	47839.47
307.117	47850.77
307.183	47871.59
307.248	47806.78
307.314	47865.64
307.38	47909.12
307.446	47975.43
307.512	47972.22
307.578	48019.64
307.644	48052.64
307.709	48106.52
307.775	48124.51
307.841	48145.92
307.907	48186.72
307.973	48155.26
308.039	48196.03
308.104	48259.56
308.17	48309.43
308.236	48292.84
308.302	48340.52
308.368	48338.22
308.433	48380.16
308.499	48413.85
308.565	48413.65
308.631	48462.41
308.696	48419.59
308.762	48429.25
308.828	48453.11
308.894	48440.09
308.959	48416.01
309.025	48432.15
309.091	48451.96
309.156	48469.66
309.222	48506.78
309.288	48514.39
309.354	48489.62
309.419	48516.75
309.485	48495.29
309.551	48545.05
309.616	48533.39
309.682	48561.34
309.748	48584.06
309.813	48600.84
309.879	48613.52
309.945	48638.64
310.01	48660.74
310.076	48715.31
310.141	48727.12
310.207	48708.57
310.273	48750.99
310.338	48807.56
310.404	48798.39
310.469	48790
310.535	48794.34
310.601	48757.61
310.666	48808.26
310.732	48882.89
310.797	48876.94
310.863	48886.59
310.928	48904.31
310.994	48959.29
311.059	48992.33
311.125	49019.5
311.191	49100.56
311.256	49108.41
311.322	49162.48
311.387	49138.04
311.453	49775
311.518	49821.81
311.584	49856.36
311.649	49923.12
311.715	49923.56
311.78	49967.51
311.846	49976.63
311.911	50033.01
311.976	50077.79
312.042	50046.12
312.107	50030.45
312.173	50055.98
312.238	50084.18
312.304	50114.36
312.369	50121.68
312.434	50122.7
312.5	50128.07
312.565	50040.38
312.631	50094.26
312.696	50099.43
312.761	50161.31
312.827	49565.35
312.892	49644.46
312.958	49676.74
313.023	49708.49
313.088	49757.15
313.154	49757.83
313.219	49781.85
313.284	49789.27
313.35	49824.57
313.415	49836.57
313.48	49854.63
313.546	49891.89
313.611	49965.05
313.676	49961.73
313.741	49977.06
313.807	50044.66
313.872	50112.63
313.937	50181.61
314.003	50261.6
314.068	50282.7
314.133	50324.56
314.198	50326.81
314.264	50292.78
314.329	50299.86
314.394	50317.46
314.459	50326.3
314.525	50420.8
314.59	50434.76
314.655	50420.31
314.72	50468.48
314.785	50508.62
314.851	50522.04
314.916	50498.4
314.981	50459.56
315.046	50460.4
315.111	50443.41
315.176	50423.76
315.242	50454.79
315.307	50479.62
315.372	50431.12
315.437	50445.1
315.502	50443.53
315.567	50512.1
315.632	50496.56
315.698	50530.72
315.763	50544.02
315.828	50551.39
315.893	50541.08
315.958	50557.14
316.023	50563.1
316.088	50523.57
316.153	50470.46
316.218	50472.46
316.283	50425.31
316.348	50385.82
316.413	50372.48
316.479	50336.86
316.544	50214.36
316.609	50095.65
316.674	49956.59
316.739	49814.02
316.804	49682.55
316.869	49540.88
316.934	49379.71
316.999	49244.79
317.064	49026.31
317.129	48836.56
317.194	48665.28
317.259	48464.67
317.324	48229.3
317.389	48023.17
317.454	47845.65
317.518	47683.66
317.583	47541.75
317.648	47406.31
317.713	47232.97
317.778	46980.22
317.843	46820.45
317.908	46639.69
317.973	46447.62
318.038	46288.12
318.103	46099.38
318.168	45934.2
318.233	45763.34
318.297	45531.74
318.362	45328.64
318.427	45133.6
318.492	44973.98
318.557	44745.49
318.622	44589.84
318.687	44458.49
318.751	44249.23
318.816	44044.67
318.881	43852.33
318.946	43573.42
319.011	43327.91
319.075	43090.63
319.14	42876
319.205	42633.76
319.27	42427.86
319.335	42182.77
319.399	41951.68
319.464	41770.11
319.529	41478.36
319.594	41244.28
319.658	41054.91
319.723	40805.64
319.788	40599.55
319.853	40301.92
319.917	40093.19
319.982	39804.59
320.047	39554.64
320.112	39359.35
320.176	39083.36
320.241	38844.07
320.306	38634.72
320.37	38390.57
320.435	38177.22
320.5	37977.68
320.564	37726.06
320.629	37460.86
320.694	37237.4
320.758	36971.28
320.823	36698.68
320.888	36496.89
320.952	36211.39
321.017	35935.79
321.082	35686.31
321.146	35444.5
321.211	35218.87
321.275	34960.03
321.34	34677.37
321.405	34401.35
321.469	34124.08
321.534	33856.99
321.598	33568.29
321.663	33342.43
321.727	33111.56
321.792	32816.51
321.857	32532.59
321.921	32284.64
321.986	32023.64
322.05	31702.87
322.115	31464.09
322.179	31194.82
322.244	30878.86
322.308	30633.01
322.373	30346.39
322.437	30078.39
322.502	29867.3
322.566	29582.02
322.631	29330.72
322.695	29073.96
322.76	28802.65
322.824	28546.13
322.889	28275.51
322.953	27989.29
323.018	27616.89
323.082	27249.47
323.146	26946.09
323.211	26628.08
323.275	26330.05
323.34	26031.73
323.404	25788.04
323.468	25486.78
323.533	25196.34
323.597	24896.61
323.662	24582.49
323.726	24326.81
323.79	24035.19
323.855	23660.74
323.919	23353.64
323.983	23060.38
324.048	22629.99
324.112	22805.87
324.177	21901.29
324.241	20701.02
324.305	19531.52
324.37	18385.64
324.434	17275.48
324.498	16963.71
324.562	16625.72
324.627	16236.9
324.691	15860.83
324.755	15415.98
324.82	14919.65
324.884	14393.13
324.948	13872.89
325.012	13238.71
325.077	12436.3
