Data from 20250701_urea_2M_exp3_MAYP1162681_01-49-49-956.txt Node
Date: Wed Jul 02 01:49:49 BST 2025
User: adleo
Spectrometer: MAYP116268
Trigger mode: 0
Integration Time (sec): 4.000000E0
Scans to average: 1
Electric dark correction enabled: true
Nonlinearity correction enabled: true
Boxcar width: 10
XAxis mode: Wavelengths
Number of Pixels in Spectrum: 2068
>>>>>Begin Spectral Data<<<<<
179.565	3696.87
179.642	3893.51
179.718	4047.59
179.795	4181.67
179.871	4292.49
179.948	4349.52
180.024	4421.85
180.101	4498.4
180.177	4551.05
180.254	4632.03
180.33	4709.7
180.407	4972.91
180.483	5262.59
180.56	5550.68
180.636	5816.2
180.712	5775.84
180.789	5813.02
180.865	5854.48
180.942	5888.72
181.018	5927.58
181.095	5977.5
181.171	5987.91
181.248	5987.05
181.324	6034.77
181.4	6055.78
181.477	6095.28
181.553	6142.71
181.63	6211.35
181.706	6270.25
181.782	6298.21
181.859	6294.32
181.935	6310.16
182.011	6302.96
182.088	6352.27
182.164	6424.18
182.24	6474.89
182.317	6511.99
182.393	6502.78
182.469	6549.05
182.546	6587.08
182.622	6602.59
182.698	6583.37
182.775	6625.82
182.851	6682.53
182.927	6659.1
183.003	6641.25
183.08	6618.97
183.156	6652.53
183.232	6644.56
183.308	6599.86
183.385	6629.86
183.461	6692.3
183.537	6700.75
183.613	6744.79
183.69	6716.89
183.766	6678.1
183.842	6698.81
183.918	6713.55
183.995	6758.55
184.071	6769.7
184.147	6757.64
184.223	6718.86
184.299	6762.15
184.375	6727.57
184.452	6739.68
184.528	6865.18
184.604	6909.35
184.68	6950.6
184.756	6976.11
184.832	6990.48
184.908	7011.12
184.985	6999.79
185.061	6940.33
185.137	6962.86
185.213	6923.04
185.289	6927.56
185.365	6900.28
185.441	6896.15
185.517	6944.8
185.593	6931.97
185.669	6923.32
185.745	6955.13
185.822	7008.7
185.898	6977.08
185.974	7008.44
186.05	6985.76
186.126	6906.23
186.202	6880.54
186.278	6875.11
186.354	6841.19
186.43	6863.54
186.506	6856.87
186.582	6855.96
186.658	6877.65
186.734	6812.93
186.81	6819.89
186.886	6833.53
186.962	6877.42
187.038	6860.61
187.114	6829.65
187.19	6856.46
187.266	6824.67
187.341	6828.32
187.417	6808.63
187.493	6810.79
187.569	6820.21
187.645	6799.17
187.721	6767.94
187.797	6794.16
187.873	6802.18
187.949	6780.53
188.025	6758.42
188.101	6768.36
188.176	6790.4
188.252	6777.77
188.328	6805.75
188.404	6808.06
188.48	6793.03
188.556	6768.62
188.632	6772.47
188.707	6772.23
188.783	6758.82
188.859	6742.55
188.935	6703.68
189.011	6723.04
189.086	6700.23
189.162	6675.35
189.238	6663.97
189.314	6655.52
189.39	6631.94
189.465	6613.35
189.541	6670.99
189.617	6618.46
189.693	6600.7
189.768	6612.28
189.844	6698.83
189.92	6666.68
189.996	6693.86
190.071	6733.64
190.147	6731
190.223	6761.89
190.298	6739.45
190.374	6697.34
190.45	6737.56
190.526	6768.88
190.601	6755.48
190.677	6761.53
190.753	6847.2
190.828	6863.71
190.904	6911.09
190.98	6965.62
191.055	6994.78
191.131	6965.8
191.207	7036.17
191.282	7070.31
191.358	7036.45
191.433	6982.98
191.509	7033.43
191.585	7020.84
191.66	7015.17
191.736	7045.58
191.811	7015.74
191.887	7068.62
191.963	7151.12
192.038	7175.33
192.114	7175.43
192.189	7188.2
192.265	7181
192.34	7107.49
192.416	7102.83
192.491	7091.49
192.567	7097.16
192.642	7106.44
192.718	7106.68
192.793	7062.62
192.869	7051.09
192.944	7064.01
193.02	7092.08
193.095	7107.4
193.171	7128.64
193.246	7131.91
193.322	7121.24
193.397	7123.93
193.473	7073.46
193.548	7012.32
193.624	7026.74
193.699	7024.82
193.775	7077.99
193.85	7081.78
193.925	7112.2
194.001	7109.66
194.076	7082.95
194.152	7052.95
194.227	7029.26
194.302	6996.56
194.378	7009.38
194.453	6994.69
194.529	7036.06
194.604	6988.35
194.679	6970.38
194.755	6906.42
194.83	6949.12
194.905	6938.98
194.981	6970.21
195.056	6949.95
195.131	6965.42
195.207	6958.2
195.282	6922.32
195.357	6851.77
195.433	6904.13
195.508	6865.93
195.583	6895.23
195.659	6945.36
195.734	6961.65
195.809	6952.71
195.884	6980.46
195.96	6986.13
196.035	7038.31
196.11	7012.69
196.185	7052.33
196.261	7057.18
196.336	7164.85
196.411	7112.49
196.486	7130.85
196.561	7106
196.637	7129.2
196.712	7190.21
196.787	7202.28
196.862	7255.7
196.937	7298.22
197.013	7312.65
197.088	7344.12
197.163	7412.75
197.238	7465.82
197.313	7469.52
197.388	7516.96
197.464	7622.52
197.539	7658.09
197.614	7640.83
197.689	7691.46
197.764	7747.88
197.839	7813.41
197.914	7789.89
197.989	7867.9
198.065	7912.66
198.14	8082.05
198.215	8179.01
198.29	8210.49
198.365	8254.6
198.44	8289.13
198.515	8376.46
198.59	8432.13
198.665	8521.19
198.74	8547.37
198.815	8555.9
198.89	8632.44
198.965	8733.24
199.04	8717.83
199.115	8768.69
199.19	8907.66
199.265	8913.05
199.34	8941.21
199.415	9061.26
199.49	9138.4
199.565	9166.51
199.64	9251.91
199.715	9240.78
199.79	9264.28
199.865	9289.94
199.94	9282.68
200.015	9389.81
200.09	9411.77
200.165	9428.05
200.24	9448.27
200.315	9582.6
200.39	9628.06
200.464	9647.99
200.539	9656.18
200.614	9711.12
200.689	9786.3
200.764	9803.78
200.839	9868.38
200.914	9888.99
200.989	9846.69
201.063	9892.35
201.138	9835.85
201.213	9835.85
201.288	9771.85
201.363	9785.86
201.438	9784.23
201.512	9836.51
201.587	9776.35
201.662	9787.81
201.737	9830.77
201.812	9861.51
201.886	9752.03
201.961	9786.43
202.036	9745.27
202.111	9727.73
202.186	9626.71
202.26	9569.3
202.335	9501.68
202.41	9481.02
202.485	9418.92
202.559	9356.03
202.634	9263.11
202.709	9293.13
202.784	9221.3
202.858	9218.84
202.933	9150.77
203.008	9118.23
203.082	9054.11
203.157	9050.35
203.232	8904.51
203.306	8830.45
203.381	8721.6
203.456	8643.29
203.53	8567.47
203.605	8503.69
203.68	8432.63
203.754	8410.62
203.829	8362.92
203.904	8297.06
203.978	8255.09
204.053	8273.81
204.127	8232.87
204.202	8229.6
204.277	8166.63
204.351	8151.67
204.426	8130.16
204.5	8110.24
204.575	7999.76
204.65	8036.05
204.724	8010.29
204.799	8036.01
204.873	8022.39
204.948	8019.55
205.022	7975.22
205.097	7942.73
205.171	7987.5
205.246	8007.47
205.32	8005.36
205.395	8001.99
205.469	7968.3
205.544	7981.25
205.618	7918.66
205.693	7953.06
205.767	7903.77
205.842	7978.67
205.916	7953.28
205.991	7920.66
206.065	7940.44
206.14	7996.75
206.214	7977.35
206.289	7955.89
206.363	8000.86
206.438	8010.58
206.512	8036.37
206.586	8104.07
206.661	8130.6
206.735	8055.17
206.81	8058.73
206.884	8110.76
206.958	8073.83
207.033	8128.97
207.107	8155.74
207.181	8264.3
207.256	8245.25
207.33	8310.7
207.405	8357.61
207.479	8424.38
207.553	8446.22
207.628	8384.34
207.702	8420.03
207.776	8398.76
207.851	8401.07
207.925	8447.91
207.999	8437.95
208.073	8423.22
208.148	8429
208.222	8389.92
208.296	8499.42
208.371	8555.03
208.445	8591.27
208.519	8684.22
208.593	8726.28
208.668	8714.3
208.742	8724.8
208.816	8731.72
208.89	8787.53
208.965	8772.5
209.039	8795.18
209.113	8858.76
209.187	8931.57
209.261	8918.05
209.336	8982.45
209.41	9054.13
209.484	9056.01
209.558	9127.88
209.632	9173.32
209.707	9209.9
209.781	9286.59
209.855	9337.59
209.929	9394.69
210.003	9412.69
210.077	9414.62
210.151	9576.75
210.226	9696.74
210.3	9781.35
210.374	9861.51
210.448	9867.1
210.522	9907.61
210.596	9946.19
210.67	9966.8
210.744	10127.7
210.818	10242.34
210.892	10311.42
210.966	10291.1
211.041	10343.7
211.115	10332.48
211.189	10408.49
211.263	10465.42
211.337	10481.51
211.411	10530.51
211.485	10519.33
211.559	10560.52
211.633	10560.95
211.707	10452.42
211.781	10473.29
211.855	10350.73
211.929	10321.93
212.003	10255.44
212.077	10283.43
212.151	10321.5
212.225	10355.08
212.299	10310.54
212.373	10264.4
212.447	10248.3
212.52	10346.68
212.594	10348.61
212.668	10389.41
212.742	10344.07
212.816	10323.02
212.89	10298.17
212.964	10287.56
213.038	10286.17
213.112	10323.94
213.186	10369.22
213.26	10291.03
213.333	10131.87
213.407	10147.48
213.481	10146.18
213.555	10179.68
213.629	10134.15
213.703	10072.19
213.777	10057.4
213.85	9983.83
213.924	10088.68
213.998	10081.5
214.072	10043.43
214.146	9988.76
214.219	9963.42
214.293	9938.08
214.367	9925.51
214.441	9954.27
214.515	9902.53
214.588	9808.55
214.662	9673.66
214.736	9593.68
214.81	9606.86
214.883	9625.54
214.957	9575.09
215.031	9522.19
215.105	9434.1
215.178	9368.86
215.252	9327.98
215.326	9227.01
215.4	9141.4
215.473	8962.96
215.547	8872.72
215.621	8807.74
215.694	8801.05
215.768	8701.99
215.842	8635.77
215.915	8569.81
215.989	8452.69
216.063	8396.4
216.136	8372.29
216.21	8349.44
216.284	8359.84
216.357	8333.71
216.431	8283.34
216.504	8274.87
216.578	8328.92
216.652	8340.21
216.725	8317.02
216.799	8323.95
216.873	8307.31
216.946	8315.53
217.02	8272.89
217.093	8242.82
217.167	8144.97
217.24	8067.45
217.314	8032.07
217.387	7987.7
217.461	7940.66
217.535	7957.69
217.608	7888.82
217.682	7861.54
217.755	7876.16
217.829	7813.67
217.902	7798.28
217.976	7781.74
218.049	7739.86
218.123	7659.5
218.196	7654.69
218.27	7613.43
218.343	7540.5
218.417	7535.26
218.49	7514.34
218.563	7556.74
218.637	7567.28
218.71	7636.05
218.784	7668.37
218.857	7707.8
218.931	7728.56
219.004	7737.98
219.077	7761.03
219.151	7785.01
219.224	7774.19
219.298	7764.81
219.371	7814.46
219.444	7772.16
219.518	7777.3
219.591	7795.47
219.665	7900.34
219.738	7918.47
219.811	7905.49
219.885	7949.79
219.958	7979.28
220.031	7980.72
220.105	8008.91
220.178	8006.31
220.251	7983.41
220.325	7995.25
220.398	8007.32
220.471	8028.86
220.544	8063.64
220.618	8038.77
220.691	8061.9
220.764	8082.29
220.838	8116.78
220.911	8102.49
220.984	8190.89
221.057	8232.59
221.131	8251.92
221.204	8157.54
221.277	8223.56
221.35	8349.14
221.424	8342.26
221.497	8352.08
221.57	8380.01
221.643	8407.4
221.716	8463.23
221.79	8460.87
221.863	8477.24
221.936	8488.4
222.009	8505.91
222.082	8532.29
222.155	8539.41
222.229	8611.46
222.302	8639.66
222.375	8646.78
222.448	8680.81
222.521	8687.5
222.594	8688.27
222.667	8660.66
222.74	8711.33
222.814	8705.07
222.887	8689.13
222.96	8742.03
223.033	8785.79
223.106	8809.03
223.179	8834.4
223.252	8844.52
223.325	8878.87
223.398	8895.24
223.471	8921.95
223.544	8941.63
223.617	8961.95
223.69	8992.37
223.763	8950.43
223.837	8978.11
223.91	9001.03
223.983	8957.57
224.056	8918.83
224.129	8939.96
224.202	8996.1
224.275	8989.7
224.348	8957.5
224.42	8915.62
224.493	8858.77
224.566	8837.25
224.639	8855.88
224.712	8825.78
224.785	8807.48
224.858	8801.52
224.931	8780.67
225.004	8740.58
225.077	8736.78
225.15	8641.99
225.223	8639.58
225.296	8723.14
225.369	8661.59
225.442	8630.01
225.514	8647.33
225.587	8671.2
225.66	8676.35
225.733	8675.96
225.806	8680.3
225.879	8675.24
225.952	8647
226.025	8690.65
226.097	8742.62
226.17	8734.1
226.243	8669.19
226.316	8671.98
226.389	8676.41
226.461	8697.45
226.534	8719.73
226.607	8717.71
226.68	8803.3
226.753	8800.8
226.825	8710.94
226.898	8773.11
226.971	8777.39
227.044	8794.91
227.117	8800.98
227.189	8817.44
227.262	8853.5
227.335	8875.94
227.407	8867.57
227.48	8901.1
227.553	8915.06
227.626	8889.15
227.698	8895.5
227.771	8938.94
227.844	8915.93
227.916	8927.58
227.989	8890.23
228.062	8886.81
228.134	8972.96
228.207	8976.42
228.28	8961.89
228.352	8978.83
228.425	8981.38
228.498	9027.7
228.57	9010.81
228.643	9065.65
228.716	9070.51
228.788	9060.69
228.861	9053.95
228.934	9123.17
229.006	9132.56
229.079	9128.03
229.151	9120.23
229.224	9087.99
229.296	9113.98
229.369	9209.05
229.442	9261.64
229.514	9237.15
229.587	9276.28
229.659	9194.95
229.732	9201.93
229.804	9238.95
229.877	9319
229.949	9348.76
230.022	9397.61
230.094	9393.86
230.167	9384.66
230.239	9338.93
230.312	9329.06
230.384	9401.79
230.457	9395.82
230.529	9401.16
230.602	9413.73
230.674	9420.42
230.747	9466.58
230.819	9491.76
230.892	9378.12
230.964	9377.69
231.037	9412.57
231.109	9400.73
231.181	9442.71
231.254	9409.97
231.326	9396.29
231.399	9371.72
231.471	9345.33
231.544	9264.41
231.616	9311.35
231.688	9319.78
231.761	9316.65
231.833	9308.95
231.905	9219.84
231.978	9215.22
232.05	9205.83
232.122	9203.86
232.195	9184.21
232.267	9218.65
232.339	9204.1
232.412	9267.02
232.484	9241.2
232.556	9219.55
232.629	9289.48
232.701	9308.94
232.773	9321.41
232.846	9318.04
232.918	9321.8
232.99	9340.05
233.062	9384.88
233.135	9402.22
233.207	9363.69
233.279	9408.31
233.351	9434.7
233.424	9437.83
233.496	9414.43
233.568	9496.25
233.64	9461.92
233.713	9468.04
233.785	9466.5
233.857	9474.01
233.929	9430
234.001	9494.32
234.074	9560.37
234.146	9492.26
234.218	9487.39
234.29	9490.09
234.362	9475.26
234.434	9430.66
234.507	9393.15
234.579	9338.69
234.651	9311.63
234.723	9343.03
234.795	9346.88
234.867	9346.11
234.939	9406.02
235.012	9426.48
235.084	9426.19
235.156	9456.86
235.228	9450.79
235.3	9427.48
235.372	9440
235.444	9498.12
235.516	9415.12
235.588	9420.42
235.66	9438.19
235.732	9407.18
235.804	9430.1
235.876	9479.73
235.948	9542.26
236.02	9561.71
236.092	9574.95
236.164	9593.63
236.236	9594.3
236.308	9598.35
236.38	9620.65
236.452	9597.72
236.524	9624.16
236.596	9693.32
236.668	9724.62
236.74	9746.39
236.812	9779.33
236.884	9817.2
236.956	9825.82
237.028	9825.19
237.1	9809.54
237.172	9880.5
237.244	9958.49
237.316	10006.85
237.388	9982.82
237.46	9960.28
237.532	10014.37
237.604	10012.35
237.675	10081.29
237.747	10124.45
237.819	10113.33
237.891	10116.65
237.963	10109.23
238.035	10105.62
238.107	9987
238.178	10054.6
238.25	10056.63
238.322	10144.76
238.394	10094.66
238.466	10101.5
238.538	10150.1
238.609	10188.68
238.681	10132.89
238.753	10110.24
238.825	10131.69
238.897	10169.34
238.968	10254.64
239.04	10235.95
239.112	10349.64
239.184	10313.83
239.255	10314.22
239.327	10351.93
239.399	10379.68
239.471	10426.21
239.542	10454.54
239.614	10531.76
239.686	10447.11
239.758	10503.81
239.829	10463.9
239.901	10531.11
239.973	10538.05
240.044	10570.23
240.116	10582.52
240.188	10598.27
240.259	10612.63
240.331	10603.04
240.403	10642.11
240.474	10590.49
240.546	10584.38
240.618	10523.28
240.689	10524.62
240.761	10541.88
240.833	10607.31
240.904	10607.26
240.976	10606.35
241.048	10624.03
241.119	10653.96
241.191	10706.23
241.262	10775.2
241.334	10780.84
241.405	10781.23
241.477	10789.56
241.549	10796.79
241.62	10818.33
241.692	10859.48
241.763	10927.05
241.835	10948.2
241.906	10958.9
241.978	10928.83
242.049	10992.82
242.121	11050.16
242.192	11114.78
242.264	11081.92
242.335	11033.83
242.407	11076.09
242.478	11085.97
242.55	11109.73
242.621	11098.3
242.693	11093.44
242.764	11079.41
242.836	11080.9
242.907	11116.81
242.979	11142.59
243.05	11162.11
243.122	11191.89
243.193	11191.26
243.264	11115.75
243.336	11116.08
243.407	11153.63
243.479	11234.73
243.55	11257.62
243.622	11271.12
243.693	11274.98
243.764	11340.71
243.836	11321.48
243.907	11305.68
243.978	11307.03
244.05	11324.71
244.121	11269.35
244.192	11312.72
244.264	11265.25
244.335	11280.52
244.407	11230.26
244.478	11256.38
244.549	11245.92
244.62	11200.38
244.692	11203.18
244.763	11249.05
244.834	11246.55
244.906	11218.16
244.977	11238.26
245.048	11287.43
245.119	11266.65
245.191	11234.46
245.262	11169.69
245.333	11244.19
245.405	11266.26
245.476	11304.53
245.547	11325.64
245.618	11387.22
245.689	11405.25
245.761	11447.37
245.832	11453.01
245.903	11500.43
245.974	11518.27
246.045	11535.76
246.117	11614.75
246.188	11593.31
246.259	11575.67
246.33	11588.92
246.401	11602.42
246.473	11568.44
246.544	11558.22
246.615	11618.42
246.686	11626.56
246.757	11697.21
246.828	11672.63
246.899	11743.39
246.97	11706.67
247.042	11693.51
247.113	11738.82
247.184	11823.47
247.255	11815.61
247.326	11843.43
247.397	11845.31
247.468	11855.43
247.539	11870.85
247.61	11831.81
247.681	11878.6
247.752	11935.57
247.823	11913.89
247.894	11933.74
247.965	11906.27
248.037	11893.6
248.108	11843.52
248.179	11849.35
248.25	11847.71
248.321	11880.38
248.392	11834.98
248.463	11917.44
248.534	11921.54
248.605	11938.02
248.675	11909.63
248.746	11924.33
248.817	11937.25
248.888	11961.4
248.959	11906.6
249.03	11926.7
249.101	11933.83
249.172	11924.72
249.243	11848
249.314	11913.88
249.385	11926.95
249.456	11960.88
249.527	11950.08
249.598	11968.25
249.669	11976.44
249.739	11985.89
249.81	11994.37
249.881	11952.92
249.952	11946.37
250.023	11942.9
250.094	11892.19
250.165	11856.51
250.235	11859.41
250.306	11865.48
250.377	11834.87
250.448	11863.89
250.519	11803.64
250.59	11866.93
250.66	11866.59
250.731	11940.96
250.802	11930.3
250.873	11949.63
250.944	11969.54
251.014	11964.86
251.085	12056.4
251.156	12087.78
251.227	12142.45
251.297	12203.95
251.368	12256.2
251.439	12298.58
251.51	12346.2
251.58	12329.33
251.651	12324.13
251.722	12376.96
251.792	12327.6
251.863	12331.79
251.934	12391.9
252.005	12498.72
252.075	12499.49
252.146	12547.69
252.217	12590.49
252.287	12634.84
252.358	12635.52
252.429	12702.96
252.499	12696.64
252.57	12705.03
252.641	12738.48
252.711	12742.49
252.782	12691.1
252.852	12767.46
252.923	12769.87
252.994	12782.69
253.064	12835.42
253.135	12821.11
253.205	12796.28
253.276	12876.15
253.347	12935.88
253.417	12915.24
253.488	12904.45
253.558	12891.43
253.629	12880.54
253.699	12899.24
253.77	12928.65
253.841	12919.63
253.911	12934.43
253.982	12952.8
254.052	12984.13
254.123	12994.98
254.193	12999.99
254.264	13147.02
254.334	13110.57
254.405	13075.91
254.475	13042.55
254.546	13046.75
254.616	13109.75
254.687	13134.87
254.757	13155.35
254.827	13158.1
254.898	13186.64
254.968	13188.09
255.039	13173
255.109	13220.77
255.18	13192.76
255.25	13125.71
255.321	13161.62
255.391	13111.73
255.461	13189.58
255.532	13103.72
255.602	13093.94
255.673	13035.66
255.743	12986.06
255.813	12913.65
255.884	12962.63
255.954	13002.59
256.024	13066.18
256.095	13070.23
256.165	13038.12
256.235	13064.11
256.306	13051.96
256.376	13094.72
256.446	13140.32
256.517	13175.08
256.587	13213.69
256.657	13237.46
256.728	13255.87
256.798	13264.88
256.868	13274.48
256.938	13250.66
257.009	13297.71
257.079	13334.3
257.149	13437.36
257.219	13384.77
257.29	13427.14
257.36	13366.26
257.43	13408.92
257.5	13342.49
257.571	13334.06
257.641	13377.3
257.711	13336.18
257.781	13367.27
257.852	13378.16
257.922	13314.48
257.992	13317.91
258.062	13315.01
258.132	13356.37
258.202	13365.1
258.273	13375.66
258.343	13448.74
258.413	13438.13
258.483	13448.01
258.553	13415.23
258.623	13388.96
258.693	13409.79
258.764	13467.83
258.834	13536.71
258.904	13548.62
258.974	13543.8
259.044	13551.66
259.114	13574.51
259.184	13602.52
259.254	13610.47
259.324	13561.54
259.394	13604.78
259.464	13687.41
259.535	13695.12
259.605	13687.07
259.675	13675.21
259.745	13713.97
259.815	13683.41
259.885	13678.83
259.955	13789.11
260.025	13783.18
260.095	13795.67
260.165	13830.52
260.235	13895.84
260.305	13881.23
260.375	13843.59
260.445	13933.35
260.515	13993.89
260.585	14043.3
260.655	14052.41
260.725	14094.35
260.795	14135.38
260.865	14201.03
260.934	14164.97
261.004	14195.54
261.074	14189.13
261.144	14254.59
261.214	14285.2
261.284	14292.57
261.354	14336.92
261.424	14291.47
261.494	14367.2
261.564	14378.34
261.634	14402.35
261.703	14337.9
261.773	14372.22
261.843	14410.69
261.913	14404.66
261.983	14348.94
262.053	14367.88
262.123	14362.87
262.192	14316.59
262.262	14352.07
262.332	14307.62
262.402	14347.44
262.472	14357.27
262.541	14308.44
262.611	14358.24
262.681	14329.31
262.751	14362.48
262.821	14366.09
262.89	14331.34
262.96	14356.89
263.03	14431.55
263.1	14455.94
263.169	14485.25
263.239	14515.48
263.309	14586.14
263.379	14616.17
263.448	14652.14
263.518	14668.86
263.588	14683.18
263.657	14764.84
263.727	14808.17
263.797	14829
263.867	14822.25
263.936	14779.64
264.006	14845.58
264.076	14832.95
264.145	14841.24
264.215	14822.3
264.285	14861.3
264.354	14821.29
264.424	14798.68
264.494	14752.12
264.563	14742.67
264.633	14811.84
264.702	14830.06
264.772	14765.47
264.842	14761.28
264.911	14786.53
264.981	14755.2
265.05	14769.57
265.12	14757.18
265.19	14761.33
265.259	14797.72
265.329	14839.41
265.398	14864.96
265.468	14958.91
265.537	14956.21
265.607	14987.45
265.676	15040.42
265.746	15067.12
265.815	15130.56
265.885	15148.69
265.955	15133.84
266.024	15134.56
266.094	15070.55
266.163	15127.52
266.232	15200.74
266.302	15210.19
266.371	15231.01
266.441	15251.6
266.51	15300.96
266.58	15308.33
266.649	15297.68
266.719	15350.46
266.788	15370.32
266.858	15448.59
266.927	15378.37
266.996	15409.02
267.066	15431.68
267.135	15405.46
267.205	15449.08
267.274	15463.49
267.343	15518.2
267.413	15527.07
267.482	15589.63
267.552	15653.69
267.621	15605.3
267.69	15558.83
267.76	15590.79
267.829	15619.57
267.898	15642.94
267.968	15622.65
268.037	15674.56
268.106	15720.01
268.176	15685.6
268.245	15696.69
268.314	15674.61
268.384	15731.92
268.453	15747.73
268.522	15779.11
268.592	15843.12
268.661	15820.95
268.73	15861.53
268.799	15845.44
268.869	15933.45
268.938	15888.14
269.007	15880.14
269.076	15911.66
269.146	15972.2
269.215	16002.81
269.284	16075.25
269.353	16056.98
269.422	16067.49
269.492	16050.38
269.561	15968.1
269.63	16009.36
269.699	16004.25
269.768	16028.25
269.838	16052.16
269.907	16091.97
269.976	16063.29
270.045	15999.38
270.114	16047.29
270.183	16046.95
270.253	16082.52
270.322	16039.81
270.391	16068.2
270.46	16136.11
270.529	16174.09
270.598	16209.57
270.667	16202.34
270.736	16164.79
270.806	16211.11
270.875	16283.89
270.944	16293.29
271.013	16422.89
271.082	16445.59
271.151	16477.5
271.22	16448.77
271.289	16463.23
271.358	16479.38
271.427	16516.88
271.496	16547.19
271.565	16537.31
271.634	16560.02
271.703	16685.89
271.772	16741.47
271.841	16752.7
271.91	16729.08
271.979	16748.17
272.048	16719.2
272.117	16780.12
272.186	16789.95
272.255	16834.29
272.324	16860.84
272.393	16904.08
272.462	16909.23
272.531	16930.58
272.6	16943.79
272.669	17010.16
272.738	17019.36
272.807	17046.01
272.876	17028.18
272.945	17181.63
273.013	17244.33
273.082	17310.64
273.151	17205.49
273.22	17246.16
273.289	17272.33
273.358	17348.82
273.427	17362.94
273.496	17421.97
273.564	17452.29
273.633	17507.76
273.702	17495.18
273.771	17505.93
273.84	17530.02
273.909	17560.82
273.977	17606.21
274.046	17618.02
274.115	17680.77
274.184	17676.38
274.253	17696.43
274.322	17785.15
274.39	17712.19
274.459	17698.94
274.528	17653.49
274.597	17688.39
274.665	17722.51
274.734	17791.18
274.803	17791.13
274.872	17811.71
274.94	17810.7
275.009	18037.94
275.078	18035.63
275.147	18071.63
275.215	18110.76
275.284	18179.48
275.353	18189.02
275.421	18150.37
275.49	18247.72
275.559	18257.16
275.627	18280.34
275.696	18296.1
275.765	18329.74
275.833	18357.01
275.902	18409.49
275.971	18485.44
276.039	18571.42
276.108	18615.75
276.177	18662.64
276.245	18672.18
276.314	18707.79
276.383	18764.61
276.451	18585.51
276.52	18632.93
276.588	18713.31
276.657	18759.71
276.725	18770.12
276.794	18812.34
276.863	18891.71
276.931	18860.67
277	18921.92
277.068	19000.91
277.137	19111.55
277.205	19149.19
277.274	19246.34
277.342	19322.91
277.411	19308.65
277.48	19307.64
277.548	19322.91
277.617	19354.14
277.685	19383.73
277.754	19443.39
277.822	19460.5
277.89	19559.58
277.959	19589.12
278.027	19575.39
278.096	19587.34
278.164	19727.49
278.233	19752.06
278.301	19766.33
278.37	19829.02
278.438	19835
278.507	19880.78
278.575	19838.71
278.643	19869.31
278.712	19849.79
278.78	19840.64
278.849	19922.41
278.917	20009.06
278.985	20038.51
279.054	20093.69
279.122	20181.98
279.191	20217.3
279.259	20256.19
279.327	20222.41
279.396	20318.22
279.464	20349.64
279.532	20415.95
279.601	20429.59
279.669	20449.74
279.737	20532.58
279.806	20577.31
279.874	20642.13
279.942	20685.02
280.011	20714.85
280.079	20779.67
280.147	20873.17
280.215	20932.5
280.284	20958.13
280.352	20944.59
280.42	21012.35
280.488	21021.85
280.557	21034.38
280.625	21087.98
280.693	21130.34
280.761	21185.38
280.83	21164.07
280.898	21249.72
280.966	21217.14
281.034	21160.36
281.102	21168.98
281.171	21191.64
281.239	21272.72
281.307	21287.32
281.375	21293.06
281.443	21417.13
281.512	21457.23
281.58	21532.1
281.648	21521.5
281.716	21564.68
281.784	21618.09
281.852	21631.73
281.92	21676.03
281.989	21754.45
282.057	21741.78
282.125	21921.43
282.193	21965.2
282.261	22018.13
282.329	22046.23
282.397	22114.38
282.465	22170.83
282.533	22266.89
282.601	22280.34
282.67	22243.55
282.738	22265.05
282.806	22347.72
282.874	22341.7
282.942	22389.04
283.01	22399.94
283.078	22465.79
283.146	22500.49
283.214	22574.5
283.282	22635.63
283.35	22712.98
283.418	22738.68
283.486	22794.45
283.554	22702.96
283.622	22734.4
283.69	22774.8
283.758	22806.86
283.826	22877.63
283.894	22957.15
283.962	23057.65
284.03	23142.32
284.098	23202.68
284.165	23233.43
284.233	23276.21
284.301	23308.8
284.369	23329.2
284.437	23358.96
284.505	23396.42
284.573	23492.81
284.641	23495.9
284.709	23557.25
284.777	23548.42
284.845	23618.03
284.912	23687.47
284.98	23761.64
285.048	23800.22
285.116	23866.53
285.184	23961.8
285.252	24007.42
285.319	24003.37
285.387	24028.17
285.455	24030.2
285.523	24105.01
285.591	24146.09
285.659	24201.8
285.726	24283.52
285.794	24275.37
285.862	24314.54
285.93	24352.93
285.997	24384.96
286.065	24414.63
286.133	24441.02
286.201	24488.87
286.269	24494.75
286.336	24512.99
286.404	24526.64
286.472	24600.21
286.539	24566.93
286.607	24546.19
286.675	24594.39
286.743	24659.47
286.81	24674.52
286.878	24762.67
286.946	24766.43
287.013	24819.4
287.081	24855.88
287.149	24854.19
287.216	24972.21
287.284	25000.58
287.352	25047.47
287.419	25068.75
287.487	25174.78
287.555	25228.55
287.622	25260.2
287.69	25326.61
287.758	25411.46
287.825	25457.11
287.893	25460.73
287.96	25532.46
288.028	25621.12
288.096	25681.27
288.163	25741.61
288.231	25761.35
288.298	25802.43
288.366	25896.9
288.433	25925.81
288.501	25947
288.569	26006.75
288.636	26025.15
288.704	26110.89
288.771	26175.28
288.839	26194.3
288.906	26211.64
288.974	26292.44
289.041	26332.31
289.109	26336.61
289.176	26406.79
289.244	26453.28
289.311	26548.16
289.379	26629.27
289.446	26678.97
289.514	26710.99
289.581	26744.02
289.649	26795.44
289.716	26838.76
289.783	26864.75
289.851	26970.06
289.918	27009.85
289.986	27088.48
290.053	27157.51
290.121	27197.27
290.188	27265.91
290.255	27413.4
290.323	27441.12
290.39	27456.59
290.458	27533.48
290.525	27629.8
290.592	27651.98
290.66	27711.59
290.727	27732.18
290.794	27827.95
290.862	27867.05
290.929	27926.24
290.996	27985.04
291.064	28066.12
291.131	28163.48
291.198	28249.17
291.266	28299.39
291.333	28353.3
291.4	28404.49
291.468	28505.01
291.535	28545.42
291.602	28602.94
291.669	28631.09
291.737	28690.19
291.804	28736.89
291.871	28821.88
291.938	28879.85
292.006	29015.73
292.073	29089.4
292.14	29170.72
292.207	29181.26
292.275	29240.25
292.342	29308.68
292.409	29434.45
292.476	29550.11
292.543	29554.08
292.611	29591.56
292.678	29698.66
292.745	29840.23
292.812	29929.88
292.879	29944.87
292.946	29989.65
293.014	30072.49
293.081	30145.65
293.148	30234.74
293.215	30330.74
293.282	30358.02
293.349	30438.07
293.416	30414.35
293.484	30500.91
293.551	30587.45
293.618	30687.07
293.685	30805.18
293.752	30830.78
293.819	30861.09
293.886	30868.11
293.953	30945.63
294.02	31034.65
294.087	31092.37
294.154	31101.76
294.221	31179.25
294.288	31236.12
294.356	31357.72
294.423	31425.13
294.49	31434.28
294.557	31517.51
294.624	31534.94
294.691	31647.95
294.758	31697.93
294.825	31775.64
294.892	31813.89
294.959	31851.82
295.026	31931.3
295.093	31945.55
295.16	31994.1
295.226	32039.39
295.293	32172.72
295.36	32225.03
295.427	32298.68
295.494	32386.2
295.561	32463.84
295.628	32591.73
295.695	32685.68
295.762	32729.62
295.829	32788.21
295.896	32907.78
295.963	32993.56
296.03	33077.23
296.096	33154.1
296.163	33242.94
296.23	33341.53
296.297	33430.88
296.364	33481.13
296.431	33544.83
296.498	33590.24
296.564	33733.39
296.631	33814.49
296.698	33820.45
296.765	33944.26
296.832	33960.11
296.899	33969.27
296.965	34086.02
297.032	34061.67
297.099	34179.63
297.166	34269.91
297.233	34317.38
297.299	34332.36
297.366	34382.17
297.433	34446.41
297.5	34526.01
297.566	34574.13
297.633	34618.99
297.7	34680.49
297.767	34733.43
297.833	34795.32
297.9	34880.33
297.967	34873.2
298.033	34955.52
298.1	35095.89
298.167	35121.74
298.234	35198.23
298.3	35279.57
298.367	35305
298.434	35384.86
298.5	35395.92
298.567	35424.21
298.634	35479.12
298.7	35590.17
298.767	35642.91
298.834	35740.53
298.9	35756.06
298.967	35778.09
299.033	35856.95
299.1	35956.49
299.167	36059.15
299.233	36107.88
299.3	36186.64
299.366	36284.98
299.433	36375.37
299.5	36343.09
299.566	36408.56
299.633	36516.46
299.699	36598.05
299.766	36639.6
299.832	36694.79
299.899	36773.24
299.965	36868.87
300.032	36903.76
300.099	36959.3
300.165	37031.48
300.232	37055.37
300.298	37111.68
300.365	37215.94
300.431	37266.2
300.498	37287.41
300.564	37356.75
300.631	37438.66
300.697	37533.15
300.763	37574.56
300.83	37600.2
300.896	37687.59
300.963	37761.25
301.029	37810.5
301.096	37868.58
301.162	37960.84
301.229	37990.99
301.295	37992.64
301.361	38042.86
301.428	38118.41
301.494	38125.98
301.561	38175.03
301.627	38239.04
301.693	38298.57
301.76	38348.69
301.826	38383.57
301.892	38473.28
301.959	38538.37
302.025	38576.88
302.092	38591.75
302.158	38675.52
302.224	38742.42
302.291	38757.28
302.357	38786.52
302.423	38817.37
302.49	38832.38
302.556	38915.99
302.622	38976.66
302.688	39074.05
302.755	39166.8
302.821	39223.92
302.887	39310.77
302.954	39366.49
303.02	39436.01
303.086	39508.5
303.152	39546.24
303.219	39580.05
303.285	39626.65
303.351	39697.16
303.417	39742.69
303.483	39764.89
303.55	39803.66
303.616	39842.19
303.682	39889.75
303.748	39920.31
303.815	40019.35
303.881	40108.9
303.947	40113.61
304.013	40162.98
304.079	40180.52
304.145	40142.28
304.212	40196.84
304.278	40218.71
304.344	40242.42
304.41	40248.45
304.476	40258.7
304.542	40295.58
304.608	40357.39
304.674	40352.67
304.741	40372.8
304.807	40433.06
304.873	40506.2
304.939	40585.12
305.005	40569.62
305.071	40604.46
305.137	40659.86
305.203	40616.84
305.269	40644.16
305.335	40720.08
305.401	40755.76
305.467	40785.21
305.533	40874
305.599	40943.9
305.666	41019.42
305.732	41075.02
305.798	41151.67
305.864	41275.24
305.93	41322.48
305.996	41373.18
306.062	41424.46
306.128	41448.28
306.194	41440.16
306.259	41471.03
306.325	41475.5
306.391	41559.49
306.457	41637.84
306.523	41688.83
306.589	41809.74
306.655	41825.68
306.721	41803.51
306.787	41806.62
306.853	41906.24
306.919	41884.9
306.985	41894.72
307.051	41916.45
307.117	41929.63
307.183	41957.87
307.248	41903.66
307.314	41960.35
307.38	42008.63
307.446	42070.67
307.512	42086.23
307.578	42145.68
307.644	42166.68
307.709	42220.65
307.775	42234.17
307.841	42262.13
307.907	42310.8
307.973	42292.56
308.039	42332.53
308.104	42390.68
308.17	42439.29
308.236	42425.63
308.302	42489.94
308.368	42492.23
308.433	42521.06
308.499	42545.08
308.565	42553.64
308.631	42608.19
308.696	42594.82
308.762	42590.54
308.828	42613.2
308.894	42599.74
308.959	42586.8
309.025	42610.19
309.091	42636.74
309.156	42659.99
309.222	42701.86
309.288	42687.66
309.354	42644.68
309.419	42673.76
309.485	42675.51
309.551	42721.66
309.616	42714.8
309.682	42735.67
309.748	42758.66
309.813	42782.74
309.879	42808.46
309.945	42807.34
310.01	42827.28
310.076	42867.98
310.141	42881.74
310.207	42873.38
310.273	42910.57
310.338	42953.8
310.404	42953.85
310.469	42948.89
310.535	42963.77
310.601	42930.22
310.666	42989.6
310.732	43066.43
310.797	43068.62
310.863	43066.28
310.928	43082.63
310.994	43129.41
311.059	43157.91
311.125	43184.9
311.191	43257.53
311.256	43243.57
311.322	43302.47
311.387	43288.37
311.453	44202.49
311.518	44217.37
311.584	44249.82
311.649	44314.46
311.715	44320.68
311.78	44349.23
311.846	44355.55
311.911	44400.79
311.976	44442.95
312.042	44434.34
312.107	44425.25
312.173	44444.36
312.238	44472.96
312.304	44506.87
312.369	44524.91
312.434	44527.78
312.5	44537.8
312.565	44472.66
312.631	44527.33
312.696	44539.44
312.761	44575
312.827	43688.55
312.892	43806.4
312.958	43834.32
313.023	43857.73
313.088	43893.38
313.154	43887.5
313.219	43882.19
313.284	43894.02
313.35	43923.2
313.415	43922.57
313.48	43939.06
313.546	43979.39
313.611	44031.25
313.676	44027.45
313.741	44022.3
313.807	44074.99
313.872	44127.29
313.937	44175.3
314.003	44238.45
314.068	44277.91
314.133	44328.32
314.198	44335.91
314.264	44300.23
314.329	44299.89
314.394	44317.02
314.459	44323.78
314.525	44423.13
314.59	44468.36
314.655	44461.41
314.72	44507.25
314.785	44551.66
314.851	44574.57
314.916	44550.15
314.981	44537.84
315.046	44544.26
315.111	44538.62
315.176	44528.94
315.242	44559.35
315.307	44587.67
315.372	44554.82
315.437	44546.16
315.502	44545.14
315.567	44617.31
315.632	44586.12
315.698	44623
315.763	44634.15
315.828	44643.34
315.893	44645.48
315.958	44645.19
316.023	44643.39
316.088	44609.91
316.153	44543.95
316.218	44543.12
316.283	44498.42
316.348	44447.3
316.413	44435.04
316.479	44400.8
316.544	44304.44
316.609	44193.61
316.674	44073.37
316.739	43969.38
316.804	43863.35
316.869	43742.18
316.934	43591.03
316.999	43474.65
317.064	43290.95
317.129	43136.71
317.194	42996.8
317.259	42809.99
317.324	42613.9
317.389	42419.76
317.454	42253.55
317.518	42125.79
317.583	41997.17
317.648	41879.86
317.713	41747.73
317.778	41526.62
317.843	41392.06
317.908	41216.76
317.973	41056.41
318.038	40922.85
318.103	40746.55
318.168	40583.25
318.233	40413.99
318.297	40220.24
318.362	40046.43
318.427	39859.49
318.492	39713.9
318.557	39504.53
318.622	39358.18
318.687	39226.84
318.751	39047.25
318.816	38886.45
318.881	38717.95
318.946	38475.33
319.011	38267.41
319.075	38053.68
319.14	37861.7
319.205	37645.32
319.27	37477.39
319.335	37264.51
319.399	37056.37
319.464	36897.3
319.529	36661.56
319.594	36472.98
319.658	36285.31
319.723	36074.55
319.788	35897.22
319.853	35633.53
319.917	35460.59
319.982	35197.11
320.047	34990.79
320.112	34825.07
320.176	34561.57
320.241	34333.93
320.306	34149.27
320.37	33924.22
320.435	33733.79
320.5	33556.17
320.564	33340.05
320.629	33104.5
320.694	32911.34
320.758	32679.2
320.823	32427.47
320.888	32235.28
320.952	31977.22
321.017	31742.57
321.082	31522.35
321.146	31305.83
321.211	31095.63
321.275	30863.05
321.34	30630.35
321.405	30396.84
321.469	30156.2
321.534	29923.84
321.598	29669.77
321.663	29468.58
321.727	29265.83
321.792	29008.04
321.857	28762.23
321.921	28543.27
321.986	28303.24
322.05	28006.79
322.115	27789.18
322.179	27564.47
322.244	27283.59
322.308	27070.48
322.373	26817.08
322.437	26574.75
322.502	26395.68
322.566	26151.66
322.631	25927.55
322.695	25698.01
322.76	25446.79
322.824	25213.05
322.889	24969.6
322.953	24725.6
323.018	24405.54
323.082	24086.58
323.146	23807.77
323.211	23532.7
323.275	23273.88
323.34	23021.99
323.404	22806.19
323.468	22538.33
323.533	22265.44
323.597	22012.71
323.662	21726.73
323.726	21506.19
323.79	21241.12
323.855	20912.86
323.919	20637.2
323.983	20372.68
324.048	19980.4
324.112	20143.51
324.177	19345.5
324.241	18293.67
324.305	17257.66
324.37	16236.89
324.434	15253.27
324.498	14984.65
324.562	14673.85
324.627	14317.83
324.691	13974.82
324.755	13585.96
324.82	13149.09
324.884	12696.59
324.948	12223.9
325.012	11670.83
325.077	10959.51
