Data from 20250701_urea_2M_exp3_MAYP1162681_22-49-50-813.txt Node
Date: Tue Jul 01 22:49:50 BST 2025
User: adleo
Spectrometer: MAYP116268
Trigger mode: 0
Integration Time (sec): 4.000000E0
Scans to average: 1
Electric dark correction enabled: true
Nonlinearity correction enabled: true
Boxcar width: 10
XAxis mode: Wavelengths
Number of Pixels in Spectrum: 2068
>>>>>Begin Spectral Data<<<<<
179.565	3819.69
179.642	4021.03
179.718	4175.73
179.795	4306.67
179.871	4414.92
179.948	4477.85
180.024	4550.14
180.101	4626.88
180.177	4676.93
180.254	4759.61
180.33	4839.93
180.407	5118.7
180.483	5416.25
180.56	5716.15
180.636	5987.52
180.712	5943.2
180.789	5979.76
180.865	6023.06
180.942	6049.78
181.018	6087.4
181.095	6134.84
181.171	6153.36
181.248	6154.61
181.324	6206.32
181.4	6233.78
181.477	6273.33
181.553	6316.4
181.63	6392.36
181.706	6451.61
181.782	6479.86
181.859	6477.51
181.935	6493.07
182.011	6478.76
182.088	6535.76
182.164	6605.14
182.24	6658.18
182.317	6686.88
182.393	6681.79
182.469	6731.06
182.546	6777.55
182.622	6792.15
182.698	6774.04
182.775	6814.38
182.851	6863.04
182.927	6836
183.003	6821.59
183.08	6805.03
183.156	6841.58
183.232	6827.4
183.308	6786.43
183.385	6820.33
183.461	6879.56
183.537	6884.99
183.613	6927.36
183.69	6896.85
183.766	6855.56
183.842	6877.57
183.918	6891.16
183.995	6935.11
184.071	6945.64
184.147	6927.77
184.223	6896.99
184.299	6941.06
184.375	6899.95
184.452	6921.67
184.528	7056.53
184.604	7093.56
184.68	7133.42
184.756	7154.76
184.832	7172.64
184.908	7191.41
184.985	7181.04
185.061	7125.79
185.137	7159.53
185.213	7119.85
185.289	7124.03
185.365	7102.27
185.441	7100.06
185.517	7152.56
185.593	7140.88
185.669	7129.11
185.745	7167.51
185.822	7221.29
185.898	7191.4
185.974	7228.71
186.05	7197.23
186.126	7117.06
186.202	7095.25
186.278	7085.73
186.354	7055.46
186.43	7078.3
186.506	7076.66
186.582	7082.19
186.658	7101.1
186.734	7028.62
186.81	7038.47
186.886	7047.93
186.962	7092.17
187.038	7078.34
187.114	7047.13
187.19	7074.77
187.266	7043.98
187.341	7041.76
187.417	7013.66
187.493	7017.5
187.569	7027.79
187.645	7011.46
187.721	6975.55
187.797	7002.69
187.873	7016.68
187.949	7000.97
188.025	6973.81
188.101	6978.42
188.176	6996.15
188.252	6987.5
188.328	7012.99
188.404	7011.55
188.48	6991.48
188.556	6968.22
188.632	6963.51
188.707	6971.2
188.783	6957.69
188.859	6946.22
188.935	6906.58
189.011	6935.4
189.086	6909.7
189.162	6880.39
189.238	6870.89
189.314	6856.04
189.39	6836.54
189.465	6809.68
189.541	6859.8
189.617	6809.7
189.693	6792.41
189.768	6802.75
189.844	6885.86
189.92	6858.45
189.996	6885.26
190.071	6928.59
190.147	6920.86
190.223	6955.61
190.298	6928.35
190.374	6885.65
190.45	6923.78
190.526	6951.59
190.601	6930.79
190.677	6937.99
190.753	7034.45
190.828	7048.81
190.904	7102.73
190.98	7154.54
191.055	7195.39
191.131	7169
191.207	7243.14
191.282	7277.09
191.358	7240.58
191.433	7189.27
191.509	7236.08
191.585	7227.91
191.66	7227.48
191.736	7256.5
191.811	7229.87
191.887	7288
191.963	7366.78
192.038	7384.7
192.114	7393.26
192.189	7412.14
192.265	7405.32
192.34	7327.6
192.416	7321.98
192.491	7307.56
192.567	7312.03
192.642	7313.71
192.718	7317.03
192.793	7274.54
192.869	7256.33
192.944	7272.66
193.02	7300.4
193.095	7314.82
193.171	7337.36
193.246	7336.59
193.322	7328.23
193.397	7325.54
193.473	7267.98
193.548	7205.25
193.624	7226.74
193.699	7216.36
193.775	7271.71
193.85	7270.36
193.925	7299.35
194.001	7305.79
194.076	7279.45
194.152	7248.01
194.227	7226.76
194.302	7190.98
194.378	7200.2
194.453	7193.14
194.529	7231.6
194.604	7179.5
194.679	7156.96
194.755	7092.02
194.83	7137.71
194.905	7123.15
194.981	7153.96
195.056	7134.55
195.131	7154.54
195.207	7146.8
195.282	7115.09
195.357	7045.66
195.433	7098.71
195.508	7055.55
195.583	7076.31
195.659	7129.52
195.734	7150.67
195.809	7143.61
195.884	7174.54
195.96	7178.58
196.035	7228.98
196.11	7215.47
196.185	7258.29
196.261	7269.19
196.336	7376.13
196.411	7326.45
196.486	7350.14
196.561	7328.75
196.637	7357.72
196.712	7412.35
196.787	7421.34
196.862	7478.67
196.937	7510.97
197.013	7528.81
197.088	7567.06
197.163	7641.28
197.238	7692.29
197.313	7692.29
197.388	7742.92
197.464	7852.6
197.539	7887.8
197.614	7868.57
197.689	7909.21
197.764	7961.6
197.839	8031.52
197.914	8007.75
197.989	8077.84
198.065	8125.06
198.14	8293.33
198.215	8388.25
198.29	8428.49
198.365	8468.47
198.44	8503.44
198.515	8615.97
198.59	8674.01
198.665	8762.17
198.74	8785.62
198.815	8791.73
198.89	8867.28
198.965	8968.97
199.04	8945.95
199.115	9004.66
199.19	9146.68
199.265	9150.2
199.34	9185.58
199.415	9300.59
199.49	9373.31
199.565	9407.26
199.64	9490.5
199.715	9482.07
199.79	9502.54
199.865	9527.05
199.94	9525.8
200.015	9631.89
200.09	9636.13
200.165	9658.04
200.24	9683.33
200.315	9820.65
200.39	9876.19
200.464	9899.4
200.539	9904.22
200.614	9962.29
200.689	10040.38
200.764	10064.71
200.839	10131.1
200.914	10148.53
200.989	10112.39
201.063	10165.38
201.138	10110.36
201.213	10108.63
201.288	10047.45
201.363	10062.68
201.438	10055.74
201.512	10110.29
201.587	10051.52
201.662	10060.15
201.737	10104.27
201.812	10134.43
201.886	10024.85
201.961	10058
202.036	10017.65
202.111	10002.42
202.186	9904.79
202.26	9840.1
202.335	9765.97
202.41	9744.49
202.485	9684.74
202.559	9617.7
202.634	9521.25
202.709	9550.99
202.784	9481.7
202.858	9476.64
202.933	9414.96
203.008	9394.02
203.082	9324.83
203.157	9322.57
203.232	9175.12
203.306	9093.48
203.381	8976.95
203.456	8893.77
203.53	8813.99
203.605	8749.66
203.68	8672.43
203.754	8648.48
203.829	8601.21
203.904	8529.81
203.978	8491.15
204.053	8503.52
204.127	8460.94
204.202	8456.32
204.277	8396.13
204.351	8379.57
204.426	8347.57
204.5	8315.33
204.575	8194.53
204.65	8235.15
204.724	8204.67
204.799	8231.88
204.873	8218.07
204.948	8213.06
205.022	8170.22
205.097	8132.77
205.171	8175.24
205.246	8203.93
205.32	8196.76
205.395	8197.73
205.469	8172.3
205.544	8194.05
205.618	8137.72
205.693	8181.93
205.767	8139.7
205.842	8209.52
205.916	8182.11
205.991	8159.11
206.065	8180.57
206.14	8238.81
206.214	8217.58
206.289	8190.34
206.363	8234.26
206.438	8245.58
206.512	8276.13
206.586	8344
206.661	8379.43
206.735	8302.06
206.81	8300.52
206.884	8352.9
206.958	8305.33
207.033	8363.71
207.107	8384.65
207.181	8489.43
207.256	8466.14
207.33	8530.8
207.405	8575.49
207.479	8646.13
207.553	8663.01
207.628	8606.89
207.702	8642.06
207.776	8617.76
207.851	8630.12
207.925	8682.46
207.999	8671.15
208.073	8658.87
208.148	8667.39
208.222	8626.24
208.296	8738.02
208.371	8798.89
208.445	8833.84
208.519	8933.4
208.593	8971.04
208.668	8953.46
208.742	8965.31
208.816	8973.35
208.89	9019.87
208.965	9013.46
209.039	9036.72
209.113	9100.26
209.187	9169.62
209.261	9156.77
209.336	9228.02
209.41	9298.61
209.484	9296.92
209.558	9368.04
209.632	9416.76
209.707	9458.51
209.781	9528.51
209.855	9579.62
209.929	9632.96
210.003	9657.42
210.077	9655.45
210.151	9818.31
210.226	9939.86
210.3	10035.9
210.374	10110.34
210.448	10127.25
210.522	10164.59
210.596	10200.43
210.67	10231.11
210.744	10394.19
210.818	10511.4
210.892	10579.86
210.966	10561.46
211.041	10620.38
211.115	10611.81
211.189	10694.96
211.263	10745.74
211.337	10768.14
211.411	10816.52
211.485	10798.55
211.559	10838.82
211.633	10841.47
211.707	10735.58
211.781	10754.38
211.855	10622.99
211.929	10602.61
212.003	10535.96
212.077	10569.31
212.151	10607.04
212.225	10636.29
212.299	10593.92
212.373	10550.61
212.447	10525.46
212.52	10624.71
212.594	10630.11
212.668	10669.04
212.742	10612.13
212.816	10594.74
212.89	10573.93
212.964	10564.05
213.038	10564.87
213.112	10605.59
213.186	10650.1
213.26	10569.53
213.333	10408.1
213.407	10423.03
213.481	10416.29
213.555	10449.51
213.629	10395.78
213.703	10333.72
213.777	10322.78
213.85	10254.99
213.924	10358.64
213.998	10359.8
214.072	10318.06
214.146	10258.23
214.219	10238.76
214.293	10215.16
214.367	10205.96
214.441	10227.54
214.515	10176.66
214.588	10083.4
214.662	9947.67
214.736	9868.15
214.81	9880.04
214.883	9897.08
214.957	9848.21
215.031	9789.2
215.105	9696.23
215.178	9635.83
215.252	9597.59
215.326	9489.1
215.4	9396.34
215.473	9209.8
215.547	9120.4
215.621	9049.69
215.694	9043.09
215.768	8934.72
215.842	8863.24
215.915	8787.83
215.989	8667.47
216.063	8607.66
216.136	8585.28
216.21	8558.28
216.284	8575.47
216.357	8550.64
216.431	8507.57
216.504	8505.45
216.578	8567.98
216.652	8575.62
216.725	8544.58
216.799	8548.19
216.873	8530.58
216.946	8535.06
217.02	8498.8
217.093	8462.23
217.167	8369.22
217.24	8284.66
217.314	8250.09
217.387	8203.35
217.461	8155.68
217.535	8175.5
217.608	8108.35
217.682	8074.43
217.755	8085.74
217.829	8020.68
217.902	7997.1
217.976	7979.5
218.049	7920.87
218.123	7839.91
218.196	7838.76
218.27	7804.27
218.343	7733.49
218.417	7733.87
218.49	7709.01
218.563	7752.39
218.637	7760.67
218.71	7827.96
218.784	7862.17
218.857	7894.82
218.931	7921.69
219.004	7932.89
219.077	7955.75
219.151	7979.31
219.224	7976.38
219.298	7973.35
219.371	8018.14
219.444	7982.18
219.518	7990.02
219.591	8017.04
219.665	8126.84
219.738	8144.59
219.811	8127.04
219.885	8171.4
219.958	8200.46
220.031	8207.86
220.105	8222.35
220.178	8226.87
220.251	8204.16
220.325	8222.93
220.398	8242.56
220.471	8261.22
220.544	8299.18
220.618	8279.16
220.691	8304.56
220.764	8323.17
220.838	8352
220.911	8335.01
220.984	8418.8
221.057	8456.32
221.131	8476
221.204	8376.1
221.277	8440.07
221.35	8566.63
221.424	8555.47
221.497	8569.52
221.57	8589.82
221.643	8625.01
221.716	8674.83
221.79	8677.67
221.863	8684.02
221.936	8691.87
222.009	8706.54
222.082	8740.19
222.155	8748.32
222.229	8812.88
222.302	8847.92
222.375	8853.36
222.448	8900.68
222.521	8915.55
222.594	8914.88
222.667	8889.58
222.74	8944.25
222.814	8945.12
222.887	8919.83
222.96	8978.42
223.033	9020.31
223.106	9054.04
223.179	9087.32
223.252	9095.12
223.325	9126.02
223.398	9142.97
223.471	9172.72
223.544	9195.05
223.617	9202.18
223.69	9223.21
223.763	9187.72
223.837	9210.21
223.91	9241.31
223.983	9184.85
224.056	9145.09
224.129	9170.46
224.202	9226.04
224.275	9212.27
224.348	9181.79
224.42	9150.6
224.493	9089.51
224.566	9064.95
224.639	9084.1
224.712	9053.95
224.785	9045.96
224.858	9032.63
224.931	9017.75
225.004	8977.85
225.077	8971.01
225.15	8877.6
225.223	8871.44
225.296	8956.84
225.369	8896.48
225.442	8859.22
225.514	8880.39
225.587	8903.06
225.66	8908.4
225.733	8910.42
225.806	8922.65
225.879	8914.37
225.952	8885.79
226.025	8937.39
226.097	8988.83
226.17	8978.05
226.243	8908.41
226.316	8900.56
226.389	8911.3
226.461	8928.15
226.534	8946.82
226.607	8945.67
226.68	9032.81
226.753	9035.08
226.825	8945.05
226.898	9002.33
226.971	9001.66
227.044	9022.4
227.117	9026.3
227.189	9045.57
227.262	9078.46
227.335	9095.5
227.407	9089.58
227.48	9124.42
227.553	9134.92
227.626	9110.84
227.698	9121.28
227.771	9162.66
227.844	9141.38
227.916	9158.96
227.989	9122.03
228.062	9120.73
228.134	9210.98
228.207	9211.51
228.28	9200.29
228.352	9212.09
228.425	9220.52
228.498	9271.51
228.57	9248.06
228.643	9308.17
228.716	9312.89
228.788	9305.81
228.861	9297.19
228.934	9359.05
229.006	9363.87
229.079	9365.99
229.151	9358.47
229.224	9317.23
229.296	9343.85
229.369	9446.73
229.442	9493.11
229.514	9474.83
229.587	9516.43
229.659	9434.26
229.732	9438.94
229.804	9484.63
229.877	9570.23
229.949	9603.51
230.022	9658.15
230.094	9660.89
230.167	9646.82
230.239	9595.06
230.312	9578.98
230.384	9649.99
230.457	9653.79
230.529	9665.88
230.602	9667.42
230.674	9674.3
230.747	9726.05
230.819	9755.62
230.892	9638.06
230.964	9639.12
231.037	9669.29
231.109	9665.63
231.181	9712.73
231.254	9692.36
231.326	9673.48
231.399	9643.9
231.471	9610.66
231.544	9527.9
231.616	9574.02
231.688	9579.8
231.761	9574.13
231.833	9561.85
231.905	9477.41
231.978	9473.41
232.05	9458.92
232.122	9461.38
232.195	9439.37
232.267	9468.07
232.339	9444.9
232.412	9515.97
232.484	9490.68
232.556	9465.12
232.629	9534.69
232.701	9552.17
232.773	9559.78
232.846	9551.31
232.918	9555.88
232.99	9576.55
233.062	9619.22
233.135	9629.62
233.207	9601.06
233.279	9643.47
233.351	9678.38
233.424	9683.34
233.496	9653.87
233.568	9735.7
233.64	9701.32
233.713	9716.88
233.785	9716.06
233.857	9733.11
233.929	9676.14
234.001	9747.74
234.074	9818.76
234.146	9739.08
234.218	9731.37
234.29	9727.76
234.362	9716.88
234.434	9673.91
234.507	9635.24
234.579	9585.25
234.651	9575.52
234.723	9601.82
234.795	9620.41
234.867	9613.42
234.939	9674.74
235.012	9696.46
235.084	9701.52
235.156	9739.66
235.228	9721.74
235.3	9705.32
235.372	9716.73
235.444	9779.86
235.516	9692.28
235.588	9693.34
235.66	9718.91
235.732	9694.54
235.804	9895.53
235.876	9942.48
235.948	10006.7
236.02	10024.08
236.092	10035.68
236.164	10045.65
236.236	10045.56
236.308	10038.62
236.38	10063.38
236.452	10039.29
236.524	10058.37
236.596	10123.09
236.668	10150.07
236.74	10172.08
236.812	10199.97
236.884	10235.96
236.956	10244.25
237.028	10239.57
237.1	10230.9
237.172	10300.91
237.244	10378.28
237.316	10260.72
237.388	10240.93
237.46	10216.88
237.532	10281.15
237.604	10272.68
237.675	10350.2
237.747	10401.13
237.819	10392.99
237.891	10400.27
237.963	10390.54
238.035	10393.09
238.107	10275.75
238.178	10345.39
238.25	10357.63
238.322	10451.02
238.394	10404.91
238.466	10406.84
238.538	10461.22
238.609	10499.67
238.681	10441.12
238.753	10424.06
238.825	10441.22
238.897	10470.75
238.968	10552.67
239.04	10536.92
239.112	10653.07
239.184	10604.74
239.255	10599.05
239.327	10639.37
239.399	10663.27
239.471	10716.45
239.542	10746.08
239.614	10819.03
239.686	10728.19
239.758	10783.7
239.829	10750.44
239.901	10818
239.973	10841.17
240.044	10863.87
240.116	10880.44
240.188	10902.65
240.259	10912.39
240.331	10908
240.403	10954.21
240.474	10907.07
240.546	10895.6
240.618	10832.96
240.689	10829.88
240.761	10852.43
240.833	10914.4
240.904	10914.35
240.976	10911.56
241.048	10930.88
241.119	10968.04
241.191	11016.8
241.262	11086.36
241.334	11088.72
241.405	11095.66
241.477	11090.5
241.549	11106.79
241.62	11128.19
241.692	11168.14
241.763	11230.41
241.835	11248.53
241.906	11264.24
241.978	11232
242.049	11293.11
242.121	11361.15
242.192	11440.19
242.264	11405.15
242.335	11357.01
242.407	11403.42
242.478	11406.5
242.55	11421.01
242.621	11403.8
242.693	11407.61
242.764	11384.76
242.836	11384.66
242.907	11412.62
242.979	11448.38
243.05	11469.92
243.122	11496.96
243.193	11500.09
243.264	11423.41
243.336	11425.82
243.407	11464.77
243.479	11551.85
243.55	11577.01
243.622	11596.01
243.693	11597.02
243.764	11661.21
243.836	11646.37
243.907	11634.28
243.978	11642.13
244.05	11671.82
244.121	11623.87
244.192	11669.56
244.264	11629.17
244.335	11642.04
244.407	11597.75
244.478	11614.28
244.549	11606.57
244.62	11559.04
244.692	11555.43
244.763	11606.8
244.834	11596.83
244.906	11571.23
244.977	11589.07
245.048	11638.33
245.119	11611.15
245.191	11582.04
245.262	11515.34
245.333	11590.85
245.405	11610.47
245.476	11642.66
245.547	11659.49
245.618	11722.62
245.689	11731.97
245.761	11772.12
245.832	11785.23
245.903	11823.79
245.974	11859.46
246.045	11868.81
246.117	11954.6
246.188	11940.58
246.259	11918.31
246.33	11938.07
246.401	11948.97
246.473	11917.3
246.544	11904.28
246.615	11968.39
246.686	11973.64
246.757	12054.95
246.828	12029.98
246.899	12107.26
246.97	12072.17
247.042	12064.12
247.113	12102.59
247.184	12189.89
247.255	12176
247.326	12201.55
247.397	12209.84
247.468	12219.34
247.539	12232.98
247.61	12187.14
247.681	12233.02
247.752	12291.39
247.823	12265.7
247.894	12278.96
247.965	12248.84
248.037	12232.25
248.108	12164.63
248.179	12165.06
248.25	12157.44
248.321	12190.41
248.392	12137.48
248.463	12223.66
248.534	12224.34
248.605	12250.71
248.675	12221.25
248.746	12243.47
248.817	12261.31
248.888	12278.28
248.959	12218.07
249.03	12244.25
249.101	12259.33
249.172	12251.82
249.243	12174.12
249.314	12242.86
249.385	12258.23
249.456	12288.89
249.527	12289.66
249.598	12324.36
249.669	12335.4
249.739	12349.57
249.81	12362.78
249.881	12324.22
249.952	12317.13
250.023	12316.7
250.094	12258.8
250.165	12230.89
250.235	12228.43
250.306	12229.35
250.377	12199.66
250.448	12227.32
250.519	12159.5
250.59	12217.59
250.66	12211.81
250.731	12287.24
250.802	12285.65
250.873	12306.42
250.944	12329.13
251.014	12318.96
251.085	12413.97
251.156	12433.68
251.227	12478.66
251.297	12532.7
251.368	12578.63
251.439	12620.72
251.51	12668.1
251.58	12655.48
251.651	12647.57
251.722	12697.17
251.792	12653.21
251.863	12661.89
251.934	12720.31
252.005	12837.83
252.075	12837.93
252.146	12892.93
252.217	12947.11
252.287	12989.58
252.358	12989.73
252.429	13070.08
252.499	13062.47
252.57	13064.88
252.641	13110.24
252.711	13123.16
252.782	13072.98
252.852	13153.43
252.923	13153.82
252.994	13173.73
253.064	13226.94
253.135	13216.1
253.205	13196.29
253.276	13266.47
253.347	13330.01
253.417	13316.65
253.488	13305.13
253.558	13295.59
253.629	13282.43
253.699	13291.92
253.77	13312.8
253.841	13303.98
253.911	13315.26
253.982	13333.38
254.052	13371.41
254.123	13387.47
254.193	13388.62
254.264	13531.99
254.334	13502.05
254.405	13459
254.475	13423.09
254.546	13430.7
254.616	13492.89
254.687	13525.62
254.757	13546.35
254.827	13543.65
254.898	13566.07
254.968	13568.04
255.039	13551.7
255.109	13595.57
255.18	13569.15
255.25	13503.54
255.321	13540.37
255.391	13486
255.461	13580.77
255.532	13491.3
255.602	13484.79
255.673	13427.09
255.743	13393.68
255.813	13321.14
255.884	13383.56
255.954	13418.18
256.024	13479.98
256.095	13481.37
256.165	13441.84
256.235	13466
256.306	13454.96
256.376	13496.56
256.446	13540.18
256.517	13575.47
256.587	13620.98
256.657	13637.37
256.728	13663.88
256.798	13673.86
256.868	13679.79
256.938	13642.24
257.009	13691.99
257.079	13724.62
257.149	13833.57
257.219	13767.33
257.29	13811.25
257.36	13752.48
257.43	13792.98
257.5	13719.61
257.571	13710.06
257.641	13755.18
257.711	13717.15
257.781	13745.45
257.852	13767.04
257.922	13700.08
257.992	13701.34
258.062	13691.12
258.132	13738.21
258.202	13742.46
258.273	13757.59
258.343	13833.08
258.413	13815.05
258.483	13819.01
258.553	13788.01
258.623	13756.97
258.693	13784.68
258.764	13844.99
258.834	13914.46
258.904	13930.07
258.974	13927.47
259.044	13939.19
259.114	13965.6
259.184	14000.79
259.254	14007.16
259.324	13949.36
259.394	13998.53
259.464	14078.74
259.535	14090.6
259.605	14081.1
259.675	14069.87
259.745	14097.4
259.815	14072.14
259.885	14080.29
259.955	14199.92
260.025	14190.23
260.095	14205.41
260.165	14236.51
260.235	14301.82
260.305	14285.38
260.375	14255.59
260.445	14346.8
260.515	14411.64
260.585	14459.74
260.655	14470.06
260.725	14519.95
260.795	14558.18
260.865	14627.59
260.934	14590.14
261.004	14621.76
261.074	14631.21
261.144	14692.48
261.214	14730.85
261.284	14732.29
261.354	14772.4
261.424	14714.81
261.494	14793.53
261.564	14796.61
261.634	14816.37
261.703	14747.3
261.773	14777.96
261.843	14804.95
261.913	14796.95
261.983	14745.61
262.053	14763.88
262.123	14756.36
262.192	14713.7
262.262	14755.49
262.332	14709.22
262.402	14752.07
262.472	14758.87
262.541	14698.08
262.611	14750.81
262.681	14721.55
262.751	14761.51
262.821	14761.8
262.89	14737.17
262.96	14758.24
263.03	14840.95
263.1	14869.58
263.169	14888.48
263.239	14920.05
263.309	14989.66
263.379	15025.37
263.448	15042.78
263.518	15064.03
263.588	15077.39
263.657	15148.25
263.727	15192.01
263.797	15208.74
263.867	15205.99
263.936	15164.63
264.006	15230.82
264.076	15222.05
264.145	15226.48
264.215	15208.31
264.285	15253.23
264.354	15206.14
264.424	15185.17
264.494	15129.64
264.563	15121.79
264.633	15205.08
264.702	15227.11
264.772	15173.12
264.842	15163.82
264.911	15200.89
264.981	15160.01
265.05	15166.81
265.12	15160.59
265.19	15164.88
265.259	15203.2
265.329	15235.69
265.398	15266.78
265.468	15356
265.537	15345.88
265.607	15377.5
265.676	15426.28
265.746	15448.16
265.815	15511.55
265.885	15531.8
265.955	15521.05
266.024	15527.36
266.094	15457.52
266.163	15512.32
266.232	15585.63
266.302	15593.63
266.371	15616.77
266.441	15646.32
266.51	15710.13
266.58	15719.58
266.649	15696.21
266.719	15753.13
266.788	15780.07
266.858	15847.5
266.927	15783.49
266.996	15811.26
267.066	15850.01
267.135	15820.56
267.205	15864.95
267.274	15877.77
267.343	15936.14
267.413	15954.94
267.482	16021.69
267.552	16093.65
267.621	16055.05
267.69	16005.93
267.76	16039.87
267.829	16065.65
267.898	16084.26
267.968	16052.69
268.037	16091.1
268.106	16153.66
268.176	16119.63
268.245	16136.31
268.314	16124.84
268.384	16183.98
268.453	16209.19
268.522	16226.83
268.592	16286.4
268.661	16278.55
268.73	16316.29
268.799	16298.31
268.869	16383.14
268.938	16327.86
269.007	16317.3
269.076	16340.1
269.146	16397.21
269.215	16427.67
269.284	16492.35
269.353	16482.81
269.422	16494.52
269.492	16492.16
269.561	16405.79
269.63	16441.12
269.699	16426.13
269.768	16449.02
269.838	16467.33
269.907	16502.86
269.976	16482.13
270.045	16426.17
270.114	16447.28
270.183	16458.75
270.253	16484.73
270.322	16434.89
270.391	16455.04
270.46	16527.53
270.529	16578.03
270.598	16618.37
270.667	16625.22
270.736	16600.25
270.806	16646.62
270.875	16717.08
270.944	16725.61
271.013	16858.3
271.082	16872.08
271.151	16916.08
271.22	16881.47
271.289	16899.16
271.358	16906.54
271.427	16936.42
271.496	16965.19
271.565	16969.63
271.634	16988.28
271.703	17117.62
271.772	17178.64
271.841	17200.62
271.91	17157.92
271.979	17171.89
272.048	17144.67
272.117	17190.02
272.186	17190.06
272.255	17229.77
272.324	17261.44
272.393	17300.67
272.462	17286.26
272.531	17317.58
272.6	17327.8
272.669	17395.66
272.738	17408.86
272.807	17447.37
272.876	17430.79
272.945	17584.53
273.013	17651.51
273.082	17711.85
273.151	17614.74
273.22	17654.26
273.289	17678.79
273.358	17768.24
273.427	17777.88
273.496	17830.16
273.564	17878.02
273.633	17938.26
273.702	17920.38
273.771	17938.98
273.84	17970.01
273.909	18015.22
273.977	18054.73
274.046	18068.56
274.115	18130.06
274.184	18118.49
274.253	18143.98
274.322	18233.48
274.39	18170.54
274.459	18158.78
274.528	18117.67
274.597	18151.99
274.665	18176.32
274.734	18242.73
274.803	18252.18
274.872	18274.3
274.94	18268.03
275.009	18481.55
275.078	18478.76
275.147	18526.61
275.215	18550.66
275.284	18615.81
275.353	18623.09
275.421	18589.26
275.49	18683.9
275.559	18692.43
275.627	18725.44
275.696	18737.25
275.765	18767.61
275.833	18779.56
275.902	18815.99
275.971	18887.99
276.039	18973.09
276.108	19040.41
276.177	19077.81
276.245	19081.57
276.314	19112.7
276.383	19179.44
276.451	19010.4
276.52	19050.4
276.588	19130.83
276.657	19181.72
276.725	19191.88
276.794	19237.09
276.863	19321.85
276.931	19289.04
277	19355.59
277.068	19431.05
277.137	19534.71
277.205	19577.74
277.274	19687.62
277.342	19774.8
277.411	19756.53
277.48	19762.85
277.548	19770.56
277.617	19817.88
277.685	19854.02
277.754	19908.72
277.822	19928.33
277.89	20022.17
277.959	20057.73
278.027	20037.68
278.096	20052.96
278.164	20188.87
278.233	20208.83
278.301	20215.48
278.37	20275.04
278.438	20275.67
278.507	20324.73
278.575	20288.34
278.643	20319.95
278.712	20303.71
278.78	20291.91
278.849	20390.89
278.917	20465.74
278.985	20483.91
279.054	20533.26
279.122	20605.64
279.191	20643.57
279.259	20676.83
279.327	20638.27
279.396	20728.1
279.464	20761.93
279.532	20823.14
279.601	20845.75
279.669	20880.6
279.737	20967.83
279.806	21015.83
279.874	21089.82
279.942	21117.87
280.011	21137.67
280.079	21201.15
280.147	21289.3
280.215	21356.35
280.284	21376.93
280.352	21369.7
280.42	21436.74
280.488	21446.28
280.557	21465.71
280.625	21516.13
280.693	21556.32
280.761	21617.92
280.83	21616.23
280.898	21702.51
280.966	21686.85
281.034	21622.54
281.102	21626.97
281.171	21638.78
281.239	21717.99
281.307	21724.06
281.375	21745.32
281.443	21891.39
281.512	21916.89
281.58	21982.94
281.648	21970.5
281.716	22014.12
281.784	22060.54
281.852	22088.6
281.92	22132.56
281.989	22217.7
282.057	22215.44
282.125	22400.9
282.193	22439.86
282.261	22484.84
282.329	22505.13
282.397	22567.36
282.465	22622.8
282.533	22713.86
282.601	22738.15
282.67	22701.27
282.738	22719.06
282.806	22793.3
282.874	22779.27
282.942	22837.51
283.01	22861.29
283.078	22923.62
283.146	22952.31
283.214	23032.21
283.282	23084.67
283.35	23172.05
283.418	23186.91
283.486	23245
283.554	23151.13
283.622	23186.38
283.69	23222.98
283.758	23259.92
283.826	23318.02
283.894	23395.99
283.962	23504.28
284.03	23594.51
284.098	23642.87
284.165	23679.66
284.233	23724.94
284.301	23749.34
284.369	23780.94
284.437	23791.4
284.505	23818.41
284.573	23915.78
284.641	23910.23
284.709	23977.14
284.777	23959
284.845	24030.69
284.912	24089
284.98	24158.16
285.048	24183.53
285.116	24252.99
285.184	24341.61
285.252	24393.23
285.319	24398.58
285.387	24413.88
285.455	24410.26
285.523	24489.27
285.591	24534.99
285.659	24582.03
285.726	24665.45
285.794	24642.73
285.862	24692.37
285.93	24744.46
285.997	24782.39
286.065	24819.25
286.133	24833.19
286.201	24876.08
286.269	24870.05
286.336	24878.44
286.404	24894.41
286.472	24976.54
286.539	24954.1
286.607	24946.91
286.675	24989.14
286.743	25051.96
286.81	25072.96
286.878	25168.9
286.946	25189.65
287.013	25228.29
287.081	25275.35
287.149	25270.38
287.216	25384.02
287.284	25408.34
287.352	25451.77
287.419	25478.56
287.487	25574.61
287.555	25643.45
287.622	25682.73
287.69	25757.41
287.758	25851.77
287.825	25889.66
287.893	25891.25
287.96	25948.81
288.028	26024.07
288.096	26083.22
288.163	26139.51
288.231	26147.82
288.298	26183.89
288.366	26267.76
288.433	26309.07
288.501	26327.95
288.569	26392.78
288.636	26420.4
288.704	26523.74
288.771	26607.62
288.839	26620.22
288.906	26646.25
288.974	26710.65
289.041	26750.19
289.109	26748.11
289.176	26817.63
289.244	26878.22
289.311	26970.33
289.379	27047.05
289.446	27099.85
289.514	27128.59
289.581	27175.59
289.649	27228.91
289.716	27278.48
289.783	27302.54
289.851	27410.58
289.918	27449.7
289.986	27528.89
290.053	27584.97
290.121	27615.9
290.188	27657.6
290.255	27803.34
290.323	27832.23
290.39	27858.77
290.458	27928.67
290.525	28032.11
290.592	28055.31
290.66	28105.32
290.727	28130.16
290.794	28228.71
290.862	28277.58
290.929	28343.84
290.996	28386.47
291.064	28467.03
291.131	28542.21
291.198	28631.36
291.266	28683.47
291.333	28739.57
291.4	28789.57
291.468	28902.25
291.535	28929.32
291.602	28985.55
291.669	28998.94
291.737	29059.95
291.804	29107.44
291.871	29205.88
291.938	29265.42
292.006	29404.42
292.073	29492.18
292.14	29574.25
292.207	29591.71
292.275	29633.2
292.342	29703
292.409	29843.61
292.476	29966.13
292.543	29984.22
292.611	30025.25
292.678	30117.23
292.745	30245.22
292.812	30330.34
292.879	30342.44
292.946	30395.94
293.014	30479.26
293.081	30554.03
293.148	30633.81
293.215	30724.94
293.282	30742.6
293.349	30816.9
293.416	30790.13
293.484	30877.99
293.551	30959.41
293.618	31057.37
293.685	31193.03
293.752	31218.63
293.819	31238.24
293.886	31237.32
293.953	31311.77
294.02	31400.38
294.087	31466
294.154	31498.73
294.221	31584.81
294.288	31644.51
294.356	31769.43
294.423	31840.48
294.49	31862.9
294.557	31963.1
294.624	31987.76
294.691	32109.17
294.758	32162.79
294.825	32243.08
294.892	32270.35
294.959	32325.2
295.026	32400.53
295.093	32422.1
295.16	32469.6
295.226	32515.29
295.293	32649.03
295.36	32703.43
295.427	32778.55
295.494	32858.38
295.561	32926.3
295.628	33052.24
295.695	33158.18
295.762	33195.35
295.829	33270.24
295.896	33377.77
295.963	33448.11
296.03	33517.35
296.096	33567.67
296.163	33657.11
296.23	33758.19
296.297	33843.83
296.364	33876.16
296.431	33944.14
296.498	33984.86
296.564	34132.94
296.631	34194.16
296.698	34192.76
296.765	34316.2
296.832	34340.74
296.899	34357.42
296.965	34479.59
297.032	34450.81
297.099	34555.65
297.166	34642.94
297.233	34685.09
297.299	34716.41
297.366	34771.42
297.433	34842.03
297.5	34943.22
297.566	34989.93
297.633	35042.67
297.7	35117.32
297.767	35180.41
297.833	35246.25
297.9	35306.78
297.967	35307.21
298.033	35406.57
298.1	35568.46
298.167	35596.89
298.234	35663.16
298.3	35744.22
298.367	35771.11
298.434	35854.19
298.5	35863.31
298.567	35894.51
298.634	35936.05
298.7	36045.22
298.767	36098.36
298.834	36192.7
298.9	36216.58
298.967	36250.31
299.033	36330.64
299.1	36423.89
299.167	36518.96
299.233	36562.74
299.3	36660.58
299.366	36748.51
299.433	36840.95
299.5	36795.51
299.566	36850.07
299.633	36955.61
299.699	37039.88
299.766	37078.67
299.832	37139.31
299.899	37217.48
299.965	37315.35
300.032	37367
300.099	37434.78
300.165	37502.32
300.232	37537.91
300.298	37593.93
300.365	37682.93
300.431	37734.94
300.498	37756.98
300.564	37824.14
300.631	37903.49
300.697	37986.63
300.763	38035.38
300.83	38073.75
300.896	38157.85
300.963	38253.18
301.029	38314.38
301.096	38380.68
301.162	38460.08
301.229	38500.3
301.295	38503.7
301.361	38556.5
301.428	38610.39
301.494	38609.57
301.561	38671.94
301.627	38724.39
301.693	38786.27
301.76	38845.62
301.826	38875.06
301.892	38957.4
301.959	39027.6
302.025	39064.71
302.092	39097.8
302.158	39187.37
302.224	39247.33
302.291	39283.81
302.357	39305.18
302.423	39332.73
302.49	39344.63
302.556	39430.73
302.622	39476.45
302.688	39577.11
302.755	39669.82
302.821	39747.11
302.887	39839.7
302.954	39884.31
303.02	39963.94
303.086	40019.52
303.152	40060.82
303.219	40087.45
303.285	40142.31
303.351	40219.93
303.417	40269.78
303.483	40291.6
303.55	40317.74
303.616	40351.76
303.682	40387.57
303.748	40422.07
303.815	40517.14
303.881	40597.61
303.947	40610.01
304.013	40650.49
304.079	40668.71
304.145	40654.52
304.212	40707.73
304.278	40717.01
304.344	40740.87
304.41	40747.97
304.476	40765.61
304.542	40794.19
304.608	40866.79
304.674	40865.43
304.741	40871.26
304.807	40929.06
304.873	40997.97
304.939	41071.95
305.005	41058.59
305.071	41096.15
305.137	41140.13
305.203	41096.87
305.269	41133.23
305.335	41212.52
305.401	41252.62
305.467	41291.51
305.533	41362.33
305.599	41424.17
305.666	41495.81
305.732	41535.48
305.798	41617.78
305.864	41752.69
305.93	41808.3
305.996	41842.77
306.062	41892.11
306.128	41928.72
306.194	41918.41
306.259	41958.57
306.325	41966.45
306.391	42054.73
306.457	42132.66
306.523	42186.96
306.589	42307.64
306.655	42326.26
306.721	42302.73
306.787	42320.96
306.853	42408.97
306.919	42389.62
306.985	42398.56
307.051	42425.74
307.117	42463.42
307.183	42495.95
307.248	42436.14
307.314	42500.47
307.38	42554.35
307.446	42620.63
307.512	42632.54
307.578	42697.65
307.644	42709.02
307.709	42774.77
307.775	42779.78
307.841	42802.68
307.907	42843.77
307.973	42813.28
308.039	42849.51
308.104	42916.86
308.17	42949.34
308.236	42926.92
308.302	42977.14
308.368	42977.09
308.433	43015.71
308.499	43032.14
308.565	43025.87
308.631	43088.17
308.696	43055.53
308.762	43055.34
308.828	43072.7
308.894	43064
308.959	43041.87
309.025	43064.73
309.091	43063.42
309.156	43101.94
309.222	43145.13
309.288	43148.77
309.354	43125.63
309.419	43156.56
309.485	43147.08
309.551	43209.87
309.616	43209.87
309.682	43259.48
309.748	43291.72
309.813	43304.18
309.879	43322.51
309.945	43328.83
310.01	43334.57
310.076	43387.88
310.141	43407.87
310.207	43397.26
310.273	43446.91
310.338	43495.93
310.404	43477.07
310.469	43484.51
310.535	43484.6
310.601	43461.79
310.666	43517.64
310.732	43597.69
310.797	43592.24
310.863	43597.25
310.928	43611.9
310.994	43667.15
311.059	43669.59
311.125	43690.35
311.191	43763.68
311.256	43759.49
311.322	43809.79
311.387	43789.85
311.453	44597.53
311.518	44606.38
311.584	44638.78
311.649	44687.28
311.715	44693.85
311.78	44739.18
311.846	44757.13
311.911	44816.53
311.976	44858.51
312.042	44843.67
312.107	44835.74
312.173	44863.33
312.238	44890.81
312.304	44909.59
312.369	44909.79
312.434	44921.17
312.5	44947.1
312.565	44881.32
312.631	44941.1
312.696	44937.6
312.761	44971.55
312.827	44191.7
312.892	44308.6
312.958	44330.64
313.023	44354.15
313.088	44389.86
313.154	44378.77
313.219	44379.01
313.284	44380.27
313.35	44398.76
313.415	44393.31
313.48	44395.65
313.546	44429.57
313.611	44482.46
313.676	44481
313.741	44491.7
313.807	44552.05
313.872	44588.69
313.937	44641.91
314.003	44719.89
314.068	44774.83
314.133	44846.26
314.198	44846.26
314.264	44804.39
314.329	44803.23
314.394	44822.11
314.459	44837.83
314.525	44934.76
314.59	44965.07
314.655	44956.16
314.72	45007.22
314.785	45050.62
314.851	45071.2
314.916	45037.53
314.981	45022.34
315.046	45027.01
315.111	45031.34
315.176	45016.4
315.242	45059.97
315.307	45086.93
315.372	45051.73
315.437	45045.45
315.502	45044.63
315.567	45131.85
315.632	45123.24
315.698	45169.91
315.763	45184.08
315.828	45198.53
315.893	45200.29
315.958	45205.4
316.023	45198.24
316.088	45159.84
316.153	45113.71
316.218	45120.52
316.283	45095.42
316.348	45054.5
316.413	45051.09
316.479	45006.78
316.544	44902.37
316.609	44784.66
316.674	44652.29
316.739	44517.54
316.804	44401.95
316.869	44259.94
316.934	44101.65
316.999	43971.67
317.064	43770.67
317.129	43611.44
317.194	43456.43
317.259	43272.85
317.324	43074.64
317.389	42885
317.454	42714.44
317.518	42573.72
317.583	42442.41
317.648	42317.73
317.713	42172.54
317.778	41940.22
317.843	41809.68
317.908	41644.32
317.973	41478.65
318.038	41355.48
318.103	41200.34
318.168	41050.25
318.233	40905.12
318.297	40700.12
318.362	40532.64
318.427	40349.58
318.492	40205.04
318.557	40003.36
318.622	39862.39
318.687	39743.02
318.751	39559.72
318.816	39394.58
318.881	39212.61
318.946	38967.77
319.011	38741.7
319.075	38517.22
319.14	38346.76
319.205	38124.37
319.27	37935.84
319.335	37727.73
319.399	37512.13
319.464	37333.22
319.529	37083.28
319.594	36876.46
319.658	36698.94
319.723	36471.07
319.788	36309.42
319.853	36039.96
319.917	35854.62
319.982	35584.97
320.047	35364.25
320.112	35205.49
320.176	34952.85
320.241	34748.29
320.306	34559.63
320.37	34349.28
320.435	34173.21
320.5	33968.94
320.564	33742.31
320.629	33513.56
320.694	33310.81
320.758	33069.34
320.823	32827.1
320.888	32638.42
320.952	32383.5
321.017	32146.66
321.082	31920.84
321.146	31707.04
321.211	31501.21
321.275	31272.35
321.34	31041.69
321.405	30811.08
321.469	30549.59
321.534	30314.98
321.598	30051.92
321.663	29850.69
321.727	29640.93
321.792	29379.14
321.857	29143.16
321.921	28924.65
321.986	28696.74
322.05	28403.57
322.115	28186.62
322.179	27941.39
322.244	27662.4
322.308	27451.07
322.373	27198.52
322.437	26964.18
322.502	26773.26
322.566	26522.52
322.631	26290.85
322.695	26056.59
322.76	25795.05
322.824	25575.15
322.889	25323.93
322.953	25073.61
323.018	24742.32
323.082	24418.08
323.146	24134.44
323.211	23850.61
323.275	23588.59
323.34	23319.69
323.404	23101.8
323.468	22844.14
323.533	22585.85
323.597	22326.45
323.662	22031.1
323.726	21794.92
323.79	21530.02
323.855	21186.98
323.919	20910.15
323.983	20646.82
324.048	20248.76
324.112	20440.57
324.177	19638.36
324.241	18571.44
324.305	17516.96
324.37	16490.17
324.434	15496.67
324.498	15219.79
324.562	14910.3
324.627	14557.32
324.691	14213.83
324.755	13819.94
324.82	13372.79
324.884	12913.37
324.948	12441.03
325.012	11880.19
325.077	11171.94
