Data from 20250701_urea_2M_exp3_MAYP1162681_18-59-51-967.txt Node
Date: Tue Jul 01 18:59:51 BST 2025
User: adleo
Spectrometer: MAYP116268
Trigger mode: 0
Integration Time (sec): 4.000000E0
Scans to average: 1
Electric dark correction enabled: true
Nonlinearity correction enabled: true
Boxcar width: 10
XAxis mode: Wavelengths
Number of Pixels in Spectrum: 2068
>>>>>Begin Spectral Data<<<<<
179.565	4010.23
179.642	4215.12
179.718	4378.25
179.795	4526.43
179.871	4646.39
179.948	4711.55
180.024	4788.01
180.101	4869.57
180.177	4923.83
180.254	5009.4
180.33	5094.7
180.407	5384.82
180.483	5697.15
180.56	6013.9
180.636	6302.2
180.712	6261.85
180.789	6295.65
180.865	6339.93
180.942	6374.34
181.018	6411.64
181.095	6457.33
181.171	6479.65
181.248	6485.99
181.324	6544.46
181.4	6574.38
181.477	6618.52
181.553	6674.48
181.63	6749.22
181.706	6813.02
181.782	6841.86
181.859	6844.02
181.935	6860.02
182.011	6851.13
182.088	6913.21
182.164	6987.33
182.24	7037.94
182.317	7073.97
182.393	7069.31
182.469	7124.13
182.546	7170.98
182.622	7186.59
182.698	7168.43
182.775	7214.61
182.851	7264.54
182.927	7235.7
183.003	7217.25
183.08	7195.97
183.156	7226.87
183.232	7218.07
183.308	7174.05
183.385	7206.33
183.461	7262.52
183.537	7269.2
183.613	7318.08
183.69	7280.15
183.766	7237.64
183.842	7263.94
183.918	7281.43
183.995	7327.23
184.071	7329.1
184.147	7311.7
184.223	7278.37
184.299	7328.8
184.375	7286.7
184.452	7308.15
184.528	7444.07
184.604	7483.47
184.68	7527.5
184.756	7550.24
184.832	7569.14
184.908	7585.37
184.985	7583.11
185.061	7523.47
185.137	7550.64
185.213	7505.84
185.289	7511.75
185.365	7492.24
185.441	7490.56
185.517	7540.97
185.593	7526.93
185.669	7520.92
185.745	7558.57
185.822	7617.08
185.898	7583.23
185.974	7615.96
186.05	7589.46
186.126	7510.75
186.202	7481.34
186.278	7462.16
186.354	7424.65
186.43	7447.6
186.506	7445.29
186.582	7445.05
186.658	7472.53
186.734	7407.61
186.81	7412.99
186.886	7425.2
186.962	7467.26
187.038	7453.65
187.114	7420.6
187.19	7453.97
187.266	7422.59
187.341	7420.18
187.417	7393.89
187.493	7396.1
187.569	7411.15
187.645	7392.07
187.721	7346.1
187.797	7379.02
187.873	7398.83
187.949	7382.59
188.025	7357.24
188.101	7366.99
188.176	7384.35
188.252	7370.7
188.328	7397.02
188.404	7397.74
188.48	7379.24
188.556	7344.53
188.632	7340.69
188.707	7343.96
188.783	7330.44
188.859	7319.73
188.935	7283.43
189.011	7312.08
189.086	7286.76
189.162	7256.42
189.238	7248.3
189.314	7240.66
189.39	7215.72
189.465	7188.85
189.541	7249.51
189.617	7189.88
189.693	7172.78
189.768	7186.19
189.844	7274.1
189.92	7244.61
189.996	7280.66
190.071	7324.93
190.147	7324.88
190.223	7356.76
190.298	7328.82
190.374	7284.51
190.45	7319.63
190.526	7343.86
190.601	7320.16
190.677	7330.06
190.753	7427.23
190.828	7439.15
190.904	7492.28
190.98	7553.01
191.055	7590.8
191.131	7556.7
191.207	7639.13
191.282	7675.27
191.358	7642.01
191.433	7585.91
191.509	7636.6
191.585	7623.14
191.66	7618.76
191.736	7647.5
191.811	7617.84
191.887	7672.43
191.963	7760.33
192.038	7773.69
192.114	7778.4
192.189	7791.24
192.265	7779.95
192.34	7704.5
192.416	7700.99
192.491	7690.89
192.567	7690.99
192.642	7699.45
192.718	7700.41
192.793	7652.23
192.869	7638.68
192.944	7641.9
193.02	7668.78
193.095	7682
193.171	7704.65
193.246	7708.74
193.322	7701.43
193.397	7701.33
193.473	7650.59
193.548	7578.98
193.624	7604.71
193.699	7597.45
193.775	7657.43
193.85	7660.75
193.925	7689.03
194.001	7687.15
194.076	7653.07
194.152	7618.15
194.227	7591.79
194.302	7559.74
194.378	7577.82
194.453	7562.58
194.529	7610.76
194.604	7564.65
194.679	7539.51
194.755	7468.77
194.83	7511.35
194.905	7502.31
194.981	7535.34
195.056	7514.58
195.131	7536.5
195.207	7529.19
195.282	7496.99
195.357	7428.01
195.433	7483.88
195.508	7438.15
195.583	7466.22
195.659	7521.91
195.734	7548.41
195.809	7546.1
195.884	7578.77
195.96	7581.23
196.035	7637.28
196.11	7626.32
196.185	7663.38
196.261	7680.59
196.336	7795.07
196.411	7739.99
196.486	7763.31
196.561	7736.14
196.637	7767.81
196.712	7821.79
196.787	7831.89
196.862	7888.72
196.937	7929.11
197.013	7946.72
197.088	7984.08
197.163	8056.5
197.238	8114.55
197.313	8114.51
197.388	8159.38
197.464	8260.92
197.539	8297.14
197.614	8270.93
197.689	8312.98
197.764	8372.22
197.839	8440.44
197.914	8416.04
197.989	8498.33
198.065	8543.7
198.14	8728
198.215	8819.1
198.29	8863.93
198.365	8907.44
198.44	8944.73
198.515	9043.04
198.59	9098.12
198.665	9193.34
198.74	9220.69
198.815	9227.43
198.89	9308.93
198.965	9416.67
199.04	9410.74
199.115	9467.84
199.19	9625.22
199.265	9633.88
199.34	9672.6
199.415	9797.09
199.49	9876.58
199.565	9909.43
199.64	9995.78
199.715	9980.7
199.79	9999.62
199.865	10024.09
199.94	10021.83
200.015	10137.88
200.09	10158.16
200.165	10183.3
200.24	10204.79
200.315	10350.52
200.39	10405.16
200.464	10424.52
200.539	10428.33
200.614	10481.89
200.689	10564.38
200.764	10586.59
200.839	10648.29
200.914	10668.09
200.989	10622.31
201.063	10672.17
201.138	10611.89
201.213	10610.83
201.288	10547.04
201.363	10578.16
201.438	10574.46
201.512	10634.28
201.587	10572.02
201.662	10579.39
201.737	10622.28
201.812	10656.34
201.886	10537.2
201.961	10569.4
202.036	10528.17
202.111	10518.43
202.186	10413.41
202.26	10356.55
202.335	10278.21
202.41	10258.12
202.485	10194.83
202.559	10127.68
202.634	10026.58
202.709	10061.43
202.784	9987.6
202.858	9984.03
202.933	9906.39
203.008	9884.57
203.082	9811.46
203.157	9800.48
203.232	9646
203.306	9573.01
203.381	9451.68
203.456	9371.69
203.53	9286.41
203.605	9213.5
203.68	9129.55
203.754	9105.98
203.829	9041.83
203.904	8968.33
203.978	8922.39
204.053	8933.27
204.127	8890.38
204.202	8893.37
204.277	8826.51
204.351	8807.79
204.426	8782.65
204.5	8751.56
204.575	8625.42
204.65	8659.17
204.724	8632.34
204.799	8667.55
204.873	8651.95
204.948	8645.26
205.022	8599.79
205.097	8568.49
205.171	8610.16
205.246	8638.85
205.32	8636.16
205.395	8638.81
205.469	8610.34
205.544	8628.73
205.618	8566.55
205.693	8604.38
205.767	8558.04
205.842	8634.28
205.916	8610.75
205.991	8572.2
206.065	8597.9
206.14	8654.44
206.214	8643.75
206.289	8617.66
206.363	8662.04
206.438	8663.14
206.512	8692.17
206.586	8760.06
206.661	8790.01
206.735	8720.27
206.81	8720.08
206.884	8774.88
206.958	8731.38
207.033	8789.45
207.107	8815.75
207.181	8928.36
207.256	8902.94
207.33	8963.87
207.405	9007.8
207.479	9076.16
207.553	9106.52
207.628	9048.16
207.702	9088.49
207.776	9063.36
207.851	9074
207.925	9123.99
207.999	9114.75
208.073	9111.28
208.148	9122.5
208.222	9084.03
208.296	9194.17
208.371	9255.92
208.445	9295.65
208.519	9395.15
208.593	9437.52
208.668	9423.8
208.742	9439.31
208.816	9447.35
208.89	9499.56
208.965	9494.26
209.039	9520.9
209.113	9580.9
209.187	9653.66
209.261	9642.2
209.336	9710.92
209.41	9786.06
209.484	9781.77
209.558	9860.28
209.632	9903.62
209.707	9945.62
209.781	10021.67
209.855	10080.59
209.929	10140.4
210.003	10163.57
210.077	10158.94
210.151	10327.52
210.226	10454.88
210.3	10546.89
210.374	10634.49
210.448	10651.55
210.522	10687.69
210.596	10734.76
210.67	10768.25
210.744	10935.5
210.818	11050.86
210.892	11119.63
210.966	11103.25
211.041	11166.52
211.115	11154.28
211.189	11241.31
211.263	11294.6
211.337	11323.03
211.411	11372.14
211.485	11348.33
211.559	11384.76
211.633	11393.77
211.707	11280.74
211.781	11301.37
211.855	11171.49
211.929	11140.85
212.003	11066.62
212.077	11102.87
212.151	11140.41
212.225	11171.26
212.299	11134.91
212.373	11095.97
212.447	11079.25
212.52	11174.24
212.594	11179.97
212.668	11219.77
212.742	11163.87
212.816	11144.83
212.89	11112.84
212.964	11102.52
213.038	11107.2
213.112	11149.27
213.186	11199.19
213.26	11115.33
213.333	10946.64
213.407	10965.48
213.481	10966.49
213.555	11005.93
213.629	10953.3
213.703	10881.88
213.777	10871.04
213.85	10790.37
213.924	10899.29
213.998	10892.3
214.072	10853.6
214.146	10795.14
214.219	10772.06
214.293	10747.58
214.367	10735.92
214.441	10761.85
214.515	10707.68
214.588	10611.22
214.662	10472.51
214.736	10382.77
214.81	10399.52
214.883	10418.11
214.957	10355.6
215.031	10298.2
215.105	10197.11
215.178	10128.36
215.252	10087.42
215.326	9971.91
215.4	9886.25
215.473	9687.76
215.547	9594.73
215.621	9527.66
215.694	9520.43
215.768	9414.67
215.842	9339.37
215.915	9264.32
215.989	9139.06
216.063	9077.69
216.136	9055.45
216.21	9026.95
216.284	9036.58
216.357	9006.06
216.431	8962.25
216.504	8960.76
216.578	9015.56
216.652	9026.43
216.725	8994.36
216.799	8999.85
216.873	8984.84
216.946	8987
217.02	8947.75
217.093	8908.52
217.167	8804.45
217.24	8715.72
217.314	8677.38
217.387	8633.31
217.461	8584.42
217.535	8610.7
217.608	8541.16
217.682	8510.45
217.755	8524.74
217.829	8467.13
217.902	8453.12
217.976	8427.19
218.049	8375.75
218.123	8294.05
218.196	8293.33
218.27	8263.88
218.343	8191.19
218.417	8185.23
218.49	8160.11
218.563	8200.18
218.637	8207.26
218.71	8278.96
218.784	8308.99
218.857	8340.35
218.931	8360.02
219.004	8373.78
219.077	8390.83
219.151	8410.64
219.224	8403.14
219.298	8395.63
219.371	8444
219.444	8399.36
219.518	8407.98
219.591	8427.89
219.665	8544.66
219.738	8559.14
219.811	8536.06
219.885	8578.51
219.958	8607.67
220.031	8610.27
220.105	8642.52
220.178	8659.66
220.251	8629.76
220.325	8652.97
220.398	8680.4
220.471	8705.52
220.544	8739.26
220.618	8714.18
220.691	8746.95
220.764	8771.01
220.838	8801.29
220.911	8782.66
220.984	8873.08
221.057	8915.28
221.131	8941.75
221.204	8833.26
221.277	8906.83
221.35	9033.91
221.424	9029.96
221.497	9046.09
221.57	9076.4
221.643	9107.9
221.716	9152.49
221.79	9161.15
221.863	9169.58
221.936	9175.84
222.009	9186.91
222.082	9218.74
222.155	9225.72
222.229	9292.03
222.302	9320.44
222.375	9330.31
222.448	9374.22
222.521	9380.73
222.594	9386.02
222.667	9354.12
222.74	9410.78
222.814	9404.66
222.887	9389
222.96	9447.81
223.033	9493.23
223.106	9517.39
223.179	9547.16
223.252	9559.4
223.325	9598.93
223.398	9614.15
223.471	9645.02
223.544	9674.29
223.617	9693.65
223.69	9715.32
223.763	9674.18
223.837	9700.38
223.91	9727.5
223.983	9672.23
224.056	9634.09
224.129	9654.75
224.202	9722.77
224.275	9715.01
224.348	9683.57
224.42	9650
224.493	9582.92
224.566	9556.04
224.639	9573.81
224.712	9543.84
224.785	9531.51
224.858	9517.35
224.931	9495.82
225.004	9453.74
225.077	9451.04
225.15	9352.44
225.223	9360.15
225.296	9454.14
225.369	9393.04
225.442	9355.67
225.514	9380.31
225.587	9408.96
225.66	9418.21
225.733	9413.34
225.806	9420.42
225.879	9417.2
225.952	9385.47
226.025	9436.03
226.097	9491.24
226.17	9485.94
226.243	9416.81
226.316	9413.48
226.389	9418.83
226.461	9443.87
226.534	9461.11
226.607	9445.65
226.68	9535.78
226.753	9525.91
226.825	9435.47
226.898	9495.85
226.971	9503.22
227.044	9520.94
227.117	9518.87
227.189	9538.28
227.262	9575.76
227.335	9598.49
227.407	9593.82
227.48	9629.88
227.553	9641.25
227.626	9626.46
227.698	9628.05
227.771	9671.42
227.844	9645.94
227.916	9669.3
227.989	9631.35
228.062	9629.62
228.134	9731.54
228.207	9728.36
228.28	9729.62
228.352	9738.48
228.425	9744.5
228.498	9797.48
228.57	9778.66
228.643	9846.24
228.716	9836.99
228.788	9830.34
228.861	9824.47
228.934	9890.11
229.006	9898.2
229.079	9904.18
229.151	9888.95
229.224	9858.52
229.296	9887.56
229.369	10001.85
229.442	10050.07
229.514	10030.53
229.587	10084.38
229.659	9999.69
229.732	10018.14
229.804	10059.12
229.877	10148.36
229.949	10191.34
230.022	10244.15
230.094	10250.27
230.167	10237.6
230.239	10197.38
230.312	10181.34
230.384	10255.88
230.457	10245.62
230.529	10260.07
230.602	10265.42
230.674	10271.44
230.747	10324.41
230.819	10359.19
230.892	10230.61
230.964	10227.14
231.037	10259.78
231.109	10250.68
231.181	10292.97
231.254	10255.35
231.326	10245.47
231.399	10220.56
231.471	10181.62
231.544	10096.48
231.616	10143.83
231.688	10159.59
231.761	10157.32
231.833	10139.46
231.905	10053.02
231.978	10057.93
232.05	10036.02
232.122	10036.21
232.195	10014.48
232.267	10047.63
232.339	10019.01
232.412	10095.59
232.484	10076.27
232.556	10051.42
232.629	10121.1
232.701	10144.33
232.773	10158.2
232.846	10143.03
232.918	10142.06
232.99	10161.09
233.062	10207.82
233.135	10219.82
233.207	10174.34
233.279	10222.02
233.351	10263.35
233.424	10265.71
233.496	10242.97
233.568	10329.16
233.64	10295.58
233.713	10310.03
233.785	10309.7
233.857	10330.99
233.929	10274.54
234.001	10341.38
234.074	10418.83
234.146	10343.56
234.218	10343.22
234.29	10350.69
234.362	10337.3
234.434	10293.7
234.507	10254.05
234.579	10201.1
234.651	10183.57
234.723	10218.64
234.795	10234.49
234.867	10233.58
234.939	10297.94
235.012	10324.25
235.084	10336.63
235.156	10376.76
235.228	10365.63
235.3	10346.79
235.372	10357.15
235.444	10416.4
235.516	10328.22
235.588	10333.18
235.66	10351.44
235.732	10321.33
235.804	10522.6
235.876	10575.49
235.948	10643.91
236.02	10673.44
236.092	10686.4
236.164	10699.65
236.236	10701.57
236.308	10702.44
236.38	10728.51
236.452	10706.49
236.524	10724.36
236.596	10794.4
236.668	10830.93
236.74	10857.38
236.812	10896.12
236.884	10937.71
236.956	10953.32
237.028	10951.34
237.1	10929.71
237.172	11009.57
237.244	11099.68
237.316	10975.65
237.388	10961.2
237.46	10939.46
237.532	11001.77
237.604	10997.96
237.675	11081.82
237.747	11132.33
237.819	11124.28
237.891	11130.3
237.963	11127.03
238.035	11128.28
238.107	11007.69
238.178	11081.54
238.25	11092.09
238.322	11188.59
238.394	11137.02
238.466	11136.83
238.538	11187.52
238.609	11236.67
238.681	11176.86
238.753	11151.31
238.825	11170.54
238.897	11200.75
238.968	11298.31
239.04	11280.19
239.112	11404.86
239.184	11359.89
239.255	11356.32
239.327	11390.87
239.399	11419.69
239.471	11468.6
239.542	11508.41
239.614	11585.81
239.686	11487.63
239.758	11547.97
239.829	11513.02
239.901	11586.42
239.973	11609.99
240.044	11644.06
240.116	11660.93
240.188	11683.53
240.259	11696.35
240.331	11694.76
240.403	11736.01
240.474	11678.75
240.546	11673.06
240.618	11606.64
240.689	11604.04
240.761	11631.95
240.833	11711.91
240.904	11708.39
240.976	11709.02
241.048	11722.52
241.119	11763.15
241.191	11825.37
241.262	11894.5
241.334	11901.3
241.405	11911.66
241.477	11916.43
241.549	11932.96
241.62	11964.78
241.692	12011.82
241.763	12084.46
241.835	12098.15
241.906	12121.09
241.978	12093.14
242.049	12159.37
242.121	12231.52
242.192	12305.7
242.264	12270.13
242.335	12214.07
242.407	12272.01
242.478	12283.48
242.55	12312.11
242.621	12299.15
242.693	12293.65
242.764	12282.47
242.836	12281.74
242.907	12307
242.979	12336.89
243.05	12360.46
243.122	12379.5
243.193	12385.38
243.264	12303.72
243.336	12320.07
243.407	12365.57
243.479	12453.88
243.55	12473.88
243.622	12486.47
243.693	12488.97
243.764	12559.49
243.836	12536.36
243.907	12517.85
243.978	12521.13
244.05	12550.53
244.121	12497.61
244.192	12548.41
244.264	12497.27
244.335	12511.49
244.407	12466.66
244.478	12491.34
244.549	12487.15
244.62	12450.75
244.692	12453.16
244.763	12506.52
244.834	12498.04
244.906	12471.04
244.977	12486.23
245.048	12542.39
245.119	12524.84
245.191	12502.62
245.262	12440.34
245.333	12529.32
245.405	12555.06
245.476	12592.66
245.547	12605.82
245.618	12673.16
245.689	12682.41
245.761	12718.86
245.832	12721.89
245.903	12771.25
245.974	12803.99
246.045	12814.06
246.117	12899.24
246.188	12878.03
246.259	12862.41
246.33	12878.51
246.401	12889.94
246.473	12855.57
246.544	12840.38
246.615	12899.72
246.686	12911.97
246.757	12998.01
246.828	12979.64
246.899	13057.3
246.97	13021.2
247.042	13017.1
247.113	13060.63
247.184	13161.29
247.255	13164.37
247.326	13203.8
247.397	13206.12
247.468	13218.36
247.539	13242.27
247.61	13196.72
247.681	13242.46
247.752	13302.19
247.823	13276.11
247.894	13293.95
247.965	13274.42
248.037	13264.78
248.108	13204.96
248.179	13212.33
248.25	13201.2
248.321	13230.75
248.392	13180.61
248.463	13271.53
248.534	13266.28
248.605	13286.23
248.675	13254.8
248.746	13273.99
248.817	13292.02
248.888	13319.35
248.959	13257.94
249.03	13283.78
249.101	13295.06
249.172	13288.45
249.243	13207.9
249.314	13277.95
249.385	13285.8
249.456	13317.38
249.527	13316.17
249.598	13354.16
249.669	13352.33
249.739	13362.64
249.81	13372.57
249.881	13329.72
249.952	13325.77
250.023	13326.3
250.094	13268.45
250.165	13236.49
250.235	13232.87
250.306	13234.85
250.377	13201.44
250.448	13233.59
250.519	13163.46
250.59	13228.92
250.66	13225.59
250.731	13308.79
250.802	13310.34
250.873	13337
250.944	13362.93
251.014	13353.39
251.085	13453.46
251.156	13487.88
251.227	13549.82
251.297	13610.18
251.368	13669.57
251.439	13711.31
251.51	13768.87
251.58	13762.41
251.651	13762.17
251.722	13825.95
251.792	13776.05
251.863	13786.51
251.934	13854.29
252.005	13976.06
252.075	13985.12
252.146	14041.48
252.217	14096.82
252.287	14148.93
252.358	14151.14
252.429	14225.72
252.499	14217.38
252.57	14222.92
252.641	14271.51
252.711	14271.56
252.782	14220.46
252.852	14306.41
252.923	14308.29
252.994	14325.07
253.064	14379.83
253.135	14361.08
253.205	14338.47
253.276	14423.41
253.347	14487.62
253.417	14466.31
253.488	14448.38
253.558	14433.1
253.629	14429.82
253.699	14440.18
253.77	14459.95
253.841	14457.73
253.911	14465.88
253.982	14491.47
254.052	14514.18
254.123	14525.55
254.193	14530.56
254.264	14686.4
254.334	14646.06
254.405	14614.1
254.475	14575.77
254.546	14585.32
254.616	14658.11
254.687	14690.02
254.757	14710.89
254.827	14716.48
254.898	14741.65
254.968	14745.7
255.039	14727.81
255.109	14772.55
255.18	14746.03
255.25	14680.96
255.321	14717.69
255.391	14682.5
255.461	14765.36
255.532	14679.32
255.602	14669.97
255.673	14615.69
255.743	14574.53
255.813	14499.38
255.884	14549.41
255.954	14592.7
256.024	14659.03
256.095	14658.45
256.165	14619.31
256.235	14635.22
256.306	14613.62
256.376	14666.45
256.446	14715.33
256.517	14758.91
256.587	14802.34
256.657	14820.03
256.728	14848.56
256.798	14857.63
256.868	14855.31
256.938	14829.14
257.009	14885.44
257.079	14920.97
257.149	15024.65
257.219	14956.54
257.29	15004.17
257.36	14946.81
257.43	14990.67
257.5	14922.27
257.571	14914.22
257.641	14963.2
257.711	14935.38
257.781	14982.77
257.852	15000.51
257.922	14933.26
257.992	14939.48
258.062	14931.29
258.132	14979.68
258.202	14982.48
258.273	14990.67
258.343	15066.11
258.413	15049.82
258.483	15052.85
258.553	15021.95
258.623	14999.88
258.693	15031.84
258.764	15097.15
258.834	15171.53
258.904	15185.32
258.974	15174.09
259.044	15186.28
259.114	15212.41
259.184	15238.63
259.254	15247.35
259.324	15197.66
259.394	15250.39
259.464	15330.07
259.535	15338.41
259.605	15332
259.675	15322.64
259.745	15360.05
259.815	15333.59
259.885	15339.71
259.955	15463.62
260.025	15457.98
260.095	15477.74
260.165	15518.09
260.235	15589.76
260.305	15578.43
260.375	15546.09
260.445	15653.53
260.515	15717.2
260.585	15769.64
260.655	15780.05
260.725	15824.54
260.795	15859.1
260.865	15934.44
260.934	15898.77
261.004	15936.46
261.074	15950.78
261.144	16020.86
261.214	16065.73
261.284	16070.51
261.354	16119.24
261.424	16069.7
261.494	16149.57
261.564	16151.21
261.634	16175.55
261.703	16107.44
261.773	16131.5
261.843	16166.73
261.913	16155.69
261.983	16094.91
262.053	16114.77
262.123	16113.66
262.192	16067.97
262.262	16116.02
262.332	16063.77
262.402	16104.26
262.472	16115.01
262.541	16045.11
262.611	16095.14
262.681	16067.86
262.751	16119.63
262.821	16115.97
262.89	16088.59
262.96	16107.29
263.03	16187.05
263.1	16200.12
263.169	16213.27
263.239	16248.27
263.309	16317.47
263.379	16349.91
263.448	16375.6
263.518	16394.11
263.588	16415.7
263.657	16492.05
263.727	16525.01
263.797	16543.04
263.867	16537.5
263.936	16494.46
264.006	16556.69
264.076	16548.16
264.145	16548.69
264.215	16524.3
264.285	16568.83
264.354	16520.06
264.424	16504.83
264.494	16456.82
264.563	16453.64
264.633	16537.7
264.702	16562.32
264.772	16512.39
264.842	16501.79
264.911	16533.75
264.981	16495.24
265.05	16508.54
265.12	16512.45
265.19	16525.55
265.259	16572.02
265.329	16604.31
265.398	16631.15
265.468	16740.65
265.537	16731.49
265.607	16768.32
265.676	16818.68
265.746	16852.03
265.815	16909.53
265.885	16930.93
265.955	16915.12
266.024	16916.18
266.094	16847.65
266.163	16910.97
266.232	16976.81
266.302	16993.43
266.371	17021.92
266.441	17046.79
266.51	17095.08
266.58	17087.08
266.649	17070.5
266.719	17131.61
266.788	17162.98
266.858	17237.25
266.927	17164.76
266.996	17195.22
267.066	17230.45
267.135	17205.49
267.205	17246.35
267.274	17275.94
267.343	17326.02
267.413	17345.06
267.482	17413.01
267.552	17483.27
267.621	17434.55
267.69	17376.77
267.76	17412.72
267.829	17447.52
267.898	17465.98
267.968	17444.58
268.037	17482.94
268.106	17539.47
268.176	17495.52
268.245	17503.66
268.314	17490.55
268.384	17552.58
268.453	17578.17
268.522	17603.28
268.592	17659.71
268.661	17645.93
268.73	17674.84
268.799	17665.16
268.869	17756.82
268.938	17705.54
269.007	17697.3
269.076	17725.64
269.146	17805.4
269.215	17825.83
269.284	17895.03
269.353	17896.09
269.422	17904.53
269.492	17906.74
269.561	17816.62
269.63	17847.95
269.699	17846.07
269.768	17874.5
269.838	17896.19
269.907	17929.92
269.976	17894.79
270.045	17838.36
270.114	17873.68
270.183	17888.62
270.253	17923.27
270.322	17866.21
270.391	17900.28
270.46	17969.15
270.529	18004.08
270.598	18031.26
270.667	18037.24
270.736	18008.95
270.806	18039.46
270.875	18110.59
270.944	18124.13
271.013	18257.28
271.082	18292.41
271.151	18337.57
271.22	18299.4
271.289	18307.25
271.358	18320.22
271.427	18364.36
271.496	18392.79
271.565	18383.64
271.634	18409.85
271.703	18537.8
271.772	18601.41
271.841	18610.23
271.91	18582.33
271.979	18610.18
272.048	18585.17
272.117	18638.76
272.186	18640.93
272.255	18699.34
272.324	18734.22
272.393	18767.57
272.462	18756.49
272.531	18779.76
272.6	18782.9
272.669	18855.71
272.738	18863.23
272.807	18895.57
272.876	18873.3
272.945	19031.51
273.013	19098.11
273.082	19153.43
273.151	19053.87
273.22	19096.85
273.289	19135.99
273.358	19226.25
273.427	19232.65
273.496	19291.69
273.564	19329.95
273.633	19378.04
273.702	19356.26
273.771	19366.82
273.84	19399.39
273.909	19448.35
273.977	19488.88
274.046	19506.57
274.115	19560.2
274.184	19563.91
274.253	19583.62
274.322	19673.35
274.39	19602.37
274.459	19594.61
274.528	19547.24
274.597	19569.5
274.665	19596.15
274.734	19661.26
274.803	19663.14
274.872	19692.77
274.94	19683.42
275.009	19920.4
275.078	19924.97
275.147	19965.65
275.215	19999.28
275.284	20073.21
275.353	20076.73
275.421	20036.34
275.49	20139.48
275.559	20160.06
275.627	20192.25
275.696	20206.17
275.765	20250.13
275.833	20271.91
275.902	20321.64
275.971	20408.14
276.039	20506.89
276.108	20560
276.177	20598.41
276.245	20605.3
276.314	20638.51
276.383	20707.91
276.451	20516.86
276.52	20573.01
276.588	20660.77
276.657	20724.97
276.725	20726.41
276.794	20777.69
276.863	20863.81
276.931	20825.5
277	20891.05
277.068	20961.65
277.137	21078.82
277.205	21114.15
277.274	21227.41
277.342	21301.97
277.411	21276.67
277.48	21281.88
277.548	21291.86
277.617	21335.48
277.685	21363.57
277.754	21421.17
277.822	21433.46
277.89	21540.29
277.959	21546.41
278.027	21521.87
278.096	21520.72
278.164	21665.49
278.233	21676.05
278.301	21681.4
278.37	21738.95
278.438	21735.38
278.507	21788.93
278.575	21740.58
278.643	21763.14
278.712	21730.94
278.78	21722.45
278.849	21812.92
278.917	21883.69
278.985	21908.37
279.054	21946.79
279.122	22028.93
279.191	22061.61
279.259	22089.14
279.327	22040.05
279.396	22155.22
279.464	22191.38
279.532	22267.02
279.601	22277.29
279.669	22315.08
279.737	22415.31
279.806	22472.73
279.874	22544.81
279.942	22575.61
280.011	22603.57
280.079	22668.13
280.147	22779.93
280.215	22845.88
280.284	22877.22
280.352	22862.37
280.42	22943.76
280.488	22960.87
280.557	22984.98
280.625	23039.08
280.693	23097.94
280.761	23157.39
280.83	23139.36
280.898	23223.88
280.966	23192.11
281.034	23137.76
281.102	23131.68
281.171	23141.42
281.239	23217.25
281.307	23241.26
281.375	23253.8
281.443	23394.71
281.512	23432.09
281.58	23496.3
281.648	23483.23
281.716	23519.58
281.784	23582.08
281.852	23600.12
281.92	23644.49
281.989	23718.72
282.057	23710.28
282.125	23910.44
282.193	23961.81
282.261	24009.75
282.329	24035.99
282.397	24103.93
282.465	24168.26
282.533	24270.88
282.601	24281.1
282.67	24236.44
282.738	24246.42
282.806	24333.57
282.874	24322.09
282.942	24371.3
283.01	24388.53
283.078	24464.3
283.146	24500.18
283.214	24576.99
283.282	24616.31
283.35	24702.92
283.418	24722.27
283.486	24780.15
283.554	24667.62
283.622	24701.35
283.69	24741.49
283.758	24771.64
283.826	24826.11
283.894	24902.2
283.962	25017.07
284.03	25112.99
284.098	25165.24
284.165	25191.33
284.233	25236.02
284.301	25263.86
284.369	25288.72
284.437	25307.39
284.505	25335.14
284.573	25439.67
284.641	25438.07
284.709	25522.3
284.777	25512.02
284.845	25585.88
284.912	25654.22
284.98	25722.08
285.048	25743.5
285.116	25810.5
285.184	25907.09
285.252	25959.32
285.319	25944.06
285.387	25948.56
285.455	25945.42
285.523	26032.35
285.591	26081.53
285.659	26130.58
285.726	26227.19
285.794	26225.45
285.862	26264.22
285.93	26309.98
285.997	26333.69
286.065	26365.74
286.133	26376.9
286.201	26412.82
286.269	26413.54
286.336	26432.22
286.404	26454.87
286.472	26550.1
286.539	26523.35
286.607	26504.13
286.675	26551.51
286.743	26627.5
286.81	26652.09
286.878	26745.1
286.946	26754.28
287.013	26800.14
287.081	26835.16
287.149	26811.78
287.216	26922.57
287.284	26949.95
287.352	26989.26
287.419	27026.99
287.487	27125.67
287.555	27192.4
287.622	27239.77
287.69	27304.7
287.758	27388.76
287.825	27423.78
287.893	27418.27
287.96	27496.55
288.028	27592.5
288.096	27638.78
288.163	27699.81
288.231	27705.46
288.298	27743.31
288.366	27842.95
288.433	27872.94
288.501	27897.87
288.569	27970.73
288.636	27991.61
288.704	28084.65
288.771	28147.12
288.839	28151.71
288.906	28171.39
288.974	28248.46
289.041	28284.61
289.109	28292.24
289.176	28366.76
289.244	28418.27
289.311	28501.94
289.379	28567.96
289.446	28619.84
289.514	28670.12
289.581	28704.45
289.649	28771.34
289.716	28827.14
289.783	28845.95
289.851	28969.75
289.918	29019.15
289.986	29100.98
290.053	29176.46
290.121	29220.09
290.188	29293.21
290.255	29445.4
290.323	29485.15
290.39	29500.1
290.458	29563.68
290.525	29655.23
290.592	29683.24
290.66	29733.53
290.727	29773.53
290.794	29874.54
290.862	29914.99
290.929	29974.69
290.996	30024.41
291.064	30105.68
291.131	30183.6
291.198	30267.55
291.266	30305.92
291.333	30358.89
291.4	30414.4
291.468	30510.1
291.535	30535.41
291.602	30587.34
291.669	30608.98
291.737	30659.01
291.804	30715.93
291.871	30814.51
291.938	30884.89
292.006	31024.96
292.073	31118.07
292.14	31193.59
292.207	31200.7
292.275	31255.07
292.342	31323.48
292.409	31472.78
292.476	31597.06
292.543	31607.18
292.611	31654.2
292.678	31753.38
292.745	31877.43
292.812	31938.02
292.879	31959.77
292.946	32031.87
293.014	32121.18
293.081	32189.97
293.148	32279.64
293.215	32368.63
293.282	32395.42
293.349	32481.08
293.416	32444.44
293.484	32533.73
293.551	32616.44
293.618	32733.33
293.685	32866.84
293.752	32889.76
293.819	32914.28
293.886	32913.17
293.953	32990.78
294.02	33076.31
294.087	33145
294.154	33175.09
294.221	33293.34
294.288	33352.85
294.356	33453.46
294.423	33524.05
294.49	33536.21
294.557	33635.05
294.624	33656.04
294.691	33780.37
294.758	33823.13
294.825	33913
294.892	33940.05
294.959	33987.42
295.026	34050.07
295.093	34062.92
295.16	34127.33
295.226	34174.66
295.293	34315.75
295.36	34391.48
295.427	34474.76
295.494	34565.53
295.561	34647.91
295.628	34775.22
295.695	34864.41
295.762	34924.75
295.829	35006.15
295.896	35122.73
295.963	35207.34
296.03	35297.02
296.096	35367.13
296.163	35458.92
296.23	35564.3
296.297	35657.14
296.364	35708.03
296.431	35787.85
296.498	35831.7
296.564	35971.27
296.631	36049.39
296.698	36053.22
296.765	36171.97
296.832	36199.83
296.899	36205.7
296.965	36320.82
297.032	36279.84
297.099	36405.18
297.166	36485.21
297.233	36526.23
297.299	36559.66
297.366	36618.69
297.433	36685.04
297.5	36767.42
297.566	36820.53
297.633	36862.18
297.7	36926.16
297.767	36987.94
297.833	37054.89
297.9	37118.57
297.967	37111.63
298.033	37194.36
298.1	37351.45
298.167	37375.58
298.234	37442.77
298.3	37541.86
298.367	37562.94
298.434	37652.14
298.5	37671.47
298.567	37712.4
298.634	37768.58
298.7	37883.21
298.767	37934.45
298.834	38026.13
298.9	38045.27
298.967	38069.21
299.033	38158.33
299.1	38268.53
299.167	38361.86
299.233	38398
299.3	38498.62
299.366	38604.14
299.433	38704.99
299.5	38660.78
299.566	38721.59
299.633	38829.62
299.699	38908.37
299.766	38962.57
299.832	39023.78
299.899	39090.73
299.965	39178.31
300.032	39211.19
300.099	39291.75
300.165	39372.05
300.232	39405.87
300.298	39465.13
300.365	39577.44
300.431	39636.29
300.498	39656.74
300.564	39717.67
300.631	39804.1
300.697	39905.37
300.763	39958.66
300.83	39993.26
300.896	40084.41
300.963	40158.36
301.029	40215.32
301.096	40273.25
301.162	40351.86
301.229	40390.79
301.295	40407.6
301.361	40472.48
301.428	40546.23
301.494	40531.41
301.561	40580.16
301.627	40635.07
301.693	40694.84
301.76	40759.39
301.826	40774.16
301.892	40866.02
301.959	40949.76
302.025	40982.23
302.092	41004.69
302.158	41080.07
302.224	41141.61
302.291	41165.72
302.357	41215.29
302.423	41238.48
302.49	41255.1
302.556	41346.25
302.622	41390.15
302.688	41479.97
302.755	41578.67
302.821	41643.17
302.887	41737.76
302.954	41782.97
303.02	41876.11
303.086	41949.95
303.152	41972.03
303.219	42014.95
303.285	42066.2
303.351	42131.4
303.417	42191.83
303.483	42211.42
303.55	42246.72
303.616	42290.48
303.682	42343.57
303.748	42367.68
303.815	42470.53
303.881	42550.08
303.947	42547.69
304.013	42604.05
304.079	42618.63
304.145	42579.34
304.212	42619.74
304.278	42638.37
304.344	42667.83
304.41	42662.09
304.476	42683.49
304.542	42717.28
304.608	42785.65
304.674	42786.72
304.741	42822.08
304.807	42870.47
304.873	42941.03
304.939	43025.17
305.005	43007.52
305.071	43039.61
305.137	43090.76
305.203	43046.7
305.269	43096.41
305.335	43185.23
305.401	43236.49
305.467	43284.74
305.533	43373.94
305.599	43449.67
305.666	43514.99
305.732	43554.67
305.798	43639.31
305.864	43768.72
305.93	43833.42
305.996	43870.77
306.062	43916.64
306.128	43945.59
306.194	43954.49
306.259	43992
306.325	44004.79
306.391	44087.73
306.457	44156.9
306.523	44203.45
306.589	44332.48
306.655	44346.3
306.721	44322.7
306.787	44312.05
306.853	44399.78
306.919	44386.35
306.985	44395.69
307.051	44430.82
307.117	44465.8
307.183	44494.51
307.248	44421.42
307.314	44473.73
307.38	44536.16
307.446	44599.33
307.512	44602.1
307.578	44663.84
307.644	44679.46
307.709	44720.43
307.775	44734.35
307.841	44765.79
307.907	44816.35
307.973	44795.03
308.039	44830.21
308.104	44895.17
308.17	44949.47
308.236	44947.43
308.302	45002.41
308.368	45006.99
308.433	45038.67
308.499	45055.94
308.565	45051.76
308.631	45112.78
308.696	45085.67
308.762	45075.6
308.828	45109.33
308.894	45092.6
308.959	45069.29
309.025	45092.7
309.091	45130.96
309.156	45147.99
309.222	45195.36
309.288	45190.39
309.354	45151.61
309.419	45190.51
309.485	45189.53
309.551	45240.6
309.616	45220.98
309.682	45237.82
309.748	45264.3
309.813	45283.33
309.879	45293.45
309.945	45291.94
310.01	45323
310.076	45366.86
310.141	45398.84
310.207	45383.4
310.273	45440.2
310.338	45491.98
310.404	45484.14
310.469	45472.17
310.535	45490.32
310.601	45452.55
310.666	45514.23
310.732	45601.99
310.797	45585.15
310.863	45588.7
310.928	45600.87
310.994	45656.66
311.059	45686.51
311.125	45710.07
311.191	45785.21
311.256	45799.91
311.322	45865.68
311.387	45836.62
311.453	46637.71
311.518	46633.96
311.584	46655.87
311.649	46708.17
311.715	46707.49
311.78	46753.15
311.846	46760.3
311.911	46818.21
311.976	46867.77
312.042	46847.46
312.107	46812.21
312.173	46836.6
312.238	46869.56
312.304	46892.46
312.369	46899.86
312.434	46902.29
312.5	46926.34
312.565	46854.46
312.631	46904.07
312.696	46905.73
312.761	46963.38
312.827	46201.97
312.892	46318.95
312.958	46353.43
313.023	46389.38
313.088	46425.95
313.154	46401.26
313.219	46417.33
313.284	46414.61
313.35	46429.65
313.415	46437.93
313.48	46463.05
313.546	46512.93
313.611	46561.45
313.676	46556.97
313.741	46564.08
313.807	46631.94
313.872	46675.29
313.937	46724.71
314.003	46788.98
314.068	46846.56
314.133	46880.96
314.198	46875.7
314.264	46840.65
314.329	46839.38
314.394	46851.32
314.459	46869.68
314.525	46980.01
314.59	46996.03
314.655	47001.78
314.72	47060.93
314.785	47109.15
314.851	47133.5
314.916	47086.54
314.981	47073.44
315.046	47084.84
315.111	47086.1
315.176	47066.71
315.242	47100.23
315.307	47140.77
315.372	47113.38
315.437	47103.68
315.502	47111.63
315.567	47194.07
315.632	47171.22
315.698	47209.23
315.763	47219.61
315.828	47221.46
315.893	47215.47
315.958	47229.49
316.023	47212.35
316.088	47168.39
316.153	47108.97
316.218	47107.7
316.283	47068.95
316.348	47025.51
316.413	47029.6
316.479	46995.8
316.544	46879.19
316.609	46784.39
316.674	46641.62
316.739	46507.25
316.804	46390.67
316.869	46264.94
316.934	46117.79
316.999	45998.51
317.064	45804.16
317.129	45627.85
317.194	45482.75
317.259	45305.08
317.324	45093.11
317.389	44918.45
317.454	44733.86
317.518	44578.6
317.583	44451.42
317.648	44335.52
317.713	44168.55
317.778	43913.09
317.843	43762.61
317.908	43593.95
317.973	43413.08
318.038	43286.05
318.103	43114.59
318.168	42951.28
318.233	42791.17
318.297	42556.55
318.362	42365.06
318.427	42168.82
318.492	42036.7
318.557	41820.19
318.622	41658.23
318.687	41529.73
318.751	41317.64
318.816	41160.34
318.881	40981.05
318.946	40730.63
319.011	40506.54
319.075	40284.08
319.14	40094.41
319.205	39860.44
319.27	39672.04
319.335	39449.14
319.399	39225.32
319.464	39058.55
319.529	38798.41
319.594	38579.85
319.658	38405.84
319.723	38185.9
319.788	38009.4
319.853	37720.44
319.917	37531.69
319.982	37256.38
320.047	37036.93
320.112	36852.93
320.176	36579.46
320.241	36356.24
320.306	36149.05
320.37	35918.12
320.435	35735.28
320.5	35549.64
320.564	35322.9
320.629	35083.64
320.694	34867.41
320.758	34624.34
320.823	34365.86
320.888	34168.4
320.952	33895.1
321.017	33651.53
321.082	33412.29
321.146	33193.69
321.211	32982.89
321.275	32733.28
321.34	32490.94
321.405	32225.1
321.469	31971.55
321.534	31725.41
321.598	31451.61
321.663	31242.52
321.727	31030.17
321.792	30755.65
321.857	30495.12
321.921	30257.62
321.986	30017.88
322.05	29709.94
322.115	29483.12
322.179	29227.7
322.244	28933.33
322.308	28700.16
322.373	28431.78
322.437	28181.18
322.502	27977.47
322.566	27716.45
322.631	27485.08
322.695	27228.75
322.76	26976.6
322.824	26745.4
322.889	26490.06
322.953	26227.75
323.018	25885.27
323.082	25553.76
323.146	25256.26
323.211	24958.98
323.275	24691.24
323.34	24405.08
323.404	24173.32
323.468	23877.84
323.533	23612.32
323.597	23339.41
323.662	23056.42
323.726	22811.64
323.79	22538.15
323.855	22184.01
323.919	21892.13
323.983	21618.19
324.048	21216.39
324.112	21415.75
324.177	20573.1
324.241	19455.7
324.305	18360.19
324.37	17281.72
324.434	16229.66
324.498	15944.42
324.562	15622.82
324.627	15249.51
324.691	14896.11
324.755	14490.69
324.82	14047.08
324.884	13556.36
324.948	13066.35
325.012	12461.12
325.077	11724.31
