Data from 20250701_urea_2M_exp3_MAYP1162681_16-19-48-724.txt Node
Date: Tue Jul 01 16:19:48 BST 2025
User: adleo
Spectrometer: MAYP116268
Trigger mode: 0
Integration Time (sec): 4.000000E0
Scans to average: 1
Electric dark correction enabled: true
Nonlinearity correction enabled: true
Boxcar width: 10
XAxis mode: Wavelengths
Number of Pixels in Spectrum: 2068
>>>>>Begin Spectral Data<<<<<
179.565	4180.19
179.642	4394.14
179.718	4558.26
179.795	4710.89
179.871	4838.2
179.948	4906.44
180.024	4989
180.101	5078.85
180.177	5138.71
180.254	5227.02
180.33	5314.51
180.407	5620.1
180.483	5945.16
180.56	6274.55
180.636	6574.46
180.712	6528
180.789	6558.88
180.865	6606.53
180.942	6637.64
181.018	6680.91
181.095	6731.13
181.171	6749.67
181.248	6752.22
181.324	6807.19
181.4	6836.45
181.477	6872.48
181.553	6924.62
181.63	7000.93
181.706	7059.8
181.782	7082.12
181.859	7078.85
181.935	7100.63
182.011	7088.71
182.088	7144.94
182.164	7218.51
182.24	7271.06
182.317	7304.88
182.393	7301.71
182.469	7350.29
182.546	7401.72
182.622	7414.07
182.698	7398.83
182.775	7438.87
182.851	7492.42
182.927	7471.46
183.003	7449.31
183.08	7430.52
183.156	7464.55
183.232	7451.76
183.308	7407.73
183.385	7444.77
183.461	7506.07
183.537	7509.53
183.613	7554.05
183.69	7522.94
183.766	7478.11
183.842	7506.87
183.918	7524.75
183.995	7573.54
184.071	7584.46
184.147	7562.77
184.223	7527.46
184.299	7567.28
184.375	7524.83
184.452	7546.1
184.528	7682.87
184.604	7730.69
184.68	7773.28
184.756	7797.62
184.832	7817.15
184.908	7830.36
184.985	7829.83
185.061	7775.6
185.137	7810.52
185.213	7769.94
185.289	7773.84
185.365	7751.01
185.441	7741
185.517	7794.07
185.593	7778.82
185.669	7769.64
185.745	7807.87
185.822	7864.14
185.898	7833.17
185.974	7872.01
186.05	7848.53
186.126	7767.4
186.202	7736.54
186.278	7725.72
186.354	7687
186.43	7710.43
186.506	7708.7
186.582	7703.37
186.658	7728.02
186.734	7643.23
186.81	7651.3
186.886	7661.01
186.962	7707.12
187.038	7694.47
187.114	7665.5
187.19	7696.91
187.266	7668.21
187.341	7670.04
187.417	7638.79
187.493	7642.49
187.569	7649.27
187.645	7620.09
187.721	7575.46
187.797	7601.37
187.873	7619.31
187.949	7599.7
188.025	7574.34
188.101	7586.31
188.176	7602.37
188.252	7587.37
188.328	7619.03
188.404	7623.88
188.48	7608.41
188.556	7582.15
188.632	7579.55
188.707	7580.47
188.783	7569.36
188.859	7551.58
188.935	7511.18
189.011	7542.58
189.086	7515.08
189.162	7485.18
189.238	7481.19
189.314	7475.37
189.39	7454.41
189.465	7423.68
189.541	7487.59
189.617	7430.87
189.693	7405.4
189.768	7425.26
189.844	7516.85
189.92	7489.61
189.996	7514.09
190.071	7554.81
190.147	7546.49
190.223	7578.14
190.298	7549.71
190.374	7497.89
190.45	7541.1
190.526	7569.22
190.601	7555.18
190.677	7567.58
190.753	7673
190.828	7686.22
190.904	7745.28
190.98	7803.14
191.055	7843.39
191.131	7818.19
191.207	7895.74
191.282	7940.15
191.358	7901.54
191.433	7842.88
191.509	7892.57
191.585	7879.34
191.66	7883.38
191.736	7913.87
191.811	7882.66
191.887	7943.42
191.963	8034.56
192.038	8054.42
192.114	8060.53
192.189	8076.49
192.265	8065.39
192.34	7985.45
192.416	7976.37
192.491	7956.64
192.567	7969.54
192.642	7981.42
192.718	7977.62
192.793	7934.62
192.869	7920.34
192.944	7930.73
193.02	7962.72
193.095	7973.92
193.171	8002.49
193.246	8005.38
193.322	7999.51
193.397	8004.8
193.473	7949.66
193.548	7880.39
193.624	7901.8
193.699	7895.7
193.775	7944.92
193.85	7949.63
193.925	7977.14
194.001	7981.47
194.076	7951.84
194.152	7911.72
194.227	7881.22
194.302	7842.86
194.378	7851.08
194.453	7836.57
194.529	7880.05
194.604	7823.87
194.679	7799.3
194.755	7728.53
194.83	7769.39
194.905	7755.21
194.981	7792.53
195.056	7767.73
195.131	7788.88
195.207	7779.31
195.282	7745.32
195.357	7676.28
195.433	7728.36
195.508	7686.04
195.583	7711.52
195.659	7762.22
195.734	7779.39
195.809	7777.13
195.884	7810.49
195.96	7813.81
196.035	7873.01
196.11	7856.46
196.185	7899.3
196.261	7917.86
196.336	8034.25
196.411	7979.01
196.486	8006.38
196.561	7978.77
196.637	8012.42
196.712	8077.34
196.787	8087.11
196.862	8142.84
196.937	8181.32
197.013	8202.16
197.088	8239.48
197.163	8320.72
197.238	8381.92
197.313	8387.79
197.388	8437.83
197.464	8549.06
197.539	8588.32
197.614	8561.33
197.689	8605.22
197.764	8672.61
197.839	8744.6
197.914	8726.6
197.989	8807.26
198.065	8853.32
198.14	9040.6
198.215	9138.94
198.29	9181.28
198.365	9223.69
198.44	9259.94
198.515	9361.24
198.59	9419.32
198.665	9516.05
198.74	9543.45
198.815	9552.37
198.89	9633.55
198.965	9740.09
199.04	9732.48
199.115	9791.08
199.19	9944.64
199.265	9957.78
199.34	9987.31
199.415	10109.45
199.49	10177.44
199.565	10211.79
199.64	10301.09
199.715	10278.78
199.79	10301.57
199.865	10324.4
199.94	10321.08
200.015	10441.72
200.09	10464.75
200.165	10482.04
200.24	10507.63
200.315	10651.21
200.39	10702.57
200.464	10724.64
200.539	10737.5
200.614	10787.99
200.689	10871.31
200.764	10894.39
200.839	10964.33
200.914	10983.94
200.989	10948.18
201.063	11001.33
201.138	10942.19
201.213	10940.31
201.288	10877.24
201.363	10902.15
201.438	10899.07
201.512	10962.12
201.587	10895.09
201.662	10906.95
201.737	10951.91
201.812	10982.36
201.886	10863.5
201.961	10897.92
202.036	10852.15
202.111	10841.98
202.186	10741.17
202.26	10679.64
202.335	10601.72
202.41	10572.19
202.485	10504.41
202.559	10433.88
202.634	10339.16
202.709	10369.98
202.784	10295.65
202.858	10297.62
202.933	10221.7
203.008	10194.68
203.082	10120.5
203.157	10113.51
203.232	9952.5
203.306	9871.07
203.381	9747.94
203.456	9659.42
203.53	9572.54
203.605	9503.75
203.68	9404.95
203.754	9376.75
203.829	9324.4
203.904	9251.31
203.978	9208.16
204.053	9225.64
204.127	9171.28
204.202	9163.15
204.277	9097.58
204.351	9076.25
204.426	9045.72
204.5	9017.6
204.575	8888.44
204.65	8921.77
204.724	8895.9
204.799	8932.61
204.873	8921.91
204.948	8916.43
205.022	8882.07
205.097	8851.49
205.171	8898.27
205.246	8935.15
205.32	8930.63
205.395	8926.88
205.469	8898.93
205.544	8918.38
205.618	8853.3
205.693	8902.74
205.767	8856.29
205.842	8939.73
205.916	8917.16
205.991	8880.19
206.065	8901.56
206.14	8965.77
206.214	8951.75
206.289	8928.78
206.363	8966.38
206.438	8982.51
206.512	9015.83
206.586	9079.84
206.661	9112.16
206.735	9034.46
206.81	9037.83
206.884	9094.43
206.958	9047.79
207.033	9110.69
207.107	9138.24
207.181	9256.27
207.256	9229.79
207.33	9301.08
207.405	9342.9
207.479	9410.79
207.553	9437.45
207.628	9371.96
207.702	9413.94
207.776	9391.6
207.851	9398.87
207.925	9458.11
207.999	9441.45
208.073	9426.91
208.148	9434.57
208.222	9387.22
208.296	9503.55
208.371	9561.27
208.445	9603.8
208.519	9710.35
208.593	9749.12
208.668	9732.74
208.742	9746.96
208.816	9759.28
208.89	9806.78
208.965	9797.97
209.039	9825.57
209.113	9889.92
209.187	9970.34
209.261	9955.56
209.336	10025.59
209.41	10100.5
209.484	10101.03
209.558	10178.87
209.632	10227.81
209.707	10273.76
209.781	10359.7
209.855	10416.22
209.929	10476.56
210.003	10489.43
210.077	10489.33
210.151	10669.05
210.226	10803.36
210.3	10898.85
210.374	10977.32
210.448	10992.93
210.522	11033.27
210.596	11073.94
210.67	11108.73
210.744	11282.6
210.818	11397.94
210.892	11478.91
210.966	11463.73
211.041	11521.17
211.115	11512.69
211.189	11600.69
211.263	11654.86
211.337	11677.75
211.411	11729.13
211.485	11704.83
211.559	11749.07
211.633	11753.31
211.707	11631.12
211.781	11653.44
211.855	11519.93
211.929	11490.54
212.003	11417.99
212.077	11454.38
212.151	11497.71
212.225	11531.45
212.299	11486.33
212.373	11439.34
212.447	11412.83
212.52	11509.7
212.594	11518.96
212.668	11553.71
212.742	11496.59
212.816	11478.62
212.89	11448.83
212.964	11437.99
213.038	11444.54
213.112	11491.97
213.186	11538.62
213.26	11452.91
213.333	11280.44
213.407	11290.46
213.481	11293.11
213.555	11334.63
213.629	11283.59
213.703	11214.72
213.777	11195.87
213.85	11112.59
213.924	11221.42
213.998	11210.72
214.072	11171.05
214.146	11111.63
214.219	11089.75
214.293	11060.55
214.367	11050.43
214.441	11078.82
214.515	11024.98
214.588	10928.55
214.662	10781.45
214.736	10691.26
214.81	10706.96
214.883	10721.74
214.957	10670.3
215.031	10611.06
215.105	10505.32
215.178	10435.65
215.252	10390.51
215.326	10277.97
215.4	10191.29
215.473	9998.37
215.547	9908.27
215.621	9836.03
215.694	9821.53
215.768	9718.74
215.842	9648.14
215.915	9569.32
215.989	9442.64
216.063	9379.53
216.136	9350.68
216.21	9323.91
216.284	9338.56
216.357	9308.36
216.431	9260.79
216.504	9249.81
216.578	9303.32
216.652	9310.68
216.725	9278.32
216.799	9286.41
216.873	9270.38
216.946	9272.45
217.02	9230.2
217.093	9191.73
217.167	9084.62
217.24	8992.74
217.314	8951.84
217.387	8904.25
217.461	8853.13
217.535	8877.54
217.608	8811.21
217.682	8781.12
217.755	8795.56
217.829	8726.37
217.902	8710.2
217.976	8690.9
218.049	8640.85
218.123	8562.74
218.196	8568.28
218.27	8527.7
218.343	8449.66
218.417	8447.01
218.49	8430.65
218.563	8482.72
218.637	8487
218.71	8566.95
218.784	8597.47
218.857	8632.93
218.931	8658.23
219.004	8675.32
219.077	8689.23
219.151	8708
219.224	8703.28
219.298	8692.98
219.371	8746.13
219.444	8699.22
219.518	8711.15
219.591	8731.7
219.665	8843.92
219.738	8864.51
219.811	8851.53
219.885	8901.59
219.958	8927.73
220.031	8926.53
220.105	8942.27
220.178	8952.14
220.251	8922.24
220.325	8951.23
220.398	8969.09
220.471	8992.57
220.544	9027.91
220.618	9009.66
220.691	9039.89
220.764	9056.5
220.838	9092.22
220.911	9076.09
220.984	9173.07
221.057	9210.67
221.131	9241.33
221.204	9138.5
221.277	9210.6
221.35	9341.04
221.424	9331.5
221.497	9346.24
221.57	9375.16
221.643	9409.51
221.716	9462.43
221.79	9472.93
221.863	9484.25
221.936	9491.57
222.009	9503.46
222.082	9537.85
222.155	9550.13
222.229	9624.21
222.302	9660.71
222.375	9666.15
222.448	9711.19
222.521	9718.8
222.594	9715.47
222.667	9679.18
222.74	9739.61
222.814	9732.39
222.887	9717.74
222.96	9779.78
223.033	9833.25
223.106	9864.02
223.179	9903
223.252	9920.82
223.325	9957.28
223.398	9964.17
223.471	9998.46
223.544	10029.71
223.617	10041.8
223.69	10062.51
223.763	10013.47
223.837	10032.26
223.91	10064.53
223.983	10007.9
224.056	9975.15
224.129	10004.38
224.202	10074.68
224.275	10061.29
224.348	10029.78
224.42	9990.09
224.493	9924.78
224.566	9895.05
224.639	9913.88
224.712	9879.39
224.785	9861.99
224.858	9845.76
224.931	9836.56
225.004	9797.36
225.077	9791.77
225.15	9696.23
225.223	9698.45
225.296	9792.55
225.369	9735.63
225.442	9702.39
225.514	9732.15
225.587	9749.92
225.66	9760.18
225.733	9757
225.806	9770.1
225.879	9762.63
225.952	9729.41
226.025	9783.64
226.097	9843.58
226.17	9837.9
226.243	9765.77
226.316	9763.45
226.389	9779.54
226.461	9808.59
226.534	9832.04
226.607	9828.82
226.68	9921.08
226.753	9918.82
226.825	9830.06
226.898	9897.05
226.971	9909.19
227.044	9933.7
227.117	9949.89
227.189	9969.26
227.262	10012.42
227.335	10037.33
227.407	10028.76
227.48	10072
227.553	10090.02
227.626	10065.73
227.698	10071.03
227.771	10124.43
227.844	10103.91
227.916	10118.36
227.989	10077.27
228.062	10076.11
228.134	10176.71
228.207	10176.14
228.28	10168.96
228.352	10186.2
228.425	10190.83
228.498	10246.82
228.57	10222.83
228.643	10286.14
228.716	10286.38
228.788	10274.39
228.861	10270.48
228.934	10349.82
229.006	10361.48
229.079	10359.7
229.151	10353.91
229.224	10322.66
229.296	10353.29
229.369	10469.52
229.442	10529.71
229.514	10506.4
229.587	10553.95
229.659	10467.27
229.732	10480.9
229.804	10523.83
229.877	10611.73
229.949	10651.63
230.022	10700.45
230.094	10706.66
230.167	10691.67
230.239	10644.42
230.312	10629.24
230.384	10707.36
230.457	10698.88
230.529	10707.31
230.602	10711.17
230.674	10724.8
230.747	10770.85
230.819	10801.83
230.892	10675.35
230.964	10670.67
231.037	10707.18
231.109	10697.88
231.181	10745.38
231.254	10716.28
231.326	10706.16
231.399	10680.81
231.471	10651.36
231.544	10567.9
231.616	10614.72
231.688	10625.32
231.761	10616.51
231.833	10608.37
231.905	10512.47
231.978	10512.33
232.05	10498.21
232.122	10506.21
232.195	10476.19
232.267	10522.02
232.339	10490.55
232.412	10561.22
232.484	10537.22
232.556	10513.14
232.629	10590.2
232.701	10612.32
232.773	10627.6
232.846	10617.77
232.918	10628.8
232.99	10648.9
233.062	10694.15
233.135	10705.81
233.207	10663.98
233.279	10717.79
233.351	10759.61
233.424	10768.47
233.496	10744.62
233.568	10839.84
233.64	10802.89
233.713	10824.19
233.785	10817.78
233.857	10848.28
233.929	10798.75
234.001	10870.08
234.074	10944.46
234.146	10870.73
234.218	10867.74
234.29	10863.89
234.362	10854.2
234.434	10799.89
234.507	10765.53
234.579	10714.41
234.651	10701.78
234.723	10750.98
234.795	10773.24
234.867	10768.67
234.939	10837.82
235.012	10864.08
235.084	10870.2
235.156	10911.3
235.228	10893.71
235.3	10874.24
235.372	10892.17
235.444	10950.86
235.516	10868.39
235.588	10882.99
235.66	10905.74
235.732	10879.43
235.804	11098.45
235.876	11153.09
235.948	11225.57
236.02	11246.29
236.092	11261.95
236.164	11275.06
236.236	11266.38
236.308	11270
236.38	11308.79
236.452	11286.91
236.524	11310.23
236.596	11380.28
236.668	11420.13
236.74	11452.56
236.812	11495.21
236.884	11535.27
236.956	11550.69
237.028	11550.59
237.1	11531.08
237.172	11614.94
237.244	11699.67
237.316	11577.66
237.388	11562.68
237.46	11544.94
237.532	11608.99
237.604	11599.26
237.675	11683.37
237.747	11742.85
237.819	11734.12
237.891	11735.28
237.963	11728.58
238.035	11731.33
238.107	11610.73
238.178	11686.26
238.25	11695.95
238.322	11792.94
238.394	11742.23
238.466	11752.79
238.538	11803.2
238.609	11850.86
238.681	11787.91
238.753	11765.79
238.825	11785.26
238.897	11825.07
238.968	11911.45
239.04	11893.95
239.112	12026.06
239.184	11980.8
239.255	11975.98
239.327	12018.15
239.399	12049.53
239.471	12100.52
239.542	12141.83
239.614	12225.94
239.686	12137.24
239.758	12199.08
239.829	12162.54
239.901	12236.19
239.973	12259.38
240.044	12296.21
240.116	12321.27
240.188	12346.33
240.259	12372.75
240.331	12366.1
240.403	12411.84
240.474	12368.65
240.546	12365.85
240.618	12300.87
240.689	12309.55
240.761	12333.36
240.833	12406.73
240.904	12404.37
240.976	12416.08
241.048	12440.33
241.119	12483.76
241.191	12541.41
241.262	12616.52
241.334	12625.29
241.405	12631.94
241.477	12636.28
241.549	12645.92
241.62	12673.5
241.692	12726.52
241.763	12796.81
241.835	12826.31
241.906	12843.52
241.978	12809
242.049	12884.54
242.121	12961.09
242.192	13048.63
242.264	13022.45
242.335	12976.27
242.407	13032.53
242.478	13032.48
242.55	13055.28
242.621	13029.92
242.693	13030.7
242.764	13021.49
242.836	13029.3
242.907	13070.71
242.979	13109.61
243.05	13146.92
243.122	13174.11
243.193	13176.52
243.264	13093.56
243.336	13103.25
243.407	13147.36
243.479	13239.28
243.55	13269.03
243.622	13291.54
243.693	13287.35
243.764	13361.49
243.836	13341.39
243.907	13335.31
243.978	13349.05
244.05	13383.81
244.121	13347.6
244.192	13398.27
244.264	13350.83
244.335	13369.35
244.407	13318.97
244.478	13345.1
244.549	13331.36
244.62	13288.94
244.692	13292.55
244.763	13350.54
244.834	13333.19
244.906	13307.06
244.977	13335.89
245.048	13388.62
245.119	13364.81
245.191	13337.24
245.262	13270.66
245.333	13357.67
245.405	13375.32
245.476	13419.91
245.547	13440.54
245.618	13502.58
245.689	13520.42
245.761	13568.38
245.832	13586.65
245.903	13644.07
245.974	13676.8
246.045	13700.66
246.117	13797.07
246.188	13779.96
246.259	13766.08
246.33	13790.76
246.401	13816.98
246.473	13785.79
246.544	13780.59
246.615	13849.52
246.686	13866.68
246.757	13958.32
246.828	13941.74
246.899	14037.33
246.97	14007.88
247.042	14000.6
247.113	14052.51
247.184	14148.2
247.255	14139.66
247.326	14167.82
247.397	14171.58
247.468	14185.65
247.539	14202.62
247.61	14145.11
247.681	14202.19
247.752	14266.01
247.823	14251.89
247.894	14265.67
247.965	14240.85
248.037	14228.46
248.108	14163.09
248.179	14172.3
248.25	14164.73
248.321	14198.33
248.392	14141.93
248.463	14234.44
248.534	14233.04
248.605	14255.84
248.675	14230.44
248.746	14256.09
248.817	14275.85
248.888	14299.23
248.959	14240.81
249.03	14272.67
249.101	14299.71
249.172	14285.88
249.243	14208.89
249.314	14279.32
249.385	14286.65
249.456	14322.47
249.527	14312.2
249.598	14349.27
249.669	14350.23
249.739	14366.53
249.81	14382.34
249.881	14332.93
249.952	14327.09
250.023	14328.2
250.094	14274.07
250.165	14245.1
250.235	14236.62
250.306	14241.1
250.377	14205.91
250.448	14232.37
250.519	14170.38
250.59	14236.52
250.66	14231.79
250.731	14314.95
250.802	14320.06
250.873	14350.81
250.944	14379.3
251.014	14370.87
251.085	14476.62
251.156	14509.06
251.227	14572.84
251.297	14627.84
251.368	14695.28
251.439	14735.43
251.51	14797.56
251.58	14783.29
251.651	14782.38
251.722	14857.96
251.792	14804.21
251.863	14818.14
251.934	14888.14
252.005	15013.08
252.075	15013.8
252.146	15072.03
252.217	15127.18
252.287	15166.61
252.358	15173.6
252.429	15249.75
252.499	15257.18
252.57	15266.67
252.641	15321.38
252.711	15324.56
252.782	15282.05
252.852	15363.99
252.923	15367.27
252.994	15379.51
253.064	15443.57
253.135	15422.65
253.205	15388.82
253.276	15479.97
253.347	15559.22
253.417	15542.97
253.488	15524.61
253.558	15521.86
253.629	15533
253.699	15548.66
253.77	15586.06
253.841	15584.13
253.911	15605.2
253.982	15620.33
254.052	15656.48
254.123	15667.28
254.193	15674.31
254.264	15826.71
254.334	15786.18
254.405	15753.26
254.475	15727.47
254.546	15732.72
254.616	15808.21
254.687	15853.23
254.757	15878.92
254.827	15876.55
254.898	15899.69
254.968	15909.09
255.039	15894.77
255.109	15929.96
255.18	15903.35
255.25	15829.03
255.321	15863.78
255.391	15817.22
255.461	15913.29
255.532	15820.89
255.602	15818.63
255.673	15761.22
255.743	15724.88
255.813	15661.01
255.884	15717.99
255.954	15759.63
256.024	15831.21
256.095	15835.64
256.165	15806.33
256.235	15828.36
256.306	15811.92
256.376	15868.36
256.446	15912.32
256.517	15949.48
256.587	15997
256.657	16019.18
256.728	16046.36
256.798	16060.87
256.868	16065.21
256.938	16035.23
257.009	16093.07
257.079	16131.92
257.149	16241.81
257.219	16172.74
257.29	16215.11
257.36	16159.2
257.43	16202.77
257.5	16134.14
257.571	16123.63
257.641	16160.7
257.711	16126.67
257.781	16161.9
257.852	16186.34
257.922	16126.23
257.992	16139.01
258.062	16134.04
258.132	16179.49
258.202	16199.25
258.273	16213.86
258.343	16286.11
258.413	16284.27
258.483	16290.11
258.553	16258.44
258.623	16240.66
258.693	16282.44
258.764	16350.93
258.834	16426.32
258.904	16442.37
258.974	16438.8
259.044	16452.1
259.114	16481.02
259.184	16511.05
259.254	16532.45
259.324	16478.66
259.394	16528.16
259.464	16616.93
259.535	16629.51
259.605	16626.43
259.675	16619.05
259.745	16665.85
259.815	16647.58
259.885	16637.37
259.955	16766.18
260.025	16763.24
260.095	16773.12
260.165	16808.26
260.235	16881.85
260.305	16874.09
260.375	16840.16
260.445	16942.72
260.515	17013.33
260.585	17066.15
260.655	17081.57
260.725	17127.54
260.795	17164.8
260.865	17241.23
260.934	17202.83
261.004	17238.01
261.074	17245.19
261.144	17309.87
261.214	17345
261.284	17351.84
261.354	17405.77
261.424	17356.62
261.494	17432.05
261.564	17440.19
261.634	17460.87
261.703	17391.95
261.773	17417.59
261.843	17461.01
261.913	17456.73
261.983	17411.14
262.053	17442.41
262.123	17433.78
262.192	17394.94
262.262	17439.66
262.332	17389.11
262.402	17426.99
262.472	17433.98
262.541	17376.53
262.611	17418.69
262.681	17383.37
262.751	17429.78
262.821	17429.97
262.89	17393.35
262.96	17423.61
263.03	17508.09
263.1	17539.32
263.169	17559.85
263.239	17590.55
263.309	17666.88
263.379	17698.11
263.448	17706.78
263.518	17726.4
263.588	17744.33
263.657	17815.89
263.727	17862.01
263.797	17877.96
263.867	17870.3
263.936	17833.82
264.006	17903.89
264.076	17899.8
264.145	17905.87
264.215	17885.73
264.285	17940.47
264.354	17894.93
264.424	17881.44
264.494	17834.6
264.563	17825.39
264.633	17909.39
264.702	17932.18
264.772	17870.07
264.842	17869.73
264.911	17908.28
264.981	17866.45
265.05	17888.24
265.12	17885.54
265.19	17901.39
265.259	17957.68
265.329	18002.54
265.398	18027.75
265.468	18125.05
265.537	18120.08
265.607	18166.54
265.676	18211.02
265.746	18232.7
265.815	18304.41
265.885	18314.25
265.955	18291.89
266.024	18289.76
266.094	18224.37
266.163	18292.99
266.232	18370.39
266.302	18375.59
266.371	18406.67
266.441	18430.58
266.51	18491.2
266.58	18496.64
266.649	18483.34
266.719	18528.02
266.788	18551.53
266.858	18627.67
266.927	18552.93
266.996	18578.62
267.066	18596.49
267.135	18569.99
267.205	18612.25
267.274	18631.38
267.343	18696.01
267.413	18723.77
267.482	18789.54
267.552	18859.71
267.621	18805.64
267.69	18751.76
267.76	18783.14
267.829	18807.62
267.898	18828.72
267.968	18794.27
268.037	18839.08
268.106	18884.34
268.176	18842.41
268.245	18850.12
268.314	18841.64
268.384	18917.25
268.453	18947.32
268.522	18986.55
268.592	19059.22
268.661	19041.43
268.73	19075.55
268.799	19056.86
268.869	19140.03
268.938	19092.61
269.007	19080.08
269.076	19114.39
269.146	19173.91
269.215	19209.09
269.284	19289.76
269.353	19284.55
269.422	19302.1
269.492	19298.43
269.561	19219.35
269.63	19261.57
269.699	19267.54
269.768	19300.22
269.838	19313.52
269.907	19363.2
269.976	19335.06
270.045	19267.21
270.114	19308.22
270.183	19318.1
270.253	19347.92
270.322	19292.17
270.391	19321.13
270.46	19400.21
270.529	19448.21
270.598	19496.35
270.667	19499.34
270.736	19466.33
270.806	19504.69
270.875	19570.37
270.944	19584.78
271.013	19716.15
271.082	19750.08
271.151	19788.15
271.22	19742.75
271.289	19751.86
271.358	19760.39
271.427	19794.36
271.496	19836.14
271.565	19834.17
271.634	19851.81
271.703	19994.13
271.772	20063.09
271.841	20086.71
271.91	20044.59
271.979	20069.65
272.048	20031.19
272.117	20090.08
272.186	20096.78
272.255	20150.56
272.324	20194.71
272.393	20226.03
272.462	20216.78
272.531	20242.51
272.6	20253.89
272.669	20336
272.738	20358.08
272.807	20385.21
272.876	20366.94
272.945	20521.46
273.013	20589.89
273.082	20661.56
273.151	20562.32
273.22	20596.44
273.289	20614.17
273.358	20717.79
273.427	20725.55
273.496	20786.51
273.564	20832.06
273.633	20883.92
273.702	20870.18
273.771	20875.1
273.84	20910.23
273.909	20947.78
273.977	20981.56
274.046	20993.51
274.115	21050.44
274.184	21041.42
274.253	21064.65
274.322	21155.02
274.39	21086.62
274.459	21073.8
274.528	21016.01
274.597	21031.44
274.665	21063.58
274.734	21138.29
274.803	21136.98
274.872	21162.96
274.94	21161.61
275.009	21294.22
275.078	21290.22
275.147	21326.8
275.215	21357.55
275.284	21428.45
275.353	21444.31
275.421	21410.86
275.49	21517.06
275.559	21529.06
275.627	21566.7
275.696	21579.28
275.765	21612.49
275.833	21625.93
275.902	21668.79
275.971	21762.14
276.039	21870.75
276.108	21936.74
276.177	21986.06
276.245	21996.42
276.314	22024.23
276.383	22080.24
276.451	21986.4
276.52	22051.95
276.588	22134.63
276.657	22197.64
276.725	22203.38
276.794	22248.64
276.863	22337.87
276.931	22295.34
277	22369.11
277.068	22435.77
277.137	22552.26
277.205	22592.27
277.274	22702.09
277.342	22787.77
277.411	22764.83
277.48	22746.6
277.548	22752.77
277.617	22786.14
277.685	22814
277.754	22868.82
277.822	22894.23
277.89	22993.76
277.959	23015.56
278.027	22990.97
278.096	22996.9
278.164	23145.79
278.233	23163.92
278.301	23171.2
278.37	23241.6
278.438	23225.78
278.507	23287.11
278.575	23224.23
278.643	23251.28
278.712	23237.73
278.78	23236.43
278.849	23325.19
278.917	23418.17
278.985	23445.99
279.054	23498.61
279.122	23577.89
279.191	23614.83
279.259	23643.76
279.327	23608.16
279.396	23702.12
279.464	23740.02
279.532	23815.65
279.601	23834.42
279.669	23870.64
279.737	23961.55
279.806	24007.81
279.874	24093.04
279.942	24125.6
280.011	24171.02
280.079	24243.71
280.147	24337.09
280.215	24389.91
280.284	24419.91
280.352	24418.18
280.42	24481.95
280.488	24500.57
280.557	24521.75
280.625	24583.69
280.693	24636.22
280.761	24694.59
280.83	24678.86
280.898	24773.55
280.966	24745.29
281.034	24679.27
281.102	24674.5
281.171	24688.25
281.239	24767.3
281.307	24779.36
281.375	24791.18
281.443	24927.88
281.512	24964.08
281.58	25033.01
281.648	25020.7
281.716	25063.11
281.784	25096.45
281.852	25129.41
281.92	25157.69
281.989	25245.48
282.057	25231.78
282.125	25423.86
282.193	25457.45
282.261	25503.1
282.329	25526.5
282.397	25592.9
282.465	25645.35
282.533	25742.23
282.601	25759.75
282.67	25718.86
282.738	25733.29
282.806	25814.32
282.874	25807.13
282.942	25857.29
283.01	25887.57
283.078	25968.17
283.146	26007.41
283.214	26093.82
283.282	26143.64
283.35	26235.67
283.418	26244.12
283.486	26314.55
283.554	26214.35
283.622	26265.24
283.69	26308.59
283.758	26336.93
283.826	26400.13
283.894	26486.51
283.962	26607.32
284.03	26707.9
284.098	26760.28
284.165	26791.85
284.233	26838.64
284.301	26866.26
284.369	26888.33
284.437	26895.29
284.505	26915.09
284.573	27016.8
284.641	27028.97
284.709	27100.57
284.777	27085.88
284.845	27176.47
284.912	27238.93
284.98	27300.89
285.048	27325.87
285.116	27404.27
285.184	27510.99
285.252	27556.54
285.319	27547.17
285.387	27562.21
285.455	27551.1
285.523	27625.05
285.591	27675.81
285.659	27725.38
285.726	27819.8
285.794	27814.49
285.862	27856.67
285.93	27909.08
285.997	27935.42
286.065	27957.65
286.133	27975.48
286.201	28019.93
286.269	28008.23
286.336	28012.58
286.404	28039.11
286.472	28131.67
286.539	28102.68
286.607	28079.38
286.675	28127.18
286.743	28201.94
286.81	28225.3
286.878	28322.74
286.946	28337.14
287.013	28380
287.081	28418.92
287.149	28406.2
287.216	28529.55
287.284	28556.62
287.352	28598.24
287.419	28622.99
287.487	28725.63
287.555	28786.85
287.622	28821.75
287.69	28882.05
287.758	28978.26
287.825	29014.42
287.893	29004.07
287.96	29071.34
288.028	29155.67
288.096	29218.84
288.163	29276.05
288.231	29276.49
288.298	29309.67
288.366	29416.42
288.433	29453.3
288.501	29480.77
288.569	29540.4
288.636	29559.99
288.704	29655.43
288.771	29729.86
288.839	29752.84
288.906	29768.03
288.974	29841.88
289.041	29880.18
289.109	29890.77
289.176	29971.41
289.244	30029.64
289.311	30114.79
289.379	30200.08
289.446	30262.46
289.514	30296.43
289.581	30343.33
289.649	30406.22
289.716	30457.76
289.783	30478.77
289.851	30604.38
289.918	30637.48
289.986	30712.98
290.053	30773.33
290.121	30814.39
290.188	30883.27
290.255	31034.7
290.323	31070.86
290.39	31105.48
290.458	31186.34
290.525	31298.31
290.592	31308
290.66	31368.69
290.727	31392.32
290.794	31480.02
290.862	31521.81
290.929	31571.44
290.996	31611.48
291.064	31703.78
291.131	31803.61
291.198	31893.31
291.266	31923.15
291.333	31988.5
291.4	32056.46
291.468	32170.9
291.535	32196.57
291.602	32245.01
291.669	32261
291.737	32328.12
291.804	32355.88
291.871	32456.3
291.938	32521.91
292.006	32673.77
292.073	32762.81
292.14	32860.19
292.207	32870.46
292.275	32920.27
292.342	33000.02
292.409	33151.25
292.476	33269.59
292.543	33274.58
292.611	33307.39
292.678	33427.07
292.745	33568.2
292.812	33651.69
292.879	33670.16
292.946	33739.35
293.014	33841.21
293.081	33911.56
293.148	34001.91
293.215	34108.76
293.282	34124.46
293.349	34197.3
293.416	34171.06
293.484	34264.36
293.551	34347.14
293.618	34466.41
293.685	34606.67
293.752	34638.62
293.819	34666.03
293.886	34667.49
293.953	34747.64
294.02	34844.35
294.087	34896.4
294.154	34919.06
294.221	35015.22
294.288	35066.49
294.356	35176.35
294.423	35243.88
294.49	35259.7
294.557	35350.12
294.624	35374.33
294.691	35501.23
294.758	35553.34
294.825	35633.67
294.892	35658.32
294.959	35704.32
295.026	35778.91
295.093	35794.83
295.16	35845.9
295.226	35895.69
295.293	36033.49
295.36	36091.96
295.427	36180.78
295.494	36276.75
295.561	36362.79
295.628	36487.21
295.695	36610.68
295.762	36667.52
295.829	36745.78
295.896	36870.26
295.963	36965.95
296.03	37064.73
296.096	37147.31
296.163	37241.83
296.23	37353.5
296.297	37446.84
296.364	37500.68
296.431	37566.95
296.498	37613.65
296.564	37769.87
296.631	37834.06
296.698	37838.96
296.765	37972.88
296.832	37983.27
296.899	37989.88
296.965	38100.75
297.032	38071.46
297.099	38176.23
297.166	38271.71
297.233	38318.29
297.299	38352.81
297.366	38403.96
297.433	38462.67
297.5	38546.18
297.566	38596.64
297.633	38636.38
297.7	38702.77
297.767	38758.91
297.833	38831.34
297.9	38901.03
297.967	38892.14
298.033	38995.36
298.1	39154.63
298.167	39175.23
298.234	39261.83
298.3	39349.41
298.367	39374.05
298.434	39472.97
298.5	39491.87
298.567	39534.58
298.634	39579.08
298.7	39689.7
298.767	39735.37
298.834	39835.66
298.9	39864.03
298.967	39892.17
299.033	39978.17
299.1	40079.01
299.167	40191.82
299.233	40237.26
299.3	40331.62
299.366	40445.45
299.433	40548.01
299.5	40507.48
299.566	40569.53
299.633	40680.19
299.699	40766.85
299.766	40818.21
299.832	40877.27
299.899	40954.26
299.965	41038.78
300.032	41072.41
300.099	41136.86
300.165	41216.72
300.232	41253.13
300.298	41301.1
300.365	41409.43
300.431	41466.99
300.498	41493.39
300.564	41553.57
300.631	41634.11
300.697	41738.2
300.763	41780.44
300.83	41808.69
300.896	41904.07
300.963	42004.12
301.029	42066.07
301.096	42132.05
301.162	42222.47
301.229	42252.32
301.295	42269.29
301.361	42328.9
301.428	42405.7
301.494	42413.92
301.561	42477.43
301.627	42534.41
301.693	42619.84
301.76	42682.71
301.826	42722.78
301.892	42826.9
301.959	42912.88
302.025	42950.72
302.092	42981.65
302.158	43076.47
302.224	43152.99
302.291	43178.37
302.357	43206.77
302.423	43237.42
302.49	43258.18
302.556	43333.43
302.622	43383.91
302.688	43484.11
302.755	43583.26
302.821	43663.89
302.887	43759.45
302.954	43807.95
303.02	43896.29
303.086	43957.49
303.152	43991.39
303.219	44044.95
303.285	44101.05
303.351	44177.06
303.417	44234.66
303.483	44257.18
303.55	44289
303.616	44336.84
303.682	44386.74
303.748	44421.19
303.815	44527.96
303.881	44626.01
303.947	44642.41
304.013	44712.86
304.079	44714.51
304.145	44695.83
304.212	44757.53
304.278	44772.56
304.344	44813.24
304.41	44819.27
304.476	44839.52
304.542	44876.98
304.608	44933.73
304.674	44927.79
304.741	44946
304.807	45006.59
304.873	45074.77
304.939	45164.72
305.005	45141.65
305.071	45172.84
305.137	45225.88
305.203	45170.15
305.269	45205.59
305.335	45305.2
305.401	45334.7
305.467	45390.23
305.533	45476.74
305.599	45533.51
305.666	45605.15
305.732	45654.91
305.798	45739.81
305.864	45868.09
305.93	45934.88
305.996	45986.15
306.062	46031.03
306.128	46066.68
306.194	46084.99
306.259	46121.7
306.325	46133.15
306.391	46213.77
306.457	46304.38
306.523	46356.96
306.589	46498.69
306.655	46515.73
306.721	46487.05
306.787	46504.43
306.853	46602.83
306.919	46583.3
306.985	46592.65
307.051	46620.36
307.117	46629.51
307.183	46650.85
307.248	46592.24
307.314	46649.77
307.38	46685.38
307.446	46759.23
307.512	46773.7
307.578	46817.05
307.644	46848.13
307.709	46894.75
307.775	46929.44
307.841	46959.69
307.907	47009.63
307.973	46972.45
308.039	47012.25
308.104	47078.85
308.17	47116.74
308.236	47112.3
308.302	47160.09
308.368	47173.58
308.433	47219.18
308.499	47240.56
308.565	47238.56
308.631	47297.17
308.696	47261.51
308.762	47260.19
308.828	47275.59
308.894	47251.53
308.959	47229.37
309.025	47229.37
309.091	47245.5
309.156	47261.29
309.222	47306.14
309.288	47302.09
309.354	47272.77
309.419	47306.69
309.485	47300.02
309.551	47361.23
309.616	47318.11
309.682	47350.81
309.748	47362.35
309.813	47380.39
309.879	47413.13
309.945	47427.31
310.01	47441.15
310.076	47486.37
310.141	47518.39
310.207	47502.65
310.273	47548.98
310.338	47612.51
310.404	47605.26
310.469	47598.67
310.535	47594.39
310.601	47548.37
310.666	47593.71
310.732	47677.04
310.797	47672.31
310.863	47673.77
310.928	47685.52
310.994	47748.1
311.059	47767.4
311.125	47793.96
311.191	47866.78
311.256	47853.09
311.322	47907.15
311.387	47876.54
311.453	48578.75
311.518	48604.64
311.584	48642.67
311.649	48709.03
311.715	48709.42
311.78	48752.49
311.846	48771.85
311.911	48819.19
311.976	48857.01
312.042	48844.73
312.107	48822.4
312.173	48824.45
312.238	48837.7
312.304	48858.43
312.369	48863.94
312.434	48869.99
312.5	48893.92
312.565	48811.5
312.631	48871.71
312.696	48880.63
312.761	48930.94
312.827	48284.12
312.892	48366.94
312.958	48409.82
313.023	48434.95
313.088	48475.47
313.154	48478.73
313.219	48474.74
313.284	48487.18
313.35	48505.71
313.415	48510.29
313.48	48539.01
313.546	48599.3
313.611	48675.97
313.676	48671.39
313.741	48696.45
313.807	48759.34
313.872	48801.53
313.937	48864.78
314.003	48937.83
314.068	48971.25
314.133	49033.51
314.198	49018.24
314.264	48993.58
314.329	48995.29
314.394	49014.48
314.459	49032.67
314.525	49122.92
314.59	49154.72
314.655	49154.67
314.72	49221.33
314.785	49267.81
314.851	49271.61
314.916	49242.34
314.981	49211.84
315.046	49217.31
315.111	49202.58
315.176	49198.04
315.242	49232.98
315.307	49265.29
315.372	49225.65
315.437	49221.16
315.502	49209.59
315.567	49283.58
315.632	49268.94
315.698	49294.13
315.763	49302.48
315.828	49300.67
315.893	49305.7
315.958	49309.85
316.023	49301.85
316.088	49253.92
316.153	49185.06
316.218	49185.74
316.283	49127.57
316.348	49071.74
316.413	49087.4
316.479	49043.43
316.544	48912.51
316.609	48800.47
316.674	48661.75
316.739	48533.4
316.804	48407.48
316.869	48271.26
316.934	48119.38
316.999	47982
317.064	47777.22
317.129	47587.48
317.194	47425.54
317.259	47224.99
317.324	47014.18
317.389	46820.64
317.454	46646.65
317.518	46507.85
317.583	46386.13
317.648	46269.11
317.713	46114.31
317.778	45840.78
317.843	45697.28
317.908	45526.64
317.973	45350.12
318.038	45209.45
318.103	45036.89
318.168	44888.74
318.233	44720.51
318.297	44483.2
318.362	44285.94
318.427	44087.09
318.492	43941.42
318.557	43725.21
318.622	43560.64
318.687	43432.2
318.751	43229.28
318.816	43041.45
318.881	42834.73
318.946	42558.19
319.011	42322.84
319.075	42103.23
319.14	41898.2
319.205	41654.43
319.27	41463.36
319.335	41226.25
319.399	40989.39
319.464	40788.91
319.529	40511.03
319.594	40292.14
319.658	40113.18
319.723	39875.68
319.788	39690.29
319.853	39394.4
319.917	39186.69
319.982	38910.56
320.047	38675.54
320.112	38492.97
320.176	38212.46
320.241	37989.41
320.306	37775.26
320.37	37529.15
320.435	37318.47
320.5	37131.71
320.564	36891.33
320.629	36625.61
320.694	36414.24
320.758	36170.04
320.823	35901.52
320.888	35689.46
320.952	35395.63
321.017	35129.58
321.082	34887.27
321.146	34651.44
321.211	34437.44
321.275	34173.31
321.34	33913.04
321.405	33624.47
321.469	33338.48
321.534	33080
321.598	32794.66
321.663	32576.22
321.727	32353.05
321.792	32057
321.857	31786.97
321.921	31538.74
321.986	31283.55
322.05	30960.16
322.115	30715.6
322.179	30457.73
322.244	30154.68
322.308	29925.24
322.373	29643.73
322.437	29378.73
322.502	29166.79
322.566	28884.96
322.631	28649.33
322.695	28390.7
322.76	28140.8
322.824	27900.71
322.889	27641.17
322.953	27365.57
323.018	27019.85
323.082	26667.41
323.146	26370.13
323.211	26050.78
323.275	25772.44
323.34	25484.03
323.404	25247.15
323.468	24952.59
323.533	24674.04
323.597	24386.18
323.662	24087.46
323.726	23839.23
323.79	23550.7
323.855	23194.21
323.919	22890.36
323.983	22601.92
324.048	22177.12
324.112	22214.86
324.177	21331.92
324.241	20162.63
324.305	19018.27
324.37	17885.11
324.434	16793.38
324.498	16490.5
324.562	16153.07
324.627	15757.28
324.691	15375.92
324.755	14927.27
324.82	14431.89
324.884	13906.45
324.948	13376.4
325.012	12726.55
325.077	11928.55
