Data from 20250701_urea_2M_exp3_MAYP1162681_01-29-50-049.txt Node
Date: Wed Jul 02 01:29:50 BST 2025
User: adleo
Spectrometer: MAYP116268
Trigger mode: 0
Integration Time (sec): 4.000000E0
Scans to average: 1
Electric dark correction enabled: true
Nonlinearity correction enabled: true
Boxcar width: 10
XAxis mode: Wavelengths
Number of Pixels in Spectrum: 2068
>>>>>Begin Spectral Data<<<<<
179.565	3707.78
179.642	3904.25
179.718	4059.41
179.795	4189.95
179.871	4300.88
179.948	4362.7
180.024	4435.54
180.101	4509.36
180.177	4560.4
180.254	4641
180.33	4720.05
180.407	4990.18
180.483	5279.81
180.56	5572.99
180.636	5840.48
180.712	5800.25
180.789	5838.3
180.865	5879.09
180.942	5908.83
181.018	5945.71
181.095	5992.95
181.171	6009.74
181.248	6009.79
181.324	6054.34
181.4	6081.6
181.477	6120.42
181.553	6165.6
181.63	6232.08
181.706	6291.7
181.782	6315.1
181.859	6312.84
181.935	6332.53
182.011	6316.97
182.088	6371.61
182.164	6438.1
182.24	6485.89
182.317	6517.56
182.393	6505.61
182.469	6555.59
182.546	6600.39
182.622	6614.93
182.698	6599.47
182.775	6647.35
182.851	6694.26
182.927	6672.03
183.003	6657.87
183.08	6636.12
183.156	6668.15
183.232	6661.9
183.308	6617.44
183.385	6650.51
183.461	6709.25
183.537	6706.75
183.613	6748.72
183.69	6719.57
183.766	6679.01
183.842	6702.31
183.918	6721.95
183.995	6768
184.071	6772.13
184.147	6753.78
184.223	6716.93
184.299	6756.03
184.375	6709.36
184.452	6732.28
184.528	6866.15
184.604	6905.28
184.68	6945.14
184.756	6968.45
184.832	6980.22
184.908	7000.71
184.985	6994.23
185.061	6943.17
185.137	6973.54
185.213	6936.94
185.289	6939.53
185.365	6918.69
185.441	6912.3
185.517	6954.46
185.593	6941.73
185.669	6934.09
185.745	6970.8
185.822	7031.09
185.898	7003.9
185.974	7040.63
186.05	7014.44
186.126	6938.61
186.202	6912.29
186.278	6901.96
186.354	6868.61
186.43	6894.71
186.506	6892.07
186.582	6891.11
186.658	6908.25
186.734	6839.3
186.81	6849.33
186.886	6857.07
186.962	6896.21
187.038	6882.66
187.114	6858.96
187.19	6886.49
187.266	6859.84
187.341	6857.1
187.417	6830.39
187.493	6832.22
187.569	6840.77
187.645	6818.92
187.721	6775.09
187.797	6805.49
187.873	6820.34
187.949	6806.8
188.025	6782.19
188.101	6792.18
188.176	6812.78
188.252	6798.18
188.328	6825.1
188.404	6825.82
188.48	6812.96
188.556	6792.2
188.632	6793.88
188.707	6792.01
188.783	6788.41
188.859	6775.11
188.935	6738.98
189.011	6760.31
189.086	6736.78
189.162	6708.34
189.238	6701.86
189.314	6694.42
189.39	6666.18
189.465	6642.44
189.541	6694.96
189.617	6643.43
189.693	6621.97
189.768	6634.56
189.844	6717.36
189.92	6694.71
189.996	6718.77
190.071	6758.35
190.147	6750.33
190.223	6780.65
190.298	6759.85
190.374	6708.12
190.45	6747.54
190.526	6775.64
190.601	6762.91
190.677	6767.95
190.753	6864.96
190.828	6875.86
190.904	6930.98
190.98	6990.56
191.055	7023.18
191.131	6990.89
191.207	7063.23
191.282	7096.84
191.358	7065.76
191.433	7018.21
191.509	7063.14
191.585	7061.65
191.66	7062.37
191.736	7093.4
191.811	7062.94
191.887	7119.38
191.963	7201.01
192.038	7218.31
192.114	7223.93
192.189	7237.29
192.265	7224.18
192.34	7154.11
192.416	7156.52
192.491	7137.62
192.567	7137.43
192.642	7147.19
192.718	7155.31
192.793	7111.72
192.869	7098.95
192.944	7108.41
193.02	7133.45
193.095	7147.82
193.171	7155.94
193.246	7154.69
193.322	7147.86
193.397	7150.55
193.473	7092.1
193.548	7028.04
193.624	7043.18
193.699	7035.49
193.775	7086.79
193.85	7095.52
193.925	7115.57
194.001	7109.95
194.076	7083.19
194.152	7049.73
194.227	7020.9
194.302	6982.1
194.378	6998.52
194.453	6987.72
194.529	7031.98
194.604	6985.42
194.679	6964.47
194.755	6904.26
194.83	6944.6
194.905	6936.72
194.981	6965.74
195.056	6950.66
195.131	6971.41
195.207	6964.3
195.282	6933.61
195.357	6868.62
195.433	6919.4
195.508	6883.65
195.583	6910.16
195.659	6956.06
195.734	6980.66
195.809	6979.56
195.884	7010.67
195.96	7011.34
196.035	7061.36
196.11	7038.57
196.185	7077.58
196.261	7084.79
196.336	7195.4
196.411	7151.98
196.486	7167.5
196.561	7146.64
196.637	7174.5
196.712	7228.93
196.787	7240.27
196.862	7294.28
196.937	7329.98
197.013	7345.32
197.088	7376.84
197.163	7445.32
197.238	7508.21
197.313	7511.33
197.388	7556.27
197.464	7658.42
197.539	7693.27
197.614	7671.84
197.689	7721.27
197.764	7776.58
197.839	7846.73
197.914	7820.09
197.989	7891.99
198.065	7937.09
198.14	8108.99
198.215	8202.93
198.29	8247.55
198.365	8286.61
198.44	8316.28
198.515	8404.19
198.59	8461.54
198.665	8553.06
198.74	8583.96
198.815	8586.75
198.89	8663.69
198.965	8770.99
199.04	8760.26
199.115	8819.58
199.19	8966.83
199.265	8970.2
199.34	9001.1
199.415	9115.28
199.49	9196.27
199.565	9227.08
199.64	9310.8
199.715	9297.89
199.79	9312.09
199.865	9330
199.94	9332.17
200.015	9439.79
200.09	9465.17
200.165	9481.82
200.24	9495.69
200.315	9628.09
200.39	9679.53
200.464	9692.58
200.539	9691.76
200.614	9739.72
200.689	9813.6
200.764	9836.1
200.839	9898.01
200.914	9914.33
200.989	9877.23
201.063	9919.86
201.138	9861.19
201.213	9861.05
201.288	9792.9
201.363	9811.49
201.438	9811.39
201.512	9860.98
201.587	9802.6
201.662	9809.44
201.737	9855.06
201.812	9884.25
201.886	9773.23
201.961	9798.62
202.036	9764.68
202.111	9756.01
202.186	9660.8
202.26	9598.57
202.335	9527.96
202.41	9504.6
202.485	9449.05
202.559	9380.97
202.634	9291.16
202.709	9321.58
202.784	9250.32
202.858	9252.73
202.933	9190.67
203.008	9161.45
203.082	9091.75
203.157	9091.79
203.232	8949.8
203.306	8872.42
203.381	8764.62
203.456	8687.32
203.53	8613.72
203.605	8543.54
203.68	8461.65
203.754	8439.73
203.829	8390.69
203.904	8313.27
203.978	8274.29
204.053	8280.5
204.127	8237.92
204.202	8234.27
204.277	8174.19
204.351	8157.2
204.426	8134.15
204.5	8107.5
204.575	7993.88
204.65	8036.76
204.724	8007.88
204.799	8032.39
204.873	8021.37
204.948	8018.58
205.022	7975.26
205.097	7942.97
205.171	7986.34
205.246	8019.21
205.32	8016.57
205.395	8016.76
205.469	7990.09
205.544	8010.54
205.618	7955.18
205.693	7997.61
205.767	7952.21
205.842	8023.6
205.916	8001
205.991	7966.51
206.065	7980.26
206.14	8035.62
206.214	8012.9
206.289	7986.82
206.363	8032.51
206.438	8041.46
206.512	8064.22
206.586	8132.51
206.661	8159.17
206.735	8089.32
206.81	8088.94
206.884	8138.03
206.958	8094.03
207.033	8152.93
207.107	8173
207.181	8282.28
207.256	8254.96
207.33	8317.54
207.405	8363.33
207.479	8430.4
207.553	8453.24
207.628	8404.06
207.702	8444.22
207.776	8420.98
207.851	8430.22
207.925	8476.43
207.999	8464.79
208.073	8456.94
208.148	8468.11
208.222	8432.74
208.296	8536.95
208.371	8586.01
208.445	8621.58
208.519	8719.39
208.593	8755.58
208.668	8741.09
208.742	8752.07
208.816	8760.49
208.89	8809.17
208.965	8793.37
209.039	8826.02
209.113	8881.95
209.187	8947.64
209.261	8933.01
209.336	8996.98
209.41	9066.88
209.484	9070.54
209.558	9149.11
209.632	9203.22
209.707	9236.19
209.781	9310.53
209.855	9369.76
209.929	9430.23
210.003	9454.26
210.077	9451.7
210.151	9623.18
210.226	9739.75
210.3	9823.84
210.374	9908.32
210.448	9924.56
210.522	9969.79
210.596	9998.84
210.67	10034.86
210.744	10197.29
210.818	10307.51
210.892	10379.53
210.966	10360.75
211.041	10409.5
211.115	10390.18
211.189	10459.74
211.263	10517.55
211.337	10532.63
211.411	10581.58
211.485	10558.02
211.559	10594.53
211.633	10603
211.707	10486.81
211.781	10510.82
211.855	10392.73
211.929	10361.19
212.003	10292.91
212.077	10319.75
212.151	10354.15
212.225	10384.02
212.299	10344.74
212.373	10293.73
212.447	10277.54
212.52	10371.34
212.594	10380.25
212.668	10414.99
212.742	10369.6
212.816	10347.29
212.89	10326.63
212.964	10311.35
213.038	10318.24
213.112	10364.55
213.186	10406.89
213.26	10327.59
213.333	10164.69
213.407	10178.84
213.481	10175.09
213.555	10213.41
213.629	10162.53
213.703	10098.31
213.777	10081.01
213.85	10004.41
213.924	10118.65
213.998	10109.83
214.072	10078.7
214.146	10021.33
214.219	10004.08
214.293	9979.95
214.367	9970.94
214.441	9998.64
214.515	9950.37
214.588	9861.11
214.662	9718.6
214.736	9637.65
214.81	9657.34
214.883	9680.1
214.957	9631.43
215.031	9581.14
215.105	9483.9
215.178	9419.61
215.252	9382.63
215.326	9278.39
215.4	9193.6
215.473	9007.36
215.547	8923.57
215.621	8854.3
215.694	8849.39
215.768	8750.03
215.842	8683.42
215.915	8612.93
215.989	8490.42
216.063	8430.23
216.136	8407.57
216.21	8385.29
216.284	8395.69
216.357	8368.64
216.431	8324.18
216.504	8311.58
216.578	8366.93
216.652	8376.78
216.725	8355.08
216.799	8365.29
216.873	8349.56
216.946	8357.16
217.02	8322.54
217.093	8290.93
217.167	8191.11
217.24	8112.14
217.314	8077.14
217.387	8027.67
217.461	7977.99
217.535	8005.02
217.608	7946.24
217.682	7914.01
217.755	7924.3
217.829	7862.63
217.902	7842.52
217.976	7824.54
218.049	7777.12
218.123	7702.44
218.196	7700.08
218.27	7664.69
218.343	7591.03
218.417	7585.88
218.49	7561.65
218.563	7599.05
218.637	7604.1
218.71	7671.48
218.784	7695.29
218.857	7726.73
218.931	7749.36
219.004	7763.84
219.077	7780.68
219.151	7791.88
219.224	7783.8
219.298	7783.9
219.371	7830.9
219.444	7789.41
219.518	7790.76
219.591	7814.12
219.665	7915.87
219.738	7932.32
219.811	7913.19
219.885	7957.2
219.958	7991.64
220.031	7999
220.105	8024.4
220.178	8027.62
220.251	8006.26
220.325	8029.12
220.398	8048.16
220.471	8072.11
220.544	8106.55
220.618	8083.94
220.691	8112.51
220.764	8133.43
220.838	8156.47
220.911	8138.09
220.984	8224.03
221.057	8265.88
221.131	8286.8
221.204	8184.28
221.277	8253.2
221.35	8378.05
221.424	8370.98
221.497	8381.18
221.57	8404.65
221.643	8438.63
221.716	8490.42
221.79	8498.84
221.863	8509.24
221.936	8518.86
222.009	8528.48
222.082	8555.58
222.155	8559.86
222.229	8626.82
222.302	8657.86
222.375	8663.54
222.448	8711.09
222.521	8716.53
222.594	8715.9
222.667	8686.18
222.74	8741.75
222.814	8732.65
222.887	8709.63
222.96	8763.49
223.033	8810.58
223.106	8837.77
223.179	8865.65
223.252	8873.55
223.325	8905.12
223.398	8918.07
223.471	8949.35
223.544	8974.28
223.617	8992.29
223.69	9018.47
223.763	8983.12
223.837	9006.86
223.91	9032.56
223.983	8977.7
224.056	8941.8
224.129	8968.9
224.202	9034.57
224.275	9030.38
224.348	8999.52
224.42	8970.21
224.493	8904.51
224.566	8874.85
224.639	8895.02
224.712	8861.98
224.785	8847.15
224.858	8835.65
224.931	8819.9
225.004	8778.08
225.077	8775
225.15	8677.9
225.223	8677.32
225.296	8752.4
225.369	8692.44
225.442	8662.89
225.514	8685.79
225.587	8712.16
225.66	8713.41
225.733	8709.94
225.806	8714.95
225.879	8708.79
225.952	8680.4
226.025	8736.85
226.097	8792.34
226.17	8774.67
226.243	8715.72
226.316	8710.67
226.389	8711.87
226.461	8731.18
226.534	8753.21
226.607	8744.07
226.68	8830.53
226.753	8816.43
226.825	8733.65
226.898	8791.44
226.971	8799.91
227.044	8817.77
227.117	8820.8
227.189	8844.49
227.262	8878.15
227.335	8897.16
227.407	8894.71
227.48	8924.78
227.553	8937.16
227.626	8910.47
227.698	8923.08
227.771	8965.18
227.844	8948.53
227.916	8964.75
227.989	8927.2
228.062	8921.96
228.134	9007.66
228.207	9004.44
228.28	9003.62
228.352	9013.24
228.425	9027.74
228.498	9072.76
228.57	9048.98
228.643	9105.9
228.716	9102.48
228.788	9088.71
228.861	9082.54
228.934	9146.04
229.006	9157.98
229.079	9155.57
229.151	9145.36
229.224	9111
229.296	9129.53
229.369	9224.26
229.442	9275.89
229.514	9256.26
229.587	9303.25
229.659	9230.82
229.732	9245.56
229.804	9286.86
229.877	9373.03
229.949	9403.71
230.022	9453.18
230.094	9455.73
230.167	9441.91
230.239	9394.44
230.312	9384
230.384	9451.91
230.457	9449.31
230.529	9452.68
230.602	9454.8
230.674	9463.04
230.747	9506.3
230.819	9539.67
230.892	9431.28
230.964	9432.1
231.037	9463.37
231.109	9451.48
231.181	9488.16
231.254	9455.28
231.326	9440.84
231.399	9414.14
231.471	9383.32
231.544	9297.78
231.616	9345.68
231.688	9354.73
231.761	9346.02
231.833	9339.96
231.905	9255.48
231.978	9247.53
232.05	9233.67
232.122	9240.27
232.195	9217.59
232.267	9254
232.339	9231.79
232.412	9293.8
232.484	9262.63
232.556	9236.65
232.629	9306.59
232.701	9324.65
232.773	9338.08
232.846	9330.33
232.918	9338.76
232.99	9353.6
233.062	9402.04
233.135	9410.47
233.207	9375.75
233.279	9421.28
233.351	9451.95
233.424	9459.36
233.496	9440.63
233.568	9525.87
233.64	9488.27
233.713	9504.88
233.785	9501.08
233.857	9520.34
233.929	9472.53
234.001	9537.66
234.074	9604.09
234.146	9531.79
234.218	9523.89
234.29	9526.88
234.362	9515.71
234.434	9464.61
234.507	9423.97
234.579	9368.88
234.651	9349.04
234.723	9384.53
234.795	9403.17
234.867	9390.65
234.939	9450.61
235.012	9466.06
235.084	9466.21
235.156	9498.9
235.228	9478.19
235.3	9455.85
235.372	9457.92
235.444	9518.78
235.516	9443.44
235.588	9454.85
235.66	9469.3
235.732	9446.96
235.804	9465.4
235.876	9514.03
235.948	9579.87
236.02	9597.74
236.092	9613.28
236.164	9624.31
236.236	9620.46
236.308	9618.43
236.38	9641.5
236.452	9618.43
236.524	9635.81
236.596	9705.11
236.668	9742.73
236.74	9770.37
236.812	9802.64
236.884	9837.42
236.956	9845.08
237.028	9842.39
237.1	9826.69
237.172	9902.42
237.244	9981.08
237.316	10036.05
237.388	10016.59
237.46	9988.17
237.532	10055.85
237.604	10052.23
237.675	10133.03
237.747	10178.89
237.819	10172.15
237.891	10186.31
237.963	10182.41
238.035	10183.13
238.107	10067.49
238.178	10130.04
238.25	10137.65
238.322	10226.17
238.394	10178.63
238.466	10179.06
238.538	10224.67
238.609	10264.84
238.681	10200.76
238.753	10179.37
238.825	10205.15
238.897	10236.7
238.968	10320.74
239.04	10301.27
239.112	10414.43
239.184	10366.68
239.255	10367.26
239.327	10393.8
239.399	10417.84
239.471	10460.81
239.542	10498
239.614	10570.26
239.686	10482.37
239.758	10539.18
239.829	10504.28
239.901	10575.25
239.973	10589.55
240.044	10620.44
240.116	10629.74
240.188	10650.21
240.259	10664.09
240.331	10649.05
240.403	10690.82
240.474	10644.41
240.546	10629.48
240.618	10562.31
240.689	10572.14
240.761	10586.11
240.833	10671.6
240.904	10672.7
240.976	10675.69
241.048	10690.48
241.119	10726.92
241.191	10777.31
241.262	10837.95
241.334	10843.68
241.405	10844.88
241.477	10853.99
241.549	10859.39
241.62	10882.95
241.692	10933.6
241.763	10999.57
241.835	11017.5
241.906	11030.13
241.978	10997.84
242.049	11065.88
242.121	11132.71
242.192	11201.63
242.264	11168.19
242.335	11104.48
242.407	11149.01
242.478	11150.98
242.55	11170.84
242.621	11154.4
242.693	11154.64
242.764	11140.28
242.836	11142.88
242.907	11169.82
242.979	11197.43
243.05	11221.09
243.122	11250.25
243.193	11241.34
243.264	11168.08
243.336	11174.54
243.407	11212.13
243.479	11297.86
243.55	11323.07
243.622	11337.87
243.693	11328.33
243.764	11396.66
243.836	11378.02
243.907	11361.97
243.978	11367.89
244.05	11392.96
244.121	11346.31
244.192	11382.26
244.264	11339.94
244.335	11357.49
244.407	11316.09
244.478	11335.46
244.549	11323.37
244.62	11279.27
244.692	11285.73
244.763	11329.63
244.834	11318.54
244.906	11294.11
244.977	11320.91
245.048	11370.17
245.119	11348.68
245.191	11329.59
245.262	11269.4
245.333	11343.51
245.405	11364.09
245.476	11393.78
245.547	11411.76
245.618	11465.83
245.689	11486.79
245.761	11530.32
245.832	11533.16
245.903	11573.35
245.974	11601.55
246.045	11617.5
246.117	11708.11
246.188	11684.98
246.259	11671.05
246.33	11687.63
246.401	11695.39
246.473	11651.53
246.544	11636.63
246.615	11691.77
246.686	11700.55
246.757	11772.45
246.828	11752.4
246.899	11821.86
246.97	11791.4
247.042	11778.87
247.113	11829.77
247.184	11914.76
247.255	11903.38
247.326	11928.21
247.397	11934.23
247.468	11943.78
247.539	11964.36
247.61	11907.91
247.681	11957.17
247.752	12011.54
247.823	11990.81
247.894	12009.51
247.965	11982.33
248.037	11968.69
248.108	11916.73
248.179	11918.66
248.25	11911.77
248.321	11945.21
248.392	11904.1
248.463	11987.38
248.534	11991.77
248.605	12009.89
248.675	11974.8
248.746	11997.11
248.817	12017.41
248.888	12049.03
248.959	11990.23
249.03	12015.92
249.101	12031.44
249.172	12022.62
249.243	11949.7
249.314	12019.2
249.385	12026.38
249.456	12059.54
249.527	12046.43
249.598	12077.13
249.669	12078.63
249.739	12095.83
249.81	12104.46
249.881	12044.94
249.952	12041.61
250.023	12033.27
250.094	11974.03
250.165	11948.77
250.235	11937.93
250.306	11935.85
250.377	11892.38
250.448	11921.63
250.519	11853.91
250.59	11909.2
250.66	11901.44
250.731	11973.06
250.802	11964.72
250.873	11988.05
250.944	12011.04
251.014	12008.97
251.085	12098.34
251.156	12125.62
251.227	12173.73
251.297	12225.51
251.368	12293.8
251.439	12327.69
251.51	12384.23
251.58	12376.09
251.651	12365.58
251.722	12426.94
251.792	12373.25
251.863	12380.33
251.934	12444.59
252.005	12558.15
252.075	12563.6
252.146	12610.35
252.217	12655.14
252.287	12704.31
252.358	12698.81
252.429	12772.71
252.499	12767.02
252.57	12778.88
252.641	12830.75
252.711	12832
252.782	12789.92
252.852	12865.94
252.923	12876.69
252.994	12889.61
253.064	12936.41
253.135	12923.11
253.205	12897.85
253.276	12989.29
253.347	13058.46
253.417	13029.44
253.488	13008.52
253.558	12994.49
253.629	12995.8
253.699	13008.38
253.77	13026.65
253.841	13031.47
253.911	13039.86
253.982	13058.61
254.052	13079
254.123	13085.46
254.193	13089.07
254.264	13225.01
254.334	13180.95
254.405	13139.16
254.475	13104.3
254.546	13106.38
254.616	13166.59
254.687	13202.45
254.757	13214.79
254.827	13210.26
254.898	13239.04
254.968	13245.84
255.039	13227.47
255.109	13265.02
255.18	13239.57
255.25	13171.31
255.321	13207.66
255.391	13161.19
255.461	13237.88
255.532	13155.55
255.602	13149.09
255.673	13100.88
255.743	13069.84
255.813	13006.35
255.884	13054.17
255.954	13093.61
256.024	13164.47
256.095	13169.34
256.165	13127.35
256.235	13147.31
256.306	13132.03
256.376	13180.18
256.446	13214.03
256.517	13249.02
256.587	13298.48
256.657	13315.98
256.728	13343.17
256.798	13349.39
256.868	13350.45
256.938	13322.01
257.009	13368.72
257.079	13394.51
257.149	13489.09
257.219	13418.9
257.29	13459.92
257.36	13409.45
257.43	13447.53
257.5	13378.36
257.571	13373.58
257.641	13412.78
257.711	13380.62
257.781	13411.96
257.852	13419.19
257.922	13361.63
257.992	13369.78
258.062	13357.72
258.132	13402.27
258.202	13402.41
258.273	13406.27
258.343	13481.86
258.413	13477.56
258.483	13487.59
258.553	13458.67
258.623	13428.01
258.693	13461.85
258.764	13526.59
258.834	13591.57
258.904	13609.46
258.974	13598.03
259.044	13610.32
259.114	13636.55
259.184	13666.34
259.254	13677.91
259.324	13629.13
259.394	13683.94
259.464	13759.28
259.535	13765.21
259.605	13754.03
259.675	13751.47
259.745	13790.42
259.815	13760.05
259.885	13757.11
259.955	13863.79
260.025	13859.35
260.095	13873.96
260.165	13904.57
260.235	13970.61
260.305	13949.98
260.375	13917.1
260.445	14013.85
260.515	14079.65
260.585	14121.59
260.655	14127.71
260.725	14170.32
260.795	14216.02
260.865	14280.57
260.934	14249.77
261.004	14276.71
261.074	14287.9
261.144	14345.5
261.214	14384.12
261.284	14394.43
261.354	14430.73
261.424	14386.92
261.494	14460.34
261.564	14465.3
261.634	14488.2
261.703	14416.23
261.773	14449.59
261.843	14481.31
261.913	14476.97
261.983	14411.7
262.053	14445.05
262.123	14436.72
262.192	14398.68
262.262	14438.06
262.332	14392.61
262.402	14426.83
262.472	14439.99
262.541	14382.53
262.611	14423.46
262.681	14397.76
262.751	14433.58
262.821	14443.46
262.89	14421.63
262.96	14444.23
263.03	14530.61
263.1	14551.53
263.169	14575.49
263.239	14607.65
263.309	14674.5
263.379	14704.82
263.448	14731.91
263.518	14744.88
263.588	14766.43
263.657	14832.04
263.727	14866.74
263.797	14881.68
263.867	14876.86
263.936	14841.63
264.006	14897.16
264.076	14892.73
264.145	14890.99
264.215	14872.53
264.285	14909.65
264.354	14860.48
264.424	14848.52
264.494	14793.76
264.563	14787.02
264.633	14860.81
264.702	14881.64
264.772	14829.24
264.842	14819.99
264.911	14852.09
264.981	14813.87
265.05	14827.37
265.12	14820.91
265.19	14826.84
265.259	14864.34
265.329	14903.53
265.398	14936.84
265.468	15045.77
265.537	15046.01
265.607	15085.1
265.676	15134.9
265.746	15162.37
265.815	15226.44
265.885	15235.84
265.955	15225.14
266.024	15231.26
266.094	15168.07
266.163	15224.03
266.232	15291.02
266.302	15306.06
266.371	15340.48
266.441	15363.62
266.51	15408.88
266.58	15427.15
266.649	15417.41
266.719	15470.53
266.788	15501.81
266.858	15568.33
266.927	15485.42
266.996	15509.43
267.066	15535.74
267.135	15501.95
267.205	15546.68
267.274	15555.94
267.343	15605.83
267.413	15624.53
267.482	15687.43
267.552	15759.68
267.621	15714.62
267.69	15663.96
267.76	15689.84
267.829	15707.68
267.898	15731.15
267.968	15712.06
268.037	15741.95
268.106	15795.73
268.176	15772.46
268.245	15776.21
268.314	15766.72
268.384	15829.96
268.453	15860.23
268.522	15881.29
268.592	15953.69
268.661	15927.71
268.73	15963.28
268.799	15949.21
268.869	16031.05
268.938	15974.8
269.007	15962.46
269.076	15987.63
269.146	16049.03
269.215	16082.29
269.284	16153.38
269.353	16142.24
269.422	16153.96
269.492	16151.84
269.561	16073.03
269.63	16098.72
269.699	16095.88
269.768	16114.05
269.838	16133.9
269.907	16169.96
269.976	16137.13
270.045	16077.03
270.114	16126.24
270.183	16139.78
270.253	16175.88
270.322	16125.61
270.391	16154.24
270.46	16221.67
270.529	16270.97
270.598	16314.4
270.667	16319.5
270.736	16289.82
270.806	16340.47
270.875	16407.56
270.944	16417.73
271.013	16537.07
271.082	16565.02
271.151	16609.7
271.22	16572.73
271.289	16589.46
271.358	16596.93
271.427	16641.46
271.496	16670.82
271.565	16665.47
271.634	16685.95
271.703	16809.47
271.772	16876.61
271.841	16893.62
271.91	16864.03
271.979	16883.16
272.048	16855.5
272.117	16900.95
272.186	16898.34
272.255	16941.81
272.324	16977.96
272.393	17020.9
272.462	17013.77
272.531	17034.93
272.6	17042.97
272.669	17116.23
272.738	17132.47
272.807	17158.74
272.876	17143.56
272.945	17291.61
273.013	17346.69
273.082	17406.6
273.151	17312.86
273.22	17350.12
273.289	17371.32
273.358	17459.03
273.427	17473.93
273.496	17522.12
273.564	17562.7
273.633	17614.55
273.702	17596.29
273.771	17605.64
273.84	17632.91
273.909	17672.43
273.977	17715.03
274.046	17730.31
274.115	17789.29
274.184	17771.8
274.253	17797.82
274.322	17884.24
274.39	17819.61
274.459	17814.79
274.528	17767.03
274.597	17801.2
274.665	17829.63
274.734	17905.01
274.803	17913.06
274.872	17934.98
274.94	17932.96
275.009	18151.53
275.078	18151.72
275.147	18192.88
275.215	18222.08
275.284	18284.87
275.353	18296.01
275.421	18260.25
275.49	18355.62
275.559	18362.07
275.627	18400.2
275.696	18414.32
275.765	18446.7
275.833	18468.67
275.902	18519.8
275.971	18607.32
276.039	18691.94
276.108	18747.46
276.177	18784.37
276.245	18783.36
276.314	18811.26
276.383	18879.35
276.451	18705.74
276.52	18765.93
276.588	18842.07
276.657	18910.65
276.725	18920.04
276.794	18967.9
276.863	19046.01
276.931	19012.86
277	19078.35
277.068	19154.49
277.137	19254.29
277.205	19290.48
277.274	19389.32
277.342	19458.42
277.411	19442.96
277.48	19448.5
277.548	19448.59
277.617	19494.66
277.685	19529.17
277.754	19587.09
277.822	19600.3
277.89	19698.18
277.959	19726.17
278.027	19711.57
278.096	19712.73
278.164	19853.6
278.233	19868.35
278.301	19875.87
278.37	19937.69
278.438	19934.51
278.507	19982.32
278.575	19947.09
278.643	19985.35
278.712	19967.04
278.78	19958.27
278.849	20036.34
278.917	20114.22
278.985	20154.94
279.054	20211.81
279.122	20294.56
279.191	20326.6
279.259	20363.86
279.327	20333.06
279.396	20426.36
279.464	20459.66
279.532	20518.46
279.601	20543.19
279.669	20579.86
279.737	20683.05
279.806	20732.93
279.874	20810.48
279.942	20851.92
280.011	20883.05
280.079	20936.6
280.147	21028.51
280.215	21090.97
280.284	21123.59
280.352	21117.62
280.42	21184.95
280.488	21190.93
280.557	21199.22
280.625	21251.12
280.693	21293.39
280.761	21341.68
280.83	21328.38
280.898	21409.59
280.966	21397.79
281.034	21328.28
281.102	21331.41
281.171	21343.7
281.239	21416.49
281.307	21431.87
281.375	21443.44
281.443	21580.53
281.512	21613.83
281.58	21691.5
281.648	21683.84
281.716	21715.89
281.784	21756.86
281.852	21781.54
281.92	21816.77
281.989	21895.45
282.057	21893.13
282.125	22073.91
282.193	22121.68
282.261	22166.75
282.329	22196.25
282.397	22250.91
282.465	22309.43
282.533	22397.15
282.601	22404.87
282.67	22368.51
282.738	22388.04
282.806	22464.16
282.874	22454.7
282.942	22511.21
283.01	22529.39
283.078	22597.17
283.146	22640.36
283.214	22710.85
283.282	22758.15
283.35	22849.47
283.418	22876.04
283.486	22935
283.554	22851.32
283.622	22889.5
283.69	22932.75
283.758	22961.34
283.826	23027.78
283.894	23114.39
283.962	23229.85
284.03	23322.28
284.098	23376.81
284.165	23403.42
284.233	23453.81
284.301	23478.41
284.369	23502.42
284.437	23524.99
284.505	23557.3
284.573	23648.54
284.641	23660.74
284.709	23735.65
284.777	23711
284.845	23780.46
284.912	23849.67
284.98	23911.31
285.048	23932.96
285.116	23999.37
285.184	24093.63
285.252	24146.63
285.319	24135.97
285.387	24143.69
285.455	24140.46
285.523	24205.05
285.591	24255.73
285.659	24297.5
285.726	24390.13
285.794	24386.51
285.862	24417.63
285.93	24462.53
285.997	24495.24
286.065	24530.6
286.133	24540.68
286.201	24594.99
286.269	24600.11
286.336	24611.11
286.404	24640.1
286.472	24725.65
286.539	24691.5
286.607	24684.26
286.675	24727.11
286.743	24801.36
286.81	24831.13
286.878	24926.81
286.946	24953.16
287.013	24988.18
287.081	25033.01
287.149	25023.94
287.216	25127.77
287.284	25157.64
287.352	25211.49
287.419	25245.37
287.487	25340.98
287.555	25401.55
287.622	25436.87
287.69	25496.77
287.758	25589.63
287.825	25615.89
287.893	25618.64
287.96	25695.11
288.028	25772.72
288.096	25829.49
288.163	25875.59
288.231	25874.82
288.298	25904.42
288.366	25985.57
288.433	26027.02
288.501	26043.14
288.569	26100.1
288.636	26134.09
288.704	26230.7
288.771	26305.25
288.839	26324.95
288.906	26345.18
288.974	26425.85
289.041	26469.78
289.109	26478.9
289.176	26540.25
289.244	26600.5
289.311	26688
289.379	26764.43
289.446	26815.92
289.514	26846.3
289.581	26896.48
289.649	26964.51
289.716	27024.31
289.783	27048.66
289.851	27160.16
289.918	27214.15
289.986	27291.63
290.053	27348.05
290.121	27388.45
290.188	27439.42
290.255	27583.26
290.323	27605.62
290.39	27629.21
290.458	27695.09
290.525	27799.59
290.592	27824.38
290.66	27887
290.727	27919.08
290.794	28016.99
290.862	28064.74
290.929	28134.48
290.996	28181.88
291.064	28263.75
291.131	28344.24
291.198	28440.96
291.266	28488.57
291.333	28534.86
291.4	28591.47
291.468	28688.41
291.535	28713.98
291.602	28774.26
291.669	28798.69
291.737	28862.63
291.804	28897.63
291.871	28996.74
291.938	29062.56
292.006	29204.01
292.073	29269.86
292.14	29354.82
292.207	29358.93
292.275	29402.45
292.342	29468.09
292.409	29606.5
292.476	29727.94
292.543	29739.45
292.611	29767.56
292.678	29858.07
292.745	29987.69
292.812	30069.51
292.879	30102.41
292.946	30169.01
293.014	30248.17
293.081	30309.1
293.148	30396.94
293.215	30489.21
293.282	30512.29
293.349	30572.21
293.416	30555.17
293.484	30644.36
293.551	30719.28
293.618	30833.3
293.685	30964.09
293.752	30983.74
293.819	31001.07
293.886	30994.97
293.953	31071.29
294.02	31158.57
294.087	31225.15
294.154	31248.82
294.221	31354.85
294.288	31410.67
294.356	31516.79
294.423	31584.35
294.49	31604.35
294.557	31701.39
294.624	31731.85
294.691	31847.05
294.758	31911.03
294.825	31969.09
294.892	32004.68
294.959	32046.29
295.026	32116.39
295.093	32139.06
295.16	32197.93
295.226	32253.74
295.293	32381.02
295.36	32438.66
295.427	32529.52
295.494	32617.77
295.561	32701.23
295.628	32800.3
295.695	32894.93
295.762	32938.06
295.829	33006.4
295.896	33121.86
295.963	33201.35
296.03	33280.67
296.096	33344.41
296.163	33430.69
296.23	33542.46
296.297	33625.87
296.364	33680.58
296.431	33740.89
296.498	33779.66
296.564	33919.59
296.631	33980.08
296.698	33999.48
296.765	34120.58
296.832	34146.67
296.899	34155.06
296.965	34257.47
297.032	34242.04
297.099	34351.03
297.166	34444.18
297.233	34493.26
297.299	34507.76
297.366	34558.3
297.433	34631.52
297.5	34714.32
297.566	34772.19
297.633	34824.39
297.7	34894.04
297.767	34941.51
297.833	35020
297.9	35083.86
297.967	35075.37
298.033	35164.73
298.1	35303.6
298.167	35326.55
298.234	35384.37
298.3	35465.19
298.367	35488.77
298.434	35575.58
298.5	35600.43
298.567	35635.75
298.634	35679.56
298.7	35800.95
298.767	35861.51
298.834	35952.26
298.9	35975.36
298.967	35989.77
299.033	36064.37
299.1	36159.59
299.167	36268.82
299.233	36301.97
299.3	36397.81
299.366	36512.08
299.433	36604.95
299.5	36572.42
299.566	36633.72
299.633	36751.24
299.699	36842.94
299.766	36890.36
299.832	36938.76
299.899	37013.34
299.965	37099.5
300.032	37142.26
300.099	37198.77
300.165	37268.15
300.232	37304.57
300.298	37361.56
300.365	37457.58
300.431	37508.52
300.498	37537.27
300.564	37595.48
300.631	37686.28
300.697	37783.46
300.763	37821.13
300.83	37866.79
300.896	37953.85
300.963	38036.25
301.029	38086.76
301.096	38135.43
301.162	38228.37
301.229	38261.39
301.295	38264.84
301.361	38325.5
301.428	38383.23
301.494	38391.68
301.561	38436.51
301.627	38487.02
301.693	38550.4
301.76	38609.22
301.826	38645.45
301.892	38728.56
301.959	38804.44
302.025	38824.65
302.092	38847.87
302.158	38929.18
302.224	38975.87
302.291	38997.72
302.357	39027.6
302.423	39052.18
302.49	39073.07
302.556	39151
302.622	39200.11
302.688	39291.34
302.755	39388.81
302.821	39457.93
302.887	39542.51
302.954	39588.08
303.02	39670.38
303.086	39735.63
303.152	39778.19
303.219	39808.7
303.285	39863.32
303.351	39919.59
303.417	39977.75
303.483	39998.4
303.55	40017.45
303.616	40069.25
303.682	40107.97
303.748	40135.86
303.815	40229.31
303.881	40312.5
303.947	40322.85
304.013	40378.98
304.079	40402.64
304.145	40375.48
304.212	40438.94
304.278	40453.51
304.344	40499.29
304.41	40493.46
304.476	40508.43
304.542	40529.18
304.608	40597.6
304.674	40584.48
304.741	40616.32
304.807	40670.21
304.873	40734.9
304.939	40832.1
305.005	40808.53
305.071	40846.72
305.137	40901.78
305.203	40869.61
305.269	40910.68
305.335	40985.93
305.401	41017.62
305.467	41055.34
305.533	41118.67
305.599	41171.75
305.666	41246.84
305.732	41281.21
305.798	41359.46
305.864	41488.05
305.93	41557.95
305.996	41600.39
306.062	41656.67
306.128	41680.15
306.194	41687.54
306.259	41723.17
306.325	41728.57
306.391	41806.59
306.457	41879.26
306.523	41929.52
306.589	42051.36
306.655	42078.34
306.721	42063.13
306.787	42076.25
306.853	42157.93
306.919	42139.51
306.985	42158.23
307.051	42177.58
307.117	42191.14
307.183	42217.05
307.248	42168.91
307.314	42224.59
307.38	42280.99
307.446	42345.37
307.512	42355.87
307.578	42405.66
307.644	42425.06
307.709	42480.88
307.775	42507.43
307.841	42538.74
307.907	42572.1
307.973	42546.56
308.039	42565.77
308.104	42623.15
308.17	42662.48
308.236	42651.34
308.302	42709.83
308.368	42706.48
308.433	42744.65
308.499	42771.92
308.565	42781.65
308.631	42834.85
308.696	42803.72
308.762	42790.06
308.828	42824.93
308.894	42816.96
308.959	42796.34
309.025	42820.17
309.091	42838.65
309.156	42855.29
309.222	42899.69
309.288	42911.75
309.354	42880.19
309.419	42928.34
309.485	42913.36
309.551	42976.64
309.616	42977.71
309.682	43017.05
309.748	43047.05
309.813	43067.72
309.879	43094.81
309.945	43093.98
310.01	43105.51
310.076	43164.5
310.141	43196.02
310.207	43185.31
310.273	43227.18
310.338	43277.95
310.404	43263.21
310.469	43250.23
310.535	43258.15
310.601	43226.35
310.666	43280.73
310.732	43356.4
310.797	43346.47
310.863	43366.02
310.928	43364.47
310.994	43403.04
311.059	43422.2
311.125	43452.89
311.191	43522.56
311.256	43523.14
311.322	43587.25
311.387	43556.02
311.453	44447.19
311.518	44470
311.584	44484.55
311.649	44533.24
311.715	44542.96
311.78	44589.46
311.846	44608.18
311.911	44674.39
311.976	44717.63
312.042	44705.57
312.107	44693.55
312.173	44696.62
312.238	44716.75
312.304	44751.78
312.369	44774.45
312.434	44769.98
312.5	44776.64
312.565	44703.76
312.631	44740.49
312.696	44745.84
312.761	44807.42
312.827	43943.64
312.892	44030.41
312.958	44058.83
313.023	44087.97
313.088	44120.37
313.154	44111.22
313.219	44121.68
313.284	44107.62
313.35	44122.46
313.415	44131.55
313.48	44147.61
313.546	44196.5
313.611	44249.87
313.676	44250.12
313.741	44247
313.807	44304.17
313.872	44358.37
313.937	44406.68
314.003	44494.56
314.068	44536.17
314.133	44583.52
314.198	44581.18
314.264	44546.57
314.329	44540.44
314.394	44558.45
314.459	44575.67
314.525	44672.5
314.59	44688.84
314.655	44696.29
314.72	44754.15
314.785	44797.21
314.851	44805.09
314.916	44776.38
314.981	44766.12
315.046	44754.93
315.111	44749.28
315.176	44755.37
315.242	44790.46
315.307	44830.56
315.372	44788.41
315.437	44777.41
315.502	44770.01
315.567	44836.39
315.632	44820.82
315.698	44879.95
315.763	44904.19
315.828	44910.76
315.893	44910.66
315.958	44928.08
316.023	44916.35
316.088	44886.33
316.153	44820.21
316.218	44817.38
316.283	44787.61
316.348	44750.01
316.413	44771.9
316.479	44737.85
316.544	44622.27
316.609	44516.97
316.674	44390.44
316.739	44256.44
316.804	44156.04
316.869	44042.5
316.934	43910.26
316.999	43797.41
317.064	43594.08
317.129	43415.85
317.194	43271.7
317.259	43089.3
317.324	42883.76
317.389	42702.39
317.454	42533.64
317.518	42385.79
317.583	42279
317.648	42162.6
317.713	41996.96
317.778	41738.41
317.843	41601.75
317.908	41441.31
317.973	41264.95
318.038	41126.33
318.103	40973.69
318.168	40817.08
318.233	40656.3
318.297	40433.67
318.362	40256.49
318.427	40078.67
318.492	39949.7
318.557	39734.87
318.622	39606.78
318.687	39480.48
318.751	39302.66
318.816	39121.84
318.881	38960.73
318.946	38706.86
319.011	38486.78
319.075	38284.9
319.14	38117.44
319.205	37904.19
319.27	37725.52
319.335	37518.01
319.399	37319.38
319.464	37152.62
319.529	36897.01
319.594	36683.26
319.658	36516.45
319.723	36297.02
319.788	36117.69
319.853	35853.87
319.917	35679.95
319.982	35392.99
320.047	35181.08
320.112	35010.48
320.176	34772.18
320.241	34547.92
320.306	34360.68
320.37	34124.47
320.435	33934.51
320.5	33748.35
320.564	33516.65
320.629	33280.54
320.694	33083.53
320.758	32839.85
320.823	32601.65
320.888	32422.76
320.952	32168.61
321.017	31931.35
321.082	31708.15
321.146	31508.57
321.211	31308.79
321.275	31075.08
321.34	30837.77
321.405	30589.16
321.469	30334.42
321.534	30092.01
321.598	29834.87
321.663	29629.7
321.727	29434.88
321.792	29179.77
321.857	28931.39
321.921	28704.41
321.986	28464.51
322.05	28175.02
322.115	27965.28
322.179	27717.6
322.244	27426.59
322.308	27217.9
322.373	26954.04
322.437	26709.47
322.502	26506.74
322.566	26244.91
322.631	26018.19
322.695	25786.18
322.76	25547.99
322.824	25330.07
322.889	25087.71
322.953	24841.58
323.018	24519.43
323.082	24202.93
323.146	23921.3
323.211	23644.25
323.275	23390.22
323.34	23136.77
323.404	22909.77
323.468	22642.91
323.533	22396.92
323.597	22132.9
323.662	21835.73
323.726	21615.96
323.79	21352.04
323.855	21017.07
323.919	20743.38
323.983	20478.18
324.048	20091.4
324.112	20126.84
324.177	19317.92
324.241	18255.88
324.305	17217.16
324.37	16194.8
324.434	15204.77
324.498	14925.19
324.562	14611.65
324.627	14256.75
324.691	13900.76
324.755	13500.39
324.82	13045.23
324.884	12551.57
324.948	12076.4
325.012	11509.96
325.077	10773.2
