Data from 20250701_urea_2M_exp3_MAYP1162681_15-49-48-863.txt Node
Date: Tue Jul 01 15:49:48 BST 2025
User: adleo
Spectrometer: MAYP116268
Trigger mode: 0
Integration Time (sec): 4.000000E0
Scans to average: 1
Electric dark correction enabled: true
Nonlinearity correction enabled: true
Boxcar width: 10
XAxis mode: Wavelengths
Number of Pixels in Spectrum: 2068
>>>>>Begin Spectral Data<<<<<
179.565	4203.75
179.642	4430.43
179.718	4586.24
179.795	4729.87
179.871	4853.95
179.948	4929.57
180.024	5005.78
180.101	5096.09
180.177	5156.04
180.254	5245.09
180.33	5330.51
180.407	5636.97
180.483	5960.58
180.56	6289.35
180.636	6595.03
180.712	6551.78
180.789	6588.28
180.865	6632.68
180.942	6665.42
181.018	6698.75
181.095	6744.89
181.171	6759.68
181.248	6759.58
181.324	6824.6
181.4	6859.33
181.477	6899.74
181.553	6947.71
181.63	7030.16
181.706	7087.35
181.782	7113.23
181.859	7109.29
181.935	7128.03
182.011	7115.92
182.088	7175.08
182.164	7248.99
182.24	7297.08
182.317	7331.91
182.393	7326.1
182.469	7380.84
182.546	7427.17
182.622	7444.09
182.698	7426.35
182.775	7473.89
182.851	7525.13
182.927	7497.63
183.003	7474.86
183.08	7455.63
183.156	7486.59
183.232	7473.94
183.308	7429.38
183.385	7456.15
183.461	7524.99
183.537	7528.31
183.613	7573.74
183.69	7545.66
183.766	7506.56
183.842	7531.75
183.918	7548.19
183.995	7596.07
184.071	7603.05
184.147	7588.82
184.223	7552.26
184.299	7594.09
184.375	7549.53
184.452	7570.75
184.528	7709.49
184.604	7757.9
184.68	7802.41
184.756	7828.19
184.832	7845.03
184.908	7863.57
184.985	7868.57
185.061	7805.78
185.137	7844.4
185.213	7803.2
185.289	7806.94
185.365	7782.48
185.441	7782.24
185.517	7830.35
185.593	7818.56
185.669	7809.76
185.745	7853.34
185.822	7919.76
185.898	7889.79
185.974	7922.24
186.05	7889.29
186.126	7808.11
186.202	7777.58
186.278	7761.23
186.354	7729.63
186.43	7751.47
186.506	7748.49
186.582	7741.18
186.658	7765.45
186.734	7687.87
186.81	7696.61
186.886	7705.99
186.962	7750.75
187.038	7732.04
187.114	7705.87
187.19	7732.61
187.266	7697.13
187.341	7690.11
187.417	7657.51
187.493	7663.62
187.569	7682.42
187.645	7664.1
187.721	7618.55
187.797	7647.98
187.873	7666.3
187.949	7640.54
188.025	7616.72
188.101	7628.11
188.176	7649.12
188.252	7632.35
188.328	7662.28
188.404	7659.11
188.48	7640.46
188.556	7610.69
188.632	7608.09
188.707	7608.29
188.783	7596.31
188.859	7584.83
188.935	7545.97
189.011	7573.37
189.086	7550.25
189.162	7517.74
189.238	7506.59
189.314	7499.53
189.39	7477.5
189.465	7454.66
189.541	7514.33
189.617	7461.17
189.693	7441.46
189.768	7458.25
189.844	7556.24
189.92	7527.8
189.996	7564.29
190.071	7610.16
190.147	7607.23
190.223	7639.93
190.298	7615.98
190.374	7570.26
190.45	7616.54
190.526	7640.06
190.601	7620.3
190.677	7623.61
190.753	7724.76
190.828	7745.9
190.904	7801.55
190.98	7858.21
191.055	7891.3
191.131	7862.2
191.207	7935.47
191.282	7968.59
191.358	7929.07
191.433	7869.25
191.509	7921.59
191.585	7908.22
191.66	7908.89
191.736	7937.12
191.811	7902.3
191.887	7962.87
191.963	8046.66
192.038	8059.55
192.114	8064.45
192.189	8084.84
192.265	8074.17
192.34	7993.85
192.416	7985.24
192.491	7970.28
192.567	7981.35
192.642	7999.78
192.718	8001.65
192.793	7957.11
192.869	7945.38
192.944	7959.18
193.02	7994.25
193.095	8002.09
193.171	8028.26
193.246	8021.86
193.322	8016.33
193.397	8022.24
193.473	7968.79
193.548	7903.03
193.624	7923.18
193.699	7917.65
193.775	7975.35
193.85	7975.01
193.925	8004.7
194.001	8005.08
194.076	7974.06
194.152	7939.46
194.227	7904.73
194.302	7867.96
194.378	7889.07
194.453	7880.36
194.529	7923.85
194.604	7866.08
194.679	7847.85
194.755	7776.94
194.83	7824.72
194.905	7811.69
194.981	7845.36
195.056	7820.55
195.131	7844.79
195.207	7836.65
195.282	7804.15
195.357	7726.26
195.433	7785.07
195.508	7739.23
195.583	7760.96
195.659	7811.47
195.734	7830.96
195.809	7825.23
195.884	7860.61
195.96	7860.56
196.035	7916.54
196.11	7898.31
196.185	7932.79
196.261	7947.55
196.336	8063.76
196.411	8008.86
196.486	8034.78
196.561	8010.29
196.637	8040.49
196.712	8104.59
196.787	8115.04
196.862	8177.32
196.937	8220.07
197.013	8247.5
197.088	8282.37
197.163	8366.26
197.238	8435.12
197.313	8428.09
197.388	8476.69
197.464	8582.96
197.539	8618.47
197.614	8595.91
197.689	8641.33
197.764	8711.66
197.839	8784.1
197.914	8758.73
197.989	8840.26
198.065	8886.17
198.14	9076.35
198.215	9177.53
198.29	9218.09
198.365	9267.19
198.44	9303.97
198.515	9403.26
198.59	9454.55
198.665	9558.89
198.74	9587.69
198.815	9593.13
198.89	9681.49
198.965	9793.72
199.04	9783.02
199.115	9843.07
199.19	9993.41
199.265	10008.24
199.34	10045.09
199.415	10167.19
199.49	10246.5
199.565	10279.21
199.64	10366.49
199.715	10351.31
199.79	10371.64
199.865	10392.84
199.94	10387.4
200.015	10506.93
200.09	10530.74
200.165	10552.37
200.24	10573.33
200.315	10716.13
200.39	10765.28
200.464	10787.06
200.539	10794.48
200.614	10856.87
200.689	10943.42
200.764	10972.72
200.839	11040.26
200.914	11057.65
200.989	11014.51
201.063	11057.11
201.138	10999.41
201.213	10993.49
201.288	10918.47
201.363	10944.63
201.438	10944.24
201.512	11005.57
201.587	10935.69
201.662	10947.21
201.737	10986.43
201.812	11017.08
201.886	10903.53
201.961	10943.53
202.036	10899.74
202.111	10886.29
202.186	10774.65
202.26	10712.14
202.335	10628.39
202.41	10601.89
202.485	10533.83
202.559	10469.6
202.634	10379.8
202.709	10415.63
202.784	10351.46
202.858	10354.3
202.933	10276.12
203.008	10247.6
203.082	10170.62
203.157	10167.35
203.232	10005.22
203.306	9931.7
203.381	9804.91
203.456	9716.33
203.53	9629.73
203.605	9557.81
203.68	9476.35
203.754	9456.57
203.829	9396.9
203.904	9319.86
203.978	9278.49
204.053	9293.42
204.127	9239.78
204.202	9234.19
204.277	9162.51
204.351	9140.31
204.426	9112.04
204.5	9084.5
204.575	8958.37
204.65	9000.41
204.724	8969.82
204.799	9003.88
204.873	8990.78
204.948	8991.12
205.022	8945.98
205.097	8913.32
205.171	8963.72
205.246	8990.11
205.32	8982.03
205.395	8979.48
205.469	8950.13
205.544	8968.87
205.618	8908.11
205.693	8949.7
205.767	8900.75
205.842	8983.81
205.916	8957.38
205.991	8923.2
206.065	8940.1
206.14	8994.93
206.214	8972.34
206.289	8946.53
206.363	8992.12
206.438	9003.24
206.512	9035.07
206.586	9105.92
206.661	9134.96
206.735	9056.86
206.81	9058.89
206.884	9119.24
206.958	9076.5
207.033	9137.9
207.107	9163.48
207.181	9279.83
207.256	9256.05
207.33	9323.3
207.405	9368.44
207.479	9443.99
207.553	9470.61
207.628	9414.11
207.702	9460.47
207.776	9438.7
207.851	9442.99
207.925	9497.47
207.999	9479.32
208.073	9469.2
208.148	9477.15
208.222	9431.25
208.296	9548.41
208.371	9611.29
208.445	9647.79
208.519	9749.92
208.593	9795.28
208.668	9775.77
208.742	9788.83
208.816	9800.68
208.89	9853.48
208.965	9846.92
209.039	9870.87
209.113	9933.72
209.187	10010.21
209.261	9990.42
209.336	10062.62
209.41	10138.82
209.484	10137.28
209.558	10217.44
209.632	10263.97
209.707	10307.03
209.781	10392.01
209.855	10447.42
209.929	10501.55
210.003	10521.59
210.077	10518.94
210.151	10692.06
210.226	10826.42
210.3	10919.64
210.374	10997.63
210.448	11014.3
210.522	11052.33
210.596	11094.25
210.67	11124.47
210.744	11299.93
210.818	11430.49
210.892	11506.64
210.966	11489.58
211.041	11549.15
211.115	11535.56
211.189	11621.97
211.263	11681.97
211.337	11697.87
211.411	11745.73
211.485	11724.86
211.559	11764.47
211.633	11772.09
211.707	11658.42
211.781	11679.44
211.855	11540.11
211.929	11515.53
212.003	11442.06
212.077	11478.65
212.151	11513.45
212.225	11542.94
212.299	11490.02
212.373	11435.85
212.447	11412.13
212.52	11515.13
212.594	11518.98
212.668	11561.34
212.742	11503.22
212.816	11476.23
212.89	11458.16
212.964	11446.63
213.038	11450.64
213.112	11495.75
213.186	11546.78
213.26	11461.8
213.333	11287.4
213.407	11302.96
213.481	11305.85
213.555	11348.1
213.629	11290.5
213.703	11223.17
213.777	11214.78
213.85	11135.07
213.924	11248.48
213.998	11240.34
214.072	11203.75
214.146	11146.69
214.219	11124.62
214.293	11102.93
214.367	11097
214.441	11120.91
214.515	11069.29
214.588	10971.13
214.662	10825.81
214.736	10736.38
214.81	10747.99
214.883	10766.67
214.957	10716.92
215.031	10655.27
215.105	10552.51
215.178	10487.46
215.252	10444.1
215.326	10330.12
215.4	10244.06
215.473	10042.56
215.547	9947.21
215.621	9872.18
215.694	9866.44
215.768	9756.38
215.842	9680.91
215.915	9604.89
215.989	9471.13
216.063	9406.04
216.136	9381.62
216.21	9358.03
216.284	9373.88
216.357	9342.15
216.431	9291.3
216.504	9280.8
216.578	9344.04
216.652	9357.47
216.725	9323.08
216.799	9330.74
216.873	9310.19
216.946	9320.01
217.02	9278.29
217.093	9244.73
217.167	9139.39
217.24	9046.78
217.314	9010.02
217.387	8957.1
217.461	8900.58
217.535	8926.96
217.608	8861.35
217.682	8831.12
217.755	8843.58
217.829	8771.99
217.902	8760.87
217.976	8740.51
218.049	8693
218.123	8605.7
218.196	8595.98
218.27	8562.33
218.343	8487.61
218.417	8484.67
218.49	8456.13
218.563	8506.37
218.637	8512.96
218.71	8590.61
218.784	8621.99
218.857	8661.6
218.931	8686.99
219.004	8701.96
219.077	8725.36
219.151	8746.39
219.224	8735.66
219.298	8728.96
219.371	8781.83
219.444	8735.49
219.518	8752.19
219.591	8771.63
219.665	8883.46
219.738	8904.35
219.811	8885.59
219.885	8928.96
219.958	8965.64
220.031	8971.37
220.105	8996.5
220.178	9005.12
220.251	8981.09
220.325	9006.37
220.398	9022.98
220.471	9053.88
220.544	9095.77
220.618	9073.9
220.691	9102.21
220.764	9128.78
220.838	9160.51
220.911	9142.69
220.984	9242
221.057	9280.95
221.131	9303.91
221.204	9208.25
221.277	9280.1
221.35	9413.91
221.424	9407.99
221.497	9422.1
221.57	9452.9
221.643	9491.87
221.716	9550.78
221.79	9555.01
221.863	9567.73
221.936	9578.85
222.009	9588.72
222.082	9624.13
222.155	9633.37
222.229	9704.23
222.302	9738.08
222.375	9747.38
222.448	9793.28
222.521	9795.3
222.594	9796.46
222.667	9771.43
222.74	9827.58
222.814	9828.45
222.887	9812.74
222.96	9871.55
223.033	9923.1
223.106	9950.21
223.179	9982.4
223.252	9992.27
223.325	10028.88
223.398	10042.46
223.471	10078.25
223.544	10112.2
223.617	10121.88
223.69	10147.31
223.763	10109.73
223.837	10131.75
223.91	10165.13
223.983	10112.78
224.056	10079.07
224.129	10112.26
224.202	10178.99
224.275	10167.09
224.348	10134.77
224.42	10100.9
224.493	10038.19
224.566	10006.39
224.639	10022.91
224.712	9988.61
224.785	9974.68
224.858	9961
224.931	9941.93
225.004	9896.22
225.077	9892.37
225.15	9796.06
225.223	9804.53
225.296	9891.99
225.369	9828.71
225.442	9796.38
225.514	9819.74
225.587	9839.92
225.66	9845.51
225.733	9844.45
225.806	9849.79
225.879	9840.3
225.952	9807.85
226.025	9863.62
226.097	9922.22
226.17	9917.16
226.243	9850.51
226.316	9844.97
226.389	9859.37
226.461	9887.55
226.534	9906.57
226.607	9893.18
226.68	9984.58
226.753	9973.4
226.825	9881.27
226.898	9957.71
226.971	9963.68
227.044	9989.74
227.117	10001.2
227.189	10018.41
227.262	10065.77
227.335	10093.61
227.407	10090.29
227.48	10123.95
227.553	10139.32
227.626	10119.18
227.698	10128.23
227.771	10174.07
227.844	10157.55
227.916	10170.56
227.989	10134.91
228.062	10145.27
228.134	10247.22
228.207	10247.12
228.28	10240.66
228.352	10262.39
228.425	10263.64
228.498	10312.11
228.57	10290.97
228.643	10365.03
228.716	10368.4
228.788	10356.98
228.861	10353.94
228.934	10431.26
229.006	10448.27
229.079	10450.53
229.151	10442.2
229.224	10409.01
229.296	10439.36
229.369	10555.35
229.442	10614.91
229.514	10591.03
229.587	10638
229.659	10554.83
229.732	10577.34
229.804	10625.18
229.877	10709.22
229.949	10743.34
230.022	10797.37
230.094	10802.86
230.167	10783.68
230.239	10738.73
230.312	10722.78
230.384	10801.09
230.457	10795.36
230.529	10799.55
230.602	10806.3
230.674	10819.36
230.747	10869.31
230.819	10899.37
230.892	10772.26
230.964	10774.38
231.037	10809.87
231.109	10797.39
231.181	10842.49
231.254	10802.88
231.326	10788.14
231.399	10767.37
231.471	10741.25
231.544	10663.17
231.616	10707.5
231.688	10716.07
231.761	10702.88
231.833	10695.02
231.905	10600.43
231.978	10596.91
232.05	10588
232.122	10598.26
232.195	10566.41
232.267	10607.27
232.339	10584.19
232.412	10662.53
232.484	10636.26
232.556	10612.08
232.629	10690.98
232.701	10712.62
232.773	10735.11
232.846	10724.66
232.918	10732.9
232.99	10757.09
233.062	10802.15
233.135	10827.98
233.207	10790.78
233.279	10844.4
233.351	10879.23
233.424	10887.76
233.496	10865.74
233.568	10961.3
233.64	10920.92
233.713	10944.44
233.785	10942.32
233.857	10964
233.929	10903.77
234.001	10980.84
234.074	11054.07
234.146	10979.85
234.218	10986.94
234.29	10979.08
234.362	10979.95
234.434	10928
234.507	10889.83
234.579	10838.17
234.651	10814.95
234.723	10855.81
234.795	10882.22
234.867	10876
234.939	10947.08
235.012	10967.85
235.084	10977.97
235.156	11026.3
235.228	11013.15
235.3	11003.32
235.372	11018.5
235.444	11086.15
235.516	10995.1
235.588	11010.62
235.66	11034.67
235.732	10998.77
235.804	11223.24
235.876	11270.7
235.948	11348.97
236.02	11370.6
236.092	11391.56
236.164	11407.42
236.236	11402.21
236.308	11402.45
236.38	11442.7
236.452	11424.38
236.524	11451.08
236.596	11510.37
236.668	11547.24
236.74	11574.76
236.812	11604.59
236.884	11645.08
236.956	11668.84
237.028	11672.41
237.1	11650.58
237.172	11727.84
237.244	11818.64
237.316	11692.63
237.388	11673.45
237.46	11651.76
237.532	11714.18
237.604	11704.11
237.675	11791.88
237.747	11853.77
237.819	11844.61
237.891	11848.66
237.963	11835.7
238.035	11838.69
238.107	11724.45
238.178	11792.47
238.25	11806.88
238.322	11909.5
238.394	11860.24
238.466	11862.07
238.538	11912.1
238.609	11966.76
238.681	11913.06
238.753	11890.69
238.825	11916.96
238.897	11958.41
238.968	12056.36
239.04	12054.87
239.112	12189.44
239.184	12143.12
239.255	12145.33
239.327	12188.52
239.399	12215.12
239.471	12274.75
239.542	12320.44
239.614	12400.31
239.686	12315.47
239.758	12376.93
239.829	12340.44
239.901	12419.34
239.973	12440.07
240.044	12475.74
240.116	12495.65
240.188	12522.25
240.259	12542.45
240.331	12537.1
240.403	12580.58
240.474	12527.55
240.546	12515.02
240.618	12449.17
240.689	12455
240.761	12469.85
240.833	12547.85
240.904	12556.28
240.976	12565.15
241.048	12589.3
241.119	12636.45
241.191	12693.76
241.262	12772
241.334	12778.03
241.405	12789.5
241.477	12797.89
241.549	12818.95
241.62	12849.27
241.692	12893.91
241.763	12972.87
241.835	12995.77
241.906	13022.29
241.978	12992.45
242.049	13068.95
242.121	13143.28
242.192	13226.68
242.264	13199.3
242.335	13147.57
242.407	13204.41
242.478	13211.97
242.55	13236.8
242.621	13218.67
242.693	13220.6
242.764	13208.6
242.836	13219.59
242.907	13258.25
242.979	13293.3
243.05	13320.1
243.122	13352.74
243.193	13360.16
243.264	13278.93
243.336	13290.89
243.407	13331.38
243.479	13426.2
243.55	13452.09
243.622	13461.92
243.693	13460.81
243.764	13538.76
243.836	13519.87
243.907	13506.56
243.978	13512.2
244.05	13544.36
244.121	13500.44
244.192	13551.01
244.264	13507.19
244.335	13524.88
244.407	13474.51
244.478	13494.99
244.549	13495.57
244.62	13448.96
244.692	13452.09
244.763	13506.27
244.834	13500.1
244.906	13480.1
244.977	13501.74
245.048	13564.79
245.119	13551.39
245.191	13537.03
245.262	13478.55
245.333	13567.49
245.405	13595.55
245.476	13637.39
245.547	13664
245.618	13737.47
245.689	13755.45
245.761	13796.23
245.832	13806.79
245.903	13863.48
245.974	13904.98
246.045	13920.94
246.117	14014.27
246.188	13999.42
246.259	13989.29
246.33	14017.88
246.401	14036.92
246.473	14007.28
246.544	13990.79
246.615	14064.64
246.686	14068.21
246.757	14158.6
246.828	14140.57
246.899	14220.97
246.97	14197.3
247.042	14196.1
247.113	14243.29
247.184	14351.31
247.255	14350.39
247.326	14393.05
247.397	14404.67
247.468	14421.3
247.539	14444.73
247.61	14410.07
247.681	14471.97
247.752	14546.01
247.823	14519.16
247.894	14539.65
247.965	14514.29
248.037	14509.57
248.108	14451.96
248.179	14464.3
248.25	14453.7
248.321	14485.37
248.392	14435.38
248.463	14528.85
248.534	14515.74
248.605	14534.3
248.675	14500.22
248.746	14528.86
248.817	14548.52
248.888	14575.9
248.959	14515.5
249.03	14537.77
249.101	14544.23
249.172	14528.95
249.243	14440.01
249.314	14516.37
249.385	14526.97
249.456	14560.19
249.527	14548.62
249.598	14580.82
249.669	14586.46
249.739	14604.44
249.81	14629.94
249.881	14594.03
249.952	14577.35
250.023	14582.56
250.094	14531.41
250.165	14503.07
250.235	14499.6
250.306	14499.65
250.377	14463.45
250.448	14492.27
250.519	14427.82
250.59	14497.04
250.66	14491.98
250.731	14573.88
250.802	14568.29
250.873	14596.73
250.944	14627.87
251.014	14628.21
251.085	14723.65
251.156	14755.94
251.227	14814.36
251.297	14869.12
251.368	14926.1
251.439	14974.59
251.51	15040.53
251.58	15035.62
251.651	15027.71
251.722	15094.52
251.792	15052.44
251.863	15064.92
251.934	15139.3
252.005	15264.67
252.075	15275.18
252.146	15336.88
252.217	15398
252.287	15453.24
252.358	15459.89
252.429	15543.33
252.499	15536.1
252.57	15555.47
252.641	15615.96
252.711	15632.35
252.782	15591.77
252.852	15680.4
252.923	15688.12
252.994	15703.2
253.064	15758.93
253.135	15747.21
253.205	15725.09
253.276	15809.3
253.347	15887.43
253.417	15868.97
253.488	15849.84
253.558	15838.56
253.629	15837.79
253.699	15851.04
253.77	15880.68
253.841	15873.21
253.911	15888.73
253.982	15915.34
254.052	15950.57
254.123	15959
254.193	15959.82
254.264	16107.54
254.334	16061.66
254.405	16030.52
254.475	15996.54
254.546	16012.06
254.616	16076.85
254.687	16111.31
254.757	16137.43
254.827	16134.88
254.898	16161.63
254.968	16175.61
255.039	16162.21
255.109	16207.51
255.18	16183.75
255.25	16110.92
255.321	16155.94
255.391	16108.23
255.461	16197.88
255.532	16109.77
255.602	16100.52
255.673	16039.31
255.743	16004.13
255.813	15944.07
255.884	15994.97
255.954	16035.21
256.024	16099.36
256.095	16116.42
256.165	16076.56
256.235	16103.12
256.306	16084.61
256.376	16138.93
256.446	16186.25
256.517	16226.21
256.587	16274.31
256.657	16297.78
256.728	16323.04
256.798	16334.03
256.868	16337.02
256.938	16308.58
257.009	16357.55
257.079	16402.95
257.149	16521.57
257.219	16450
257.29	16492.42
257.36	16444.22
257.43	16493.04
257.5	16427.92
257.571	16425.08
257.641	16473.67
257.711	16432.22
257.781	16475.69
257.852	16494.78
257.922	16429.42
257.992	16435.98
258.062	16436.94
258.132	16487.11
258.202	16502.68
258.273	16522.92
258.343	16611.46
258.413	16607.94
258.483	16621.48
258.553	16585
258.623	16560.51
258.693	16605.87
258.764	16681.34
258.834	16762.65
258.904	16781.3
258.974	16784.68
259.044	16796.82
259.114	16835.19
259.184	16876.1
259.254	16888.01
259.324	16833.31
259.394	16889.84
259.464	16975.39
259.535	16985.12
259.605	16979.82
259.675	16979.34
259.745	17015.68
259.815	16988.06
259.885	16983.68
259.955	17107.86
260.025	17109.45
260.095	17121.98
260.165	17161.6
260.235	17241.26
260.305	17221.31
260.375	17194.61
260.445	17286.42
260.515	17356.68
260.585	17414.76
260.655	17418.66
260.725	17468.25
260.795	17517.6
260.865	17602.13
260.934	17574.9
261.004	17606.13
261.074	17611.38
261.144	17671.43
261.214	17712.35
261.284	17719.29
261.354	17768.01
261.424	17723.87
261.494	17802.53
261.564	17811.97
261.634	17835.25
261.703	17746.67
261.773	17776.07
261.843	17808.94
261.913	17802.91
261.983	17742.82
262.053	17760.99
262.123	17764.31
262.192	17725.23
262.262	17764.31
262.332	17707.64
262.402	17745.08
262.472	17760.5
262.541	17702.76
262.611	17750.96
262.681	17726.91
262.751	17770.71
262.821	17773.17
262.89	17743.34
262.96	17772.84
263.03	17853.8
263.1	17879.1
263.169	17908.88
263.239	17936.06
263.309	18017.26
263.379	18048.2
263.448	18075.67
263.518	18093.11
263.588	18111.33
263.657	18189.5
263.727	18230.6
263.797	18250.26
263.867	18244.29
263.936	18200.15
264.006	18272.15
264.076	18273.16
264.145	18273.98
264.215	18249.02
264.285	18304.1
264.354	18256.68
264.424	18239.38
264.494	18186.42
264.563	18181.45
264.633	18272.63
264.702	18301.59
264.772	18234.99
264.842	18233.36
264.911	18270.99
264.981	18223.14
265.05	18241.98
265.12	18229.55
265.19	18241.07
265.259	18282.94
265.329	18322.65
265.398	18352.82
265.468	18457.01
265.537	18443.47
265.607	18487.18
265.676	18542.31
265.746	18559.61
265.815	18623.17
265.885	18628.04
265.955	18612.38
266.024	18603.85
266.094	18535.13
266.163	18601
266.232	18671.84
266.302	18685.53
266.371	18705.96
266.441	18736.27
266.51	18791.45
266.58	18794.73
266.649	18787.06
266.719	18855.06
266.788	18889.32
266.858	18967.25
266.927	18896.02
266.996	18929.9
267.066	18951.01
267.135	18927.39
267.205	18976.55
267.274	19006.62
267.343	19066.86
267.413	19100.44
267.482	19177.31
267.552	19249.11
267.621	19206.22
267.69	19152.73
267.76	19181.36
267.829	19204.78
267.898	19229.79
267.968	19210.37
268.037	19262.07
268.106	19311.32
268.176	19270.41
268.245	19273.45
268.314	19265.49
268.384	19316.19
268.453	19336.77
268.522	19371.95
268.592	19436.76
268.661	19419.7
268.73	19444.52
268.799	19432.76
268.869	19515.84
268.938	19463.07
269.007	19442.45
269.076	19472.04
269.146	19541.38
269.215	19575.31
269.284	19656.8
269.353	19651.55
269.422	19652.17
269.492	19656.27
269.561	19569.87
269.63	19600.8
269.699	19604.32
269.768	19630.01
269.838	19662.87
269.907	19722.29
269.976	19682.29
270.045	19616.42
270.114	19661
270.183	19666.97
270.253	19705.96
270.322	19657.09
270.391	19680.75
270.46	19756.32
270.529	19805.47
270.598	19854.05
270.667	19856.94
270.736	19829.42
270.806	19874.53
270.875	19948.07
270.944	19951.64
271.013	20090.57
271.082	20124.5
271.151	20160.6
271.22	20111.3
271.289	20126
271.358	20118.67
271.427	20168.94
271.496	20214.57
271.565	20215.73
271.634	20247
271.703	20385.05
271.772	20451.84
271.841	20469.63
271.91	20443.41
271.979	20458.06
272.048	20419.26
272.117	20471.31
272.186	20468.52
272.255	20520.66
272.324	20561.29
272.393	20600.42
272.462	20586.3
272.531	20604.23
272.6	20622.55
272.669	20709.58
272.738	20725.19
272.807	20760.18
272.876	20743.03
272.945	20894.56
273.013	20955.24
273.082	21026.81
273.151	20928
273.22	20964.05
273.289	20985.88
273.358	21064.77
273.427	21070.41
273.496	21134.71
273.564	21178.71
273.633	21241.37
273.702	21228.55
273.771	21234.38
273.84	21269.56
273.909	21313.33
273.977	21357.48
274.046	21372.66
274.115	21435.03
274.184	21416.09
274.253	21437.88
274.322	21516
274.39	21440.95
274.459	21434.88
274.528	21373.52
274.597	21392.61
274.665	21415.65
274.734	21502.16
274.803	21512.62
274.872	21545.06
274.94	21529.49
275.009	21775.49
275.078	21774.28
275.147	21806.48
275.215	21842.97
275.284	21901.3
275.353	21912.77
275.421	21869.34
275.49	21970.63
275.559	21972.56
275.627	22007.21
275.696	22025.82
275.765	22073.3
275.833	22093.64
275.902	22146.28
275.971	22233.18
276.039	22322.99
276.108	22393.43
276.177	22422.12
276.245	22434.02
276.314	22467
276.383	22533.23
276.451	22345.9
276.52	22404.52
276.588	22497.28
276.657	22552.15
276.725	22574.04
276.794	22621.58
276.863	22718.09
276.931	22674.31
277	22746.92
277.068	22858.52
277.137	22974.35
277.205	23010.56
277.274	23119.42
277.342	23186.54
277.411	23161.81
277.48	23163.02
277.548	23154.82
277.617	23203.33
277.685	23232.07
277.754	23292
277.822	23310.85
277.89	23400.23
277.959	23422.7
278.027	23392.22
278.096	23403.07
278.164	23538.43
278.233	23557.1
278.301	23563.56
278.37	23626.39
278.438	23620.89
278.507	23639.07
278.575	23592.24
278.643	23625.81
278.712	23612.74
278.78	23610.9
278.849	23699.77
278.917	23776.6
278.985	23815.56
279.054	23868.82
279.122	23952.4
279.191	23983.61
279.259	24015.48
279.327	23976.84
279.396	24075.88
279.464	24112.14
279.532	24184.93
279.601	24206.75
279.669	24229.85
279.737	24319.24
279.806	24373.51
279.874	24447.36
279.942	24485.09
280.011	24513.73
280.079	24580.89
280.147	24670.38
280.215	24726.2
280.284	24759.14
280.352	24767.05
280.42	24835.22
280.488	24840.82
280.557	24850.81
280.625	24907.07
280.693	24966.02
280.761	25027.63
280.83	25005.77
280.898	25089.62
280.966	25062.21
281.034	24996.58
281.102	25005.69
281.171	25028.86
281.239	25109.09
281.307	25116.61
281.375	25132.73
281.443	25271.19
281.512	25304.16
281.58	25375.8
281.648	25380.04
281.716	25420.33
281.784	25459.57
281.852	25489.2
281.92	25535.49
281.989	25625.36
282.057	25608.38
282.125	25803.35
282.193	25845.21
282.261	25898.2
282.329	25932.08
282.397	25996.65
282.465	26052.44
282.533	26144.32
282.601	26150.64
282.67	26108.21
282.738	26133.45
282.806	26213.58
282.874	26202.86
282.942	26250.37
283.01	26261.77
283.078	26320.66
283.146	26360.82
283.214	26443.68
283.282	26489.85
283.35	26573.25
283.418	26605.42
283.486	26679.9
283.554	26571.18
283.622	26612.14
283.69	26645.26
283.758	26671.57
283.826	26738.12
283.894	26823.31
283.962	26941.86
284.03	27046.23
284.098	27098.28
284.165	27131.78
284.233	27172.31
284.301	27206.55
284.369	27230.46
284.437	27252.78
284.505	27283.5
284.573	27385.03
284.641	27391.12
284.709	27476.02
284.777	27455.58
284.845	27520.88
284.912	27579.72
284.98	27654.21
285.048	27674.45
285.116	27754.02
285.184	27853.03
285.252	27898.26
285.319	27891.3
285.387	27904.4
285.455	27886.53
285.523	27973.46
285.591	28017.55
285.659	28081.15
285.726	28170.04
285.794	28161.49
285.862	28210.44
285.93	28262.09
285.997	28283.89
286.065	28308.87
286.133	28311.78
286.201	28358.11
286.269	28349.22
286.336	28360.43
286.404	28374.49
286.472	28469.05
286.539	28438.7
286.607	28423.67
286.675	28463.02
286.743	28537.89
286.81	28562.46
286.878	28653.72
286.946	28657.93
287.013	28702.05
287.081	28726.8
287.149	28712.83
287.216	28835.33
287.284	28858.49
287.352	28901.13
287.419	28936.58
287.487	29038.13
287.555	29096.79
287.622	29143.74
287.69	29210.67
287.758	29309.52
287.825	29344.47
287.893	29329.82
287.96	29386.56
288.028	29474.2
288.096	29533.7
288.163	29585.56
288.231	29594.94
288.298	29644.29
288.366	29744.96
288.433	29777.88
288.501	29805.02
288.569	29869.5
288.636	29884.3
288.704	29984.45
288.771	30059.83
288.839	30072.31
288.906	30089.87
288.974	30172.79
289.041	30215.75
289.109	30221.07
289.176	30278.14
289.244	30341.03
289.311	30438
289.379	30536.51
289.446	30591.93
289.514	30632.4
289.581	30684.43
289.649	30746.61
289.716	30791.44
289.783	30808.04
289.851	30942.97
289.918	30993.34
289.986	31076.13
290.053	31141.96
290.121	31180.85
290.188	31229.94
290.255	31393.5
290.323	31430.87
290.39	31461.83
290.458	31523.44
290.525	31628.89
290.592	31677.57
290.66	31736.53
290.727	31771.5
290.794	31869.05
290.862	31907.12
290.929	31963.44
290.996	32008.29
291.064	32089.31
291.131	32183.35
291.198	32280.09
291.266	32306.93
291.333	32358.25
291.4	32417.85
291.468	32529.4
291.535	32561.71
291.602	32632.16
291.669	32638.7
291.737	32697.79
291.804	32741.11
291.871	32844.36
291.938	32917.05
292.006	33060.33
292.073	33138.58
292.14	33225.95
292.207	33227.45
292.275	33278.38
292.342	33364.17
292.409	33502.92
292.476	33622.72
292.543	33629.85
292.611	33674.55
292.678	33785.56
292.745	33931.47
292.812	34010.7
292.879	34035.81
292.946	34100.33
293.014	34185.72
293.081	34271.74
293.148	34370.2
293.215	34468.93
293.282	34494.63
293.349	34572.66
293.416	34529.05
293.484	34628.42
293.551	34709.03
293.618	34823.09
293.685	34965.65
293.752	34985.67
293.819	35013.81
293.886	35033.07
293.953	35097.47
294.02	35180.81
294.087	35259.95
294.154	35269.85
294.221	35371.46
294.288	35417.3
294.356	35529.22
294.423	35597.2
294.49	35618.01
294.557	35701.81
294.624	35718.55
294.691	35856.63
294.758	35907.3
294.825	36001.28
294.892	36023.02
294.959	36077.86
295.026	36153.62
295.093	36172.69
295.16	36224.7
295.226	36285.81
295.293	36421
295.36	36507.67
295.427	36599.13
295.494	36681.52
295.561	36773.69
295.628	36901.28
295.695	37030.06
295.762	37091.66
295.829	37186.69
295.896	37289.2
295.963	37385.58
296.03	37483.59
296.096	37539.28
296.163	37634.4
296.23	37730.25
296.297	37837.01
296.364	37877.21
296.431	37954.66
296.498	38016.91
296.564	38166.3
296.631	38226.85
296.698	38227.82
296.765	38358.26
296.832	38374.68
296.899	38385.02
296.965	38490.75
297.032	38478.17
297.099	38587.77
297.166	38665.33
297.233	38687
297.299	38716.96
297.366	38765.15
297.433	38826.35
297.5	38915.68
297.566	38978.4
297.633	39035.63
297.7	39102.08
297.767	39159.05
297.833	39239.11
297.9	39283.99
297.967	39285.11
298.033	39375.52
298.1	39522.65
298.167	39542.57
298.234	39626.08
298.3	39714.89
298.367	39759.06
298.434	39827.04
298.5	39838.17
298.567	39878.4
298.634	39930.82
298.7	40051.12
298.767	40103.69
298.834	40207.44
298.9	40235.92
298.967	40259.82
299.033	40338.36
299.1	40443.14
299.167	40545.42
299.233	40579.64
299.3	40685.96
299.366	40785.66
299.433	40897.08
299.5	40872.63
299.566	40942.42
299.633	41050.32
299.699	41136.74
299.766	41177.13
299.832	41248.35
299.899	41323.74
299.965	41418.52
300.032	41461.68
300.099	41536.05
300.165	41629.05
300.232	41654.67
300.298	41709.64
300.365	41817.7
300.431	41872.79
300.498	41895.83
300.564	41977.46
300.631	42067.35
300.697	42169.99
300.763	42233.24
300.83	42267.57
300.896	42361.4
300.963	42444.5
301.029	42506.7
301.096	42566.9
301.162	42662.68
301.229	42696.28
301.295	42712.23
301.361	42783.13
301.428	42871.71
301.494	42869.23
301.561	42923.65
301.627	43003.55
301.693	43084.22
301.76	43136.16
301.826	43184.94
301.892	43269.42
301.959	43353.52
302.025	43398.32
302.092	43421.66
302.158	43503.71
302.224	43576.39
302.291	43597.89
302.357	43644.73
302.423	43666.23
302.49	43696.59
302.556	43786.69
302.622	43829.01
302.688	43934.37
302.755	44026.97
302.821	44094.05
302.887	44187.24
302.954	44234.38
303.02	44306.39
303.086	44371.29
303.152	44403.35
303.219	44431.13
303.285	44496.68
303.351	44569.25
303.417	44615.28
303.483	44651.28
303.55	44674.24
303.616	44717.32
303.682	44780.81
303.748	44803.68
303.815	44910.56
303.881	45004.49
303.947	45016.47
304.013	45084.21
304.079	45103.97
304.145	45082.01
304.212	45137.83
304.278	45177.59
304.344	45211.75
304.41	45221.49
304.476	45240.86
304.542	45293.71
304.608	45369.49
304.674	45349.87
304.741	45370.47
304.807	45446.81
304.873	45508.92
304.939	45625.08
305.005	45610.62
305.071	45636.52
305.137	45689.13
305.203	45652.17
305.269	45691.04
305.335	45772.9
305.401	45814.24
305.467	45858.83
305.533	45945.89
305.599	46017.43
305.666	46074.39
305.732	46127.9
305.798	46224.91
305.864	46370.18
305.93	46430.8
305.996	46468.89
306.062	46538.31
306.128	46578.65
306.194	46567.93
306.259	46598.66
306.325	46603.15
306.391	46678.82
306.457	46756.98
306.523	46808.06
306.589	46946.28
306.655	46958.61
306.721	46933.03
306.787	46927.09
306.853	47014.94
306.919	46997.84
306.985	47011.05
307.051	47039.74
307.117	47057.96
307.183	47073.11
307.248	46998.74
307.314	47044.01
307.38	47097.02
307.446	47156.61
307.512	47145.84
307.578	47210.78
307.644	47241.82
307.709	47290.65
307.775	47324.03
307.841	47350.93
307.907	47399.37
307.973	47366.7
308.039	47411
308.104	47472.01
308.17	47527.3
308.236	47510.09
308.302	47563.34
308.368	47566.41
308.433	47607.49
308.499	47638.77
308.565	47628.83
308.631	47692.04
308.696	47661.78
308.762	47666.5
308.828	47683.57
308.894	47659.31
308.959	47611.02
309.025	47621.16
309.091	47637.15
309.156	47649.63
309.222	47689.22
309.288	47680.74
309.354	47630.84
309.419	47651.27
309.485	47646.4
309.551	47695.68
309.616	47690.9
309.682	47710.55
309.748	47729.75
309.813	47747.3
309.879	47759.14
309.945	47758.46
310.01	47777.43
310.076	47825.15
310.141	47841.43
310.207	47838.6
310.273	47901.75
310.338	47971.78
310.404	47959.06
310.469	47950.18
310.535	47961.05
310.601	47933.12
310.666	48001.15
310.732	48101.56
310.797	48096.44
310.863	48100.39
310.928	48105.07
310.994	48158.07
311.059	48188.11
311.125	48213.95
311.191	48288.69
311.256	48281.97
311.322	48357.54
311.387	48316.3
311.453	48998.82
311.518	49055.79
311.584	49085.15
311.649	49136.5
311.715	49126.65
311.78	49180.42
311.846	49190.76
311.911	49247.93
311.976	49290.11
312.042	49270.65
312.107	49251.38
312.173	49262.45
312.238	49284.63
312.304	49329.52
312.369	49327.71
312.434	49323.13
312.5	49334.34
312.565	49257.94
312.631	49308.26
312.696	49302.11
312.761	49363.41
312.827	48719.37
312.892	48795.71
312.958	48839.63
313.023	48873.84
313.088	48923.82
313.154	48920.75
313.219	48931.68
313.284	48931.29
313.35	48946.21
313.415	48943.29
313.48	48960.36
313.546	49009.5
313.611	49084.1
313.676	49076.15
313.741	49080.44
313.807	49155.75
313.872	49210.59
313.937	49285.82
314.003	49363.44
314.068	49408.73
314.133	49462.62
314.198	49472.13
314.264	49421.91
314.329	49420.98
314.394	49430.89
314.459	49447.29
314.525	49550.76
314.59	49580.23
314.655	49571.4
314.72	49639.6
314.785	49697.23
314.851	49711.67
314.916	49695.37
314.981	49666.32
315.046	49672.08
315.111	49686.62
315.176	49671.33
315.242	49719.59
315.307	49733.94
315.372	49696.39
315.437	49685.65
315.502	49687.95
315.567	49763.1
315.632	49750.94
315.698	49794.21
315.763	49817.11
315.828	49826.04
315.893	49817.01
315.958	49820.86
316.023	49825.35
316.088	49777.84
316.153	49706.75
316.218	49699.58
316.283	49644.07
316.348	49604.21
316.413	49609.68
316.479	49562.37
316.544	49438.28
316.609	49322.9
316.674	49179.94
316.739	49055.65
316.804	48942.31
316.869	48796.57
316.934	48635.26
316.999	48506.37
317.064	48284.4
317.129	48099.28
317.194	47931.4
317.259	47729.66
317.324	47520.23
317.389	47320.63
317.454	47135.05
317.518	46988.08
317.583	46863.79
317.648	46734.89
317.713	46570.83
317.778	46320.31
317.843	46164.6
317.908	45993
317.973	45793.05
318.038	45655.57
318.103	45470.48
318.168	45305.6
318.233	45130.52
318.297	44901.67
318.362	44701.36
318.427	44511.73
318.492	44367.82
318.557	44146.59
318.622	43992.68
318.687	43851.53
318.751	43651.54
318.816	43463.98
318.881	43257.58
318.946	42986.5
319.011	42736.2
319.075	42492.93
319.14	42274.93
319.205	42027.49
319.27	41824.25
319.335	41584.07
319.399	41339.55
319.464	41141.44
319.529	40869.41
319.594	40647.34
319.658	40457.27
319.723	40219.36
319.788	40022.29
319.853	39720.57
319.917	39510.43
319.982	39219
320.047	38968.62
320.112	38769.8
320.176	38494.55
320.241	38258.03
320.306	38043.76
320.37	37803.65
320.435	37600.44
320.5	37398.56
320.564	37162.62
320.629	36900.47
320.694	36681.56
320.758	36422.89
320.823	36155.75
320.888	35943.22
320.952	35651.2
321.017	35382.49
321.082	35126.38
321.146	34889.65
321.211	34670.96
321.275	34408.94
321.34	34132.99
321.405	33861.51
321.469	33579.51
321.534	33323.05
321.598	33042.24
321.663	32812.99
321.727	32593.69
321.792	32301.46
321.857	32029.47
321.921	31778.53
321.986	31523.21
322.05	31201.16
322.115	30965.02
322.179	30702.43
322.244	30389.46
322.308	30155.24
322.373	29876.28
322.437	29624.65
322.502	29409.29
322.566	29123.7
322.631	28882.19
322.695	28624.68
322.76	28357.07
322.824	28109.7
322.889	27825.39
322.953	27551.6
323.018	27192.62
323.082	26837.15
323.146	26535.71
323.211	26222.28
323.275	25921.91
323.34	25631.83
323.404	25387.61
323.468	25095.34
323.533	24816.39
323.597	24526.97
323.662	24223.17
323.726	23962.27
323.79	23659.35
323.855	23298.11
323.919	23002.81
323.983	22711.91
324.048	22289.61
324.112	22435.76
324.177	21547.98
324.241	20380.91
324.305	19224.74
324.37	18091.49
324.434	16993.34
324.498	16684.37
324.562	16345.48
324.627	15968.55
324.691	15587.42
324.755	15155.85
324.82	14664.86
324.884	14143.21
324.948	13621.65
325.012	12981.37
325.077	12199.28
