Data from 20250701_urea_2M_exp3_MAYP1162681_08-59-51-868.txt Node
Date: Wed Jul 02 08:59:51 BST 2025
User: adleo
Spectrometer: MAYP116268
Trigger mode: 0
Integration Time (sec): 4.000000E0
Scans to average: 1
Electric dark correction enabled: true
Nonlinearity correction enabled: true
Boxcar width: 10
XAxis mode: Wavelengths
Number of Pixels in Spectrum: 2068
>>>>>Begin Spectral Data<<<<<
179.565	3817.95
179.642	4022.87
179.718	4176.12
179.795	4312.43
179.871	4427.15
179.948	4493.03
180.024	4563.89
180.101	4647.53
180.177	4702.44
180.254	4782.02
180.33	4861.37
180.407	5137.07
180.483	5436.2
180.56	5735.47
180.636	6010.77
180.712	5968
180.789	6004.22
180.865	6052.46
180.942	6081.63
181.018	6118.62
181.095	6160.92
181.171	6176.38
181.248	6178.39
181.324	6232.17
181.4	6258.24
181.477	6300.01
181.553	6344.91
181.63	6421.97
181.706	6476.47
181.782	6500.94
181.859	6507.61
181.935	6527.73
182.011	6517.89
182.088	6576.38
182.164	6649.18
182.24	6701.02
182.317	6728.04
182.393	6720.31
182.469	6771.32
182.546	6822.99
182.622	6840.04
182.698	6822.94
182.775	6868.47
182.851	6917.18
182.927	6892.97
183.003	6878.66
183.08	6852.73
183.156	6890.05
183.232	6880.01
183.308	6836.78
183.385	6869.82
183.461	6925.45
183.537	6925.6
183.613	6970.08
183.69	6936.98
183.766	6899.63
183.842	6923.94
183.918	6946.62
183.995	6991.77
184.071	6996.19
184.147	6976.06
184.223	6938.56
184.299	6985.75
184.375	6947.9
184.452	6969.29
184.528	7098.05
184.604	7138.58
184.68	7184.6
184.756	7207
184.832	7217.33
184.908	7239.18
184.985	7229.81
185.061	7174.32
185.137	7207.38
185.213	7166.36
185.289	7172.55
185.365	7147.72
185.441	7140.75
185.517	7189.94
185.593	7181.05
185.669	7174.27
185.745	7209.78
185.822	7269.43
185.898	7239.92
185.974	7272.24
186.05	7246.04
186.126	7169.33
186.202	7145.79
186.278	7128.54
186.354	7091.87
186.43	7117.98
186.506	7117.02
186.582	7121.44
186.658	7144.39
186.734	7073.54
186.81	7084.25
186.886	7090.93
186.962	7130.28
187.038	7118.5
187.114	7091.47
187.19	7118.1
187.266	7084.24
187.341	7087.22
187.417	7063.68
187.493	7061.42
187.569	7073.53
187.645	7047.3
187.721	7008.85
187.797	7032.87
187.873	7051.85
187.949	7036.57
188.025	7015.85
188.101	7020.99
188.176	7039.06
188.252	7025.37
188.328	7054.46
188.404	7054.75
188.48	7038.46
188.556	7019.05
188.632	7018.67
188.707	7017.94
188.783	7008.04
188.859	6992.82
188.935	6951.45
189.011	6973.98
189.086	6955.3
189.162	6924.69
189.238	6913.16
189.314	6902.98
189.39	6883.33
189.465	6858.73
189.541	6909.81
189.617	6854.57
189.693	6836.22
189.768	6847.18
189.844	6929
189.92	6897.32
189.996	6921.05
190.071	6962.13
190.147	6955.74
190.223	6985.59
190.298	6961.7
190.374	6912.65
190.45	6956.3
190.526	6983.84
190.601	6963.85
190.677	6972.49
190.753	7071.12
190.828	7093.83
190.904	7146.27
190.98	7198.85
191.055	7233.5
191.131	7206.58
191.207	7279.23
191.282	7313.91
191.358	7281.43
191.433	7232.47
191.509	7282.12
191.585	7278.9
191.66	7281.45
191.736	7304.03
191.811	7272.98
191.887	7327.12
191.963	7411.95
192.038	7430.84
192.114	7432.85
192.189	7451.31
192.265	7434.5
192.34	7352.45
192.416	7344.18
192.491	7325.48
192.567	7329.71
192.642	7335.96
192.718	7338.46
192.793	7297.46
192.869	7283.38
192.944	7291.89
193.02	7322.18
193.095	7336.4
193.171	7352.99
193.246	7347.17
193.322	7340.2
193.397	7343.42
193.473	7294.13
193.548	7226.31
193.624	7241.5
193.699	7239.53
193.775	7286.89
193.85	7295.44
193.925	7325.72
194.001	7326.35
194.076	7305.49
194.152	7273.71
194.227	7250.39
194.302	7217.54
194.378	7236.33
194.453	7223.94
194.529	7269.26
194.604	7212.45
194.679	7191.4
194.755	7129.24
194.83	7178.15
194.905	7170.95
194.981	7197.48
195.056	7173.7
195.131	7200.08
195.207	7196.04
195.282	7161.16
195.357	7092.99
195.433	7145.9
195.508	7110.04
195.583	7132.43
195.659	7185.07
195.734	7203.29
195.809	7202.52
195.884	7235.86
195.96	7234.22
196.035	7286.75
196.11	7271.99
196.185	7315.96
196.261	7325.62
196.336	7429.09
196.411	7375.66
196.486	7393.83
196.561	7372.97
196.637	7404.58
196.712	7455.13
196.787	7465.27
196.862	7519.43
196.937	7563.65
197.013	7582.69
197.088	7614.66
197.163	7695.47
197.238	7752.55
197.313	7756.39
197.388	7804.38
197.464	7914.17
197.539	7947.83
197.614	7928.22
197.689	7966.21
197.764	8017.93
197.839	8084.53
197.914	8069.14
197.989	8147.74
198.065	8195.74
198.14	8370.36
198.215	8461.92
198.29	8500.19
198.365	8542.72
198.44	8584.34
198.515	8678.81
198.59	8732.48
198.665	8828.44
198.74	8854.87
198.815	8858.1
198.89	8932.11
198.965	9030.28
199.04	9005.1
199.115	9063.29
199.19	9204.45
199.265	9215.66
199.34	9253.46
199.415	9375.17
199.49	9438.84
199.565	9466.72
199.64	9550.65
199.715	9540.38
199.79	9561.09
199.865	9585.7
199.94	9582.23
200.015	9687.13
200.09	9701.29
200.165	9724.4
200.24	9743.82
200.315	9877.96
200.39	9925.31
200.464	9951.27
200.539	9958.74
200.614	10016.43
200.689	10085.46
200.764	10110.32
200.839	10175.13
200.914	10188.81
200.989	10151.75
201.063	10205.36
201.138	10148.47
201.213	10143.7
201.288	10076.41
201.363	10093.65
201.438	10098.76
201.512	10148.16
201.587	10083.17
201.662	10099.7
201.737	10136.41
201.812	10159.82
201.886	10043.59
201.961	10079.73
202.036	10033.98
202.111	10025.02
202.186	9926.9
202.26	9873.43
202.335	9798.72
202.41	9774.69
202.485	9715.75
202.559	9644.38
202.634	9553.6
202.709	9591.34
202.784	9530.04
202.858	9529.22
202.933	9465.23
203.008	9437
203.082	9378.89
203.157	9383.85
203.232	9233.12
203.306	9158.41
203.381	9053.44
203.456	8976.36
203.53	8897.69
203.605	8832.41
203.68	8753.49
203.754	8731.17
203.829	8677.74
203.904	8610.12
203.978	8566.03
204.053	8585.43
204.127	8547.85
204.202	8545.39
204.277	8473.89
204.351	8452.62
204.426	8423.69
204.5	8393.23
204.575	8276.7
204.65	8305.77
204.724	8273.8
204.799	8303.03
204.873	8293.88
204.948	8288.88
205.022	8250.89
205.097	8219.35
205.171	8264.71
205.246	8286.81
205.32	8281.18
205.395	8277.81
205.469	8248.34
205.544	8266.34
205.618	8206.73
205.693	8243.58
205.767	8198.99
205.842	8277.04
205.916	8259.14
205.991	8230.52
206.065	8252.5
206.14	8305.42
206.214	8288.62
206.289	8265.04
206.363	8303.19
206.438	8307.9
206.512	8334.66
206.586	8395.13
206.661	8421.89
206.735	8353.66
206.81	8357.99
206.884	8410.42
206.958	8374.78
207.033	8433.11
207.107	8461.91
207.181	8568.57
207.256	8538.93
207.33	8602.54
207.405	8644.92
207.479	8702.86
207.553	8722.87
207.628	8667.42
207.702	8708.41
207.776	8687.43
207.851	8696.76
207.925	8755.94
207.999	8744.19
208.073	8733.12
208.148	8742.27
208.222	8700.87
208.296	8808.19
208.371	8862.86
208.445	8902.91
208.519	8998.87
208.593	9036.08
208.668	9018.55
208.742	9030.02
208.816	9047.48
208.89	9098.63
208.965	9090.25
209.039	9116.88
209.113	9176.91
209.187	9244.44
209.261	9228.85
209.336	9299.81
209.41	9364.14
209.484	9361.83
209.558	9438.83
209.632	9483.99
209.707	9529.73
209.781	9608.22
209.855	9660.77
209.929	9717.72
210.003	9735.54
210.077	9731.5
210.151	9897.59
210.226	10020.73
210.3	10109.21
210.374	10188.47
210.448	10202.2
210.522	10236.89
210.596	10271.29
210.67	10306.31
210.744	10469.77
210.818	10580.63
210.892	10645.87
210.966	10629.97
211.041	10683.21
211.115	10670.88
211.189	10749.55
211.263	10795.75
211.337	10819.27
211.411	10869.62
211.485	10853.33
211.559	10896.31
211.633	10899.82
211.707	10789.41
211.781	10810.37
211.855	10683.31
211.929	10653.35
212.003	10581.55
212.077	10613.83
212.151	10659.66
212.225	10689.3
212.299	10652.71
212.373	10616.1
212.447	10598.22
212.52	10696.75
212.594	10710.82
212.668	10745.94
212.742	10696.27
212.816	10684.41
212.89	10650.02
212.964	10635.8
213.038	10636.62
213.112	10674.54
213.186	10724.11
213.26	10647.16
213.333	10481.82
213.407	10496.46
213.481	10493.19
213.555	10534.5
213.629	10488.09
213.703	10424.87
213.777	10411.33
213.85	10336.26
213.924	10436.45
213.998	10427.39
214.072	10401.99
214.146	10338.58
214.219	10318.68
214.293	10296
214.367	10282.7
214.441	10311.85
214.515	10261.16
214.588	10162.26
214.662	10023.77
214.736	9937.47
214.81	9947.58
214.883	9966.83
214.957	9911.37
215.031	9857.4
215.105	9754.85
215.178	9692.14
215.252	9647.21
215.326	9544.44
215.4	9454.52
215.473	9269.22
215.547	9177.13
215.621	9092.73
215.694	9078.71
215.768	8973.75
215.842	8902.95
215.915	8826.18
215.989	8712.41
216.063	8648.65
216.136	8631.8
216.21	8602.65
216.284	8609.92
216.357	8580.12
216.431	8531.9
216.504	8532.87
216.578	8587.26
216.652	8599.62
216.725	8573.34
216.799	8577.48
216.873	8563.09
216.946	8563.91
217.02	8521.4
217.093	8492.53
217.167	8396.25
217.24	8320.35
217.314	8288.71
217.387	8242.98
217.461	8198
217.535	8213.54
217.608	8155.23
217.682	8121.41
217.755	8138.24
217.829	8082.52
217.902	8067.56
217.976	8051.88
218.049	7997.05
218.123	7922.4
218.196	7921.15
218.27	7882.18
218.343	7807.5
218.417	7797.83
218.49	7781.43
218.563	7830.25
218.637	7834.38
218.71	7907.26
218.784	7930.55
218.857	7966.37
218.931	7987.48
219.004	7997.34
219.077	8014.71
219.151	8029.42
219.224	8026.87
219.298	8021
219.371	8066.76
219.444	8028.2
219.518	8038.35
219.591	8060.32
219.665	8165.22
219.738	8176.86
219.811	8160.51
219.885	8209.68
219.958	8242.4
220.031	8241.53
220.105	8266.27
220.178	8277.72
220.251	8252.5
220.325	8279.17
220.398	8291.43
220.471	8315.05
220.544	8353.78
220.618	8339.54
220.691	8366.86
220.764	8381.92
220.838	8408.24
220.911	8396.69
220.984	8485.97
221.057	8520.76
221.131	8549
221.204	8449.3
221.277	8520.29
221.35	8636.36
221.424	8627.56
221.497	8639.16
221.57	8670.56
221.643	8691.94
221.716	8740.66
221.79	8746.67
221.863	8759.24
221.936	8773.34
222.009	8785.85
222.082	8812.71
222.155	8815.36
222.229	8884.4
222.302	8914.38
222.375	8924.49
222.448	8960.26
222.521	8962.76
222.594	8965.6
222.667	8932.12
222.74	8985.2
222.814	8981.3
222.887	8967.43
222.96	9026.99
223.033	9070.42
223.106	9093.04
223.179	9128
223.252	9134.12
223.325	9163.48
223.398	9172.78
223.471	9200.12
223.544	9223.9
223.617	9240.27
223.69	9265.59
223.763	9225.19
223.837	9248.3
223.91	9278.15
223.983	9231.99
224.056	9197.24
224.129	9221.31
224.202	9280.44
224.275	9270.14
224.348	9243.76
224.42	9211.55
224.493	9149.25
224.566	9123
224.639	9146.25
224.712	9114.18
224.785	9105.8
224.858	9096.65
224.931	9078.45
225.004	9041.14
225.077	9037.87
225.15	8948.35
225.223	8948.06
225.296	9030.57
225.369	8979.5
225.442	8943.58
225.514	8963.07
225.587	8990.07
225.66	8996.96
225.733	8994.65
225.806	9007.98
225.879	8996.81
225.952	8969
226.025	9015.16
226.097	9071.57
226.17	9067.48
226.243	9005.53
226.316	8996.34
226.389	9008.47
226.461	9027.87
226.534	9043.66
226.607	9034.95
226.68	9118.64
226.753	9108.58
226.825	9028.81
226.898	9085.81
226.971	9089.85
227.044	9112.33
227.117	9118.11
227.189	9132.99
227.262	9177.83
227.335	9195.79
227.407	9194.39
227.48	9222.3
227.553	9233.96
227.626	9211.17
227.698	9208.57
227.771	9254
227.844	9238.01
227.916	9245.67
227.989	9209.08
228.062	9206.87
228.134	9296.15
228.207	9294.27
228.28	9290.86
228.352	9302.03
228.425	9307.61
228.498	9348.88
228.57	9324.86
228.643	9378.7
228.716	9373.93
228.788	9354.72
228.861	9350.48
228.934	9412.88
229.006	9428.19
229.079	9422.99
229.151	9405.6
229.224	9370.56
229.296	9393.82
229.369	9493.96
229.442	9545.88
229.514	9531.54
229.587	9579.07
229.659	9502.58
229.732	9516.17
229.804	9556.32
229.877	9639.66
229.949	9670.2
230.022	9728.89
230.094	9733.46
230.167	9729.6
230.239	9691.57
230.312	9681.02
230.384	9753.72
230.457	9750.97
230.529	9759.11
230.602	9762.72
230.674	9781.32
230.747	9827.81
230.819	9856.86
230.892	9736.89
230.964	9734.67
231.037	9760.52
231.109	9748.48
231.181	9793.84
231.254	9756.9
231.326	9741.73
231.399	9705.5
231.471	9675.87
231.544	9588.87
231.616	9636.64
231.688	9639.77
231.761	9632.26
231.833	9621.52
231.905	9536.16
231.978	9528.79
232.05	9511.75
232.122	9524.66
232.195	9491.62
232.267	9526.68
232.339	9498.41
232.412	9566.3
232.484	9542.26
232.556	9519.54
232.629	9594.26
232.701	9607.12
232.773	9617.04
232.846	9611.5
232.918	9626.97
232.99	9638.77
233.062	9688.86
233.135	9695.6
233.207	9655.53
233.279	9697.8
233.351	9733.44
233.424	9725.93
233.496	9704.5
233.568	9793.41
233.64	9753.63
233.713	9772.95
233.785	9770.44
233.857	9787.01
233.929	9733.37
234.001	9806.22
234.074	9871.07
234.146	9794.47
234.218	9790.76
234.29	9796.16
234.362	9779.55
234.434	9728.39
234.507	9696.41
234.579	9645.21
234.651	9629.22
234.723	9663.13
234.795	9683.41
234.867	9677.63
234.939	9748.67
235.012	9766.44
235.084	9768.42
235.156	9810.41
235.228	9788.98
235.3	9770.96
235.372	9790.09
235.444	9859.15
235.516	9769.58
235.588	9776.85
235.66	9796.46
235.732	9769.2
235.804	9970.39
235.876	10020.81
235.948	10084.93
236.02	10105.45
236.092	10113.05
236.164	10124.9
236.236	10121.19
236.308	10121.87
236.38	10146.34
236.452	10120.95
236.524	10143.1
236.596	10205.08
236.668	10238.47
236.74	10269.87
236.812	10301.42
236.884	10334.57
236.956	10341.56
237.028	10338.62
237.1	10323.98
237.172	10392.26
237.244	10471.17
237.316	10347.05
237.388	10327.3
237.46	10308.13
237.532	10366.32
237.604	10360.45
237.675	10435.08
237.747	10486.16
237.819	10473.97
237.891	10483.7
237.963	10471.52
238.035	10467.52
238.107	10353.55
238.178	10413.31
238.25	10421.41
238.322	10513.07
238.394	10463.35
238.466	10467.3
238.538	10517.93
238.609	10562.97
238.681	10509.29
238.753	10487.07
238.825	10510.88
238.897	10542.14
238.968	10626.82
239.04	10613.28
239.112	10741.2
239.184	10692.87
239.255	10690.02
239.327	10727.98
239.399	10747.93
239.471	10802.42
239.542	10842.94
239.614	10917.48
239.686	10835.03
239.758	10890.78
239.829	10850.82
239.901	10915.09
239.973	10927.33
240.044	10952.92
240.116	10964.73
240.188	10978.36
240.259	10994.02
240.331	10986.12
240.403	11028.9
240.474	10970.25
240.546	10960.42
240.618	10887.75
240.689	10888.56
240.761	10904.9
240.833	10967.99
240.904	10965.72
240.976	10964.13
241.048	10974.39
241.119	11011.99
241.191	11063.64
241.262	11132.04
241.334	11141.39
241.405	11148.38
241.477	11154.26
241.549	11170.07
241.62	11198.84
241.692	11246.26
241.763	11307.66
241.835	11329.45
241.906	11344.87
241.978	11324.63
242.049	11388.67
242.121	11452
242.192	11528.82
242.264	11491.23
242.335	11444.09
242.407	11489.83
242.478	11489.88
242.55	11517.2
242.621	11497.15
242.693	11496.38
242.764	11476.47
242.836	11479.27
242.907	11518.89
242.979	11552.58
243.05	11573.11
243.122	11596.68
243.193	11597.5
243.264	11522.41
243.336	11524.72
243.407	11564.05
243.479	11648.39
243.55	11671.39
243.622	11690.19
243.693	11692.11
243.764	11764.98
243.836	11744.12
243.907	11741.32
243.978	11752.55
244.05	11776.65
244.121	11732.89
244.192	11776.18
244.264	11735.16
244.335	11750.77
244.407	11692.79
244.478	11705.95
244.549	11698.19
244.62	11651.87
244.692	11651.92
244.763	11704.89
244.834	11688.02
244.906	11663.29
244.977	11674.76
245.048	11722.24
245.119	11696.31
245.191	11675.92
245.262	11610.81
245.333	11688.98
245.405	11700.36
245.476	11735.92
245.547	11751.01
245.618	11807.01
245.689	11819.89
245.761	11854.78
245.832	11856.81
245.903	11903.8
245.974	11938.55
246.045	11949.93
246.117	12032.98
246.188	12015.67
246.259	11994.85
246.33	12017.6
246.401	12026.47
246.473	11994.9
246.544	11984.24
246.615	12049.08
246.686	12048.35
246.757	12126.67
246.828	12099.78
246.899	12173.63
246.97	12136.42
247.042	12127.12
247.113	12172.86
247.184	12261.08
247.255	12254.91
247.326	12290.92
247.397	12297.47
247.468	12303.93
247.539	12323.55
247.61	12276.89
247.681	12323.59
247.752	12383.75
247.823	12356.61
247.894	12378.64
247.965	12348.71
248.037	12337.34
248.108	12276.41
248.179	12286.24
248.25	12277.71
248.321	12306.87
248.392	12254.76
248.463	12337.23
248.534	12333.71
248.605	12356.75
248.675	12329.47
248.746	12353.28
248.817	12368.47
248.888	12398.3
248.959	12338.34
249.03	12363.31
249.101	12377.77
249.172	12366.25
249.243	12289.52
249.314	12359.6
249.385	12360.81
249.456	12397.44
249.527	12390.59
249.598	12420.14
249.669	12416.96
249.739	12440.72
249.81	12465.31
249.881	12426.65
249.952	12420.87
250.023	12426.17
250.094	12369
250.165	12331.83
250.235	12325.42
250.306	12328.74
250.377	12285.07
250.448	12314.47
250.519	12250.46
250.59	12313.56
250.66	12312.65
250.731	12382.78
250.802	12374.15
250.873	12400.18
250.944	12419.84
251.014	12409.14
251.085	12502.13
251.156	12534.91
251.227	12578.15
251.297	12627.23
251.368	12689.26
251.439	12731.01
251.51	12780.71
251.58	12766.1
251.651	12766.59
251.722	12823.28
251.792	12765.24
251.863	12774.01
251.934	12841.5
252.005	12957.67
252.075	12957.43
252.146	13007.08
252.217	13062.61
252.287	13105.95
252.358	13109.66
252.429	13184.67
252.499	13177.2
252.57	13184.96
252.641	13229.16
252.711	13236.4
252.782	13189.39
252.852	13264.64
252.923	13267.73
252.994	13274.04
253.064	13326.2
253.135	13310.25
253.205	13284.94
253.276	13361.68
253.347	13429.36
253.417	13404.1
253.488	13380.04
253.558	13370.31
253.629	13368.14
253.699	13384.05
253.77	13418.71
253.841	13412.39
253.911	13420.97
253.982	13444.54
254.052	13471.44
254.123	13482.05
254.193	13490.58
254.264	13626.95
254.334	13589.35
254.405	13557.05
254.475	13529.57
254.546	13540.76
254.616	13601.16
254.687	13633.51
254.757	13659.88
254.827	13663.35
254.898	13681.52
254.968	13698.59
255.039	13686.25
255.109	13723.75
255.18	13690.68
255.25	13616.78
255.321	13655.63
255.391	13613.94
255.461	13700.13
255.532	13619.53
255.602	13609.45
255.673	13546.5
255.743	13503.4
255.813	13433.46
255.884	13481.52
255.954	13516.08
256.024	13580.15
256.095	13584.58
256.165	13548.57
256.235	13571.71
256.306	13550.65
256.376	13609.36
256.446	13639.63
256.517	13671.84
256.587	13720.52
256.657	13742.55
256.728	13766.37
256.798	13771.53
256.868	13767.81
256.938	13739.23
257.009	13791.39
257.079	13832.22
257.149	13943.77
257.219	13888.91
257.29	13924.92
257.36	13870.01
257.43	13916.34
257.5	13847.35
257.571	13832.02
257.641	13869.72
257.711	13830.34
257.781	13867.21
257.852	13879.46
257.922	13817.9
257.992	13816.84
258.062	13810.14
258.132	13849.38
258.202	13850.29
258.273	13869.53
258.343	13952.92
258.413	13933.98
258.483	13934.8
258.553	13898.5
258.623	13864.37
258.693	13896.62
258.764	13967.58
258.834	14036.27
258.904	14048.56
258.974	14044.56
259.044	14054.4
259.114	14079.95
259.184	14115.86
259.254	14128.73
259.324	14074.74
259.394	14124.01
259.464	14209.91
259.535	14214.68
259.605	14208.9
259.675	14206.53
259.745	14235.12
259.815	14197.81
259.885	14198.39
259.955	14308.53
260.025	14299.71
260.095	14313.06
260.165	14339.57
260.235	14395.25
260.305	14377.65
260.375	14349.5
260.445	14435.59
260.515	14506.55
260.585	14563.58
260.655	14571.48
260.725	14612.5
260.795	14650.06
260.865	14722.65
260.934	14691.85
261.004	14723.71
261.074	14728.24
261.144	14790
261.214	14824.41
261.284	14836.32
261.354	14887.18
261.424	14844.33
261.494	14915.05
261.564	14921.8
261.634	14952.93
261.703	14884.68
261.773	14913.84
261.843	14949.18
261.913	14943.15
261.983	14892.54
262.053	14910.85
262.123	14908.01
262.192	14862.02
262.262	14902.95
262.332	14855.08
262.402	14894.17
262.472	14900.92
262.541	14842.25
262.611	14891.28
262.681	14870.12
262.751	14911.23
262.821	14900
262.89	14872.05
262.96	14901.5
263.03	14982.33
263.1	15005.47
263.169	15036.17
263.239	15071.99
263.309	15132.82
263.379	15162.27
263.448	15184.44
263.518	15202.47
263.588	15214.62
263.657	15286.25
263.727	15324.71
263.797	15338.79
263.867	15327.6
263.936	15291.79
264.006	15353.59
264.076	15343.52
264.145	15346.07
264.215	15326.45
264.285	15375.14
264.354	15328.86
264.424	15310.45
264.494	15257.57
264.563	15250.05
264.633	15330.89
264.702	15347.56
264.772	15293.97
264.842	15291.99
264.911	15317.01
264.981	15278.54
265.05	15294.74
265.12	15291.51
265.19	15307.56
265.259	15350.99
265.329	15393.5
265.398	15418.33
265.468	15515.64
265.537	15519.79
265.607	15556.23
265.676	15610.7
265.746	15637.01
265.815	15710.28
265.885	15728.26
265.955	15714.43
266.024	15711.2
266.094	15642.61
266.163	15707.92
266.232	15777.56
266.302	15791.93
266.371	15816.94
266.441	15841
266.51	15890.21
266.58	15893.05
266.649	15869.1
266.719	15923.61
266.788	15945.83
266.858	16019.62
266.927	15948.96
266.996	15973.06
267.066	15999.57
267.135	15962.12
267.205	16004.39
267.274	16012.15
267.343	16056.92
267.413	16075.96
267.482	16146.72
267.552	16212.37
267.621	16162.43
267.69	16115.78
267.76	16145.23
267.829	16168.8
267.898	16185.14
267.968	16167.5
268.037	16208.47
268.106	16268.42
268.176	16233.82
268.245	16242.68
268.314	16234.73
268.384	16301.05
268.453	16321.83
268.522	16345.88
268.592	16415.19
268.661	16403.72
268.73	16435.82
268.799	16429.79
268.869	16511.97
268.938	16459.82
269.007	16445.31
269.076	16469.89
269.146	16530.04
269.215	16551.01
269.284	16628.51
269.353	16618
269.422	16626.72
269.492	16619.49
269.561	16536.88
269.63	16574.67
269.699	16570.48
269.768	16588.02
269.838	16608.55
269.907	16655.93
269.976	16628.55
270.045	16572.69
270.114	16611.68
270.183	16620.4
270.253	16651.83
270.322	16603.48
270.391	16629.99
270.46	16699.01
270.529	16745.81
270.598	16791.49
270.667	16799.64
270.736	16772.6
270.806	16814.58
270.875	16874.44
270.944	16891.89
271.013	17016.13
271.082	17036.28
271.151	17073.48
271.22	17032.57
271.289	17045.63
271.358	17046.73
271.427	17083.03
271.496	17114.84
271.565	17113.34
271.634	17135.32
271.703	17181.63
271.772	17244.38
271.841	17260.19
271.91	17228.91
271.979	17251.32
272.048	17217.11
272.117	17265.93
272.186	17261.98
272.255	17313.01
272.324	17349.88
272.393	17391.57
272.462	17390.12
272.531	17414.07
272.6	17424.48
272.669	17504.19
272.738	17516.19
272.807	17551.37
272.876	17536.63
272.945	17676.19
273.013	17735.37
273.082	17798.84
273.151	17791.8
273.22	17836.14
273.289	17861.44
273.358	17948.67
273.427	17953.1
273.496	18013.1
273.564	18061.87
273.633	18126.88
273.702	18120.03
273.771	18134.25
273.84	18163.5
273.909	18205.48
273.977	18246.34
274.046	18258.49
274.115	18319.54
274.184	18316.84
274.253	18336.65
274.322	18415.93
274.39	18355.59
274.459	18348.41
274.528	18307.59
274.597	18326.1
274.665	18351.88
274.734	18426.77
274.803	18441.85
274.872	18473.23
274.94	18464.07
275.009	18694.23
275.078	18687.82
275.147	18724.98
275.215	18758.71
275.284	18824.97
275.353	18828.68
275.421	18792.49
275.49	18890.32
275.559	18898.56
275.627	18928.15
275.696	18948.68
275.765	18993.54
275.833	19016.96
275.902	19059.03
275.971	19133.2
276.039	19231.12
276.108	19286.25
276.177	19321.04
276.245	19329.04
276.314	19359.5
276.383	19421.57
276.451	19235.45
276.52	19284.75
276.588	19370.33
276.657	19432.16
276.725	19441.12
276.794	19481.85
276.863	19564.93
276.931	19532.16
277	19599.09
277.068	19665.26
277.137	19768.39
277.205	19799.47
277.274	19900.33
277.342	19977.1
277.411	19961.44
277.48	19957.25
277.548	19961.73
277.617	20009.01
277.685	20035.8
277.754	20083.8
277.822	20108.76
277.89	20210.26
277.959	20244.14
278.027	20227.9
278.096	20233.25
278.164	20370.47
278.233	20396.06
278.301	20405.46
278.37	20472.64
278.438	20464.44
278.507	20524.83
278.575	20482.22
278.643	20515.33
278.712	20495.04
278.78	20496.3
278.849	20577.26
278.917	20651.96
278.985	20695.43
279.054	20745.7
279.122	20830.96
279.191	20874.48
279.259	20893.42
279.327	20850.13
279.396	20945.37
279.464	20969.81
279.532	21031.64
279.601	21058.79
279.669	21092.14
279.737	21183.86
279.806	21231.77
279.874	21307.78
279.942	21353.61
280.011	21383.97
280.079	21448.56
280.147	21549.15
280.215	21604.05
280.284	21630.8
280.352	21635.09
280.42	21702.67
280.488	21707.35
280.557	21717.85
280.625	21780.86
280.693	21838.4
280.761	21894.89
280.83	21880.48
280.898	21974.57
280.966	21960.06
281.034	21891.65
281.102	21895.8
281.171	21925.93
281.239	22002.49
281.307	22027.27
281.375	22028.04
281.443	22157.38
281.512	22190.16
281.58	22261.57
281.648	22251.74
281.716	22301.39
281.784	22346.27
281.852	22357.45
281.92	22406.92
281.989	22495.05
282.057	22479.14
282.125	22665.64
282.193	22704.74
282.261	22752.66
282.329	22773.59
282.397	22830.81
282.465	22891.64
282.533	22982.37
282.601	22988.25
282.67	22951.8
282.738	22960.14
282.806	23043.74
282.874	23039.74
282.942	23092.06
283.01	23106.09
283.078	23173.35
283.146	23207.97
283.214	23282.95
283.282	23344.19
283.35	23424.25
283.418	23448.66
283.486	23517.51
283.554	23416.59
283.622	23470.17
283.69	23510.48
283.758	23540.38
283.826	23611.94
283.894	23691.09
283.962	23796.73
284.03	23889.08
284.098	23946.37
284.165	23987.36
284.233	24030.86
284.301	24065.83
284.369	24092.16
284.437	24116.67
284.505	24144.3
284.573	24243.81
284.641	24247.38
284.709	24315.4
284.777	24303.59
284.845	24365.92
284.912	24419.85
284.98	24487.53
285.048	24508.41
285.116	24573.3
285.184	24662.89
285.252	24696.32
285.319	24688.17
285.387	24708.25
285.455	24702.6
285.523	24774.15
285.591	24813.99
285.659	24872.04
285.726	24958.46
285.794	24958.8
285.862	24999.14
285.93	25062.34
285.997	25096.26
286.065	25132.35
286.133	25147.7
286.201	25188.71
286.269	25187.07
286.336	25202.6
286.404	25230.45
286.472	25309.84
286.539	25289.52
286.607	25279.82
286.675	25338.22
286.743	25413.11
286.81	25442.32
286.878	25539.67
286.946	25554.15
287.013	25603.41
287.081	25631.36
287.149	25623.25
287.216	25734.7
287.284	25751.93
287.352	25787.45
287.419	25817.05
287.487	25915.92
287.555	25975.21
287.622	26013.14
287.69	26070.4
287.758	26163.09
287.825	26190.6
287.893	26192.39
287.96	26255.46
288.028	26346.38
288.096	26394.52
288.163	26443.58
288.231	26441.21
288.298	26475.55
288.366	26574.94
288.433	26612.83
288.501	26638.18
288.569	26696.03
288.636	26718.49
288.704	26813.28
288.771	26889.01
288.839	26899.58
288.906	26919.87
288.974	26987.66
289.041	27028.89
289.109	27048.6
289.176	27126.49
289.244	27192.36
289.311	27285.4
289.379	27373.01
289.446	27432.11
289.514	27479.6
289.581	27530.28
289.649	27595.53
289.716	27635.78
289.783	27650.95
289.851	27766.56
289.918	27809.36
289.986	27893.15
290.053	27944.08
290.121	27982.79
290.188	28040.79
290.255	28185.97
290.323	28218.97
290.39	28248.41
290.458	28327.94
290.525	28431.46
290.592	28453.36
290.66	28513.34
290.727	28543.45
290.794	28636.04
290.862	28665.77
290.929	28718.9
290.996	28765.7
291.064	28848.84
291.131	28939.07
291.198	29029.06
291.266	29064.06
291.333	29119.31
291.4	29171.78
291.468	29286.85
291.535	29332.73
291.602	29380.42
291.669	29403.98
291.737	29466.06
291.804	29509.59
291.871	29603.32
291.938	29667.95
292.006	29798.18
292.073	29886.46
292.14	29955.67
292.207	29969.17
292.275	30031.52
292.342	30108.02
292.409	30241.68
292.476	30359.38
292.543	30379.47
292.611	30427.86
292.678	30531.91
292.745	30671.26
292.812	30756.6
292.879	30772.86
292.946	30825.55
293.014	30915.04
293.081	30995.64
293.148	31085.51
293.215	31192.93
293.282	31227.59
293.349	31304.04
293.416	31289.56
293.484	31364.07
293.551	31453.3
293.618	31564.56
293.685	31685.19
293.752	31712.16
293.819	31743.4
293.886	31747.47
293.953	31819.08
294.02	31910.81
294.087	31965.26
294.154	31982.45
294.221	32069.66
294.288	32132.91
294.356	32253.65
294.423	32325.16
294.49	32329.76
294.557	32416.62
294.624	32431.54
294.691	32545.82
294.758	32599.71
294.825	32673.29
294.892	32706.04
294.959	32744.51
295.026	32808.92
295.093	32832.33
295.16	32887.55
295.226	32934.46
295.293	33073.18
295.36	33147.51
295.427	33217.13
295.494	33313.6
295.561	33400.01
295.628	33520.78
295.695	33617.77
295.762	33659.61
295.829	33743.88
295.896	33858.49
295.963	33935.15
296.03	34022.25
296.096	34079.67
296.163	34153.56
296.23	34252.28
296.297	34352.49
296.364	34423.52
296.431	34490.34
296.498	34532.57
296.564	34659.94
296.631	34728.8
296.698	34726.03
296.765	34830.26
296.832	34852.23
296.899	34868.96
296.965	34977.23
297.032	34967.14
297.099	35074.41
297.166	35163.72
297.233	35197.53
297.299	35223.87
297.366	35289.27
297.433	35349.61
297.5	35437.82
297.566	35501.19
297.633	35539.91
297.7	35598.03
297.767	35646.59
297.833	35726.76
297.9	35793.17
297.967	35797.97
298.033	35889.49
298.1	36048.74
298.167	36072.76
298.234	36149.52
298.3	36224.35
298.367	36244.3
298.434	36317.2
298.5	36345.07
298.567	36368.46
298.634	36409.57
298.7	36525.11
298.767	36568.36
298.834	36671.12
298.9	36697.72
298.967	36721.7
299.033	36817.48
299.1	36927.74
299.167	37019.09
299.233	37045.21
299.3	37143.02
299.366	37251.55
299.433	37348.23
299.5	37303.56
299.566	37369.09
299.633	37459.45
299.699	37556.13
299.766	37609.05
299.832	37668.78
299.899	37732.35
299.965	37838.44
300.032	37878.63
300.099	37947.15
300.165	38021.45
300.232	38043.69
300.298	38090.89
300.365	38190.34
300.431	38244.16
300.498	38260.43
300.564	38329.34
300.631	38412.73
300.697	38508.96
300.763	38553.39
300.83	38585.75
300.896	38676.47
300.963	38773.12
301.029	38835.93
301.096	38884.76
301.162	38967.42
301.229	39003.52
301.295	39027.81
301.361	39088
301.428	39159.58
301.494	39161.62
301.561	39221.52
301.627	39296.18
301.693	39358.99
301.76	39415.83
301.826	39453.58
301.892	39542.74
301.959	39624.75
302.025	39680.19
302.092	39704.59
302.158	39790.38
302.224	39846.41
302.291	39876.19
302.357	39910.89
302.423	39949.95
302.49	39959.82
302.556	40043.79
302.622	40099.18
302.688	40193.02
302.755	40286.82
302.821	40364.41
302.887	40452.55
302.954	40501.14
303.02	40572.19
303.086	40657.09
303.152	40694.56
303.219	40713.46
303.285	40766.93
303.351	40837.26
303.417	40881.64
303.483	40897.38
303.55	40909.19
303.616	40959.55
303.682	41007.7
303.748	41019.56
303.815	41116.05
303.881	41202.42
303.947	41213.16
304.013	41262.35
304.079	41280.34
304.145	41241.93
304.212	41283.78
304.278	41299.19
304.344	41322.66
304.41	41326.65
304.476	41326.7
304.542	41361.55
304.608	41448.75
304.674	41433.34
304.741	41439.03
304.807	41495.37
304.873	41564.3
304.939	41670.81
305.005	41659.15
305.071	41693.85
305.137	41748.68
305.203	41717.8
305.269	41753.59
305.335	41815.19
305.401	41843.48
305.467	41863.95
305.533	41960.6
305.599	42022.44
305.666	42098.09
305.732	42147.24
305.798	42226.1
305.864	42363.18
305.93	42428.33
305.996	42447.64
306.062	42510.94
306.128	42543.71
306.194	42532.67
306.259	42571.04
306.325	42575.37
306.391	42654.43
306.457	42719.43
306.523	42791.35
306.589	42893.47
306.655	42924.45
306.721	42921.39
306.787	42927.71
306.853	43022.98
306.919	42999.34
306.985	43028.04
307.051	43049.63
307.117	43073.02
307.183	43103.51
307.248	43046.31
307.314	43095.43
307.38	43146.4
307.446	43203.5
307.512	43223.88
307.578	43292.93
307.644	43316.28
307.709	43363.51
307.775	43397.07
307.841	43425.67
307.907	43455.97
307.973	43433.16
308.039	43464.87
308.104	43532.62
308.17	43582.42
308.236	43584.41
308.302	43630.13
308.368	43634.02
308.433	43668.84
308.499	43693.79
308.565	43695.16
308.631	43745.69
308.696	43704.93
308.762	43712.23
308.828	43745.07
308.894	43736.71
308.959	43708.98
309.025	43729.27
309.091	43746.1
309.156	43747.75
309.222	43795.62
309.288	43794.21
309.354	43773.59
309.419	43799.37
309.485	43791.01
309.551	43843.55
309.616	43830.07
309.682	43853.66
309.748	43877.5
309.813	43900.56
309.879	43910.77
309.945	43908.39
310.01	43911.75
310.076	43974.35
310.141	43989.24
310.207	43980.92
310.273	44026.44
310.338	44079.56
310.404	44061.42
310.469	44054.36
310.535	44068.76
310.601	44040.4
310.666	44098.11
310.732	44176.87
310.797	44183.63
310.863	44189.03
310.928	44199.78
310.994	44245.13
311.059	44286.15
311.125	44308.38
311.191	44384.01
311.256	44401.23
311.322	44457.18
311.387	44442.98
311.453	45303.64
311.518	45332.54
311.584	45348.26
311.649	45388.89
311.715	45392.93
311.78	45442.16
311.846	45456.41
311.911	45506.88
311.976	45555.78
312.042	45541.71
312.107	45520.79
312.173	45532.47
312.238	45548.43
312.304	45568.77
312.369	45579.86
312.434	45575.58
312.5	45590.42
312.565	45515.76
312.631	45559.75
312.696	45568.8
312.761	45624.56
312.827	44796.36
312.892	44886.91
312.958	44926.62
313.023	44955.34
313.088	44990.77
313.154	44982.54
313.219	44994.71
313.284	44995.78
313.35	45002.4
313.415	45002.59
313.48	45027.99
313.546	45072.63
313.611	45135.7
313.676	45149.04
313.741	45154.05
313.807	45228.53
313.872	45282.61
313.937	45338.87
314.003	45396.55
314.068	45437.78
314.133	45483.69
314.198	45483.44
314.264	45453.06
314.329	45447.94
314.394	45468.34
314.459	45498.08
314.525	45598.26
314.59	45624.1
314.655	45632.33
314.72	45696.79
314.785	45737.09
314.851	45743.13
314.916	45718.64
314.981	45707.01
315.046	45709
315.111	45703.84
315.176	45673.6
315.242	45697.17
315.307	45719.91
315.372	45684.75
315.437	45672.19
315.502	45678.47
315.567	45750.14
315.632	45727.36
315.698	45751.7
315.763	45759.64
315.828	45746.93
315.893	45744.4
315.958	45746.93
316.023	45728.97
316.088	45679.89
316.153	45620.32
316.218	45623.34
316.283	45578.08
316.348	45526.79
316.413	45521.58
316.479	45473.31
316.544	45372.63
316.609	45274.17
316.674	45157.52
316.739	45044.5
316.804	44941.15
316.869	44810.1
316.934	44666.57
316.999	44556.75
317.064	44383.89
317.129	44224.38
317.194	44070.81
317.259	43885.27
317.324	43701.37
317.389	43526.71
317.454	43360.01
317.518	43218.45
317.583	43093.62
317.648	42984
317.713	42837.09
317.778	42599.43
317.843	42467.76
317.908	42294.69
317.973	42131.21
318.038	41995.57
318.103	41827.77
318.168	41670.31
318.233	41511.64
318.297	41285.71
318.362	41096.63
318.427	40904.58
318.492	40757.64
318.557	40560.17
318.622	40406.68
318.687	40265.97
318.751	40080.67
318.816	39911.32
318.881	39732.73
318.946	39483.14
319.011	39248.82
319.075	39040.47
319.14	38861.2
319.205	38643.64
319.27	38458.57
319.335	38224.24
319.399	38012.15
319.464	37833.71
319.529	37581.09
319.594	37363.07
319.658	37194.04
319.723	36975.93
319.788	36800.47
319.853	36533.92
319.917	36349.62
319.982	36078.02
320.047	35850.53
320.112	35663.92
320.176	35399.75
320.241	35185.75
320.306	34994.23
320.37	34769
320.435	34572.57
320.5	34382.41
320.564	34153.7
320.629	33924.69
320.694	33726.56
320.758	33485.01
320.823	33245.34
320.888	33065.51
320.952	32810.94
321.017	32562.87
321.082	32337.18
321.146	32106.46
321.211	31904.92
321.275	31660.15
321.34	31422.56
321.405	31186.01
321.469	30939.7
321.534	30703.18
321.598	30432.58
321.663	30228.06
321.727	30018.8
321.792	29756.82
321.857	29511.68
321.921	29283.17
321.986	29045.78
322.05	28743.03
322.115	28517.5
322.179	28260.87
322.244	27965.27
322.308	27750.67
322.373	27498.68
322.437	27252.46
322.502	27077.32
322.566	26817.49
322.631	26588.45
322.695	26362.16
322.76	26110.58
322.824	25880.44
322.889	25636.87
322.953	25394.01
323.018	25062.57
323.082	24742.39
323.146	24450.38
323.211	24152.86
323.275	23897.96
323.34	23629.52
323.404	23416.14
323.468	23145.09
323.533	22891.42
323.597	22631.42
323.662	22340.68
323.726	22109.98
323.79	21847.77
323.855	21503.15
323.919	21214.17
323.983	20944.13
324.048	20540.27
324.112	20727.96
324.177	19908.04
324.241	18823.86
324.305	17756.23
324.37	16711.4
324.434	15701.18
324.498	15427.04
324.562	15121.11
324.627	14761.28
324.691	14410.86
324.755	14006.57
324.82	13561
324.884	13091.39
324.948	12606.9
325.012	12031.97
325.077	11311.84
