Data from 20250626_urea_1M_exp2_MAYP1162681_18-14-00-344.txt Node
Date: Thu Jun 26 18:14:00 BST 2025
User: adleo
Spectrometer: MAYP116268
Trigger mode: 0
Integration Time (sec): 3.000000E0
Scans to average: 1
Electric dark correction enabled: true
Nonlinearity correction enabled: true
Boxcar width: 10
XAxis mode: Wavelengths
Number of Pixels in Spectrum: 2068
>>>>>Begin Spectral Data<<<<<
179.565	3225.01
179.642	3385.48
179.718	3512.05
179.795	3635.5
179.871	3728.93
179.948	3784.86
180.024	3852.07
180.101	3915.77
180.177	3955.05
180.254	4019.31
180.33	4085.64
180.407	4313.39
180.483	4564.29
180.56	4816.13
180.636	5049.17
180.712	5013.42
180.789	5038.05
180.865	5072.08
180.942	5097.32
181.018	5128.6
181.095	5173.71
181.171	5183.68
181.248	5187.56
181.324	5231.18
181.4	5245.7
181.477	5280.59
181.553	5316.65
181.63	5373.7
181.706	5417.27
181.782	5449.6
181.859	5452.9
181.935	5466.66
182.011	5456.83
182.088	5503.15
182.164	5555.48
182.24	5593.24
182.317	5622.52
182.393	5616.29
182.469	5656.08
182.546	5692.28
182.622	5701.29
182.698	5688.68
182.775	5729.24
182.851	5768.56
182.927	5747.89
183.003	5736.63
183.08	5718.65
183.156	5746.36
183.232	5734.75
183.308	5707.47
183.385	5720.89
183.461	5770.92
183.537	5775.81
183.613	5807.8
183.69	5785.35
183.766	5757.33
183.842	5780.5
183.918	5795.56
183.995	5831.47
184.071	5837.57
184.147	5823.71
184.223	5790.16
184.299	5822.84
184.375	5786.44
184.452	5803.81
184.528	5910.84
184.604	5943.59
184.68	5977.45
184.756	5996.45
184.832	6010.08
184.908	6029.73
184.985	6033.57
185.061	5986.95
185.137	6013.19
185.213	5984.23
185.289	5986.57
185.365	5971.23
185.441	5962.16
185.517	6000.27
185.593	5997.2
185.669	5992.74
185.745	6021.62
185.822	6067.64
185.898	6042.01
185.974	6066.37
186.05	6045.44
186.126	5980.58
186.202	5954.83
186.278	5941.87
186.354	5912.13
186.43	5927.68
186.506	5915.88
186.582	5913.05
186.658	5929.4
186.734	5873.15
186.81	5876.5
186.886	5883.36
186.962	5915.45
187.038	5904.9
187.114	5880.12
187.19	5895.14
187.266	5864.02
187.341	5868.49
187.417	5849.59
187.493	5849.79
187.569	5856.41
187.645	5842.88
187.721	5813.71
187.797	5842.1
187.873	5857.64
187.949	5843.26
188.025	5823.63
188.101	5828.37
188.176	5846.98
188.252	5835
188.328	5853.45
188.404	5850.43
188.48	5832.93
188.556	5809.56
188.632	5811.53
188.707	5814.12
188.783	5809.76
188.859	5797.44
188.935	5766.54
189.011	5790.18
189.086	5774.74
189.162	5756.57
189.238	5748.61
189.314	5741.03
189.39	5723.04
189.465	5697.67
189.541	5745.16
189.617	5705.6
189.693	5696.78
189.768	5705.75
189.844	5776.49
189.92	5752.39
189.996	5781.98
190.071	5819.49
190.147	5817.57
190.223	5843.24
190.298	5822.9
190.374	5782.32
190.45	5817.12
190.526	5835.11
190.601	5823.94
190.677	5824.61
190.753	5904.78
190.828	5913.75
190.904	5954.96
190.98	5995.41
191.055	6024.77
191.131	5999.72
191.207	6060.21
191.282	6085.38
191.358	6057.8
191.433	6021.31
191.509	6056.01
191.585	6043.53
191.66	6043.96
191.736	6069.44
191.811	6041.23
191.887	6087.4
191.963	6153.56
192.038	6166.37
192.114	6172.23
192.189	6179.09
192.265	6171.56
192.34	6105.53
192.416	6106.88
192.491	6095.88
192.567	6101.07
192.642	6115.14
192.718	6119.74
192.793	6085.43
192.869	6074.83
192.944	6082.17
193.02	6097.53
193.095	6111.87
193.171	6132.26
193.246	6134.57
193.322	6125.45
193.397	6128.18
193.473	6091.32
193.548	6041.69
193.624	6060.89
193.699	6059.26
193.775	6105.01
193.85	6112.01
193.925	6136.34
194.001	6132.5
194.076	6109.81
194.152	6076.88
194.227	6050.77
194.302	6022.05
194.378	6031.16
194.453	6023.11
194.529	6052.95
194.604	6016
194.679	6003.48
194.755	5950.35
194.83	5980.51
194.905	5977.2
194.981	6000.08
195.056	5980.46
195.131	5997.06
195.207	5990.05
195.282	5960.31
195.357	5904.01
195.433	5947
195.508	5916.38
195.583	5939.41
195.659	5980.68
195.734	6005.2
195.809	6012.64
195.884	6038.58
195.96	6036.52
196.035	6078.16
196.11	6070.48
196.185	6101.33
196.261	6104.02
196.336	6188.51
196.411	6143.77
196.486	6152.93
196.561	6133.26
196.637	6156.23
196.712	6200.84
196.787	6206.84
196.862	6244.79
196.937	6274.2
197.013	6287.36
197.088	6315.28
197.163	6372.1
197.238	6418.04
197.313	6415.83
197.388	6446.7
197.464	6529.27
197.539	6568.15
197.614	6549.77
197.689	6585.97
197.764	6627.33
197.839	6688.31
197.914	6674.19
197.989	6745.65
198.065	6783.96
198.14	6931.23
198.215	7007.23
198.29	7040.44
198.365	7083.63
198.44	7122.25
198.515	7199.47
198.59	7241.66
198.665	7309.17
198.74	7328.59
198.815	7332.54
198.89	7402.12
198.965	7485.1
199.04	7469.82
199.115	7515.09
199.19	7635.24
199.265	7645.81
199.34	7672.11
199.415	7762.39
199.49	7821.65
199.565	7842.33
199.64	7917.87
199.715	7905.12
199.79	7915.21
199.865	7934.6
199.94	7926.47
200.015	8017.15
200.09	8040.15
200.165	8056.93
200.24	8080.74
200.315	8186.35
200.39	8231.47
200.464	8243.88
200.539	8243.45
200.614	8296.26
200.689	8359.77
200.764	8375.75
200.839	8416.96
200.914	8434.18
200.989	8407.94
201.063	8444.8
201.138	8399.52
201.213	8399.08
201.288	8349.24
201.363	8367.09
201.438	8366.51
201.512	8414.17
201.587	8355.6
201.662	8357.72
201.737	8396.26
201.812	8416.38
201.886	8331.07
201.961	8356.2
202.036	8323.21
202.111	8321.57
202.186	8230.33
202.26	8173.55
202.335	8121.06
202.41	8103.74
202.485	8058.78
202.559	8001.93
202.634	7926.67
202.709	7948.92
202.784	7887.22
202.858	7885.05
202.933	7834.42
203.008	7813.83
203.082	7754.22
203.157	7752.92
203.232	7638.68
203.306	7573.31
203.381	7485.4
203.456	7417.29
203.53	7346.94
203.605	7290.55
203.68	7218.95
203.754	7204.07
203.829	7169.26
203.904	7106.79
203.978	7075.45
204.053	7088.33
204.127	7052.35
204.202	7045.62
204.277	7000.66
204.351	6984.75
204.426	6964.9
204.5	6939.49
204.575	6841.81
204.65	6868.06
204.724	6847.57
204.799	6872.82
204.873	6862.25
204.948	6855.67
205.022	6826.96
205.097	6800.14
205.171	6838.07
205.246	6862.73
205.32	6859.66
205.395	6854.42
205.469	6830.61
205.544	6850.99
205.618	6793.68
205.693	6827.65
205.767	6798.21
205.842	6852.36
205.916	6833.53
205.991	6798.95
206.065	6816.87
206.14	6856.07
206.214	6848.81
206.289	6824.4
206.363	6850.72
206.438	6859.23
206.512	6884.64
206.586	6939.92
206.661	6972.42
206.735	6912.65
206.81	6914.86
206.884	6956.64
206.958	6923.17
207.033	6964.02
207.107	6979.41
207.181	7076.64
207.256	7060.2
207.33	7112.56
207.405	7146.57
207.479	7201.01
207.553	7224.59
207.628	7179.35
207.702	7214.56
207.776	7191.69
207.851	7210.04
207.925	7255.72
207.999	7241.16
208.073	7227.18
208.148	7230.93
208.222	7195.4
208.296	7284.59
208.371	7332.69
208.445	7364.7
208.519	7441.73
208.593	7475.7
208.668	7465.12
208.742	7469.55
208.816	7477.33
208.89	7513.26
208.965	7507.48
209.039	7531.63
209.113	7573.45
209.187	7634.83
209.261	7627.81
209.336	7688.96
209.41	7740.04
209.484	7739.22
209.558	7810.63
209.632	7848.46
209.707	7879.62
209.781	7941.5
209.855	7986.82
209.929	8028.8
210.003	8044.86
210.077	8041.93
210.151	8181.29
210.226	8276.38
210.3	8350.05
210.374	8412.99
210.448	8430.07
210.522	8461.26
210.596	8484.5
210.67	8519.13
210.744	8649.85
210.818	8739.31
210.892	8796.35
210.966	8777.35
211.041	8821.43
211.115	8808
211.189	8879.22
211.263	8927.3
211.337	8945.63
211.411	8985.5
211.485	8967.73
211.559	9004.73
211.633	9016.28
211.707	8921.84
211.781	8939.91
211.855	8842.77
211.929	8819.58
212.003	8770.42
212.077	8797.62
212.151	8830.6
212.225	8851.68
212.299	8815.7
212.373	8782.16
212.447	8760.83
212.52	8844.44
212.594	8846.36
212.668	8880.44
212.742	8837.02
212.816	8818.78
212.89	8799.19
212.964	8790.91
213.038	8797.94
213.112	8825.38
213.186	8858.63
213.26	8803.66
213.333	8672.38
213.407	8681.13
213.481	8687.34
213.555	8712.44
213.629	8672.67
213.703	8623.77
213.777	8617.99
213.85	8558.41
213.924	8652.92
213.998	8653.64
214.072	8628.79
214.146	8589.04
214.219	8576.38
214.293	8561.94
214.367	8564.88
214.441	8591.25
214.515	8546.83
214.588	8476.57
214.662	8375.05
214.736	8308.96
214.81	8326.36
214.883	8344.05
214.957	8307.75
215.031	8264.47
215.105	8187.39
215.178	8141.55
215.252	8111.63
215.326	8031.25
215.4	7963.38
215.473	7805.94
215.547	7732.91
215.621	7677.62
215.694	7677.62
215.768	7592.59
215.842	7537.6
215.915	7479.97
215.989	7381.48
216.063	7340.65
216.136	7321.37
216.21	7299.7
216.284	7316.09
216.357	7289.8
216.431	7259.04
216.504	7251.97
216.578	7292.41
216.652	7307.49
216.725	7287.92
216.799	7296.05
216.873	7276.4
216.946	7289.22
217.02	7263.68
217.093	7239.5
217.167	7158.53
217.24	7086.66
217.314	7060.68
217.387	7021.22
217.461	6985.03
217.535	7002.52
217.608	6949.87
217.682	6931.37
217.755	6939.06
217.829	6888.45
217.902	6875.67
217.976	6859.48
218.049	6825.95
218.123	6761.26
218.196	6760.21
218.27	6729.94
218.343	6670.74
218.417	6674.39
218.49	6649.8
218.563	6684.61
218.637	6695.18
218.71	6753.03
218.784	6778.39
218.857	6804.47
218.931	6829.33
219.004	6833.47
219.077	6848.51
219.151	6861.09
219.224	6848.79
219.298	6847.88
219.371	6884.64
219.444	6849.83
219.518	6858.23
219.591	6872.26
219.665	6962.69
219.738	6972.34
219.811	6953.57
219.885	6989.89
219.958	7014.4
220.031	7021.36
220.105	7031.45
220.178	7037.75
220.251	7012.37
220.325	7028.96
220.398	7037.94
220.471	7053.89
220.544	7085.31
220.618	7068.83
220.691	7093.95
220.764	7115.52
220.838	7139.22
220.911	7128.11
220.984	7202.53
221.057	7234.48
221.131	7255.43
221.204	7177.49
221.277	7235.71
221.35	7342.88
221.424	7339.52
221.497	7353.08
221.57	7372.63
221.643	7404.55
221.716	7439.89
221.79	7451.52
221.863	7459.69
221.936	7465.56
222.009	7475.26
222.082	7499.45
222.155	7510.51
222.229	7565.13
222.302	7592.77
222.375	7598.83
222.448	7635.23
222.521	7641.09
222.594	7640.42
222.667	7615.92
222.74	7668.32
222.814	7661.68
222.887	7650.23
222.96	7690.09
223.033	7724.91
223.106	7747.6
223.179	7773.05
223.252	7781.03
223.325	7804.01
223.398	7817.48
223.471	7845.22
223.544	7863.39
223.617	7873.92
223.69	7890.7
223.763	7857.32
223.837	7871.8
223.91	7896.95
223.983	7852.91
224.056	7823.68
224.129	7837.38
224.202	7885.63
224.275	7869.96
224.348	7839.66
224.42	7805.42
224.493	7762.53
224.566	7733.29
224.639	7747.33
224.712	7723.03
224.785	7715.48
224.858	7707.3
224.931	7697.06
225.004	7666.53
225.077	7662.54
225.15	7583.37
225.223	7584.48
225.296	7658.53
225.369	7613.1
225.442	7583.24
225.514	7601.36
225.587	7616.45
225.66	7635.98
225.733	7635.64
225.806	7645.55
225.879	7644.44
225.952	7619.79
226.025	7663.93
226.097	7713.48
226.17	7703.19
226.243	7651.23
226.316	7642.52
226.389	7645.17
226.461	7662.29
226.534	7677.53
226.607	7675.94
226.68	7748.13
226.753	7740.78
226.825	7669.32
226.898	7709.99
226.971	7715.66
227.044	7732.2
227.117	7740.38
227.189	7746.06
227.262	7772.99
227.335	7784.63
227.407	7784.44
227.48	7821.16
227.553	7827.37
227.626	7811.73
227.698	7823.99
227.771	7855.8
227.844	7838.11
227.916	7856.67
227.989	7821.13
228.062	7819.3
228.134	7886.79
228.207	7886.7
228.28	7878.72
228.352	7888.96
228.425	7905.41
228.498	7944.57
228.57	7926.58
228.643	7972.43
228.716	7977.63
228.788	7967.24
228.861	7963.77
228.934	8017.45
229.006	8015.33
229.079	8019.18
229.151	8004.7
229.224	7971.19
229.296	7995.96
229.369	8086.75
229.442	8132.71
229.514	8123.82
229.587	8165.47
229.659	8104.71
229.732	8119.53
229.804	8161.85
229.877	8227.63
229.949	8248.71
230.022	8288.28
230.094	8292.27
230.167	8279.95
230.239	8240.61
230.312	8233.25
230.384	8290.13
230.457	8282.14
230.529	8296.43
230.602	8297.92
230.674	8311.73
230.747	8350.29
230.819	8377.18
230.892	8276.39
230.964	8272.44
231.037	8293.4
231.109	8288.16
231.181	8330.29
231.254	8296.52
231.326	8277.81
231.399	8263.13
231.471	8239.31
231.544	8177.08
231.616	8213.63
231.688	8227.83
231.761	8214.99
231.833	8209.99
231.905	8143.29
231.978	8146.61
232.05	8127.91
232.122	8125.6
232.195	8104.09
232.267	8135.12
232.339	8107.46
232.412	8166.66
232.484	8147.84
232.556	8125.73
232.629	8182.14
232.701	8188.45
232.773	8200.61
232.846	8194.6
232.918	8190.17
232.99	8202.63
233.062	8239.63
233.135	8251.52
233.207	8216.25
233.279	8255.58
233.351	8278.43
233.424	8281.46
233.496	8261.69
233.568	8340.31
233.64	8312.9
233.713	8328.19
233.785	8326.27
233.857	8347.34
233.929	8301.6
234.001	8356.53
234.074	8417.18
234.146	8350.61
234.218	8346.38
234.29	8346.91
234.362	8333.2
234.434	8297.69
234.507	8271.33
234.579	8226.34
234.651	8208.93
234.723	8238.76
234.795	8258.15
234.867	8255.5
234.939	8299.96
235.012	8309.15
235.084	8303.8
235.156	8335.98
235.228	8319.77
235.3	8303.75
235.372	8308.22
235.444	8362.34
235.516	8295.19
235.588	8299.71
235.66	8319.34
235.732	8300.19
235.804	8464.98
235.876	8508.08
235.948	8563.62
236.02	8575.26
236.092	8591.23
236.164	8598.79
236.236	8601.19
236.308	8597.34
236.38	8622.61
236.452	8608.07
236.524	8630.83
236.596	8685.93
236.668	8716.59
236.74	8737.9
236.812	8768.36
236.884	8803.36
236.956	8820.55
237.028	8815.16
237.1	8796.73
237.172	8856.71
237.244	8923.33
237.316	8823.89
237.388	8807.96
237.46	8781.82
237.532	8835.01
237.604	8830.05
237.675	8896.01
237.747	8925.56
237.819	8919.55
237.891	8927.16
237.963	8917.77
238.035	8913.25
238.107	8823.59
238.178	8875.27
238.25	8885.56
238.322	8956.45
238.394	8919.39
238.466	8915.01
238.538	8952.93
238.609	8987.43
238.681	8943.19
238.753	8924.74
238.825	8941.6
238.897	8974.13
238.968	9050.55
239.04	9038.85
239.112	9126.95
239.184	9097.24
239.255	9098.63
239.327	9127.17
239.399	9137.86
239.471	9184.55
239.542	9216.03
239.614	9270.48
239.686	9204.12
239.758	9248.56
239.829	9215.94
239.901	9268.23
239.973	9275.5
240.044	9304.2
240.116	9316.09
240.188	9328.51
240.259	9342.76
240.331	9334.28
240.403	9359.41
240.474	9319
240.546	9306.87
240.618	9261.84
240.689	9258.57
240.761	9282.55
240.833	9334.85
240.904	9337.4
240.976	9336.34
241.048	9352.47
241.119	9384.94
241.191	9424.42
241.262	9481.31
241.334	9493.79
241.405	9494.03
241.477	9497.69
241.549	9500.29
241.62	9523.84
241.692	9567.85
241.763	9624.36
241.835	9639.33
241.906	9663.37
241.978	9638.71
242.049	9703.19
242.121	9750.29
242.192	9810.59
242.264	9779.96
242.335	9744.99
242.407	9786.22
242.478	9791.85
242.55	9813.57
242.621	9805.58
242.693	9800.76
242.764	9789.78
242.836	9791.94
242.907	9823.3
242.979	9856
243.05	9882.88
243.122	9906.19
243.193	9898.34
243.264	9834.47
243.336	9842.27
243.407	9870.55
243.479	9944
243.55	9957.2
243.622	9975.22
243.693	9970.26
243.764	10028.1
243.836	10009.18
243.907	10004.36
243.978	10007.11
244.05	10030.86
244.121	9993.63
244.192	10033.27
244.264	9990.16
244.335	10001.33
244.407	9953.6
244.478	9967.09
244.549	9955.77
244.62	9916.9
244.692	9920.85
244.763	9964.92
244.834	9955.62
244.906	9930.09
244.977	9945.27
245.048	9989.94
245.119	9973.27
245.191	9957.23
245.262	9905.88
245.333	9969.6
245.405	9984.53
245.476	10018.87
245.547	10026.92
245.618	10072
245.689	10076
245.761	10105.67
245.832	10108.28
245.903	10153.79
245.974	10177.11
246.045	10195.8
246.117	10275.77
246.188	10262.91
246.259	10247.3
246.33	10268.84
246.401	10282.37
246.473	10254.38
246.544	10237.94
246.615	10291.96
246.686	10299.33
246.757	10360.36
246.828	10346.19
246.899	10405.9
246.97	10378.68
247.042	10367.94
247.113	10408.03
247.184	10484.32
247.255	10486.39
247.326	10509.71
247.397	10514.19
247.468	10524.12
247.539	10530.52
247.61	10488.51
247.681	10528.15
247.752	10571.17
247.823	10552.96
247.894	10565.78
247.965	10545.07
248.037	10535.28
248.108	10484.93
248.179	10492.5
248.25	10487.48
248.321	10513.84
248.392	10474.56
248.463	10544.03
248.534	10551.31
248.605	10557.24
248.675	10534.2
248.746	10551.4
248.817	10566.67
248.888	10587.73
248.959	10538.06
249.03	10559.79
249.101	10565.76
249.172	10550.11
249.243	10491.38
249.314	10544.19
249.385	10555.85
249.456	10583.11
249.527	10580.51
249.598	10604.79
249.669	10598.48
249.739	10610.82
249.81	10626.28
249.881	10593.14
249.952	10584.46
250.023	10578.3
250.094	10542.97
250.165	10522.44
250.235	10522.44
250.306	10525.96
250.377	10500.67
250.448	10531.16
250.519	10480.28
250.59	10532.04
250.66	10532.76
250.731	10595.72
250.802	10595.67
250.873	10616.97
250.944	10631.09
251.014	10626.8
251.085	10696.44
251.156	10724.48
251.227	10767.66
251.297	10806.46
251.368	10849.68
251.439	10881.1
251.51	10928.27
251.58	10921.29
251.651	10922.4
251.722	10967.31
251.792	10932.09
251.863	10928.86
251.934	10980.9
252.005	11076.84
252.075	11079.54
252.146	11130.09
252.217	11172.26
252.287	11207.92
252.358	11206.91
252.429	11270.86
252.499	11263.39
252.57	11278.39
252.641	11317.76
252.711	11320.7
252.782	11276.94
252.852	11340.32
252.923	11345.91
252.994	11352.61
253.064	11391.83
253.135	11369.71
253.205	11348.75
253.276	11406.53
253.347	11466.09
253.417	11441.75
253.488	11427.29
253.558	11423.87
253.629	11415.14
253.699	11425.84
253.77	11449.9
253.841	11446.43
253.911	11458.14
253.982	11475.63
254.052	11497.37
254.123	11506.14
254.193	11509.28
254.264	11628.62
254.334	11596.03
254.405	11566.11
254.475	11549.04
254.546	11547.69
254.616	11606.01
254.687	11632.81
254.757	11652.04
254.827	11654.21
254.898	11684.76
254.968	11691.22
255.039	11676.14
255.109	11714.69
255.18	11688.95
255.25	11625.29
255.321	11654.59
255.391	11616.17
255.461	11686.98
255.532	11622.67
255.602	11617.66
255.673	11575.64
255.743	11556.21
255.813	11498.67
255.884	11540.84
255.954	11570.53
256.024	11633.34
256.095	11634.64
256.165	11603.07
256.235	11621.92
256.306	11610.16
256.376	11648.72
256.446	11684.15
256.517	11714.08
256.587	11747.29
256.657	11766.18
256.728	11795.58
256.798	11799.63
256.868	11797.6
256.938	11776.54
257.009	11812.69
257.079	11837.8
257.149	11916.84
257.219	11865.65
257.29	11899.67
257.36	11859.09
257.43	11887.43
257.5	11833.26
257.571	11826.8
257.641	11863.76
257.711	11833.59
257.781	11863.47
257.852	11871.67
257.922	11823.71
257.992	11831.95
258.062	11823.32
258.132	11858.51
258.202	11860.29
258.273	11872.68
258.343	11943.83
258.413	11928.74
258.483	11934.57
258.553	11921.37
258.623	11906.62
258.693	11931.39
258.764	11987.11
258.834	12045.33
258.904	12054.73
258.974	12043.41
259.044	12049.05
259.114	12073.39
259.184	12100.33
259.254	12106.02
259.324	12061.67
259.394	12098.02
259.464	12162.8
259.535	12175.24
259.605	12173.31
259.675	12163.67
259.745	12198.86
259.815	12169.5
259.885	12170.23
259.955	12261.77
260.025	12245.53
260.095	12252.85
260.165	12272.18
260.235	12330.18
260.305	12321.4
260.375	12301.3
260.445	12379.63
260.515	12433.37
260.585	12470.83
260.655	12476.76
260.725	12510.26
260.795	12544.15
260.865	12601.8
260.934	12575.72
261.004	12597.6
261.074	12606.28
261.144	12662.48
261.214	12689.82
261.284	12696.13
261.354	12733.2
261.424	12698.1
261.494	12761.58
261.564	12763.37
261.634	12790.99
261.703	12732.81
261.773	12749.2
261.843	12781.06
261.913	12780.53
261.983	12736.33
262.053	12749.34
262.123	12745.34
262.192	12716.47
262.262	12751.41
262.332	12708.17
262.402	12733.58
262.472	12738.78
262.541	12680.51
262.611	12717.97
262.681	12699.55
262.751	12733.2
262.821	12740.48
262.89	12716.18
262.96	12739.75
263.03	12807.82
263.1	12822.52
263.169	12840.07
263.239	12865.43
263.309	12919.75
263.379	12933.64
263.448	12952.73
263.518	12981.65
263.588	13003.97
263.657	13069.29
263.727	13101.1
263.797	13114.7
263.867	13116.05
263.936	13082.45
264.006	13138.27
264.076	13129.78
264.145	13128.91
264.215	13102.64
264.285	13130.5
264.354	13086.98
264.424	13067.5
264.494	13026.38
264.563	13015.63
264.633	13079.7
264.702	13104.91
264.772	13058.53
264.842	13065.91
264.911	13103.03
264.981	13064.46
265.05	13078.06
265.12	13072.13
265.19	13081.96
265.259	13122.55
265.329	13134.99
265.398	13159.24
265.468	13243.26
265.537	13239.69
265.607	13267.99
265.676	13330.08
265.746	13348.93
265.815	13405.42
265.885	13418.63
265.955	13410.15
266.024	13418.92
266.094	13370.76
266.163	13417.14
266.232	13473.59
266.302	13481.49
266.371	13489.25
266.441	13504.68
266.51	13533.65
266.58	13538.67
266.649	13523.87
266.719	13565.9
266.788	13603.65
266.858	13664.77
266.927	13606.73
266.996	13634.07
267.066	13659.9
267.135	13626.55
267.205	13664.68
267.274	13691.14
267.343	13737.47
267.413	13760.17
267.482	13805.54
267.552	13858.08
267.621	13809.3
267.69	13766.78
267.76	13784.86
267.829	13807.37
267.898	13828.87
267.968	13818.79
268.037	13850.42
268.106	13891.44
268.176	13854.37
268.245	13859.72
268.314	13858.27
268.384	13912.99
268.453	13924.32
268.522	13942.83
268.592	13995.76
268.661	13977.54
268.73	13992.38
268.799	13978.31
268.869	14040.45
268.938	14005.35
269.007	14000.53
269.076	14025.74
269.146	14074.53
269.215	14101.23
269.284	14164.24
269.353	14162.7
269.422	14169.54
269.492	14155.27
269.561	14097.95
269.63	14138.78
269.699	14140.04
269.768	14156.38
269.838	14168.19
269.907	14212.73
269.976	14187.28
270.045	14137.96
270.114	14172.72
270.183	14173.78
270.253	14201.84
270.322	14157.78
270.391	14181.4
270.46	14232.06
270.529	14270.53
270.598	14303.98
270.667	14308.61
270.736	14278.63
270.806	14304.13
270.875	14346.94
270.944	14368.77
271.013	14469.47
271.082	14491.36
271.151	14515.84
271.22	14479.02
271.289	14478.2
271.358	14477.18
271.427	14511.99
271.496	14544.82
271.565	14542.94
271.634	14568.34
271.703	14607
271.772	14666.68
271.841	14671.31
271.91	14643.16
271.979	14662.34
272.048	14640.7
272.117	14682.78
272.186	14686.49
272.255	14727.51
272.324	14766.75
272.393	14789.07
272.462	14782.03
272.531	14794.23
272.6	14801.84
272.669	14862.29
272.738	14880.8
272.807	14908.71
272.876	14893.58
272.945	15006.8
273.013	15060.07
273.082	15118.78
273.151	15100.89
273.22	15123.26
273.289	15142.25
273.358	15217.59
273.427	15227.04
273.496	15269.89
273.564	15297.22
273.633	15349.18
273.702	15326.1
273.771	15332.12
273.84	15362.92
273.909	15393.29
273.977	15423.9
274.046	15440.67
274.115	15491.86
274.184	15490.94
274.253	15507.14
274.322	15568.94
274.39	15514.57
274.459	15505.6
274.528	15458.03
274.597	15482.46
274.665	15510.42
274.734	15577.28
274.803	15583.49
274.872	15592.07
274.94	15589.28
275.009	15776.75
275.078	15767.4
275.147	15810.78
275.215	15840.37
275.284	15888.43
275.353	15897.59
275.421	15869.34
275.49	15947.08
275.559	15953.64
275.627	15974.8
275.696	15991.48
275.765	16028.25
275.833	16048.59
275.902	16089.95
275.971	16161.28
276.039	16240.72
276.108	16277.63
276.177	16306.26
276.245	16305.25
276.314	16333.54
276.383	16385.7
276.451	16241.6
276.52	16285.13
276.588	16355.11
276.657	16398.15
276.725	16403.59
276.794	16441.38
276.863	16514.74
276.931	16481.77
277	16534.11
277.068	16588.14
277.137	16666.99
277.205	16692.39
277.274	16770.71
277.342	16834.13
277.411	16811.38
277.48	16802.23
277.548	16815.62
277.617	16843.24
277.685	16865.31
277.754	16921.36
277.822	16927.39
277.89	16999.53
277.959	17021.37
278.027	17008.64
278.096	17014.96
278.164	17127.24
278.233	17132.59
278.301	17127.58
278.37	17178.04
278.438	17172.36
278.507	17227.63
278.575	17189.85
278.643	17213.08
278.712	17195.39
278.78	17184.55
278.849	17262.1
278.917	17330.53
278.985	17349.76
279.054	17390.96
279.122	17458.96
279.191	17487.06
279.259	17517.28
279.327	17495.74
279.396	17579.06
279.464	17602.05
279.532	17660.5
279.601	17679.92
279.669	17707.06
279.737	17786.72
279.806	17832.36
279.874	17898.28
279.942	17919.92
280.011	17953.32
280.079	18011.15
280.147	18094.62
280.215	18143.1
280.284	18159.48
280.352	18157.75
280.42	18218.9
280.488	18241.94
280.557	18257.12
280.625	18294.66
280.693	18330.99
280.761	18371.33
280.83	18356.63
280.898	18422.75
280.966	18395.57
281.034	18348
281.102	18356.49
281.171	18367.23
281.239	18425.78
281.307	18434.79
281.375	18434.31
281.443	18527.95
281.512	18549.25
281.58	18606.88
281.648	18601.44
281.716	18631.27
281.784	18658.78
281.852	18673.24
281.92	18695.31
281.989	18758.44
282.057	18749.48
282.125	18862.24
282.193	18895.11
282.261	18924.07
282.329	18940.65
282.397	18995.2
282.465	19042.81
282.533	19111.19
282.601	19121.79
282.67	19084.11
282.738	19091.67
282.806	19166.95
282.874	19169.89
282.942	19220.29
283.01	19232.39
283.078	19293.93
283.146	19320.82
283.214	19384.57
283.282	19432.14
283.35	19493.19
283.418	19516.33
283.486	19557.24
283.554	19521.82
283.622	19565.86
283.69	19607.12
283.758	19628.46
283.826	19681.23
283.894	19740.46
283.962	19829.28
284.03	19916.17
284.098	19972.79
284.165	20005.03
284.233	20037.7
284.301	20055.58
284.369	20067.34
284.437	20076.64
284.505	20085.7
284.573	20172.35
284.641	20177.5
284.709	20219.14
284.777	20217.65
284.845	20270.62
284.912	20342.23
284.98	20392.93
285.048	20407.05
285.116	20450.95
285.184	20525.89
285.252	20568.73
285.319	20555.1
285.387	20565.07
285.455	20549.55
285.523	20598.66
285.591	20627.77
285.659	20663.19
285.726	20734.72
285.794	20725.9
285.862	20760.98
285.93	20798.48
285.997	20816.98
286.065	20846.77
286.133	20862.09
286.201	20888.36
286.269	20879.73
286.336	20876.94
286.404	20898.86
286.472	20956.41
286.539	20943.26
286.607	20933.42
286.675	20957.18
286.743	21025.48
286.81	21041.48
286.878	21115.37
286.946	21131.08
287.013	21176.19
287.081	21199.52
287.149	21193.4
287.216	21285.98
287.284	21303.33
287.352	21344.83
287.419	21369.27
287.487	21453.33
287.555	21500.57
287.622	21530.7
287.69	21590.71
287.758	21665.61
287.825	21686.19
287.893	21702.29
287.96	21754.92
288.028	21830.6
288.096	21868.49
288.163	21903.78
288.231	21918.43
288.298	21948.75
288.366	22024
288.433	22045.26
288.501	22067.91
288.569	22118.48
288.636	22139.79
288.704	22217.45
288.771	22274.57
288.839	22288.12
288.906	22294.34
288.974	22365.55
289.041	22396.98
289.109	22398.04
289.176	22446.45
289.244	22493.02
289.311	22558.83
289.379	22623.81
289.446	22657.9
289.514	22698.93
289.581	22733.31
289.649	22773.52
289.716	22811.03
289.783	22813.25
289.851	22906.2
289.918	22954.12
289.986	23011.74
290.053	23054.46
290.121	23100.47
290.188	23138.12
290.255	23258.87
290.323	23275.32
290.39	23291.81
290.458	23346.97
290.525	23426.67
290.592	23457.83
290.66	23507.49
290.727	23518.88
290.794	23593.24
290.862	23627.49
290.929	23676.05
290.996	23722.97
291.064	23788.22
291.131	23855.6
291.198	23939.04
291.266	23966.34
291.333	23996.48
291.4	24056.15
291.468	24145.44
291.535	24151.62
291.602	24204.96
291.669	24209.02
291.737	24266.12
291.804	24296.99
291.871	24374.84
291.938	24420.09
292.006	24523.94
292.073	24581.68
292.14	24656.16
292.207	24671.94
292.275	24715.36
292.342	24774.99
292.409	24878.4
292.476	24981.92
292.543	24990.51
292.611	25024.86
292.678	25116.98
292.745	25232.54
292.812	25283.94
292.879	25299.14
292.946	25343.48
293.014	25410.8
293.081	25478.75
293.148	25554.94
293.215	25630.52
293.282	25663.82
293.349	25731.3
293.416	25710.83
293.484	25789.55
293.551	25848.44
293.618	25930.5
293.685	26032.11
293.752	26048.28
293.819	26066.73
293.886	26065.76
293.953	26133.29
294.02	26205.7
294.087	26249.79
294.154	26260.27
294.221	26337.05
294.288	26378.09
294.356	26466.67
294.423	26520.75
294.49	26528.43
294.557	26592.02
294.624	26605.4
294.691	26687.29
294.758	26725.3
294.825	26787.63
294.892	26800.29
294.959	26841.14
295.026	26886.84
295.093	26910.07
295.16	26956.81
295.226	26994.91
295.293	27096.17
295.36	27144.8
295.427	27206.65
295.494	27279.66
295.561	27348.48
295.628	27451.45
295.695	27536.81
295.762	27585.22
295.829	27656.98
295.896	27750.06
295.963	27816.85
296.03	27894.09
296.096	27965.66
296.163	28046.22
296.23	28131.61
296.297	28201.33
296.364	28242.59
296.431	28302.81
296.498	28321.07
296.564	28429.6
296.631	28483.34
296.698	28487.01
296.765	28582.82
296.832	28598.43
296.899	28607.03
296.965	28697
297.032	28673.06
297.099	28761.6
297.166	28837.94
297.233	28863.28
297.299	28888.56
297.366	28926.61
297.433	28967.99
297.5	29009.19
297.566	29048.12
297.633	29085.17
297.7	29146.77
297.767	29180.65
297.833	29242.41
297.9	29305.35
297.967	29307.82
298.033	29395.02
298.1	29509.33
298.167	29529.98
298.234	29589.41
298.3	29657.22
298.367	29683.39
298.434	29742.99
298.5	29753.3
298.567	29779.03
298.634	29820.44
298.7	29901.94
298.767	29961.98
298.834	30046.02
298.9	30083.71
298.967	30106.2
299.033	30166.55
299.1	30247.07
299.167	30338.45
299.233	30367.92
299.3	30450.51
299.366	30525.54
299.433	30593.85
299.5	30566.75
299.566	30624.72
299.633	30707.78
299.699	30778.3
299.766	30810.83
299.832	30865.19
299.899	30927.83
299.965	30996.71
300.032	31035.33
300.099	31097.78
300.165	31148.47
300.232	31176.01
300.298	31221.08
300.365	31296.98
300.431	31340.75
300.498	31359.3
300.564	31411.93
300.631	31480.05
300.697	31546.16
300.763	31582.8
300.83	31638.22
300.896	31726.49
300.963	31786.68
301.029	31828
301.096	31868.44
301.162	31941.61
301.229	31972.12
301.295	31989.17
301.361	32035.04
301.428	32073.1
301.494	32062.68
301.561	32100.08
301.627	32147.3
301.693	32185.27
301.76	32236.91
301.826	32269.56
301.892	32342.96
301.959	32394.6
302.025	32417.47
302.092	32432.87
302.158	32506.84
302.224	32528.7
302.291	32521.72
302.357	32540.96
302.423	32568.34
302.49	32580.16
302.556	32637.49
302.622	32675.47
302.688	32734.15
302.755	32814.9
302.821	32876.52
302.887	32954.08
302.954	33001.72
303.02	33059.87
303.086	33114.68
303.152	33149.67
303.219	33182.91
303.285	33231.29
303.351	33291.94
303.417	33341.52
303.483	33378.59
303.55	33394.68
303.616	33429.83
303.682	33491.85
303.748	33518.75
303.815	33598.5
303.881	33676.88
303.947	33684.5
304.013	33726.09
304.079	33761.76
304.145	33734.42
304.212	33766.65
304.278	33771.21
304.344	33787.55
304.41	33792.39
304.476	33814.74
304.542	33824.58
304.608	33871.17
304.674	33855.85
304.741	33880.24
304.807	33927.08
304.873	33963.49
304.939	34047.67
305.005	34030.7
305.071	34058.92
305.137	34111.91
305.203	34075.24
305.269	34097.46
305.335	34168.65
305.401	34198.86
305.467	34223.35
305.533	34291.87
305.599	34344.68
305.666	34419.83
305.732	34460.47
305.798	34534.38
305.864	34638.37
305.93	34705.49
305.996	34739.88
306.062	34787.5
306.128	34805.4
306.194	34801.76
306.259	34838.28
306.325	34847.94
306.391	34924.86
306.457	34986.94
306.523	35027.87
306.589	35140.66
306.655	35168.7
306.721	35149.73
306.787	35158.02
306.853	35222.16
306.919	35207.56
306.985	35235.5
307.051	35253.59
307.117	35264.7
307.183	35275.95
307.248	35232.38
307.314	35271.39
307.38	35305.55
307.446	35351.44
307.512	35353.67
307.578	35398.59
307.644	35432.89
307.709	35459.97
307.775	35479.18
307.841	35490.78
307.907	35519.99
307.973	35489.66
308.039	35506.15
308.104	35558.4
308.17	35599.69
308.236	35607.21
308.302	35648.1
308.368	35647.28
308.433	35672.75
308.499	35698.56
308.565	35704.33
308.631	35747.95
308.696	35717.24
308.762	35725.93
308.828	35741.7
308.894	35727.19
308.959	35712.4
309.025	35719.29
309.091	35728.89
309.156	35734.77
309.222	35779.95
309.288	35773.2
309.354	35743.85
309.419	35778.01
309.485	35767.77
309.551	35805.19
309.616	35781.32
309.682	35802.47
309.748	35812.76
309.813	35830.18
309.879	35848.08
309.945	35847.6
310.01	35865.46
310.076	35906.56
310.141	35919.22
310.207	35921.36
310.273	35967.11
310.338	36023.3
310.404	36003.31
310.469	36005.64
310.535	36016.07
310.601	35984.48
310.666	36036.46
310.732	36095.36
310.797	36095.07
310.863	36100.26
310.928	36105.26
310.994	36145.83
311.059	36179.52
311.125	36205.14
311.191	36258.05
311.256	36257.42
311.322	36303.71
311.387	36267.7
311.453	37006.78
311.518	36993.44
311.584	37013.77
311.649	37053.77
311.715	37038.96
311.78	37081.76
311.846	37093.46
311.911	37128.21
311.976	37164.22
312.042	37152.82
312.107	37153.64
312.173	37159.76
312.238	37179.07
312.304	37210.29
312.369	37219.22
312.434	37210.92
312.5	37221.4
312.565	37170.38
312.631	37207.32
312.696	37205.96
312.761	37248.86
312.827	36540.6
312.892	36653.28
312.958	36683.23
313.023	36701.87
313.088	36726.87
313.154	36717.01
313.219	36717.16
313.284	36715.56
313.35	36729.44
313.415	36726.62
313.48	36740.85
313.546	36772.59
313.611	36824.49
313.676	36811.62
313.741	36818.42
313.807	36859.83
313.872	36896.48
313.937	36939.24
314.003	36992.11
314.068	37028.32
314.133	37071.68
314.198	37076.19
314.264	37043.46
314.329	37037.68
314.394	37059.82
314.459	37081.81
314.525	37158.61
314.59	37187.88
314.655	37191.18
314.72	37241.97
314.785	37271
314.851	37277.99
314.916	37255.27
314.981	37237.74
315.046	37246.28
315.111	37233.57
315.176	37224.78
315.242	37252.45
315.307	37274.79
315.372	37253.91
315.437	37252.45
315.502	37247.84
315.567	37300.43
315.632	37292.85
315.698	37332.67
315.763	37345.83
315.828	37346.21
315.893	37348.59
315.958	37351.17
316.023	37351.65
316.088	37311.79
316.153	37268.1
316.218	37265.09
316.283	37221.51
316.348	37187.43
316.413	37188.79
316.479	37166.66
316.544	37082.89
316.609	37011.82
316.674	36912.32
316.739	36813.8
316.804	36723.87
316.869	36616.46
316.934	36506.17
316.999	36400.47
317.064	36229.64
317.129	36092.43
317.194	35964.92
317.259	35813.79
317.324	35664.46
317.389	35510.72
317.454	35388
317.518	35274.01
317.583	35178.08
317.648	35088.25
317.713	34971.49
317.778	34768.35
317.843	34663.19
317.908	34536.3
317.973	34395.35
318.038	34296.08
318.103	34158.79
318.168	34038.63
318.233	33918.79
318.297	33729.24
318.362	33584.73
318.427	33444.34
318.492	33324.51
318.557	33159.97
318.622	33033.8
318.687	32920.76
318.751	32769.05
318.816	32619.17
318.881	32476.17
318.946	32272.01
319.011	32092.84
319.075	31911.12
319.14	31775.54
319.205	31586.38
319.27	31435.18
319.335	31251.25
319.399	31066.68
319.464	30923.3
319.529	30708.37
319.594	30530.93
319.658	30394.72
319.723	30213.9
319.788	30069.63
319.853	29856.78
319.917	29698.21
319.982	29476.53
320.047	29294.66
320.112	29152.11
320.176	28935.29
320.241	28774.22
320.306	28612.03
320.37	28437
320.435	28281.89
320.5	28120.6
320.564	27947.79
320.629	27754.87
320.694	27585.38
320.758	27399.23
320.823	27205.28
320.888	27063.48
320.952	26861.75
321.017	26672.23
321.082	26480.41
321.146	26301.5
321.211	26123.93
321.275	25937.77
321.34	25741.59
321.405	25543.36
321.469	25333.23
321.534	25141.87
321.598	24913.58
321.663	24751.71
321.727	24579.61
321.792	24362.99
321.857	24163.79
321.921	23972.58
321.986	23772.25
322.05	23534.11
322.115	23338.64
322.179	23132.26
322.244	22887.12
322.308	22713.1
322.373	22497.72
322.437	22312.06
322.502	22158.63
322.566	21954.52
322.631	21774.37
322.695	21587.98
322.76	21378.98
322.824	21199.39
322.889	20995.28
322.953	20787.36
323.018	20515.52
323.082	20247.4
323.146	20023.2
323.211	19785.36
323.275	19566.81
323.34	19356.54
323.404	19167.34
323.468	18945.8
323.533	18733.81
323.597	18526.05
323.662	18290.44
323.726	18095.31
323.79	17876.23
323.855	17594.82
323.919	17368.07
323.983	17152.79
324.048	16834.49
324.112	16959.41
324.177	16288.75
324.241	15405.36
324.305	14534.32
324.37	13681.06
324.434	12855.41
324.498	12621.27
324.562	12367.01
324.627	12076.51
324.691	11786.55
324.755	11467.74
324.82	11107.91
324.884	10721.61
324.948	10323.61
325.012	9841.57
325.077	9252
