Data from 20250626_urea_1M_exp2_MAYP1162681_09-23-58-898.txt Node
Date: Fri Jun 27 09:23:58 BST 2025
User: adleo
Spectrometer: MAYP116268
Trigger mode: 0
Integration Time (sec): 3.000000E0
Scans to average: 1
Electric dark correction enabled: true
Nonlinearity correction enabled: true
Boxcar width: 10
XAxis mode: Wavelengths
Number of Pixels in Spectrum: 2068
>>>>>Begin Spectral Data<<<<<
179.565	3059.49
179.642	3222.17
179.718	3341.34
179.795	3459.14
179.871	3549.78
179.948	3600.82
180.024	3660.8
180.101	3726.19
180.177	3762.9
180.254	3829.41
180.33	3887.05
180.407	4099.47
180.483	4339.45
180.56	4580.8
180.636	4803.49
180.712	4773.12
180.789	4796.01
180.865	4828.79
180.942	4852.44
181.018	4879.63
181.095	4916.33
181.171	4931.03
181.248	4933.42
181.324	4974.91
181.4	4990.58
181.477	5022.2
181.553	5056.13
181.63	5113.77
181.706	5155.6
181.782	5186.33
181.859	5187.58
181.935	5210
182.011	5202.24
182.088	5250.26
182.164	5301.37
182.24	5336.96
182.317	5360.48
182.393	5357.13
182.469	5390
182.546	5421.82
182.622	5440.41
182.698	5433.98
182.775	5469.36
182.851	5502.77
182.927	5481.05
183.003	5466.59
183.08	5448.95
183.156	5475.98
183.232	5465
183.308	5438.64
183.385	5455.79
183.461	5499.75
183.537	5499.04
183.613	5530.58
183.69	5501.76
183.766	5473.13
183.842	5494.08
183.918	5511
183.995	5542.06
184.071	5557.45
184.147	5547.19
184.223	5517.78
184.299	5549.28
184.375	5515.63
184.452	5535.93
184.528	5651.04
184.604	5682.95
184.68	5720.29
184.756	5742.07
184.832	5754.25
184.908	5763.55
184.985	5767.19
185.061	5721.93
185.137	5746.92
185.213	5716.19
185.289	5719.98
185.365	5701.72
185.441	5692.51
185.517	5729.45
185.593	5722.98
185.669	5713.29
185.745	5741.78
185.822	5782.94
185.898	5758.38
185.974	5782.39
186.05	5759.27
186.126	5689.24
186.202	5671.74
186.278	5655.34
186.354	5628.81
186.43	5644.22
186.506	5641
186.582	5632.67
186.658	5653.7
186.734	5599.11
186.81	5609.12
186.886	5617.18
186.962	5651.84
187.038	5646.08
187.114	5624.3
187.19	5643.33
187.266	5621.19
187.341	5620.23
187.417	5599.71
187.493	5599.38
187.569	5608.87
187.645	5590.61
187.721	5560.73
187.797	5582.97
187.873	5592.61
187.949	5575.45
188.025	5561.63
188.101	5571.65
188.176	5587.95
188.252	5574.29
188.328	5596.9
188.404	5592.63
188.48	5580.41
188.556	5553.27
188.632	5552.22
188.707	5548.09
188.783	5546.22
188.859	5529.03
188.935	5500.64
189.011	5523.89
189.086	5504.91
189.162	5478.02
189.238	5476.24
189.314	5470.06
189.39	5448.39
189.465	5432.14
189.541	5477.88
189.617	5440.2
189.693	5421.56
189.768	5436.05
189.844	5502.01
189.92	5478.25
189.996	5502.75
190.071	5532.9
190.147	5534.87
190.223	5558.85
190.298	5542.64
190.374	5506.21
190.45	5542.29
190.526	5562.91
190.601	5548.52
190.677	5554.51
190.753	5636.56
190.828	5646.01
190.904	5685.14
190.98	5725.66
191.055	5754.2
191.131	5733.33
191.207	5784.49
191.282	5812.86
191.358	5780.55
191.433	5742.2
191.509	5779.38
191.585	5771.71
191.66	5773.05
191.736	5800.05
191.811	5775.54
191.887	5818.48
191.963	5881.69
192.038	5892.05
192.114	5895.65
192.189	5908.16
192.265	5902.99
192.34	5835.65
192.416	5831.24
192.491	5824.42
192.567	5836.61
192.642	5841.6
192.718	5840.98
192.793	5811.72
192.869	5799.35
192.944	5804.34
193.02	5827.08
193.095	5835.95
193.171	5851.83
193.246	5846.79
193.322	5832.74
193.397	5833.6
193.473	5797.57
193.548	5751.27
193.624	5764.66
193.699	5761.2
193.775	5798.49
193.85	5797.67
193.925	5828.33
194.001	5826.41
194.076	5799.79
194.152	5768.46
194.227	5746.87
194.302	5721.18
194.378	5728.18
194.453	5722.34
194.529	5756.48
194.604	5712.6
194.679	5701.71
194.755	5650.81
194.83	5685.89
194.905	5676.68
194.981	5697.93
195.056	5680.29
195.131	5697.26
195.207	5689.87
195.282	5662.59
195.357	5612.51
195.433	5656.43
195.508	5622.61
195.583	5647.45
195.659	5685.96
195.734	5705.44
195.809	5708.51
195.884	5731.85
195.96	5732.19
196.035	5771.03
196.11	5766.04
196.185	5797.07
196.261	5799.18
196.336	5882.14
196.411	5840.73
196.486	5861.3
196.561	5843.7
196.637	5865.47
196.712	5904.68
196.787	5919.46
196.862	5965.07
196.937	5992.98
197.013	6012.47
197.088	6040.62
197.163	6096.98
197.238	6143.28
197.313	6135.17
197.388	6175.1
197.464	6255.13
197.539	6292.61
197.614	6273.66
197.689	6300.68
197.764	6347.01
197.839	6401.72
197.914	6388.28
197.989	6454.38
198.065	6491.53
198.14	6631.2
198.215	6706.05
198.29	6739.16
198.365	6773.83
198.44	6798.65
198.515	6873.88
198.59	6910.34
198.665	6977.53
198.74	6993.1
198.815	6996.23
198.89	7063.9
198.965	7136.43
199.04	7123.88
199.115	7162.55
199.19	7278.81
199.265	7294.37
199.34	7324.56
199.415	7413.99
199.49	7469.38
199.565	7491.3
199.64	7555.28
199.715	7547.58
199.79	7559.4
199.865	7573.39
199.94	7570.22
200.015	7659.17
200.09	7674.08
200.165	7685.57
200.24	7707.45
200.315	7815.62
200.39	7861.12
200.464	7881.6
200.539	7891.89
200.614	7935.88
200.689	7995.71
200.764	8011.45
200.839	8056.82
200.914	8065.58
200.989	8037.62
201.063	8076.53
201.138	8028.53
201.213	8032.67
201.288	7980.59
201.363	7992.66
201.438	7990.35
201.512	8031.78
201.587	7976.95
201.662	7987.1
201.737	8026.49
201.812	8045.39
201.886	7962.8
201.961	7984.36
202.036	7947.78
202.111	7936.13
202.186	7853.44
202.26	7805.29
202.335	7748.15
202.41	7730.22
202.485	7682.59
202.559	7630.9
202.634	7561.57
202.709	7589.39
202.784	7534.29
202.858	7534.24
202.933	7488.29
203.008	7471.56
203.082	7422.78
203.157	7426.05
203.232	7310.47
203.306	7251.32
203.381	7165.23
203.456	7101.6
203.53	7039.83
203.605	6990.08
203.68	6924.95
203.754	6911.57
203.829	6866.5
203.904	6813.42
203.978	6778.25
204.053	6787.71
204.127	6755.06
204.202	6745.79
204.277	6697.77
204.351	6677.07
204.426	6657.51
204.5	6639.02
204.575	6543.47
204.65	6563.02
204.724	6537.79
204.799	6561.92
204.873	6550.05
204.948	6542.08
205.022	6511.22
205.097	6484.17
205.171	6519.84
205.246	6542.18
205.32	6541.6
205.395	6546.07
205.469	6523.47
205.544	6545.52
205.618	6499.77
205.693	6528.72
205.767	6498.62
205.842	6555.49
205.916	6539.07
205.991	6507.52
206.065	6519.14
206.14	6564.41
206.214	6557.25
206.289	6538.67
206.363	6565.02
206.438	6574.3
206.512	6601.48
206.586	6648.72
206.661	6673.08
206.735	6612.04
206.81	6616.13
206.884	6653.04
206.958	6618.09
207.033	6661.96
207.107	6671.67
207.181	6764.15
207.256	6746.86
207.33	6798.39
207.405	6831.61
207.479	6883.05
207.553	6905.71
207.628	6860.93
207.702	6893.1
207.776	6868.36
207.851	6882.34
207.925	6924.25
207.999	6909.79
208.073	6900.42
208.148	6908.49
208.222	6880.38
208.296	6966.79
208.371	7009.73
208.445	7043.85
208.519	7123.48
208.593	7152.45
208.668	7144.91
208.742	7148.61
208.816	7156.24
208.89	7189.56
208.965	7187.15
209.039	7208.5
209.113	7252.85
209.187	7310.65
209.261	7302.63
209.336	7355.3
209.41	7401.44
209.484	7405.72
209.558	7475.71
209.632	7508.24
209.707	7539.2
209.781	7593.85
209.855	7635.54
209.929	7678.76
210.003	7695.59
210.077	7689.96
210.151	7819.51
210.226	7913.61
210.3	7982.06
210.374	8047.81
210.448	8062.82
210.522	8090.92
210.596	8118.38
210.67	8140.36
210.744	8270.94
210.818	8358.11
210.892	8414.88
210.966	8400.79
211.041	8442.98
211.115	8430
211.189	8501.97
211.263	8547.53
211.337	8565.52
211.411	8604.36
211.485	8587.36
211.559	8613.63
211.633	8624.16
211.707	8542.27
211.781	8558.83
211.855	8466.15
211.929	8441.38
212.003	8390.22
212.077	8413.86
212.151	8448.51
212.225	8483.63
212.299	8451.66
212.373	8417.02
212.447	8407.15
212.52	8478.07
212.594	8488.18
212.668	8518.25
212.742	8469.6
212.816	8451.7
212.89	8438.37
212.964	8428.84
213.038	8438.37
213.112	8470.33
213.186	8500.64
213.26	8440.3
213.333	8309.98
213.407	8323.11
213.481	8330.61
213.555	8357
213.629	8322.2
213.703	8270.18
213.777	8256.95
213.85	8193.81
213.924	8281.85
213.998	8278.33
214.072	8260.91
214.146	8213.61
214.219	8199.65
214.293	8190.52
214.367	8191.67
214.441	8209.86
214.515	8174.54
214.588	8099.4
214.662	7997.53
214.736	7934.01
214.81	7950.74
214.883	7968.85
214.957	7929.24
215.031	7885.65
215.105	7814.07
215.178	7760.99
215.252	7735.84
215.326	7661.98
215.4	7603.74
215.473	7458.18
215.547	7389.89
215.621	7339.47
215.694	7340.19
215.768	7262.08
215.842	7209.41
215.915	7151.9
215.989	7063.54
216.063	7016.71
216.136	7002.82
216.21	6991.2
216.284	7003.89
216.357	6983.66
216.431	6954.11
216.504	6951.09
216.578	6991.7
216.652	7001.39
216.725	6992.45
216.799	6995.87
216.873	6973.34
216.946	6975.84
217.02	6949.48
217.093	6929.84
217.167	6853.89
217.24	6789.16
217.314	6761.99
217.387	6723.4
217.461	6686.76
217.535	6705.35
217.608	6662.13
217.682	6645.36
217.755	6647.95
217.829	6602.37
217.902	6588.49
217.976	6574.95
218.049	6539.42
218.123	6479.31
218.196	6477.97
218.27	6443.1
218.343	6390.02
218.417	6392.28
218.49	6372.98
218.563	6405.24
218.637	6410.04
218.71	6467.77
218.784	6487.22
218.857	6511.89
218.931	6527.87
219.004	6533.53
219.077	6547.23
219.151	6557.26
219.224	6552.79
219.298	6549.57
219.371	6585.79
219.444	6553.63
219.518	6558.05
219.591	6567.26
219.665	6655.17
219.738	6665.83
219.811	6650.95
219.885	6686.01
219.958	6705.8
220.031	6714.82
220.105	6731.87
220.178	6734.57
220.251	6711.5
220.325	6727.7
220.398	6737.78
220.471	6756.5
220.544	6790.7
220.618	6774.46
220.691	6797.95
220.764	6809.52
220.838	6831.04
220.911	6820.42
220.984	6890.3
221.057	6922.33
221.131	6940.53
221.204	6858.63
221.277	6915.52
221.35	7018.82
221.424	7011.18
221.497	7025.16
221.57	7042.07
221.643	7064.46
221.716	7099.55
221.79	7109.35
221.863	7114.68
221.936	7126.55
222.009	7138.84
222.082	7157.4
222.155	7160.95
222.229	7211.38
222.302	7235.16
222.375	7244.97
222.448	7275.68
222.521	7279.04
222.594	7281.59
222.667	7263.73
222.74	7311.77
222.814	7304.08
222.887	7286.72
222.96	7325.41
223.033	7359.35
223.106	7376.89
223.179	7404.59
223.252	7409.01
223.325	7426.84
223.398	7440.21
223.471	7466.16
223.544	7479.66
223.617	7491.73
223.69	7509.65
223.763	7480.04
223.837	7498.88
223.91	7523.74
223.983	7487.89
224.056	7456.08
224.129	7476.07
224.202	7522.43
224.275	7516.61
224.348	7494.65
224.42	7475.8
224.493	7434.37
224.566	7412.3
224.639	7429.45
224.712	7401.08
224.785	7395.69
224.858	7393.53
224.931	7381.71
225.004	7344.37
225.077	7346.82
225.15	7272.29
225.223	7271.91
225.296	7336.55
225.369	7287.25
225.442	7260.13
225.514	7268.3
225.587	7288.29
225.66	7286.75
225.733	7286.03
225.806	7286.27
225.879	7278.72
225.952	7247.4
226.025	7287.14
226.097	7329.28
226.17	7321.15
226.243	7268.5
226.316	7263.74
226.389	7262.87
226.461	7277.82
226.534	7294.78
226.607	7291.47
226.68	7353.34
226.753	7348.83
226.825	7284.76
226.898	7327.57
226.971	7327.24
227.044	7350.11
227.117	7356.41
227.189	7370.59
227.262	7397.47
227.335	7414.87
227.407	7410.6
227.48	7431.79
227.553	7440.3
227.626	7429.52
227.698	7440.29
227.771	7478.76
227.844	7464.06
227.916	7485.74
227.989	7461.8
228.062	7460.45
228.134	7528.35
228.207	7529.75
228.28	7523.84
228.352	7530.81
228.425	7541
228.498	7579.8
228.57	7566.35
228.643	7612.99
228.716	7616.12
228.788	7612.27
228.861	7606.07
228.934	7659.91
229.006	7670.96
229.079	7670.63
229.151	7651.34
229.224	7619.24
229.296	7636.01
229.369	7721.21
229.442	7756.9
229.514	7739.22
229.587	7774.17
229.659	7712.75
229.732	7733.48
229.804	7765.21
229.877	7831.69
229.949	7856.18
230.022	7892.65
230.094	7888.28
230.167	7875.39
230.239	7839.86
230.312	7824.13
230.384	7879.85
230.457	7878.88
230.529	7887.87
230.602	7886.67
230.674	7898.94
230.747	7928.54
230.819	7949.36
230.892	7853.12
230.964	7848.69
231.037	7875.79
231.109	7871.8
231.181	7902.52
231.254	7870.55
231.326	7862.66
231.399	7837.68
231.471	7814.16
231.544	7754.41
231.616	7796.72
231.688	7806.05
231.761	7800.33
231.833	7793.31
231.905	7728.56
231.978	7729.14
232.05	7715.73
232.122	7727.37
232.195	7704.57
232.267	7735.64
232.339	7718.47
232.412	7773.71
232.484	7753.21
232.556	7729.86
232.629	7785.43
232.701	7797.84
232.773	7799
232.846	7787.22
232.918	7800.07
232.99	7815.89
233.062	7849.75
233.135	7857.11
233.207	7824.93
233.279	7860.74
233.351	7887.24
233.424	7891.61
233.496	7863.92
233.568	7934.96
233.64	7897.74
233.713	7912.12
233.785	7911.11
233.857	7929.43
233.929	7882.94
234.001	7938.14
234.074	7989.43
234.146	7931.26
234.218	7925.82
234.29	7927.7
234.362	7914.58
234.434	7875.22
234.507	7848.05
234.579	7799.96
234.651	7779.43
234.723	7807.85
234.795	7819.06
234.867	7812.23
234.939	7856.63
235.012	7871.91
235.084	7868.59
235.156	7907.11
235.228	7891.39
235.3	7881.57
235.372	7887.78
235.444	7941.06
235.516	7868.84
235.588	7872.83
235.66	7881.97
235.732	7863.07
235.804	8024.58
235.876	8064.91
235.948	8120.78
236.02	8127.84
236.092	8147.46
236.164	8161.36
236.236	8158.47
236.308	8156.45
236.38	8185.36
236.452	8163.23
236.524	8187.37
236.596	8240.92
236.668	8263.39
236.74	8284.98
236.812	8300.08
236.884	8330.59
236.956	8341.9
237.028	8343.25
237.1	8329.83
237.172	8390.32
237.244	8457.58
237.316	8364.86
237.388	8357.17
237.46	8334.59
237.532	8393.25
237.604	8384.64
237.675	8443.69
237.747	8474.44
237.819	8462.61
237.891	8460.35
237.963	8457.41
238.035	8447.6
238.107	8358.16
238.178	8409.24
238.25	8419.73
238.322	8497.86
238.394	8465.72
238.466	8457.01
238.538	8489.81
238.609	8524.25
238.681	8482.57
238.753	8458.22
238.825	8469.68
238.897	8496.04
238.968	8558.58
239.04	8535.23
239.112	8630.9
239.184	8602.49
239.255	8604.52
239.327	8634.96
239.399	8649.64
239.471	8687.22
239.542	8719.75
239.614	8768.4
239.686	8700.33
239.758	8742.63
239.829	8713.06
239.901	8763.02
239.973	8779.58
240.044	8812.64
240.116	8826.89
240.188	8836.37
240.259	8853.5
240.331	8849.31
240.403	8875.25
240.474	8831.68
240.546	8820.27
240.618	8770.54
240.689	8767.99
240.761	8787.97
240.833	8838.32
240.904	8841.4
240.976	8844.72
241.048	8857.87
241.119	8892.29
241.191	8935.47
241.262	8987.43
241.334	8993.11
241.405	8990.95
241.477	8993.55
241.549	8998.75
241.62	9013.67
241.692	9053.29
241.763	9100.14
241.835	9114.54
241.906	9124.6
241.978	9104.82
242.049	9166.38
242.121	9211.1
242.192	9263.34
242.264	9230.65
242.335	9197.1
242.407	9229.5
242.478	9228.39
242.55	9247.51
242.621	9236.33
242.693	9230.27
242.764	9219.81
242.836	9215.72
242.907	9243.6
242.979	9267.43
243.05	9287.51
243.122	9307.98
243.193	9301.48
243.264	9248.56
243.336	9256.21
243.407	9285.3
243.479	9352.85
243.55	9369.76
243.622	9384.44
243.693	9381.51
243.764	9447.42
243.836	9430.48
243.907	9426.68
243.978	9433.18
244.05	9454.22
244.121	9412.39
244.192	9445.23
244.264	9404.58
244.335	9416.38
244.407	9367.99
244.478	9380.85
244.549	9365.97
244.62	9333.42
244.692	9332.6
244.763	9366.73
244.834	9354.65
244.906	9341.64
244.977	9348.15
245.048	9390.79
245.119	9368.06
245.191	9349.8
245.262	9291.16
245.333	9356.97
245.405	9369.78
245.476	9403.91
245.547	9412.63
245.618	9458.9
245.689	9464.73
245.761	9490.01
245.832	9499.74
245.903	9540.37
245.974	9563.2
246.045	9579.38
246.117	9645.6
246.188	9636.12
246.259	9625.23
246.33	9641.27
246.401	9647
246.473	9625.08
246.544	9606.68
246.615	9658.26
246.686	9668.42
246.757	9730.78
246.828	9708.96
246.899	9766.82
246.97	9735.76
247.042	9727.29
247.113	9758.6
247.184	9830.77
247.255	9834.53
247.326	9855.48
247.397	9865.12
247.468	9874.99
247.539	9882.26
247.61	9844.84
247.681	9877.05
247.752	9920.06
247.823	9897.43
247.894	9912.41
247.965	9886.98
248.037	9873.88
248.108	9829.81
248.179	9831.54
248.25	9823.69
248.321	9840.98
248.392	9806.09
248.463	9870.97
248.534	9872.41
248.605	9892.55
248.675	9871.73
248.746	9890.23
248.817	9903.82
248.888	9919.18
248.959	9872.22
249.03	9893.23
249.101	9893.71
249.172	9883.83
249.243	9821.14
249.314	9876.09
249.385	9884.76
249.456	9917.94
249.527	9914.13
249.598	9934.17
249.669	9939.46
249.739	9944.57
249.81	9963.02
249.881	9927.38
249.952	9915.48
250.023	9911.53
250.094	9869.95
250.165	9843.88
250.235	9832.9
250.306	9831.89
250.377	9806.22
250.448	9829.43
250.519	9778.62
250.59	9835.99
250.66	9840.13
250.731	9901.97
250.802	9896.67
250.873	9907.84
250.944	9921.76
251.014	9916.42
251.085	9985.17
251.156	9997.02
251.227	10039.85
251.297	10079.7
251.368	10122.03
251.439	10161.3
251.51	10202.54
251.58	10194.78
251.651	10197.19
251.722	10247.16
251.792	10207.7
251.863	10207.46
251.934	10258.53
252.005	10353.52
252.075	10355.69
252.146	10394.37
252.217	10428.34
252.287	10472.19
252.358	10481.77
252.429	10541.48
252.499	10542.2
252.57	10557.57
252.641	10597.85
252.711	10605.36
252.782	10570.29
252.852	10631.29
252.923	10630.23
252.994	10646.86
253.064	10681.59
253.135	10655.91
253.205	10635.58
253.276	10699.03
253.347	10760.88
253.417	10743.92
253.488	10726.09
253.558	10721.42
253.629	10715.3
253.699	10730.82
253.77	10748.22
253.841	10736.56
253.911	10744.22
253.982	10757.56
254.052	10774.82
254.123	10783.3
254.193	10785.71
254.264	10892.98
254.334	10864.36
254.405	10838.34
254.475	10808.51
254.546	10814
254.616	10865.8
254.687	10887.24
254.757	10902.08
254.827	10892.54
254.898	10909.6
254.968	10919.38
255.039	10899.05
255.109	10933.21
255.18	10902.47
255.25	10842.09
255.321	10869.7
255.391	10837.36
255.461	10909.64
255.532	10851.71
255.602	10848.39
255.673	10802.13
255.743	10779.43
255.813	10725.52
255.884	10763.73
255.954	10791.24
256.024	10846.42
256.095	10849.8
256.165	10823.44
256.235	10838.91
256.306	10826.43
256.376	10861.8
256.446	10889.47
256.517	10920.06
256.587	10960.26
256.657	10989.31
256.728	11009.31
256.798	11014.47
256.868	11013.45
256.938	10981.55
257.009	11008.73
257.079	11033.98
257.149	11115.47
257.219	11063.66
257.29	11095.4
257.36	11048.76
257.43	11076.95
257.5	11020.04
257.571	11018.4
257.641	11055.89
257.711	11030.3
257.781	11060.22
257.852	11077.72
257.922	11033.58
257.992	11039.74
258.062	11024.18
258.132	11055.31
258.202	11059.74
258.273	11075.31
258.343	11136.95
258.413	11126.98
258.483	11133.72
258.553	11106.69
258.623	11085.87
258.693	11109
258.764	11164.08
258.834	11224.46
258.904	11240.75
258.974	11234.39
259.044	11240.8
259.114	11254.53
259.184	11281.33
259.254	11288.32
259.324	11245.95
259.394	11285.9
259.464	11344.37
259.535	11355.21
259.605	11343.89
259.675	11342.2
259.745	11370.78
259.815	11348.27
259.885	11349.91
259.955	11442.85
260.025	11439.18
260.095	11454.94
260.165	11484.68
260.235	11532.31
260.305	11518.18
260.375	11498.47
260.445	11571.86
260.515	11626.23
260.585	11667.88
260.655	11675.44
260.725	11712.36
260.795	11745.43
260.865	11800.13
260.934	11768.03
261.004	11785.77
261.074	11789.14
261.144	11833.53
261.214	11859.99
261.284	11855.85
261.354	11887.41
261.424	11854.05
261.494	11913.24
261.564	11913.67
261.634	11934.2
261.703	11878.53
261.773	11903.26
261.843	11929.33
261.913	11922.68
261.983	11876.02
262.053	11893.67
262.123	11888.41
262.192	11856.89
262.262	11881.67
262.332	11840.79
262.402	11872.84
262.472	11886.87
262.541	11843.6
262.611	11885.19
262.681	11869.91
262.751	11909.49
262.821	11913.92
262.89	11892.56
262.96	11916.67
263.03	11974.85
263.1	11995.19
263.169	12014.13
263.239	12036.01
263.309	12083.01
263.379	12116.66
263.448	12140.18
263.518	12157.87
263.588	12180.91
263.657	12244.44
263.727	12276.83
263.797	12284.35
263.867	12285.89
263.936	12257.89
264.006	12304.88
264.076	12293.26
264.145	12287.19
264.215	12269.45
264.285	12309.55
264.354	12272.44
264.424	12266.65
264.494	12233.34
264.563	12219.41
264.633	12276.1
264.702	12294.08
264.772	12257.73
264.842	12251.42
264.911	12272.82
264.981	12239.32
265.05	12234.74
265.12	12224.52
265.19	12233.15
265.259	12282.56
265.329	12304.1
265.398	12321.46
265.468	12402.15
265.537	12400.32
265.607	12419.5
265.676	12465.39
265.746	12476.96
265.815	12523.77
265.885	12526.71
265.955	12521.11
266.024	12522.17
266.094	12475.03
266.163	12527.91
266.232	12578.14
266.302	12580.65
266.371	12608.03
266.441	12628.32
266.51	12673.73
266.58	12674.5
266.649	12668.19
266.719	12695.67
266.788	12725.36
266.858	12783.26
266.927	12730.37
266.996	12756.21
267.066	12786.68
267.135	12759.49
267.205	12791.69
267.274	12804.13
267.343	12848.86
267.413	12866.07
267.482	12923.87
267.552	12979.31
267.621	12942.77
267.69	12911
267.76	12936.64
267.829	12957.32
267.898	12972.32
267.968	12960.26
268.037	13001.24
268.106	13041.88
268.176	13014.83
268.245	13021
268.314	13019.9
268.384	13068.25
268.453	13089.36
268.522	13112.21
268.592	13163.6
268.661	13145.47
268.73	13174.01
268.799	13158.97
268.869	13221.54
268.938	13173.86
269.007	13168.46
269.076	13180.47
269.146	13221.44
269.215	13248.15
269.284	13301.27
269.353	13301.08
269.422	13308.7
269.492	13293.7
269.561	13229.35
269.63	13258.23
269.699	13257.12
269.768	13270.23
269.838	13283.1
269.907	13312.89
269.976	13284.74
270.045	13242.27
270.114	13280.02
270.183	13289.8
270.253	13316.31
270.322	13281.46
270.391	13306.53
270.46	13357.87
270.529	13400.39
270.598	13438.08
270.667	13443.48
270.736	13412.68
270.806	13441.46
270.875	13493.09
270.944	13516.18
271.013	13616.74
271.082	13649.85
271.151	13678.63
271.22	13644.17
271.289	13654
271.358	13657.76
271.427	13698.88
271.496	13722.69
271.565	13721.2
271.634	13737.59
271.703	13834.96
271.772	13882.16
271.841	13889.63
271.91	13872.76
271.979	13883.8
272.048	13857.86
272.117	13898.31
272.186	13905.87
272.255	13949.98
272.324	13982.14
272.393	14007.59
272.462	13996.79
272.531	14007.49
272.6	14018.92
272.669	14083.95
272.738	14090.31
272.807	14115.91
272.876	14102.51
272.945	14221.86
273.013	14271.66
273.082	14319.05
273.151	14244.33
273.22	14266.89
273.289	14288.58
273.358	14348.79
273.427	14361.18
273.496	14404.66
273.564	14432.76
273.633	14480.49
273.702	14465.93
273.771	14471.95
273.84	14490.08
273.909	14529.41
273.977	14563.64
274.046	14577.62
274.115	14628.81
274.184	14629.78
274.253	14651.13
274.322	14712.4
274.39	14658.08
274.459	14656
274.528	14619.94
274.597	14644.96
274.665	14664.49
274.734	14727.3
274.803	14735.35
274.872	14753.86
274.94	14752.8
275.009	14929.53
275.078	14925.96
275.147	14958.65
275.215	14980.87
275.284	15035.34
275.353	15041.31
275.421	15007.09
275.49	15080.65
275.559	15079.97
275.627	15105.33
275.696	15115.98
275.765	15149
275.833	15166.83
275.902	15199.52
275.971	15272.83
276.039	15342.2
276.108	15390.78
276.177	15422.93
276.245	15421.05
276.314	15440.82
276.383	15482.32
276.451	15353.31
276.52	15389.84
276.588	15451.93
276.657	15497.67
276.725	15508.9
276.794	15542.35
276.863	15619.52
276.931	15589.69
277	15640.44
277.068	15701.56
277.137	15774.87
277.205	15803.07
277.274	15886.02
277.342	15952.87
277.411	15933.5
277.48	15934.07
277.548	15945.02
277.617	15973.6
277.685	16008.16
277.754	16066.29
277.822	16089.18
277.89	16158.34
277.959	16177.72
278.027	16160.56
278.096	16164.22
278.164	16269.14
278.233	16286.2
278.301	16283.94
278.37	16342.74
278.438	16347.8
278.507	16389.11
278.575	16366.74
278.643	16397.54
278.712	16374.7
278.78	16362.89
278.849	16437.12
278.917	16500.83
278.985	16527.77
279.054	16566.42
279.122	16627.2
279.191	16648.7
279.259	16671.49
279.327	16647.2
279.396	16727.35
279.464	16758.97
279.532	16818.1
279.601	16840.08
279.669	16866.88
279.737	16940.95
279.806	16983.17
279.874	17038.4
279.942	17067.22
280.011	17090.26
280.079	17125.97
280.147	17209.2
280.215	17260.87
280.284	17270.65
280.352	17272.43
280.42	17320.63
280.488	17332.82
280.557	17348.39
280.625	17392.34
280.693	17431.33
280.761	17471.96
280.83	17463.33
280.898	17526.85
280.966	17510.41
281.034	17453.5
281.102	17450.32
281.171	17466.13
281.239	17508.73
281.307	17517.59
281.375	17526.03
281.443	17636.82
281.512	17674.22
281.58	17727.18
281.648	17716.38
281.716	17758.7
281.784	17797.15
281.852	17813.35
281.92	17850.21
281.989	17910.26
282.057	17907.27
282.125	18019.75
282.193	18052.85
282.261	18087.7
282.329	18105.72
282.397	18158.49
282.465	18208.51
282.533	18285.91
282.601	18292.46
282.67	18272.51
282.738	18295.26
282.806	18364.17
282.874	18348.03
282.942	18383.11
283.01	18401.71
283.078	18460.41
283.146	18479.15
283.214	18531.44
283.282	18574.91
283.35	18646.9
283.418	18669.94
283.486	18707.29
283.554	18666.95
283.622	18704.25
283.69	18746.03
283.758	18766.9
283.826	18818.6
283.894	18880.58
283.962	18966.07
284.03	19039.07
284.098	19084.47
284.165	19115.89
284.233	19151.07
284.301	19185.19
284.369	19205.14
284.437	19223.69
284.505	19244.07
284.573	19333.56
284.641	19342.77
284.709	19411.58
284.777	19389.71
284.845	19445.9
284.912	19500.11
284.98	19555.77
285.048	19572.97
285.116	19627.33
285.184	19705.79
285.252	19734.02
285.319	19723.76
285.387	19739.47
285.455	19734.85
285.523	19788.72
285.591	19816.14
285.659	19854.21
285.726	19916.48
285.794	19916.43
285.862	19936.23
285.93	19972.57
285.997	19989.24
286.065	20010.74
286.133	20009.48
286.201	20047.55
286.269	20046.21
286.336	20063.07
286.404	20079.26
286.472	20149.82
286.539	20129.05
286.607	20116.47
286.675	20160.71
286.743	20224.95
286.81	20242.3
286.878	20312.23
286.946	20327.89
287.013	20366.39
287.081	20388.37
287.149	20388.18
287.216	20489.38
287.284	20512.08
287.352	20553.63
287.419	20579.6
287.487	20664.09
287.555	20712.57
287.622	20746.07
287.69	20799.95
287.758	20869.16
287.825	20898.46
287.893	20901.16
287.96	20948.77
288.028	21025.07
288.096	21063.05
288.163	21102.62
288.231	21113.37
288.298	21155.15
288.366	21226.92
288.433	21253.19
288.501	21273.86
288.569	21319.22
288.636	21333.97
288.704	21412.58
288.771	21474.13
288.839	21489.94
288.906	21497.07
288.974	21560.75
289.041	21586.1
289.109	21588.8
289.176	21641.06
289.244	21683.52
289.311	21745.36
289.379	21811.88
289.446	21851.22
289.514	21884.91
289.581	21926.7
289.649	21970.33
289.716	22010.15
289.783	22020.75
289.851	22103.32
289.918	22145.4
289.986	22213.57
290.053	22255.85
290.121	22286.31
290.188	22316.06
290.255	22427.19
290.323	22456.21
290.39	22475.16
290.458	22537.92
290.525	22613.9
290.592	22637.38
290.66	22681.92
290.727	22705.11
290.794	22778.25
290.862	22809.79
290.929	22850.09
290.996	22876.8
291.064	22940.49
291.131	23003.81
291.198	23087.66
291.266	23127.78
291.333	23168.85
291.4	23203.77
291.468	23277.69
291.535	23296.93
291.602	23350.89
291.669	23361.16
291.737	23407.98
291.804	23436.05
291.871	23509.11
291.938	23566.79
292.006	23670.84
292.073	23737.72
292.14	23807.56
292.207	23821.35
292.275	23866.35
292.342	23934.5
292.409	24040.71
292.476	24136.76
292.543	24155.47
292.611	24184.32
292.678	24265.07
292.745	24377.75
292.812	24449.44
292.879	24479.3
292.946	24530.18
293.014	24606.12
293.081	24662.08
293.148	24742.25
293.215	24818.23
293.282	24839.02
293.349	24895.62
293.416	24876.66
293.484	24956.42
293.551	25013.98
293.618	25092.19
293.685	25182.38
293.752	25197.87
293.819	25228.13
293.886	25224.36
293.953	25274.69
294.02	25342.01
294.087	25387.57
294.154	25391.77
294.221	25459.16
294.288	25500.32
294.356	25584.87
294.423	25635.22
294.49	25653.84
294.557	25719.3
294.624	25747.29
294.691	25833.2
294.758	25870.66
294.825	25938.91
294.892	25948.95
294.959	25987.81
295.026	26038.55
295.093	26062.3
295.16	26108.58
295.226	26150.06
295.293	26268.9
295.36	26311.47
295.427	26377.39
295.494	26448.19
295.561	26521.57
295.628	26621.73
295.695	26701.75
295.762	26755.73
295.829	26815.87
295.896	26909.15
295.963	26973.06
296.03	27037.28
296.096	27098.67
296.163	27168.22
296.23	27249.71
296.297	27333.12
296.364	27368.33
296.431	27425.52
296.498	27461.94
296.564	27570.03
296.631	27625.44
296.698	27608.29
296.765	27714.33
296.832	27724.23
296.899	27737.47
296.965	27828.99
297.032	27807.15
297.099	27900.05
297.166	27949.67
297.233	27985.87
297.299	28005.87
297.366	28049.17
297.433	28094.45
297.5	28153.32
297.566	28205.71
297.633	28255.84
297.7	28296
297.767	28343.06
297.833	28407.69
297.9	28465.2
297.967	28464.18
298.033	28546.22
298.1	28675.55
298.167	28694.75
298.234	28749.12
298.3	28815.25
298.367	28824.82
298.434	28901.03
298.5	28904.65
298.567	28941.1
298.634	28976.3
298.7	29068.26
298.767	29109.36
298.834	29197.08
298.9	29229.67
298.967	29244.86
299.033	29294.29
299.1	29379.8
299.167	29459.97
299.233	29477.24
299.3	29545.66
299.366	29620.95
299.433	29677.7
299.5	29642.87
299.566	29695.64
299.633	29787.16
299.699	29853.87
299.766	29894.89
299.832	29934.18
299.899	29996.21
299.965	30075.3
300.032	30100.26
300.099	30152.37
300.165	30205.11
300.232	30216.05
300.298	30244.98
300.365	30315.42
300.431	30360.04
300.498	30369.43
300.564	30436.6
300.631	30516.84
300.697	30595.59
300.763	30647.02
300.83	30685.37
300.896	30768.06
300.963	30832.24
301.029	30882.11
301.096	30927.37
301.162	31007.53
301.229	31041.9
301.295	31053.27
301.361	31103.53
301.428	31161.3
301.494	31157
301.561	31210.74
301.627	31268.87
301.693	31321.63
301.76	31372.56
301.826	31396.87
301.892	31472.4
301.959	31508.19
302.025	31543.1
302.092	31562.28
302.158	31617.72
302.224	31675.75
302.291	31687.95
302.357	31712.99
302.423	31732.7
302.49	31748.2
302.556	31793.78
302.622	31821.77
302.688	31897.61
302.755	31958.17
302.821	32012.55
302.887	32079.42
302.954	32116.57
303.02	32168.49
303.086	32235.53
303.152	32267.16
303.219	32301.5
303.285	32345.35
303.351	32412.89
303.417	32446.66
303.483	32468.99
303.55	32488.22
303.616	32502.28
303.682	32547.03
303.748	32574.16
303.815	32654.99
303.881	32725.05
303.947	32729.22
304.013	32782.51
304.079	32802.77
304.145	32785.95
304.212	32825.29
304.278	32843.75
304.344	32867.64
304.41	32879.12
304.476	32887.02
304.542	32912.6
304.608	32962.85
304.674	32962.76
304.741	32985.59
304.807	33033.48
304.873	33080.87
304.939	33152.45
305.005	33151.87
305.071	33186.37
305.137	33219.95
305.203	33188.4
305.269	33209.43
305.335	33295.43
305.401	33318.26
305.467	33340.85
305.533	33406.13
305.599	33460.13
305.666	33521.25
305.732	33552.17
305.798	33621.44
305.864	33716.96
305.93	33769.75
305.996	33804.85
306.062	33848.96
306.128	33876.21
306.194	33880.62
306.259	33908.64
306.325	33923.62
306.391	33983.69
306.457	34038.18
306.523	34090.1
306.589	34195.66
306.655	34207.35
306.721	34183.73
306.787	34194.5
306.853	34263.11
306.919	34245.7
306.985	34254.72
307.051	34275.04
307.117	34291.43
307.183	34296.91
307.248	34265.29
307.314	34306.17
307.38	34347
307.446	34392.11
307.512	34388.13
307.578	34432.6
307.644	34462.61
307.709	34495.64
307.775	34515.57
307.841	34536.43
307.907	34560.24
307.973	34528.66
308.039	34567.55
308.104	34617.02
308.17	34661.49
308.236	34667.99
308.302	34723.95
308.368	34735.78
308.433	34771.48
308.499	34795.53
308.565	34815.22
308.631	34842.43
308.696	34810.95
308.762	34805.57
308.828	34821.82
308.894	34819.25
308.959	34791.99
309.025	34803.39
309.091	34824.54
309.156	34830.99
309.222	34873
309.288	34884.06
309.354	34861.22
309.419	34880
309.485	34867.19
309.551	34894.84
309.616	34889.12
309.682	34909.15
309.748	34922.88
309.813	34928.65
309.879	34937.38
309.945	34932.67
310.01	34957.03
310.076	34992.09
310.141	35012.27
310.207	35008.29
310.273	35033.46
310.338	35082.93
310.404	35067.22
310.469	35069.4
310.535	35075.66
310.601	35039.37
310.666	35069.06
310.732	35123.97
310.797	35132.32
310.863	35144.93
310.928	35151.04
310.994	35171.22
311.059	35188.2
311.125	35208.48
311.191	35274.42
311.256	35280.92
311.322	35325.5
311.387	35302.85
311.453	35987.15
311.518	35967.6
311.584	35994.24
311.649	36038.29
311.715	36041.93
311.78	36076.71
311.846	36080.64
311.911	36139.93
311.976	36178.98
312.042	36170.44
312.107	36167.72
312.173	36177.19
312.238	36190.33
312.304	36216.15
312.369	36227.55
312.434	36221.19
312.5	36237.54
312.565	36164.13
312.631	36196.24
312.696	36190.23
312.761	36230.06
312.827	35595.78
312.892	35708.85
312.958	35728.17
313.023	35749.18
313.088	35776.01
313.154	35770.72
313.219	35770.96
313.284	35762.52
313.35	35786.59
313.415	35794.88
313.48	35804.93
313.546	35842.93
313.611	35898.59
313.676	35895.48
313.741	35906.74
313.807	35955.31
313.872	35983.17
313.937	36046
314.003	36103.07
314.068	36138.26
314.133	36178.15
314.198	36171.45
314.264	36154.17
314.329	36152.23
314.394	36174.17
314.459	36184.36
314.525	36248.9
314.59	36273.11
314.655	36259.38
314.72	36286.9
314.785	36308.97
314.851	36323.05
314.916	36296.84
314.981	36280
315.046	36284.95
315.111	36282.96
315.176	36296.06
315.242	36338.24
315.307	36347.9
315.372	36315.38
315.437	36323.49
315.502	36328.25
315.567	36393
315.632	36369.26
315.698	36398.63
315.763	36410.81
315.828	36407.41
315.893	36423.82
315.958	36431.92
316.023	36437.02
316.088	36394.89
316.153	36354.28
316.218	36360.73
316.283	36325.9
316.348	36284.75
316.413	36291.93
316.479	36260.2
316.544	36156.32
316.609	36067.32
316.674	35978.53
316.739	35888.34
316.804	35798.97
316.869	35679.82
316.934	35558.26
316.999	35452.84
317.064	35302.99
317.129	35163.5
317.194	35047.77
317.259	34895.73
317.324	34731.87
317.389	34588.47
317.454	34471.1
317.518	34363.8
317.583	34266.59
317.648	34168.21
317.713	34053.88
317.778	33856.15
317.843	33748.27
317.908	33611.36
317.973	33473.83
318.038	33354.73
318.103	33226.03
318.168	33097.11
318.233	32979.84
318.297	32798.52
318.362	32661.4
318.427	32516.66
318.492	32400.61
318.557	32243.21
318.622	32121.8
318.687	32028.43
318.751	31876.4
318.816	31736.53
318.881	31597.17
318.946	31401.99
319.011	31238.1
319.075	31073.01
319.14	30934.36
319.205	30754.48
319.27	30613.72
319.335	30438.64
319.399	30271.88
319.464	30128.05
319.529	29930.29
319.594	29770.73
319.658	29632.31
319.723	29456.8
319.788	29308.4
319.853	29107.3
319.917	28948.11
319.982	28738.7
320.047	28560.33
320.112	28426.69
320.176	28230.74
320.241	28066.55
320.306	27896.15
320.37	27725.96
320.435	27572.44
320.5	27424.6
320.564	27247.22
320.629	27059.65
320.694	26897.61
320.758	26708.02
320.823	26517.39
320.888	26366.71
320.952	26160.27
321.017	25978.21
321.082	25789.15
321.146	25618.71
321.211	25435.08
321.275	25261.84
321.34	25073.42
321.405	24876.45
321.469	24673.42
321.534	24472.75
321.598	24249.73
321.663	24088.78
321.727	23904.85
321.792	23685.78
321.857	23477.31
321.921	23288.85
321.986	23086.15
322.05	22849.8
322.115	22672.17
322.179	22473.83
322.244	22243.86
322.308	22070.41
322.373	21867.84
322.437	21690.16
322.502	21538.54
322.566	21339.03
322.631	21153.46
322.695	20953.83
322.76	20748.41
322.824	20566.23
322.889	20375.38
322.953	20174.65
323.018	19907.17
323.082	19659.98
323.146	19436.51
323.211	19207.07
323.275	19003.84
323.34	18804.86
323.404	18629.54
323.468	18416.58
323.533	18200.77
323.597	17985.49
323.662	17754.74
323.726	17554.89
323.79	17334.11
323.855	17064.37
323.919	16845.85
323.983	16621.12
324.048	16311.1
324.112	16367.48
324.177	15718.74
324.241	14853.75
324.305	14008.29
324.37	13185.53
324.434	12372.18
324.498	12144.8
324.562	11895.2
324.627	11602.34
324.691	11319.32
324.755	10990.74
324.82	10624.35
324.884	10253.05
324.948	9869.87
325.012	9395.07
325.077	8814.99
