Data from 20250626_urea_1M_exp2_MAYP1162681_20-13-59-762.txt Node
Date: Thu Jun 26 20:13:59 BST 2025
User: adleo
Spectrometer: MAYP116268
Trigger mode: 0
Integration Time (sec): 3.000000E0
Scans to average: 1
Electric dark correction enabled: true
Nonlinearity correction enabled: true
Boxcar width: 10
XAxis mode: Wavelengths
Number of Pixels in Spectrum: 2068
>>>>>Begin Spectral Data<<<<<
179.565	3034.23
179.642	3196.98
179.718	3311.87
179.795	3424.86
179.871	3511.99
179.948	3566.19
180.024	3622.99
180.101	3681.3
180.177	3723.9
180.254	3783.95
180.33	3848.09
180.407	4057.58
180.483	4293.34
180.56	4533.87
180.636	4752.22
180.712	4718.79
180.789	4740.14
180.865	4771.87
180.942	4799.87
181.018	4825.53
181.095	4868.31
181.171	4878.55
181.248	4878.12
181.324	4926.37
181.4	4941.02
181.477	4972.54
181.553	5005.09
181.63	5061.33
181.706	5104.97
181.782	5131.49
181.859	5136.47
181.935	5148.11
182.011	5139.77
182.088	5185.44
182.164	5235.11
182.24	5272.03
182.317	5299.76
182.393	5292.48
182.469	5324.05
182.546	5358.46
182.622	5371.35
182.698	5362.81
182.775	5399.24
182.851	5435.28
182.927	5410.3
183.003	5402.73
183.08	5387.12
183.156	5411.08
183.232	5404.12
183.308	5380.26
183.385	5394.87
183.461	5438.59
183.537	5438.59
183.613	5476.89
183.69	5450.67
183.766	5421.75
183.842	5442.41
183.918	5461.87
183.995	5501.22
184.071	5513.25
184.147	5498.3
184.223	5470.61
184.299	5497.99
184.375	5465.64
184.452	5484.01
184.528	5589.12
184.604	5617.35
184.68	5652.86
184.756	5671.37
184.832	5680.77
184.908	5692.22
184.985	5694.67
185.061	5648.17
185.137	5677.57
185.213	5640.94
185.289	5645.49
185.365	5629.73
185.441	5624.26
185.517	5655.69
185.593	5646.48
185.669	5635.98
185.745	5664.31
185.822	5706.76
185.898	5688.92
185.974	5717.39
186.05	5696.09
186.126	5633.32
186.202	5613.48
186.278	5600.2
186.354	5575.26
186.43	5592.48
186.506	5585.82
186.582	5582.42
186.658	5603.84
186.734	5545.51
186.81	5552.36
186.886	5562.28
186.962	5593.11
187.038	5583.52
187.114	5561.3
187.19	5575.69
187.266	5554.07
187.341	5557
187.417	5536.73
187.493	5532.12
187.569	5537.93
187.645	5524.36
187.721	5494.77
187.797	5521.13
187.873	5530.77
187.949	5516.44
188.025	5501.38
188.101	5513.36
188.176	5523.95
188.252	5509.15
188.328	5533.38
188.404	5534.58
188.48	5522.45
188.556	5498.39
188.632	5499.3
188.707	5501.79
188.783	5499.97
188.859	5488.86
188.935	5455.77
189.011	5479.84
189.086	5459.85
189.162	5438.47
189.238	5432.1
189.314	5427.21
189.39	5404.54
189.465	5388.24
189.541	5432.54
189.617	5391.7
189.693	5374.02
189.768	5386.35
189.844	5456.04
189.92	5434.96
189.996	5456.05
190.071	5480.31
190.147	5476.91
190.223	5501.99
190.298	5482.95
190.374	5445.32
190.45	5474.65
190.526	5501.4
190.601	5486.34
190.677	5495.78
190.753	5569.92
190.828	5577.73
190.904	5615.18
190.98	5658.01
191.055	5687.98
191.131	5659.49
191.207	5715.63
191.282	5745.87
191.358	5718.59
191.433	5679.77
191.509	5714.89
191.585	5710
191.66	5718.92
191.736	5749.46
191.811	5720.73
191.887	5766.74
191.963	5828.84
192.038	5844.04
192.114	5840.73
192.189	5854.16
192.265	5845.05
192.34	5781.61
192.416	5779.16
192.491	5768.46
192.567	5776.96
192.642	5780.03
192.718	5787.79
192.793	5753.6
192.869	5740.85
192.944	5749.76
193.02	5769.72
193.095	5777.15
193.171	5795.47
193.246	5790.34
193.322	5774.8
193.397	5782.62
193.473	5743.56
193.548	5697.8
193.624	5712.1
193.699	5709.03
193.775	5745.06
193.85	5750.28
193.925	5779.74
194.001	5774.32
194.076	5753.75
194.152	5722.61
194.227	5700.69
194.302	5673.85
194.378	5683.78
194.453	5673.81
194.529	5706.66
194.604	5666.9
194.679	5657.7
194.755	5604.11
194.83	5633.72
194.905	5632.47
194.981	5648.3
195.056	5626.44
195.131	5640.68
195.207	5633.34
195.282	5609.23
195.357	5558.23
195.433	5598.6
195.508	5564.17
195.583	5592.21
195.659	5630.59
195.734	5647.28
195.809	5647.95
195.884	5672.44
195.96	5672.39
196.035	5715.88
196.11	5706.05
196.185	5736.64
196.261	5741.62
196.336	5822.38
196.411	5779.06
196.486	5792.15
196.561	5778.72
196.637	5801.72
196.712	5846.35
196.787	5857.39
196.862	5901.41
196.937	5929.32
197.013	5943.72
197.088	5971.68
197.163	6025.49
197.238	6070.69
197.313	6069.82
197.388	6108.01
197.464	6191.31
197.539	6227.86
197.614	6205.08
197.689	6241.12
197.764	6283.95
197.839	6337.65
197.914	6326.99
197.989	6394.9
198.065	6431.33
198.14	6565.27
198.215	6641.17
198.29	6674.71
198.365	6711.35
198.44	6733.19
198.515	6806.48
198.59	6848.6
198.665	6915.36
198.74	6932.04
198.815	6932.71
198.89	7000.82
198.965	7078.91
199.04	7067.72
199.115	7104.32
199.19	7222.15
199.265	7229.21
199.34	7255.68
199.415	7341.17
199.49	7395.12
199.565	7417.95
199.64	7482.59
199.715	7471.86
199.79	7483.25
199.865	7495.65
199.94	7490.23
200.015	7580.56
200.09	7597.92
200.165	7610.9
200.24	7629.17
200.315	7736.18
200.39	7783.11
200.464	7793.4
200.539	7795.23
200.614	7837.2
200.689	7901.35
200.764	7916.03
200.839	7957.5
200.914	7969.91
200.989	7944.89
201.063	7988.46
201.138	7946.95
201.213	7946.86
201.288	7894.25
201.363	7907.67
201.438	7905.7
201.512	7944.44
201.587	7896.19
201.662	7902.97
201.737	7940.97
201.812	7961.56
201.886	7875.84
201.961	7900.77
202.036	7868.42
202.111	7862.74
202.186	7781.54
202.26	7731.23
202.335	7674.63
202.41	7663.37
202.485	7619.64
202.559	7563.25
202.634	7487.77
202.709	7509.63
202.784	7456.75
202.858	7460.88
202.933	7414.21
203.008	7395.95
203.082	7343.14
203.157	7341.46
203.232	7225.42
203.306	7162.91
203.381	7076.68
203.456	7013.93
203.53	6946.97
203.605	6892.58
203.68	6825.34
203.754	6805.04
203.829	6766.41
203.904	6713.11
203.978	6674.28
204.053	6687.16
204.127	6661.47
204.202	6648.5
204.277	6604.47
204.351	6590.73
204.426	6570.6
204.5	6546.98
204.575	6453.11
204.65	6482.61
204.724	6455.22
204.799	6483.52
204.873	6471.8
204.948	6462.25
205.022	6432.25
205.097	6407.08
205.171	6445.62
205.246	6467.57
205.32	6465.89
205.395	6466.95
205.469	6443.06
205.544	6459.44
205.618	6410.8
205.693	6439.61
205.767	6411.63
205.842	6466.81
205.916	6443.15
205.991	6415.92
206.065	6431.29
206.14	6474.87
206.214	6457.72
206.289	6438.13
206.363	6464.29
206.438	6474.38
206.512	6503.48
206.586	6556.09
206.661	6584.97
206.735	6522.98
206.81	6526.87
206.884	6572.66
206.958	6537.29
207.033	6582.73
207.107	6607
207.181	6691.84
207.256	6672.34
207.33	6718.71
207.405	6753.19
207.479	6808.89
207.553	6828.53
207.628	6786.1
207.702	6820.24
207.776	6806.74
207.851	6820.28
207.925	6860.84
207.999	6846
208.073	6836.11
208.148	6839.85
208.222	6802.91
208.296	6892.18
208.371	6941.08
208.445	6967.89
208.519	7042.14
208.593	7071.3
208.668	7054.18
208.742	7062.99
208.816	7069.28
208.89	7104.8
208.965	7099.36
209.039	7121.23
209.113	7164.38
209.187	7222.85
209.261	7212.23
209.336	7265.33
209.41	7318.92
209.484	7322.82
209.558	7388.76
209.632	7426.77
209.707	7457.29
209.781	7517.41
209.855	7564.44
209.929	7607.18
210.003	7621.79
210.077	7623.09
210.151	7749.31
210.226	7839.35
210.3	7911.02
210.374	7970.28
210.448	7987.49
210.522	8014.34
210.596	8041.42
210.67	8067
210.744	8193.34
210.818	8279.53
210.892	8331.35
210.966	8318.32
211.041	8356.85
211.115	8349.92
211.189	8418.09
211.263	8469.03
211.337	8484.86
211.411	8520.96
211.485	8500.16
211.559	8539.22
211.633	8549.94
211.707	8466.71
211.781	8486.02
211.855	8385.45
211.929	8365.93
212.003	8317.33
212.077	8339.95
212.151	8371.18
212.225	8395.09
212.299	8364.47
212.373	8332.82
212.447	8326.27
212.52	8404.17
212.594	8416.54
212.668	8445.36
212.742	8401.43
212.816	8382.8
212.89	8363.37
212.964	8357.78
213.038	8370.59
213.112	8393.35
213.186	8423.51
213.26	8364.58
213.333	8237.83
213.407	8250.28
213.481	8257.97
213.555	8286.48
213.629	8250.53
213.703	8203.04
213.777	8193.12
213.85	8131.35
213.924	8215.13
213.998	8209.02
214.072	8181
214.146	8136.79
214.219	8118.27
214.293	8106.68
214.367	8105.57
214.441	8132.6
214.515	8097.14
214.588	8025.94
214.662	7927.02
214.736	7866.09
214.81	7882.77
214.883	7903.62
214.957	7869.06
215.031	7826
215.105	7758.51
215.178	7714.37
215.252	7682.49
215.326	7610.42
215.4	7551.71
215.473	7408.28
215.547	7343.12
215.621	7286.99
215.694	7285.69
215.768	7212.1
215.842	7155.83
215.915	7095.63
215.989	7004.98
216.063	6952.81
216.136	6934.4
216.21	6921.72
216.284	6930.28
216.357	6912.26
216.431	6881.71
216.504	6876.18
216.578	6922.99
216.652	6924.91
216.725	6904.54
216.799	6913.43
216.873	6892.69
216.946	6901.19
217.02	6876.76
217.093	6846.26
217.167	6776.86
217.24	6711.41
217.314	6684.63
217.387	6651.08
217.461	6618.86
217.535	6636.15
217.608	6590.48
217.682	6568.97
217.755	6575.21
217.829	6533.18
217.902	6519.11
217.976	6505.95
218.049	6474.17
218.123	6408.2
218.196	6414.25
218.27	6381.51
218.343	6327.57
218.417	6327.81
218.49	6305.68
218.563	6340.91
218.637	6351.33
218.71	6406.36
218.784	6428.35
218.857	6457.97
218.931	6482.78
219.004	6487.87
219.077	6504.15
219.151	6520.42
219.224	6516.58
219.298	6515.33
219.371	6550.88
219.444	6523.52
219.518	6531.58
219.591	6546.17
219.665	6632.87
219.738	6638.92
219.811	6632.83
219.885	6664.71
219.958	6694.1
220.031	6695.16
220.105	6708.37
220.178	6720.52
220.251	6699.34
220.325	6722.02
220.398	6729.03
220.471	6737.33
220.544	6763.7
220.618	6743.96
220.691	6761.53
220.764	6775.36
220.838	6796.59
220.911	6785.16
220.984	6848.93
221.057	6880.68
221.131	6895.04
221.204	6818.71
221.277	6876.95
221.35	6977.99
221.424	6973.09
221.497	6984.82
221.57	7007.19
221.643	7034.25
221.716	7067.31
221.79	7072.31
221.863	7078.32
221.936	7091.58
222.009	7100.85
222.082	7128.82
222.155	7139.48
222.229	7188.94
222.302	7214.45
222.375	7215.17
222.448	7244.87
222.521	7249.01
222.594	7248.19
222.667	7232.06
222.74	7281.07
222.814	7276.88
222.887	7262.16
222.96	7306.14
223.033	7336.34
223.106	7359.63
223.179	7387.63
223.252	7394.07
223.325	7415.69
223.398	7429.92
223.471	7451.98
223.544	7474.04
223.617	7485.77
223.69	7502.35
223.763	7475.81
223.837	7490.76
223.91	7517.97
223.983	7478.13
224.056	7451.51
224.129	7468.14
224.202	7513.73
224.275	7499.21
224.348	7473.21
224.42	7444.56
224.493	7401.88
224.566	7385.29
224.639	7402.93
224.712	7371.33
224.785	7356.52
224.858	7357.67
224.931	7338.06
225.004	7305.91
225.077	7303.55
225.15	7225.34
225.223	7222.16
225.296	7291.14
225.369	7245.82
225.442	7216.98
225.514	7238.6
225.587	7255.8
225.66	7262
225.733	7262.87
225.806	7267.77
225.879	7258.78
225.952	7235.1
226.025	7273.12
226.097	7310.97
226.17	7296.02
226.243	7250.04
226.316	7251.58
226.389	7250.67
226.461	7266.77
226.534	7278.2
226.607	7271.81
226.68	7343.73
226.753	7340.51
226.825	7275.1
226.898	7321.76
226.971	7325.22
227.044	7339.2
227.117	7348.24
227.189	7361.37
227.262	7390.89
227.335	7407.04
227.407	7409.11
227.48	7440.82
227.553	7449.19
227.626	7433.5
227.698	7441.19
227.771	7473.81
227.844	7459.3
227.916	7480.11
227.989	7453.87
228.062	7460.06
228.134	7527.96
228.207	7524.83
228.28	7517.67
228.352	7526.23
228.425	7535.37
228.498	7573.93
228.57	7562.58
228.643	7608.32
228.716	7611.4
228.788	7596.2
228.861	7592.16
228.934	7642.11
229.006	7644.95
229.079	7643.74
229.151	7636.05
229.224	7608.61
229.296	7625.39
229.369	7706.73
229.442	7737.95
229.514	7729.87
229.587	7764.73
229.659	7706.59
229.732	7721.16
229.804	7755.24
229.877	7815.76
229.949	7836.92
230.022	7879.85
230.094	7873.6
230.167	7861.86
230.239	7828.5
230.312	7823.64
230.384	7883.87
230.457	7879.06
230.529	7884.54
230.602	7885.99
230.674	7891.81
230.747	7926.65
230.819	7949.44
230.892	7858.54
230.964	7859.21
231.037	7873.44
231.109	7871.13
231.181	7902.04
231.254	7875.02
231.326	7867.04
231.399	7848.36
231.471	7824.51
231.544	7756.67
231.616	7796.72
231.688	7804.46
231.761	7792.74
231.833	7780.77
231.905	7705.34
231.978	7709.33
232.05	7698.09
232.122	7701.55
232.195	7685.49
232.267	7713.57
232.339	7695.63
232.412	7745.92
232.484	7730.81
232.556	7713.23
232.629	7760.62
232.701	7776.06
232.773	7779.09
232.846	7774.38
232.918	7779.96
232.99	7796.75
233.062	7840.85
233.135	7851.48
233.207	7822.19
233.279	7858.29
233.351	7889.3
233.424	7895.69
233.496	7873.43
233.568	7940.1
233.64	7909.32
233.713	7922.84
233.785	7923.22
233.857	7947.03
233.929	7902.6
234.001	7958.53
234.074	8012.8
234.146	7956.42
234.218	7956.56
234.29	7960.12
234.362	7950.36
234.434	7915
234.507	7890.09
234.579	7841.47
234.651	7826.41
234.723	7853.01
234.795	7868.54
234.867	7861.52
234.939	7906.49
235.012	7920.82
235.084	7923.32
235.156	7958.18
235.228	7943.66
235.3	7929.13
235.372	7927.79
235.444	7983.66
235.516	7912.49
235.588	7914.99
235.66	7926.87
235.732	7897.68
235.804	8056.69
235.876	8087.99
235.948	8137.55
236.02	8146.16
236.092	8162.84
236.164	8168.71
236.236	8165.87
236.308	8163.46
236.38	8182.32
236.452	8170.05
236.524	8194.97
236.596	8247.31
236.668	8276.18
236.74	8299.5
236.812	8326.54
236.884	8358.01
236.956	8365.66
237.028	8363.69
237.1	8356.38
237.172	8420.29
237.244	8487.55
237.316	8391.89
237.388	8381.65
237.46	8362.97
237.532	8418.06
237.604	8407.01
237.675	8471.11
237.747	8501.47
237.819	8492.43
237.891	8504.27
237.963	8498.59
238.035	8488.68
238.107	8396.36
238.178	8441.8
238.25	8446.66
238.322	8516.18
238.394	8485.19
238.466	8478.7
238.538	8516.7
238.609	8544.08
238.681	8498.88
238.753	8484.63
238.825	8498.3
238.897	8526.01
238.968	8586.77
239.04	8566.02
239.112	8663.42
239.184	8631.65
239.255	8631.79
239.327	8660.94
239.399	8676.97
239.471	8710.41
239.542	8739.95
239.614	8796.11
239.686	8734.88
239.758	8776.75
239.829	8744.1
239.901	8788.91
239.973	8801.52
240.044	8827.41
240.116	8839.44
240.188	8847.19
240.259	8853.74
240.331	8849.98
240.403	8881.27
240.474	8846.45
240.546	8840.2
240.618	8781.8
240.689	8779.35
240.761	8799.76
240.833	8853.63
240.904	8853.15
240.976	8858.83
241.048	8870.82
241.119	8904.04
241.191	8938.65
241.262	8988.44
241.334	8998.03
241.405	9001.73
241.477	9005.05
241.549	9009.05
241.62	9033.99
241.692	9075.63
241.763	9126.96
241.835	9142.7
241.906	9154.31
241.978	9132.6
242.049	9191.19
242.121	9242.79
242.192	9300.22
242.264	9267.68
242.335	9227.58
242.407	9258.58
242.478	9265.04
242.55	9280.35
242.621	9263.97
242.693	9261.61
242.764	9255.83
242.836	9260.31
242.907	9289.11
242.979	9316.5
243.05	9332.87
243.122	9350.21
243.193	9344.24
243.264	9288.19
243.336	9292.52
243.407	9320.98
243.479	9392.77
243.55	9408.72
243.622	9426.78
243.693	9423.65
243.764	9487.06
243.836	9466.89
243.907	9459.14
243.978	9456.93
244.05	9481.01
244.121	9448.27
244.192	9484.09
244.264	9443.2
244.335	9445.52
244.407	9403.72
244.478	9420.09
244.549	9417.97
244.62	9380.18
244.692	9382.73
244.763	9417.34
244.834	9407.95
244.906	9390.33
244.977	9398.42
245.048	9433.78
245.119	9419.14
245.191	9401.56
245.262	9348.79
245.333	9413.78
245.405	9433.38
245.476	9463.62
245.547	9477.59
245.618	9517.45
245.689	9526.55
245.761	9550.92
245.832	9559.93
245.903	9599.27
245.974	9627.06
246.045	9639.82
246.117	9715.92
246.188	9707.06
246.259	9698.25
246.33	9712.26
246.401	9717.17
246.473	9692.07
246.544	9682.78
246.615	9721.26
246.686	9727.28
246.757	9795.9
246.828	9775.77
246.899	9834.45
246.97	9810.33
247.042	9808.07
247.113	9843.18
247.184	9916.08
247.255	9919.31
247.326	9944.17
247.397	9952.02
247.468	9954.04
247.539	9960.21
247.61	9921.28
247.681	9953.93
247.752	9997.81
247.823	9977.68
247.894	9993.67
247.965	9974.07
248.037	9960.63
248.108	9923.3
248.179	9927.54
248.25	9914.92
248.321	9939.09
248.392	9898.67
248.463	9963.49
248.534	9957.95
248.605	9969.86
248.675	9945.04
248.746	9963.48
248.817	9979.09
248.888	9991.72
248.959	9949.57
249.03	9970
249.101	9977.56
249.172	9962.97
249.243	9907.1
249.314	9957.57
249.385	9969.76
249.456	9988.98
249.527	9984.79
249.598	10002.7
249.669	9999.81
249.739	10008.53
249.81	10019.85
249.881	9989.31
249.952	9981.51
250.023	9980.55
250.094	9948.99
250.165	9925.33
250.235	9915.84
250.306	9911.46
250.377	9889.4
250.448	9914.97
250.519	9866.85
250.59	9914.16
250.66	9913.34
250.731	9964.92
250.802	9967.91
250.873	9982.12
250.944	10003.17
251.014	9998.3
251.085	10070.77
251.156	10098.42
251.227	10142.02
251.297	10191.65
251.368	10231.39
251.439	10268.49
251.51	10308.53
251.58	10293.6
251.651	10295.19
251.722	10345.44
251.792	10316.1
251.863	10313.84
251.934	10360.47
252.005	10448.44
252.075	10447.14
252.146	10494.39
252.217	10538.67
252.287	10571.68
252.358	10574.86
252.429	10635.38
252.499	10629.21
252.57	10637.36
252.641	10672.14
252.711	10670.89
252.782	10633.02
252.852	10691.9
252.923	10696.72
252.994	10708.67
253.064	10753.96
253.135	10733.39
253.205	10718.01
253.276	10777.56
253.347	10837.45
253.417	10814.37
253.488	10799.09
253.558	10798.08
253.629	10798.85
253.699	10804.83
253.77	10828.73
253.841	10818.18
253.911	10823.14
253.982	10835.57
254.052	10861.84
254.123	10874.18
254.193	10875.43
254.264	10979.14
254.334	10951.19
254.405	10916.78
254.475	10886.09
254.546	10883.59
254.616	10936.63
254.687	10957.31
254.757	10966.22
254.827	10964.25
254.898	10989.69
254.968	11000.63
255.039	10979.62
255.109	11000.77
255.18	10982.32
255.25	10922.66
255.321	10955.71
255.391	10921.98
255.461	10991.47
255.532	10917.49
255.602	10909.78
255.673	10875.57
255.743	10851.03
255.813	10800.2
255.884	10843.43
255.954	10881.01
256.024	10936.14
256.095	10941.54
256.165	10913.59
256.235	10932.82
256.306	10922.99
256.376	10960.97
256.446	10990.56
256.517	11020.1
256.587	11064.78
256.657	11079.52
256.728	11103.85
256.798	11107.08
256.868	11104.38
256.938	11085.78
257.009	11135.32
257.079	11156.43
257.149	11235.27
257.219	11187.22
257.29	11214.87
257.36	11161.53
257.43	11191.36
257.5	11141.58
257.571	11135.65
257.641	11163.31
257.711	11138.68
257.781	11168.95
257.852	11173.67
257.922	11122.49
257.992	11123.5
258.062	11111.36
258.132	11145.96
258.202	11150.54
258.273	11164.56
258.343	11228.86
258.413	11214.83
258.483	11213.34
258.553	11197.96
258.623	11177.19
258.693	11201.34
258.764	11258.73
258.834	11325.23
258.904	11336.32
258.974	11329.04
259.044	11339.16
259.114	11371.64
259.184	11396.47
259.254	11404.75
259.324	11369.91
259.394	11416.27
259.464	11484.52
259.535	11498.06
259.605	11491.6
259.675	11487.27
259.745	11520.86
259.815	11506.69
259.885	11513.77
259.955	11603.34
260.025	11598.23
260.095	11610.76
260.165	11638.23
260.235	11687.83
260.305	11676.41
260.375	11653.85
260.445	11730.96
260.515	11781.38
260.585	11813.48
260.655	11820.28
260.725	11847.08
260.795	11882.36
260.865	11934.22
260.934	11908.34
261.004	11925.01
261.074	11926.7
261.144	11970.94
261.214	11994.9
261.284	11997.94
261.354	12025.07
261.424	11991.23
261.494	12043.38
261.564	12047.23
261.634	12069.12
261.703	12015.47
261.773	12029.73
261.843	12055.67
261.913	12048.48
261.983	12002.69
262.053	12020.87
262.123	12015.03
262.192	11988.91
262.262	12016.53
262.332	11978.4
262.402	12008.29
262.472	12018.12
262.541	11979.08
262.611	12022.03
262.681	11994.8
262.751	12024.78
262.821	12032.39
262.89	12004.87
262.96	12024.54
263.03	12089.85
263.1	12110.63
263.169	12131.31
263.239	12160.71
263.309	12221.55
263.379	12245.84
263.448	12265.36
263.518	12286.47
263.588	12311.92
263.657	12370.59
263.727	12409.29
263.797	12417.59
263.867	12412.67
263.936	12381.1
264.006	12427.12
264.076	12423.99
264.145	12427.07
264.215	12418.16
264.285	12447.22
264.354	12411.22
264.424	12406.4
264.494	12364.12
264.563	12351.35
264.633	12413.39
264.702	12430.26
264.772	12383.11
264.842	12380.08
264.911	12413.14
264.981	12373.18
265.05	12373.32
265.12	12367.97
265.19	12363.25
265.259	12397.04
265.329	12428.23
265.398	12451.8
265.468	12534.57
265.537	12525.02
265.607	12557.95
265.676	12592.27
265.746	12616.56
265.815	12669.78
265.885	12681.3
265.955	12669.05
266.024	12670.07
266.094	12617.47
266.163	12674.45
266.232	12728.2
266.302	12739.97
266.371	12754.38
266.441	12775.88
266.51	12812.76
266.58	12816.32
266.649	12819.07
266.719	12875.18
266.788	12900.93
266.858	12965.04
266.927	12911.77
266.996	12939.3
267.066	12968.27
267.135	12946.72
267.205	12980.32
267.274	13005
267.343	13047.04
267.413	13065.4
267.482	13118.57
267.552	13181.29
267.621	13133.66
267.69	13098.09
267.76	13116.26
267.829	13142.53
267.898	13159.21
267.968	13152.37
268.037	13182.35
268.106	13216.19
268.176	13179.99
268.245	13183.22
268.314	13175.65
268.384	13224.19
268.453	13240.78
268.522	13249.55
268.592	13299.78
268.661	13289.37
268.73	13313.08
268.799	13300.79
268.869	13369.97
268.938	13330.73
269.007	13315.49
269.076	13344.42
269.146	13385.83
269.215	13414.9
269.284	13463.39
269.353	13466.19
269.422	13474.91
269.492	13469.56
269.561	13405.69
269.63	13438.23
269.699	13437.79
269.768	13450.81
269.838	13468.84
269.907	13507.07
269.976	13492.89
270.045	13452.93
270.114	13483.11
270.183	13489.81
270.253	13519.65
270.322	13486.58
270.391	13510.78
270.46	13568.29
270.529	13600.59
270.598	13640.94
270.667	13644.74
270.736	13620.21
270.806	13648.89
270.875	13687.02
270.944	13699.41
271.013	13802.76
271.082	13826.43
271.151	13856.61
271.22	13827.64
271.289	13839.3
271.358	13839.88
271.427	13875.17
271.496	13898.21
271.565	13900.77
271.634	13916.63
271.703	13947.67
271.772	13996.12
271.841	14012.46
271.91	13986.14
271.979	14011.16
272.048	13982
272.117	14022.54
272.186	14026.83
272.255	14063.9
272.324	14101.74
272.393	14133.89
272.462	14128.78
272.531	14146.28
272.6	14158.33
272.669	14229.44
272.738	14237.63
272.807	14272.82
272.876	14262.51
272.945	14377.09
273.013	14425.05
273.082	14475.76
273.151	14464.53
273.22	14488.83
273.289	14510.18
273.358	14578.39
273.427	14579.36
273.496	14631.42
273.564	14660.58
273.633	14713.7
273.702	14700.4
273.771	14710.52
273.84	14736.26
273.909	14774.1
273.977	14809.24
274.046	14821.39
274.115	14864.77
274.184	14865.88
274.253	14878.94
274.322	14944.02
274.39	14893.46
274.459	14885.55
274.528	14850.65
274.597	14873.07
274.665	14907.1
274.734	14968.56
274.803	14969.33
274.872	14992.95
274.94	14984.46
275.009	15088.81
275.078	15084.52
275.147	15126.99
275.215	15156.92
275.284	15212.4
275.353	15227.73
275.421	15194.66
275.49	15272.12
275.559	15272.03
275.627	15287.21
275.696	15302.68
275.765	15328.47
275.833	15346.5
275.902	15393.4
275.971	15456.4
276.039	15535.16
276.108	15573.91
276.177	15598.45
276.245	15612.96
276.314	15635.13
276.383	15695.29
276.451	15635.67
276.52	15681.22
276.588	15740.21
276.657	15785.76
276.725	15790.73
276.794	15813.48
276.863	15884.24
276.931	15863.7
277	15918.26
277.068	15981.7
277.137	16056.36
277.205	16091.06
277.274	16173.53
277.342	16224.38
277.411	16212.71
277.48	16219.07
277.548	16226.11
277.617	16259.13
277.685	16275.47
277.754	16332.53
277.822	16341.4
277.89	16416.44
277.959	16432.1
278.027	16425.65
278.096	16437.65
278.164	16545.94
278.233	16561.17
278.301	16559.24
278.37	16604.69
278.438	16603.87
278.507	16650.09
278.575	16627.15
278.643	16648.65
278.712	16634.43
278.78	16635.63
278.849	16700.12
278.917	16758.63
278.985	16781.91
279.054	16827.26
279.122	16897.53
279.191	16919.65
279.259	16951.22
279.327	16931.94
279.396	17017.53
279.464	17040.23
279.532	17092.28
279.601	17114.21
279.669	17150.64
279.737	17235.37
279.806	17279.52
279.874	17354.89
279.942	17384.72
280.011	17417.35
280.079	17477.64
280.147	17562.7
280.215	17605.45
280.284	17634.75
280.352	17637.01
280.42	17692.92
280.488	17708.43
280.557	17731.52
280.625	17778.26
280.693	17813.88
280.761	17861.3
280.83	17849.88
280.898	17919.95
280.966	17903.81
281.034	17858.65
281.102	17858.17
281.171	17873.4
281.239	17929.88
281.307	17927.8
281.375	17938.31
281.443	18036.09
281.512	18061.63
281.58	18112.37
281.648	18117.24
281.716	18150.64
281.784	18185.24
281.852	18208.03
281.92	18233.19
281.989	18292.03
282.057	18287.26
282.125	18400.22
282.193	18428.5
282.261	18463.63
282.329	18491.68
282.397	18542.91
282.465	18585.56
282.533	18657.07
282.601	18664.4
282.67	18640.54
282.738	18657.26
282.806	18723.04
282.874	18728.01
282.942	18766.08
283.01	18777.55
283.078	18826.85
283.146	18855.33
283.214	18915.9
283.282	18956.04
283.35	19028.81
283.418	19039.7
283.486	19087.89
283.554	19054.4
283.622	19087.94
283.69	19123.74
283.758	19147.4
283.826	19201.67
283.894	19271.49
283.962	19364.89
284.03	19446.33
284.098	19492.93
284.165	19526.32
284.233	19557.6
284.301	19571.04
284.369	19587.04
284.437	19605.07
284.505	19628.2
284.573	19708.68
284.641	19715.23
284.709	19774.94
284.777	19768.82
284.845	19834.65
284.912	19893.06
284.98	19938.4
285.048	19961.44
285.116	20015.56
285.184	20081.24
285.252	20117.14
285.319	20115.8
285.387	20126.21
285.455	20120.18
285.523	20167.65
285.591	20203.31
285.659	20249.05
285.726	20327.36
285.794	20326.49
285.862	20367.02
285.93	20409.24
285.997	20438.73
286.065	20461.86
286.133	20477.33
286.201	20514.68
286.269	20513.33
286.336	20520.56
286.404	20550.54
286.472	20614.49
286.539	20585.43
286.607	20585.34
286.675	20615.6
286.743	20675.32
286.81	20700.43
286.878	20774.36
286.946	20801.06
287.013	20832.05
287.081	20870.27
287.149	20858.27
287.216	20963.91
287.284	20987
287.352	21029.46
287.419	21049.51
287.487	21133.76
287.555	21181.19
287.622	21200.22
287.69	21255.99
287.758	21328.62
287.825	21344.53
287.893	21350.84
287.96	21408.48
288.028	21471.04
288.096	21518.71
288.163	21556.89
288.231	21561.08
288.298	21588.22
288.366	21659.8
288.433	21699.28
288.501	21706.89
288.569	21753.55
288.636	21768.45
288.704	21848.76
288.771	21906.89
288.839	21921.69
288.906	21938.75
288.974	21997.18
289.041	22033.48
289.109	22039.79
289.176	22095.04
289.244	22148.36
289.311	22214.21
289.379	22285.07
289.446	22334.48
289.514	22379.9
289.581	22418.9
289.649	22464.69
289.716	22505.72
289.783	22522.21
289.851	22607.88
289.918	22656.33
289.986	22729.75
290.053	22772.62
290.121	22798.56
290.188	22834.91
290.255	22955.46
290.323	22975.66
290.39	22992.78
290.458	23050.15
290.525	23124.35
290.592	23143.88
290.66	23193.83
290.727	23221.89
290.794	23301.56
290.862	23331.36
290.929	23378.96
290.996	23418.31
291.064	23482.97
291.131	23558.64
291.198	23636.24
291.266	23675.4
291.333	23711.42
291.4	23755.94
291.468	23847.15
291.535	23869.29
291.602	23927.79
291.669	23941.59
291.737	23987.78
291.804	24025.84
291.871	24110.53
291.938	24169.57
292.006	24279.53
292.073	24335.91
292.14	24400.98
292.207	24412.85
292.275	24449.99
292.342	24503.16
292.409	24605.06
292.476	24710.68
292.543	24724
292.611	24757.14
292.678	24825.56
292.745	24936.14
292.812	24996.16
292.879	25013.83
292.946	25070.94
293.014	25140.82
293.081	25202.73
293.148	25292.72
293.215	25373.5
293.282	25393.71
293.349	25456.74
293.416	25439.56
293.484	25522.72
293.551	25590.62
293.618	25671.7
293.685	25775.32
293.752	25791.1
293.819	25810.99
293.886	25808.73
293.953	25873.01
294.02	25944.65
294.087	26013.4
294.154	26034.06
294.221	26115.38
294.288	26157.52
294.356	26240.79
294.423	26293.81
294.49	26305.06
294.557	26377.34
294.624	26393.61
294.691	26486.45
294.758	26528.51
294.825	26586.73
294.892	26600.69
294.959	26640.48
295.026	26705.48
295.093	26728.57
295.16	26776.65
295.226	26829.05
295.293	26941.26
295.36	26995.1
295.427	27063.12
295.494	27136.66
295.561	27197.03
295.628	27300.33
295.695	27375.68
295.762	27426.6
295.829	27494.34
295.896	27591.86
295.963	27650.43
296.03	27723.8
296.096	27783.52
296.163	27864.61
296.23	27955.49
296.297	28035.93
296.364	28080.43
296.431	28129.77
296.498	28168.8
296.564	28288.73
296.631	28344.3
296.698	28344.78
296.765	28435.74
296.832	28451.45
296.899	28450.58
296.965	28555.97
297.032	28532.71
297.099	28619.49
297.166	28684.61
297.233	28718.3
297.299	28732.22
297.366	28780.82
297.433	28833.65
297.5	28891.82
297.566	28931.72
297.633	28978.24
297.7	29034.13
297.767	29063.51
297.833	29117.82
297.9	29170.51
297.967	29162.19
298.033	29241.22
298.1	29359.24
298.167	29380.47
298.234	29438.74
298.3	29507.7
298.367	29518.82
298.434	29580.74
298.5	29605.27
298.567	29623.36
298.634	29658.57
298.7	29755.83
298.767	29798.21
298.834	29871.35
298.9	29909.19
298.967	29926.89
299.033	29988.98
299.1	30062.57
299.167	30155.2
299.233	30201.94
299.3	30286.66
299.366	30381.47
299.433	30462.36
299.5	30429.65
299.566	30484.08
299.633	30565.77
299.699	30629.37
299.766	30657.19
299.832	30717.02
299.899	30786.78
299.965	30868.61
300.032	30904.76
300.099	30958.59
300.165	31015.66
300.232	31049.02
300.298	31088.76
300.365	31178.06
300.431	31216.65
300.498	31244.88
300.564	31303.07
300.631	31364.95
300.697	31446.74
300.763	31485.14
300.83	31522.73
300.896	31609.77
300.963	31670.68
301.029	31727.79
301.096	31780.77
301.162	31857.51
301.229	31891.03
301.295	31891.42
301.361	31948.13
301.428	32001.97
301.494	32001.29
301.561	32051.28
301.627	32092.78
301.693	32140.83
301.76	32184.33
301.826	32222.98
301.892	32291.38
301.959	32350.68
302.025	32389.05
302.092	32400.15
302.158	32460.02
302.224	32493.31
302.291	32507.02
302.357	32545.2
302.423	32559.83
302.49	32586.87
302.556	32661.11
302.622	32696.29
302.688	32777.78
302.755	32841.22
302.821	32898.29
302.887	32977.7
302.954	33010.31
303.02	33092.5
303.086	33157.39
303.152	33177.98
303.219	33209.05
303.285	33263.78
303.351	33328.93
303.417	33371.78
303.483	33394.46
303.55	33421.65
303.616	33456.75
303.682	33505.35
303.748	33525.61
303.815	33616.02
303.881	33673.42
303.947	33677.64
304.013	33720.25
304.079	33735.42
304.145	33723.49
304.212	33766.58
304.278	33779.53
304.344	33814.43
304.41	33809.58
304.476	33817.29
304.542	33856.85
304.608	33906.49
304.674	33890.97
304.741	33906.78
304.807	33943.88
304.873	34002.06
304.939	34066.01
305.005	34051.71
305.071	34096.21
305.137	34148.67
305.203	34106.29
305.269	34142.86
305.335	34207.4
305.401	34236.21
305.467	34261.18
305.533	34323.54
305.599	34371.7
305.666	34422.51
305.732	34465.48
305.798	34527.7
305.864	34636.64
305.93	34674.76
305.996	34713.61
306.062	34767.1
306.128	34786.74
306.194	34802.55
306.259	34825.21
306.325	34849.99
306.391	34919.64
306.457	34963.48
306.523	35000.83
306.589	35110.07
306.655	35128.8
306.721	35113.47
306.787	35115.99
306.853	35192.3
306.919	35183.76
306.985	35190.36
307.051	35221.11
307.117	35222.9
307.183	35248.62
307.248	35202.09
307.314	35257.49
307.38	35277.87
307.446	35325.07
307.512	35334.29
307.578	35367.91
307.644	35385.47
307.709	35418.95
307.775	35439.18
307.841	35463.34
307.907	35483.53
307.973	35456.2
308.039	35477.8
308.104	35533.49
308.17	35587.68
308.236	35576.33
308.302	35622.27
308.368	35637.21
308.433	35672.87
308.499	35696.06
308.565	35705.91
308.631	35735.8
308.696	35711.54
308.762	35727.16
308.828	35739.73
308.894	35719.02
308.959	35696.31
309.025	35719.8
309.091	35737.9
309.156	35750.85
309.222	35791.42
309.288	35804.91
309.354	35778.13
309.419	35801.18
309.485	35789.44
309.551	35815.31
309.616	35825.4
309.682	35850.39
309.748	35870.53
309.813	35881.69
309.879	35907.16
309.945	35898.14
310.01	35923.42
310.076	35957
310.141	35976.65
310.207	35980.25
310.273	36025.8
310.338	36076.36
310.404	36072.72
310.469	36074.91
310.535	36080.68
310.601	36046.66
310.666	36093.45
310.732	36159.1
310.797	36169.2
310.863	36183.8
310.928	36192.73
310.994	36214.28
311.059	36242.38
311.125	36263.3
311.191	36316.99
311.256	36307.33
311.322	36358.68
311.387	36336.11
311.453	37104.32
311.518	37090.59
311.584	37103.26
311.649	37152.03
311.715	37150.58
311.78	37168.24
311.846	37173.53
311.911	37219.45
311.976	37252.4
312.042	37226.43
312.107	37218.18
312.173	37221.58
312.238	37236
312.304	37270.51
312.369	37287.16
312.434	37275.99
312.5	37293.61
312.565	37241.82
312.631	37288.46
312.696	37285.69
312.761	37335.05
312.827	36602.37
312.892	36713.93
312.958	36750.2
313.023	36771.61
313.088	36803.4
313.154	36802.43
313.219	36795.15
313.284	36792.28
313.35	36819.66
313.415	36814.32
313.48	36832.76
313.546	36869.42
313.611	36925.34
313.676	36914.03
313.741	36923.98
313.807	36962.04
313.872	36999.81
313.937	37057.77
314.003	37103.36
314.068	37139.96
314.133	37166.28
314.198	37174.63
314.264	37132.96
314.329	37123.79
314.394	37128.64
314.459	37144.03
314.525	37231.56
314.59	37266.95
314.655	37261.02
314.72	37297.93
314.785	37356.42
314.851	37365.55
314.916	37351.47
314.981	37334.28
315.046	37339.47
315.111	37339.13
315.176	37341.56
315.242	37365.94
315.307	37368.85
315.372	37347.29
315.437	37350.84
315.502	37354.14
315.567	37395.36
315.632	37397.98
315.698	37429.06
315.763	37457.27
315.828	37465.52
315.893	37463.63
315.958	37467.27
316.023	37465.28
316.088	37430.18
316.153	37382.84
316.218	37384.79
316.283	37347.8
316.348	37299.36
316.413	37298.82
316.479	37265.43
316.544	37181.02
316.609	37095.97
316.674	36994.77
316.739	36894.26
316.804	36798.35
316.869	36685.02
316.934	36576.92
316.999	36461.46
317.064	36302.91
317.129	36151.24
317.194	36018.96
317.259	35865.84
317.324	35699.43
317.389	35561.74
317.454	35430.93
317.518	35306.98
317.583	35200.23
317.648	35095.84
317.713	34977.09
317.778	34780.16
317.843	34652.88
317.908	34517.89
317.973	34377.67
318.038	34273.46
318.103	34134.52
318.168	34005.35
318.233	33884.49
318.297	33699.74
318.362	33571.51
318.427	33419.7
318.492	33310.43
318.557	33148.74
318.622	33021.16
318.687	32924.3
318.751	32766.14
318.816	32615.49
318.881	32477.71
318.946	32268.04
319.011	32093.51
319.075	31925.45
319.14	31787.69
319.205	31609.73
319.27	31454.71
319.335	31265.22
319.399	31082.45
319.464	30937.15
319.529	30731.12
319.594	30560.8
319.658	30426.37
319.723	30245.76
319.788	30104.46
319.853	29882.51
319.917	29719.43
319.982	29508.8
320.047	29311.41
320.112	29174.56
320.176	28965.43
320.241	28791.59
320.306	28644.19
320.37	28450.12
320.435	28280.27
320.5	28109.57
320.564	27931.79
320.629	27728.83
320.694	27570.36
320.758	27380.75
320.823	27183.33
320.888	27025.31
320.952	26808.62
321.017	26606.02
321.082	26404.37
321.146	26223.79
321.211	26050.08
321.275	25865.41
321.34	25667.04
321.405	25469.74
321.469	25256.69
321.534	25064.56
321.598	24836.42
321.663	24656.46
321.727	24500.87
321.792	24291.4
321.857	24086.14
321.921	23891.07
321.986	23705.22
322.05	23455.27
322.115	23268.73
322.179	23066.21
322.244	22828.17
322.308	22649.2
322.373	22432.1
322.437	22231.45
322.502	22070.51
322.566	21851.74
322.631	21659.26
322.695	21456.09
322.76	21246.32
322.824	21050.05
322.889	20839.87
322.953	20629.4
323.018	20360.16
323.082	20083.42
323.146	19851.7
323.211	19623.8
323.275	19407.99
323.34	19185.15
323.404	18995.56
323.468	18778.84
323.533	18568.1
323.597	18354.46
323.662	18121.3
323.726	17928.39
323.79	17708.92
323.855	17440.34
323.919	17210.88
323.983	16994.54
324.048	16669.87
324.112	16744.33
324.177	16073.15
324.241	15195.69
324.305	14331.68
324.37	13485.51
324.434	12664.05
324.498	12430.23
324.562	12168.66
324.627	11875.49
324.691	11586.95
324.755	11267.09
324.82	10888.11
324.884	10491.28
324.948	10091.72
325.012	9614.77
325.077	9024.14
