Data from 20250626_urea_1M_exp2_MAYP1162681_08-13-59-233.txt Node
Date: Fri Jun 27 08:13:59 BST 2025
User: adleo
Spectrometer: MAYP116268
Trigger mode: 0
Integration Time (sec): 3.000000E0
Scans to average: 1
Electric dark correction enabled: true
Nonlinearity correction enabled: true
Boxcar width: 10
XAxis mode: Wavelengths
Number of Pixels in Spectrum: 2068
>>>>>Begin Spectral Data<<<<<
179.565	2934.81
179.642	3092.02
179.718	3206.02
179.795	3311.2
179.871	3400.15
179.948	3453.24
180.024	3513.32
180.101	3577.72
180.177	3614.19
180.254	3671.38
180.33	3732.65
180.407	3937.06
180.483	4161.68
180.56	4392.25
180.636	4607.87
180.712	4581.67
180.789	4606.66
180.865	4638.66
180.942	4662.01
181.018	4690.39
181.095	4727.65
181.171	4735.45
181.248	4735.98
181.324	4779.42
181.4	4795.22
181.477	4822.18
181.553	4854
181.63	4908.36
181.706	4948.69
181.782	4974.24
181.859	4981.28
181.935	4996.47
182.011	4989.62
182.088	5037.23
182.164	5086.4
182.24	5118.19
182.317	5137.53
182.393	5131.16
182.469	5164.41
182.546	5199.9
182.622	5206.51
182.698	5195.25
182.775	5234.96
182.851	5269.36
182.927	5251.78
183.003	5239.42
183.08	5223.14
183.156	5249.01
183.232	5240.43
183.308	5210.1
183.385	5232.66
183.461	5275.22
183.537	5278.28
183.613	5311.45
183.69	5287.53
183.766	5262.41
183.842	5281
183.918	5300.36
183.995	5335.67
184.071	5347.13
184.147	5333.67
184.223	5312.12
184.299	5345.58
184.375	5314.39
184.452	5334.24
184.528	5435.21
184.604	5473.1
184.68	5507.36
184.756	5526.34
184.832	5536.99
184.908	5552.5
184.985	5549.01
185.061	5505.35
185.137	5527.45
185.213	5491.46
185.289	5493.9
185.365	5471.58
185.441	5465.54
185.517	5500.51
185.593	5489.77
185.669	5482.67
185.745	5506.78
185.822	5549.13
185.898	5527.7
185.974	5555.24
186.05	5529.83
186.126	5463.43
186.202	5441.05
186.278	5429.88
186.354	5401.07
186.43	5416.65
186.506	5409.18
186.582	5409.04
186.658	5425.42
186.734	5373.38
186.81	5382.96
186.886	5392.98
186.962	5424.46
187.038	5416.93
187.114	5389.49
187.19	5406.32
187.266	5383.8
187.341	5387.16
187.417	5364.35
187.493	5359.12
187.569	5365.35
187.645	5349.02
187.721	5322.26
187.797	5343.11
187.873	5353.89
187.949	5340.43
188.025	5325.09
188.101	5329.54
188.176	5337.59
188.252	5324.18
188.328	5343.19
188.404	5338.45
188.48	5323.26
188.556	5309.74
188.632	5309.6
188.707	5313.72
188.783	5313.68
188.859	5299.12
188.935	5267.58
189.011	5289.43
189.086	5274.63
189.162	5252.73
189.238	5253.35
189.314	5249.66
189.39	5236.53
189.465	5216.45
189.541	5262.7
189.617	5221.02
189.693	5210.24
189.768	5226.21
189.844	5296.07
189.92	5277.44
189.996	5304.18
190.071	5336.05
190.147	5331.83
190.223	5354.51
190.298	5332.65
190.374	5295.85
190.45	5329.71
190.526	5354.63
190.601	5342.74
190.677	5344.9
190.753	5425.02
190.828	5434.31
190.904	5470.03
190.98	5504.84
191.055	5535.18
191.131	5513.03
191.207	5569.15
191.282	5596.17
191.358	5570.19
191.433	5528.55
191.509	5561.31
191.585	5554.17
191.66	5561.79
191.736	5585.95
191.811	5565.24
191.887	5611.57
191.963	5672.74
192.038	5684.05
192.114	5688.23
192.189	5698.2
192.265	5691.4
192.34	5623.26
192.416	5616.26
192.491	5604.7
192.567	5615.5
192.642	5621.78
192.718	5620.87
192.793	5591.62
192.869	5580.46
192.944	5588.07
193.02	5607.4
193.095	5614.88
193.171	5631.23
193.246	5623.41
193.322	5612
193.397	5609.36
193.473	5571.57
193.548	5523.61
193.624	5537.28
193.699	5529.18
193.775	5567.27
193.85	5573.25
193.925	5598.19
194.001	5596.46
194.076	5580.16
194.152	5548.41
194.227	5530.86
194.302	5504.75
194.378	5511.84
194.453	5503.22
194.529	5532.23
194.604	5493.97
194.679	5483.43
194.755	5427.42
194.83	5466.71
194.905	5460.24
194.981	5484.88
195.056	5466.48
195.131	5484.22
195.207	5477.26
195.282	5451.72
195.357	5403.14
195.433	5443.93
195.508	5413.25
195.583	5440.04
195.659	5475.81
195.734	5496.72
195.809	5492.89
195.884	5516.84
195.96	5514.49
196.035	5558.35
196.11	5548.81
196.185	5581.84
196.261	5584.76
196.336	5670.33
196.411	5623.36
196.486	5638.32
196.561	5619.38
196.637	5648.04
196.712	5688.77
196.787	5695.92
196.862	5739.92
196.937	5765.86
197.013	5785.58
197.088	5810.41
197.163	5863.78
197.238	5910.93
197.313	5909.73
197.388	5947.24
197.464	6027.15
197.539	6061.59
197.614	6041.54
197.689	6069.61
197.764	6109.16
197.839	6161.59
197.914	6144.55
197.989	6208.18
198.065	6247
198.14	6383.64
198.215	6449.98
198.29	6480.1
198.365	6520.18
198.44	6548.64
198.515	6617.25
198.59	6654.76
198.665	6721.07
198.74	6743.07
198.815	6742.78
198.89	6803.62
198.965	6877.76
199.04	6866.99
199.115	6905.07
199.19	7018.37
199.265	7032.87
199.34	7061.79
199.415	7153.41
199.49	7210.75
199.565	7231.84
199.64	7294.7
199.715	7280.94
199.79	7294.2
199.865	7308.72
199.94	7302.71
200.015	7385.48
200.09	7405.58
200.165	7420.43
200.24	7437.16
200.315	7532.22
200.39	7567.94
200.464	7577.36
200.539	7584.86
200.614	7626.34
200.689	7686.44
200.764	7703.04
200.839	7744.02
200.914	7758.25
200.989	7729.72
201.063	7769.1
201.138	7723.66
201.213	7725.83
201.288	7674.73
201.363	7687.33
201.438	7685.93
201.512	7723.27
201.587	7673.59
201.662	7683.64
201.737	7714.95
201.812	7745
201.886	7665.03
201.961	7696.4
202.036	7668.82
202.111	7658.96
202.186	7578.11
202.26	7536.95
202.335	7479.34
202.41	7467.47
202.485	7425.57
202.559	7375.58
202.634	7303.34
202.709	7331.58
202.784	7274.82
202.858	7277.85
202.933	7231.91
203.008	7214.9
203.082	7171.28
203.157	7173.63
203.232	7062.41
203.306	7005.25
203.381	6916.53
203.456	6854.85
203.53	6790.12
203.605	6734.88
203.68	6672.51
203.754	6658.02
203.829	6611.28
203.904	6555.78
203.978	6520.04
204.053	6527.68
204.127	6491.86
204.202	6481.4
204.277	6435.26
204.351	6415.15
204.426	6390.46
204.5	6366.75
204.575	6275.25
204.65	6298.07
204.724	6275.58
204.799	6295.34
204.873	6283.29
204.948	6276.76
205.022	6247.59
205.097	6221.12
205.171	6262.68
205.246	6284.77
205.32	6284.38
205.395	6285.78
205.469	6263.58
205.544	6283.84
205.618	6233.83
205.693	6269.01
205.767	6241.33
205.842	6293.28
205.916	6282.29
205.991	6264.63
206.065	6279.65
206.14	6324.23
206.214	6306.94
206.289	6287.88
206.363	6316
206.438	6324.94
206.512	6350
206.586	6395.63
206.661	6424.74
206.735	6366.03
206.81	6367.71
206.884	6406.44
206.958	6371.89
207.033	6416.84
207.107	6428.61
207.181	6516.69
207.256	6502.04
207.33	6551.1
207.405	6585.56
207.479	6630.02
207.553	6650.18
207.628	6606.66
207.702	6633.88
207.776	6619.95
207.851	6629.17
207.925	6669.91
207.999	6658.87
208.073	6648.21
208.148	6661.08
208.222	6626.4
208.296	6710.67
208.371	6749.51
208.445	6776.41
208.519	6853.66
208.593	6882.71
208.668	6873.01
208.742	6878.78
208.816	6880.03
208.89	6917.27
208.965	6911.84
209.039	6937.5
209.113	6976.6
209.187	7029.81
209.261	7019.64
209.336	7070.65
209.41	7120
209.484	7128.08
209.558	7185.36
209.632	7219.66
209.707	7240.75
209.781	7298.51
209.855	7336.29
209.929	7387
210.003	7404.4
210.077	7401.33
210.151	7525.26
210.226	7617.41
210.3	7689.49
210.374	7749.85
210.448	7763.7
210.522	7790.73
210.596	7816.5
210.67	7845.88
210.744	7976.17
210.818	8062.97
210.892	8117.61
210.966	8106.31
211.041	8142.1
211.115	8134.6
211.189	8198.75
211.263	8247.81
211.337	8264.93
211.411	8308.33
211.485	8287.15
211.559	8317.3
211.633	8325.09
211.707	8243.56
211.781	8265.37
211.855	8169.67
211.929	8150.54
212.003	8100.74
212.077	8128.17
212.151	8157.81
212.225	8179.8
212.299	8140.61
212.373	8113.2
212.447	8100.49
212.52	8171.45
212.594	8178.38
212.668	8208.48
212.742	8168.8
212.816	8149.6
212.89	8132.77
212.964	8125.07
213.038	8134.93
213.112	8165.05
213.186	8198.28
213.26	8145.03
213.333	8011.23
213.407	8021.09
213.481	8023.54
213.555	8054.54
213.629	8021.09
213.703	7976.93
213.777	7969.71
213.85	7921.32
213.924	8001.83
213.998	8001.39
214.072	7981.23
214.146	7935.82
214.219	7926.01
214.293	7918.51
214.367	7919.9
214.441	7938.23
214.515	7900.03
214.588	7826.4
214.662	7727.35
214.736	7668.51
214.81	7677.88
214.883	7704.44
214.957	7670.56
215.031	7629.05
215.105	7552.69
215.178	7496.69
215.252	7468.33
215.326	7393.1
215.4	7331.8
215.473	7196.19
215.547	7124.02
215.621	7074.05
215.694	7076.74
215.768	6999.57
215.842	6941.34
215.915	6885.72
215.989	6799.76
216.063	6756.64
216.136	6743.38
216.21	6729.7
216.284	6739.64
216.357	6719.8
216.431	6687.39
216.504	6683.01
216.578	6725.92
216.652	6738.68
216.725	6726.86
216.799	6733.01
216.873	6712.27
216.946	6714.34
217.02	6684.92
217.093	6667.92
217.167	6588.31
217.24	6522.6
217.314	6497.79
217.387	6462.19
217.461	6427.33
217.535	6447.12
217.608	6394.79
217.682	6376.64
217.755	6384.75
217.829	6343.36
217.902	6332.65
217.976	6317.29
218.049	6279.47
218.123	6216.6
218.196	6217.37
218.27	6181.18
218.343	6124.66
218.417	6130.47
218.49	6116.12
218.563	6151.15
218.637	6153.51
218.71	6215.82
218.784	6235.35
218.857	6259.16
218.931	6276.28
219.004	6281.03
219.077	6292.08
219.151	6310.93
219.224	6303.44
219.298	6297.15
219.371	6331.82
219.444	6302.7
219.518	6307.5
219.591	6323.91
219.665	6410.1
219.738	6414.37
219.811	6407.65
219.885	6443.52
219.958	6466.13
220.031	6468.15
220.105	6481.16
220.178	6489.42
220.251	6464.45
220.325	6489.71
220.398	6496.48
220.471	6515.05
220.544	6549.96
220.618	6532.86
220.691	6553.65
220.764	6565.56
220.838	6587.6
220.911	6572.61
220.984	6637.8
221.057	6668.1
221.131	6685.09
221.204	6609.7
221.277	6672.25
221.35	6768.74
221.424	6760.38
221.497	6767.83
221.57	6787.17
221.643	6807.16
221.716	6840.21
221.79	6845.78
221.863	6853.33
221.936	6865.43
222.009	6877.19
222.082	6900.74
222.155	6914.77
222.229	6966.52
222.302	6991.26
222.375	6998.85
222.448	7028.39
222.521	7033.05
222.594	7034.93
222.667	7018.41
222.74	7067.41
222.814	7055.63
222.887	7044.28
222.96	7088.44
223.033	7121.99
223.106	7144.52
223.179	7171.49
223.252	7181.25
223.325	7205.36
223.398	7211.99
223.471	7233.28
223.544	7248.36
223.617	7253.36
223.69	7268.64
223.763	7239.22
223.837	7261.18
223.91	7285.89
223.983	7253.99
224.056	7225.12
224.129	7239.34
224.202	7280.93
224.275	7263.15
224.348	7235.9
224.42	7210.33
224.493	7172.08
224.566	7152.57
224.639	7163.09
224.712	7139.14
224.785	7124.53
224.858	7118.53
224.931	7106.13
225.004	7076.44
225.077	7077.97
225.15	7009.67
225.223	7007.8
225.296	7072.09
225.369	7020.4
225.442	6990.89
225.514	7000.93
225.587	7019.47
225.66	7031.1
225.733	7025.53
225.806	7033.98
225.879	7032.5
225.952	7006.75
226.025	7040.63
226.097	7080.35
226.17	7076.45
226.243	7026.98
226.316	7027.46
226.389	7026.83
226.461	7043.18
226.534	7053.12
226.607	7046.63
226.68	7106.43
226.753	7101.29
226.825	7036.03
226.898	7082.67
226.971	7085.51
227.044	7100.93
227.117	7107.03
227.189	7117.27
227.262	7151.45
227.335	7166.97
227.407	7168.32
227.48	7195.5
227.553	7203.34
227.626	7187.95
227.698	7194.77
227.771	7225.12
227.844	7206.38
227.916	7224.16
227.989	7193.93
228.062	7200.18
228.134	7262.43
228.207	7263.78
228.28	7258.59
228.352	7268.2
228.425	7277.91
228.498	7312.47
228.57	7298.68
228.643	7344.31
228.716	7343.92
228.788	7334.16
228.861	7333.1
228.934	7381.89
229.006	7385.44
229.079	7380.3
229.151	7373.23
229.224	7346.42
229.296	7366.89
229.369	7458.79
229.442	7501.31
229.514	7494.24
229.587	7527.7
229.659	7476.35
229.732	7488.32
229.804	7516.14
229.877	7577.66
229.949	7601.42
230.022	7640.91
230.094	7644.8
230.167	7630.33
230.239	7600.91
230.312	7591.39
230.384	7643.53
230.457	7637.52
230.529	7647.9
230.602	7652.28
230.674	7660.98
230.747	7692.16
230.819	7717.55
230.892	7618.4
230.964	7619.17
231.037	7638.34
231.109	7631.99
231.181	7658.43
231.254	7633.82
231.326	7627.52
231.399	7609.71
231.471	7582.83
231.544	7518.48
231.616	7551.36
231.688	7558.57
231.761	7548
231.833	7541.13
231.905	7474.33
231.978	7479.43
232.05	7463.71
232.122	7467.03
232.195	7447.27
232.267	7473.38
232.339	7453.9
232.412	7507.87
232.484	7480.94
232.556	7455.86
232.629	7508.77
232.701	7524.64
232.773	7531.56
232.846	7525.65
232.918	7524.45
232.99	7544.21
233.062	7581.28
233.135	7590.51
233.207	7563.44
233.279	7597.66
233.351	7619.82
233.424	7623.18
233.496	7602.99
233.568	7675.55
233.64	7649.45
233.713	7661.23
233.785	7660.65
233.857	7671.42
233.929	7634.22
234.001	7687.77
234.074	7742.16
234.146	7684.16
234.218	7679.44
234.29	7678
234.362	7670.75
234.434	7635.35
234.507	7605.78
234.579	7563.67
234.651	7552.56
234.723	7580.5
234.795	7596.8
234.867	7595.4
234.939	7642.57
235.012	7653.05
235.084	7650.31
235.156	7680.02
235.228	7665.55
235.3	7651.17
235.372	7658.67
235.444	7698.52
235.516	7633.68
235.588	7640.55
235.66	7659.64
235.732	7640.65
235.804	7796.4
235.876	7829.96
235.948	7885.37
236.02	7894.4
236.092	7909.49
236.164	7915.31
236.236	7916.52
236.308	7911.61
236.38	7930.99
236.452	7916.13
236.524	7934.69
236.596	7978.16
236.668	8007.26
236.74	8028.41
236.812	8049.14
236.884	8082.96
236.956	8093.11
237.028	8089.41
237.1	8073.16
237.172	8124.2
237.244	8184.19
237.316	8088.89
237.388	8078.6
237.46	8061.56
237.532	8113.75
237.604	8106.3
237.675	8167.31
237.747	8197.91
237.819	8190.07
237.891	8192.77
237.963	8183.82
238.035	8177.67
238.107	8099.7
238.178	8145.63
238.25	8146.15
238.322	8215.36
238.394	8177.6
238.466	8171.59
238.538	8202.12
238.609	8235.64
238.681	8196.86
238.753	8180.35
238.825	8196.96
238.897	8214.8
238.968	8277.62
239.04	8257.26
239.112	8342.51
239.184	8309.44
239.255	8306.75
239.327	8330.17
239.399	8342.63
239.471	8379.33
239.542	8411.71
239.614	8460.3
239.686	8394.85
239.758	8435.02
239.829	8417.78
239.901	8465.27
239.973	8485.24
240.044	8515.31
240.116	8527.19
240.188	8533.5
240.259	8547.5
240.331	8540.52
240.403	8571.31
240.474	8531.35
240.546	8529.71
240.618	8487.94
240.689	8485.58
240.761	8503.78
240.833	8555.75
240.904	8561.38
240.976	8556.52
241.048	8566.53
241.119	8595.61
241.191	8631.07
241.262	8689.43
241.334	8693.86
241.405	8702.23
241.477	8705.6
241.549	8711.33
241.62	8732.08
241.692	8764.41
241.763	8805.38
241.835	8821.46
241.906	8834.12
241.978	8808.95
242.049	8858.23
242.121	8905.26
242.192	8957.29
242.264	8928.94
242.335	8894.81
242.407	8931.01
242.478	8939.48
242.55	8952.62
242.621	8941.98
242.693	8943.42
242.764	8933.93
242.836	8930.56
242.907	8957.87
242.979	8985.64
243.05	9009.47
243.122	9024.3
243.193	9024.92
243.264	8972.45
243.336	8978.57
243.407	9005.91
243.479	9069.89
243.55	9086.26
243.622	9098.68
243.693	9100.37
243.764	9157.75
243.836	9138.36
243.907	9128.39
243.978	9131.33
244.05	9151.41
244.121	9117.95
244.192	9150.98
244.264	9110.24
244.335	9121.32
244.407	9073.03
244.478	9080.4
244.549	9067.45
244.62	9030.53
244.692	9031.63
244.763	9070.53
244.834	9058.3
244.906	9040.39
244.977	9062.4
245.048	9097.99
245.119	9077.96
245.191	9058.8
245.262	9009.07
245.333	9070.77
245.405	9081.36
245.476	9111.74
245.547	9126.38
245.618	9161.42
245.689	9166.38
245.761	9193.29
245.832	9196.57
245.903	9233.88
245.974	9259.11
246.045	9267.1
246.117	9344.87
246.188	9335.24
246.259	9319.83
246.33	9336.78
246.401	9348.33
246.473	9316.74
246.544	9313.13
246.615	9362.15
246.686	9370.62
246.757	9429.55
246.828	9410.25
246.899	9472.38
246.97	9442.39
247.042	9436.71
247.113	9480.97
247.184	9555.45
247.255	9556.27
247.326	9576.93
247.397	9581.12
247.468	9587.72
247.539	9605.68
247.61	9562.96
247.681	9594.2
247.752	9633.35
247.823	9608.75
247.894	9620.59
247.965	9596.33
248.037	9580
248.108	9541.09
248.179	9543.93
248.25	9533.48
248.321	9562.89
248.392	9527.87
248.463	9594.76
248.534	9590.66
248.605	9594.71
248.675	9567.29
248.746	9584.05
248.817	9594.98
248.888	9614.63
248.959	9570.67
249.03	9586.66
249.101	9592.48
249.172	9587.96
249.243	9537.93
249.314	9593.07
249.385	9604.87
249.456	9627.54
249.527	9625.86
249.598	9636.93
249.669	9633.37
249.739	9646.32
249.81	9652.92
249.881	9619.46
249.952	9611.75
250.023	9612.9
250.094	9574.32
250.165	9556.06
250.235	9549.13
250.306	9551.59
250.377	9523.22
250.448	9544.74
250.519	9496.3
250.59	9538.73
250.66	9535.55
250.731	9586.69
250.802	9588.13
250.873	9605.18
250.944	9626.23
251.014	9616.5
251.085	9693.05
251.156	9720.02
251.227	9757.74
251.297	9797.48
251.368	9834.61
251.439	9868.14
251.51	9906.34
251.58	9903.83
251.651	9897.52
251.722	9943.48
251.792	9906.83
251.863	9913.71
251.934	9965.4
252.005	10048.43
252.075	10055.51
252.146	10091.25
252.217	10127.91
252.287	10161.01
252.358	10161.44
252.429	10223.25
252.499	10216.32
252.57	10226.25
252.641	10257.27
252.711	10265.99
252.782	10232.27
252.852	10294.66
252.923	10293.84
252.994	10308.06
253.064	10343.31
253.135	10331.66
253.205	10313.3
253.276	10370.62
253.347	10425.29
253.417	10409.39
253.488	10402.55
253.558	10404.09
253.629	10408.96
253.699	10422.74
253.77	10448.81
253.841	10439.94
253.911	10440.72
253.982	10460.9
254.052	10485.24
254.123	10494.24
254.193	10493.62
254.264	10599.34
254.334	10569.85
254.405	10543.79
254.475	10517.53
254.546	10524.03
254.616	10571.34
254.687	10589.99
254.757	10606.27
254.827	10602.85
254.898	10613.11
254.968	10614.03
255.039	10593.41
255.109	10616.78
255.18	10595.72
255.25	10535.54
255.321	10565.8
255.391	10535.63
255.461	10599.91
255.532	10529.16
255.602	10528.83
255.673	10487.11
255.743	10458.28
255.813	10406.11
255.884	10452.56
255.954	10481.66
256.024	10532.59
256.095	10532.98
256.165	10509.56
256.235	10528.65
256.306	10519.21
256.376	10558.24
256.446	10595.87
256.517	10626.22
256.587	10667.43
256.657	10685.3
256.728	10697.63
256.798	10697.68
256.868	10697.44
256.938	10676.72
257.009	10719.12
257.079	10741
257.149	10824.98
257.219	10783.35
257.29	10809.98
257.36	10759.92
257.43	10791.58
257.5	10740.17
257.571	10734.82
257.641	10769.22
257.711	10743.59
257.781	10768.01
257.852	10781.22
257.922	10735.54
257.992	10735.44
258.062	10725.46
258.132	10756.07
258.202	10766.38
258.273	10776.93
258.343	10827.91
258.413	10810.57
258.483	10810.37
258.553	10790.23
258.623	10764.45
258.693	10782.52
258.764	10840.92
258.834	10897.63
258.904	10907.7
258.974	10899.03
259.044	10910.01
259.114	10931.07
259.184	10954.01
259.254	10959.46
259.324	10919.99
259.394	10947.55
259.464	11011.21
259.535	11021.38
259.605	11021.34
259.675	11018.83
259.745	11048.95
259.815	11038.68
259.885	11047.55
259.955	11138.26
260.025	11132.24
260.095	11140.97
260.165	11170.89
260.235	11219
260.305	11206.9
260.375	11184.06
260.445	11259.03
260.515	11309.4
260.585	11344.82
260.655	11352.29
260.725	11385.4
260.795	11416.2
260.865	11476.39
260.934	11449.4
261.004	11471.96
261.074	11468.59
261.144	11517.69
261.214	11547.52
261.284	11544.78
261.354	11573.02
261.424	11537.87
261.494	11589.53
261.564	11598.5
261.634	11616.14
261.703	11559.6
261.773	11580.37
261.843	11607.22
261.913	11602.11
261.983	11555.74
262.053	11573.19
262.123	11572.71
262.192	11543.27
262.262	11576.28
262.332	11539.36
262.402	11563.8
262.472	11573.53
262.541	11517.73
262.611	11557.89
262.681	11541.88
262.751	11573.69
262.821	11584.54
262.89	11560.19
262.96	11582.51
263.03	11641.17
263.1	11660.07
263.169	11682.14
263.239	11707.06
263.309	11762.44
263.379	11785.82
263.448	11804.66
263.518	11827.61
263.588	11838.89
263.657	11897.3
263.727	11925.21
263.797	11936.34
263.867	11932.83
263.936	11897.64
264.006	11958.74
264.076	11944.33
264.145	11942.59
264.215	11927.94
264.285	11953.82
264.354	11918.64
264.424	11906.69
264.494	11870.49
264.563	11860.6
264.633	11915.94
264.702	11926.3
264.772	11885.38
264.842	11881.86
264.911	11909.53
264.981	11873.95
265.05	11877.76
265.12	11874.43
265.19	11880.84
265.259	11912.37
265.329	11940.76
265.398	11961.58
265.468	12032.34
265.537	12033.74
265.607	12061.89
265.676	12109.17
265.746	12130.33
265.815	12177.52
265.885	12196.41
265.955	12179.26
266.024	12181.76
266.094	12131.87
266.163	12193.67
266.232	12236.48
266.302	12240
266.371	12256.63
266.441	12272.19
266.51	12315.48
266.58	12320.25
266.649	12310.95
266.719	12355.39
266.788	12383.79
266.858	12445.49
266.927	12395.26
266.996	12414.97
267.066	12438.55
267.135	12409.72
267.205	12439.27
267.274	12454.6
267.343	12491.96
267.413	12511.96
267.482	12561.56
267.552	12619.7
267.621	12574.53
267.69	12542.28
267.76	12564.55
267.829	12594.29
267.898	12615.02
267.968	12600.17
268.037	12626.4
268.106	12670.02
268.176	12639.36
268.245	12648.38
268.314	12645.49
268.384	12700.58
268.453	12718.08
268.522	12734.18
268.592	12787.3
268.661	12779.01
268.73	12800.37
268.799	12788.8
268.869	12858.65
268.938	12826.59
269.007	12824.03
269.076	12848.28
269.146	12896.15
269.215	12922.61
269.284	12969.81
269.353	12966.67
269.422	12978.24
269.492	12976.36
269.561	12907.53
269.63	12942.96
269.699	12944.6
269.768	12957.76
269.838	12973.91
269.907	13007.27
269.976	12985.14
270.045	12941.75
270.114	12971.64
270.183	12986.25
270.253	13007.46
270.322	12963.35
270.391	12981.52
270.46	13029.63
270.529	13062.75
270.598	13098.33
270.667	13103.29
270.736	13077.7
270.806	13100.84
270.875	13140.03
270.944	13151.31
271.013	13255.43
271.082	13275.24
271.151	13293.37
271.22	13258.23
271.289	13265.07
271.358	13269.99
271.427	13299.73
271.496	13331.35
271.565	13326.87
271.634	13346.49
271.703	13449.12
271.772	13493.76
271.841	13510.73
271.91	13487.49
271.979	13502.39
272.048	13478.82
272.117	13521.82
272.186	13525.58
272.255	13567.8
272.324	13606.32
272.393	13639.05
272.462	13631
272.531	13648.12
272.6	13658.77
272.669	13720.72
272.738	13729.06
272.807	13759.52
272.876	13750.89
272.945	13855.6
273.013	13909.92
273.082	13952.88
273.151	13880.38
273.22	13916.24
273.289	13929.5
273.358	13997.81
273.427	14010.29
273.496	14049.58
273.564	14073.49
273.633	14127.05
273.702	14119.04
273.771	14126.85
273.84	14149.75
273.909	14184.07
273.977	14213.72
274.046	14224.95
274.115	14269.4
274.184	14270.89
274.253	14281.55
274.322	14346.91
274.39	14298.71
274.459	14299.86
274.528	14269.54
274.597	14292.73
274.665	14308.59
274.734	14373.28
274.803	14372.56
274.872	14388.47
274.94	14388.18
275.009	14495.33
275.078	14491.62
275.147	14518.9
275.215	14540.54
275.284	14594.87
275.353	14614.2
275.421	14587.88
275.49	14665.49
275.559	14675.8
275.627	14701.93
275.696	14730.95
275.765	14758.04
275.833	14766.62
275.902	14802.05
275.971	14870.26
276.039	14937.79
276.108	14998.77
276.177	15023.79
276.245	15030.92
276.314	15055.26
276.383	15106.5
276.451	15048.72
276.52	15090.6
276.588	15157.27
276.657	15206.87
276.725	15206.82
276.794	15241.14
276.863	15306.41
276.931	15277.49
277	15321.69
277.068	15377.22
277.137	15448.75
277.205	15477.23
277.274	15564.96
277.342	15616.97
277.411	15600.1
277.48	15604.48
277.548	15594.99
277.617	15625.98
277.685	15650.81
277.754	15696.5
277.822	15714.05
277.89	15778.29
277.959	15792.99
278.027	15777.96
278.096	15783.98
278.164	15893.58
278.233	15899.27
278.301	15909.68
278.37	15961.01
278.438	15962.99
278.507	16003.81
278.575	15962.07
278.643	15986.46
278.712	15962.7
278.78	15960.39
278.849	16016.35
278.917	16076.21
278.985	16101.95
279.054	16134
279.122	16199.36
279.191	16230.3
279.259	16251.02
279.327	16233.14
279.396	16314.4
279.464	16340.09
279.532	16394.84
279.601	16411.9
279.669	16435.14
279.737	16508.83
279.806	16552.01
279.874	16617.27
279.942	16649.8
280.011	16685.32
280.079	16740.85
280.147	16827.98
280.215	16871.46
280.284	16896.71
280.352	16897.1
280.42	16960.76
280.488	16978.26
280.557	16990.55
280.625	17024.81
280.693	17057.88
280.761	17106.22
280.83	17091.95
280.898	17159.62
280.966	17142.02
281.034	17094.51
281.102	17099.04
281.171	17105.69
281.239	17156.96
281.307	17168.63
281.375	17171.81
281.443	17269.35
281.512	17288.72
281.58	17345.11
281.648	17336
281.716	17367.57
281.784	17394.65
281.852	17402.7
281.92	17438.55
281.989	17508.67
282.057	17499.42
282.125	17615.42
282.193	17649.83
282.261	17685.78
282.329	17704.91
282.397	17750.74
282.465	17800.86
282.533	17873.3
282.601	17883.27
282.67	17868.19
282.738	17880.14
282.806	17947.56
282.874	17945.58
282.942	17990.06
283.01	18000.14
283.078	18061.29
283.146	18101
283.214	18170.54
283.282	18216.42
283.35	18282.1
283.418	18293.96
283.486	18353.76
283.554	18311.26
283.622	18336.46
283.69	18370.82
283.758	18395.06
283.826	18450.63
283.894	18507.88
283.962	18596.06
284.03	18673.99
284.098	18715.67
284.165	18746.95
284.233	18779.72
284.301	18799.38
284.369	18812.1
284.437	18829.21
284.505	18855.81
284.573	18927.03
284.641	18924.62
284.709	18972.86
284.777	18962.21
284.845	19018.93
284.912	19073.48
284.98	19129.67
285.048	19152.18
285.116	19199.5
285.184	19272.65
285.252	19306.67
285.319	19307.88
285.387	19317.71
285.455	19311.54
285.523	19365.03
285.591	19391.01
285.659	19426.76
285.726	19500.11
285.794	19511.63
285.862	19539.38
285.93	19569.79
285.997	19589.84
286.065	19617.79
286.133	19633.69
286.201	19671.23
286.269	19669.5
286.336	19679.13
286.404	19705.25
286.472	19762.17
286.539	19756.77
286.607	19748.43
286.675	19785.15
286.743	19847.27
286.81	19867.46
286.878	19933.05
286.946	19947.03
287.013	19985.68
287.081	20020.81
287.149	20019.84
287.216	20105.96
287.284	20131.36
287.352	20165.48
287.419	20196.08
287.487	20281.67
287.555	20326.25
287.622	20352.42
287.69	20411.51
287.758	20484.18
287.825	20497.67
287.893	20510.45
287.96	20556.28
288.028	20621.1
288.096	20657.24
288.163	20682.54
288.231	20683.6
288.298	20724.76
288.366	20797.68
288.433	20836.91
288.501	20839.47
288.569	20875.42
288.636	20887.28
288.704	20965.5
288.771	21026.42
288.839	21035.91
288.906	21037.6
288.974	21103.44
289.041	21137.47
289.109	21136.36
289.176	21178.29
289.244	21234.25
289.311	21293.73
289.379	21364.43
289.446	21400.2
289.514	21442.42
289.581	21488.79
289.649	21532.74
289.716	21572.95
289.783	21589.43
289.851	21662.5
289.918	21708.58
289.986	21782.09
290.053	21823.69
290.121	21847.69
290.188	21884.91
290.255	22005.28
290.323	22045.29
290.39	22071.95
290.458	22129.98
290.525	22203.59
290.592	22224.51
290.66	22259.65
290.727	22284.62
290.794	22343.1
290.862	22392.57
290.929	22432.48
290.996	22469.51
291.064	22536.13
291.131	22598.42
291.198	22664.43
291.266	22700.34
291.333	22748.02
291.4	22788.81
291.468	22868.27
291.535	22899.42
291.602	22951.88
291.669	22956.8
291.737	22996.96
291.804	23025.21
291.871	23098.55
291.938	23147.06
292.006	23256.93
292.073	23329.2
292.14	23392.95
292.207	23415.28
292.275	23447.34
292.342	23510.9
292.409	23608.33
292.476	23704.84
292.543	23712.89
292.611	23748.15
292.678	23825.6
292.745	23922.1
292.812	23971.01
292.879	23989.19
292.946	24026.76
293.014	24087.87
293.081	24149.28
293.148	24220.51
293.215	24290.89
293.282	24301.35
293.349	24367.49
293.416	24350.41
293.484	24412.4
293.551	24477.04
293.618	24548.68
293.685	24648.41
293.752	24664.85
293.819	24685.65
293.886	24688.35
293.953	24739.15
294.02	24801.68
294.087	24856.4
294.154	24875.02
294.221	24953.44
294.288	24997.15
294.356	25083.66
294.423	25147.65
294.49	25161.26
294.557	25235.14
294.624	25251.84
294.691	25347.67
294.758	25383.81
294.825	25446.26
294.892	25465.9
294.959	25492.35
295.026	25546.02
295.093	25573.78
295.16	25615.61
295.226	25664.65
295.293	25767.62
295.36	25826.35
295.427	25896.94
295.494	25959.22
295.561	26023.27
295.628	26130.7
295.695	26224.36
295.762	26275.34
295.829	26328.89
295.896	26412.45
295.963	26467.07
296.03	26544.79
296.096	26596.41
296.163	26666.33
296.23	26743.45
296.297	26827.46
296.364	26871.3
296.431	26933.89
296.498	26955.04
296.564	27065.37
296.631	27119.66
296.698	27116.57
296.765	27208.24
296.832	27221.13
296.899	27235.48
296.965	27327.36
297.032	27306.38
297.099	27386.5
297.166	27447.32
297.233	27478.82
297.299	27511.47
297.366	27547.47
297.433	27590.12
297.5	27659.46
297.566	27708.02
297.633	27754.37
297.7	27799.98
297.767	27838.76
297.833	27887.91
297.9	27932.45
297.967	27923.9
298.033	27993.25
298.1	28120.08
298.167	28145.69
298.234	28199.96
298.3	28257.7
298.367	28275.39
298.434	28340.7
298.5	28351.58
298.567	28377.34
298.634	28414.65
298.7	28489.95
298.767	28541.39
298.834	28612.83
298.9	28638.02
298.967	28657.17
299.033	28711.9
299.1	28778.53
299.167	28856.63
299.233	28896.72
299.3	28982.48
299.366	29068.85
299.433	29142.42
299.5	29103.06
299.566	29148.51
299.633	29239.42
299.699	29310.08
299.766	29342.57
299.832	29381.99
299.899	29440.37
299.965	29507.98
300.032	29541.73
300.099	29610.18
300.165	29655.06
300.232	29679.73
300.298	29716.73
300.365	29797.65
300.431	29834.03
300.498	29857.45
300.564	29918.88
300.631	29982.4
300.697	30046.9
300.763	30090.44
300.83	30124.13
300.896	30218.32
300.963	30284.12
301.029	30332.42
301.096	30378.98
301.162	30454.55
301.229	30487.56
301.295	30500.53
301.361	30544.32
301.428	30600.63
301.494	30585.92
301.561	30639.45
301.627	30688.66
301.693	30746.93
301.76	30795.62
301.826	30830.04
301.892	30894.02
301.959	30947.61
302.025	30967.21
302.092	30999.46
302.158	31070.08
302.224	31105.14
302.291	31109.21
302.357	31126.97
302.423	31146.34
302.49	31157.14
302.556	31212.68
302.622	31249.47
302.688	31321.66
302.755	31402.53
302.821	31458.06
302.887	31539.77
302.954	31577.11
303.02	31638.16
303.086	31680.97
303.152	31707.22
303.219	31737.92
303.285	31789.74
303.351	31847.38
303.417	31903.95
303.483	31917.07
303.55	31919.15
303.616	31951.66
303.682	31994.27
303.748	32029.13
303.815	32098.6
303.881	32173.38
303.947	32193.1
304.013	32238.05
304.079	32249.09
304.145	32229.67
304.212	32271.86
304.278	32274.47
304.344	32296.27
304.41	32303
304.476	32319.96
304.542	32336.72
304.608	32382.25
304.674	32381.09
304.741	32398.83
304.807	32436.43
304.873	32488.21
304.939	32571.16
305.005	32571.45
305.071	32600.37
305.137	32652.06
305.203	32632.05
305.269	32661.08
305.335	32713.76
305.401	32732.46
305.467	32773.45
305.533	32826.99
305.599	32866.2
305.666	32929.91
305.732	32974.35
305.798	33043.16
305.864	33135.54
305.93	33191.27
305.996	33235.13
306.062	33270.65
306.128	33298.33
306.194	33291.79
306.259	33329.16
306.325	33328.82
306.391	33386.05
306.457	33444.26
306.523	33467.43
306.589	33554.49
306.655	33572.96
306.721	33558.66
306.787	33562.34
306.853	33623.72
306.919	33620.18
306.985	33629.14
307.051	33646.26
307.117	33657.6
307.183	33668.6
307.248	33620.75
307.314	33662.69
307.38	33696.78
307.446	33744.53
307.512	33748.16
307.578	33811.43
307.644	33831.79
307.709	33878.48
307.775	33900.69
307.841	33911.21
307.907	33950.33
307.973	33940.05
308.039	33968.51
308.104	34016.51
308.17	34062.03
308.236	34050.34
308.302	34090.77
308.368	34096.25
308.433	34124.17
308.499	34142.89
308.565	34149.72
308.631	34202.62
308.696	34175.46
308.762	34165.47
308.828	34191.47
308.894	34169.32
308.959	34138.67
309.025	34144.74
309.091	34160.26
309.156	34168.79
309.222	34214.08
309.288	34212.97
309.354	34182.86
309.419	34204.97
309.485	34198.28
309.551	34237.85
309.616	34238.48
309.682	34265.11
309.748	34287.26
309.813	34303.95
309.879	34318.25
309.945	34328
310.01	34336.92
310.076	34366.84
310.141	34385.8
310.207	34372.12
310.273	34412.16
310.338	34464.15
310.404	34457.94
310.469	34453.77
310.535	34455.22
310.601	34422.73
310.666	34461.68
310.732	34525.3
310.797	34525.69
310.863	34547.46
310.928	34553.96
310.994	34593.83
311.059	34617.11
311.125	34635.15
311.191	34695.84
311.256	34705.87
311.322	34739.73
311.387	34719.41
311.453	35859.01
311.518	35866.38
311.584	35901.35
311.649	35953.63
311.715	35949.17
311.78	35980.94
311.846	35979.63
311.911	36025.51
311.976	36064.85
312.042	36055.73
312.107	36031.81
312.173	36033.03
312.238	36045.15
312.304	36068.39
312.369	36070.04
312.434	36062.37
312.5	36080.37
312.565	36024.43
312.631	36055.43
312.696	36071.19
312.761	36127.36
312.827	35037.34
312.892	35128.12
312.958	35140.83
313.023	35159.7
313.088	35181.62
313.154	35171.78
313.219	35184.78
313.284	35190.07
313.35	35207.53
313.415	35196.37
313.48	35223
313.546	35264.34
313.611	35310.04
313.676	35306.06
313.741	35311.93
313.807	35355.69
313.872	35398.58
313.937	35444.28
314.003	35490.81
314.068	35511.52
314.133	35543.69
314.198	35528.66
314.264	35498.66
314.329	35492.16
314.394	35504.92
314.459	35516.9
314.525	35599.24
314.59	35608.16
314.655	35603.46
314.72	35646.6
314.785	35686.96
314.851	35689.96
314.916	35669.78
314.981	35645.67
315.046	35655.85
315.111	35656.39
315.176	35660.12
315.242	35680.51
315.307	35693.12
315.372	35664.44
315.437	35674.73
315.502	35683.9
315.567	35754.56
315.632	35743.06
315.698	35780.18
315.763	35791.49
315.828	35787.36
315.893	35785.32
315.958	35807.45
316.023	35802.4
316.088	35765.76
316.153	35732.15
316.218	35727.59
316.283	35688.44
316.348	35659.29
316.413	35663.75
316.479	35637.56
316.544	35547.58
316.609	35470.39
316.674	35366.3
316.739	35273.96
316.804	35166.82
316.869	35041.24
316.934	34917.82
316.999	34827.65
317.064	34683.61
317.129	34552.41
317.194	34451.94
317.259	34305.75
317.324	34138.06
317.389	33995.77
317.454	33870.14
317.518	33759.08
317.583	33673.06
317.648	33587.11
317.713	33468.06
317.778	33274.36
317.843	33157.16
317.908	33017.48
317.973	32876.06
318.038	32781.14
318.103	32661.19
318.168	32553.59
318.233	32439.69
318.297	32270.09
318.362	32131.11
318.427	31979.5
318.492	31867.79
318.557	31696.88
318.622	31584.9
318.687	31496.06
318.751	31350.23
318.816	31204.44
318.881	31063.67
318.946	30871.66
319.011	30698.91
319.075	30546.7
319.14	30407.55
319.205	30240.5
319.27	30107.72
319.335	29939.23
319.399	29771.59
319.464	29633.98
319.529	29430.96
319.594	29273.28
319.658	29130.79
319.723	28953.28
319.788	28819.67
319.853	28606.75
319.917	28469.5
319.982	28254.23
320.047	28079.06
320.112	27953.04
320.176	27760.87
320.241	27592.28
320.306	27423.97
320.37	27246.06
320.435	27075.69
320.5	26923.4
320.564	26745.39
320.629	26563.26
320.694	26395.72
320.758	26211.37
320.823	26009.05
320.888	25856
320.952	25649.02
321.017	25465.03
321.082	25284.88
321.146	25108.44
321.211	24937.98
321.275	24742.05
321.34	24544.12
321.405	24344.68
321.469	24132.66
321.534	23936.27
321.598	23718.31
321.663	23561.5
321.727	23395.55
321.792	23191.13
321.857	22983.28
321.921	22799.23
321.986	22605.57
322.05	22383.75
322.115	22204.79
322.179	22018.9
322.244	21797.26
322.308	21622.76
322.373	21418.67
322.437	21231.26
322.502	21083.32
322.566	20897.51
322.631	20723.38
322.695	20538.36
322.76	20347.08
322.824	20173.24
322.889	19978.45
322.953	19786.16
323.018	19536.13
323.082	19279.98
323.146	19061.86
323.211	18845.96
323.275	18638.45
323.34	18435.85
323.404	18254.26
323.468	18044.92
323.533	17836.87
323.597	17629.73
323.662	17405.58
323.726	17219.21
323.79	17000.41
323.855	16737.41
323.919	16511.37
323.983	16294.44
324.048	15991.36
324.112	16009.91
324.177	15363.36
324.241	14524.88
324.305	13695.81
324.37	12878.55
324.434	12092.33
324.498	11866.11
324.562	11617.62
324.627	11336.46
324.691	11049.31
324.755	10731.84
324.82	10365.83
324.884	9988.23
324.948	9601.13
325.012	9134.59
325.077	8557.17
