Data from 20250626_urea_1M_exp2_MAYP1162681_21-43-59-325.txt Node
Date: Thu Jun 26 21:43:59 BST 2025
User: adleo
Spectrometer: MAYP116268
Trigger mode: 0
Integration Time (sec): 3.000000E0
Scans to average: 1
Electric dark correction enabled: true
Nonlinearity correction enabled: true
Boxcar width: 10
XAxis mode: Wavelengths
Number of Pixels in Spectrum: 2068
>>>>>Begin Spectral Data<<<<<
179.565	2951.62
179.642	3108.29
179.718	3222.53
179.795	3328.93
179.871	3420
179.948	3474.57
180.024	3526.38
180.101	3586.89
180.177	3624.75
180.254	3683.28
180.33	3744.24
180.407	3947.93
180.483	4177.96
180.56	4408.1
180.636	4624.48
180.712	4590.91
180.789	4614.94
180.865	4647.37
180.942	4673.49
181.018	4702.83
181.095	4736.69
181.171	4744.64
181.248	4749.33
181.324	4791.62
181.4	4810.68
181.477	4840.28
181.553	4871.19
181.63	4927.08
181.706	4966.16
181.782	4991.09
181.859	4997.65
181.935	5012.11
182.011	5006.8
182.088	5049.53
182.164	5100.04
182.24	5130.64
182.317	5156.54
182.393	5148.54
182.469	5185.67
182.546	5221.21
182.622	5233.33
182.698	5226.24
182.775	5261.98
182.851	5292.41
182.927	5274.05
183.003	5261.51
183.08	5241.68
183.156	5267.36
183.232	5264.43
183.308	5237.27
183.385	5257.24
183.461	5298.07
183.537	5299.85
183.613	5331.43
183.69	5311.4
183.766	5284.4
183.842	5305.97
183.918	5322.5
183.995	5360.83
184.071	5364.23
184.147	5349.57
184.223	5319.21
184.299	5346.72
184.375	5316.39
184.452	5338.69
184.528	5442.88
184.604	5471.28
184.68	5505.83
184.756	5522.37
184.832	5532.35
184.908	5546.09
184.985	5547.58
185.061	5505.02
185.137	5527.84
185.213	5496.26
185.289	5493.34
185.365	5479.25
185.441	5471.77
185.517	5507.55
185.593	5495.33
185.669	5489.05
185.745	5513.64
185.822	5558.38
185.898	5534.64
185.974	5557.83
186.05	5535.34
186.126	5469.89
186.202	5452.78
186.278	5439.7
186.354	5417.45
186.43	5431.7
186.506	5427.05
186.582	5421.3
186.658	5441.66
186.734	5390.82
186.81	5398.2
186.886	5407.78
186.962	5434.33
187.038	5426.61
187.114	5404.88
187.19	5426.02
187.266	5403.27
187.341	5409.88
187.417	5388.8
187.493	5387.98
187.569	5396.9
187.645	5379.02
187.721	5350.98
187.797	5372.78
187.873	5383.71
187.949	5364.88
188.025	5346.94
188.101	5356.57
188.176	5372.29
188.252	5358.78
188.328	5379.71
188.404	5379.66
188.48	5373.86
188.556	5355.94
188.632	5358.52
188.707	5360.3
188.783	5356.13
188.859	5343.97
188.935	5308.49
189.011	5328.62
189.086	5316.88
189.162	5293.78
189.238	5289.85
189.314	5282.67
189.39	5265.51
189.465	5247.97
189.541	5293.31
189.617	5253.07
189.693	5238.55
189.768	5244.59
189.844	5308.9
189.92	5282.56
189.996	5307.44
190.071	5329.34
190.147	5326.13
190.223	5349.53
190.298	5327.91
190.374	5297.33
190.45	5328.37
190.526	5353.1
190.601	5338.82
190.677	5340.16
190.753	5417.68
190.828	5427.55
190.904	5468.3
190.98	5505.41
191.055	5529.62
191.131	5507.75
191.207	5566.46
191.282	5593.1
191.358	5566.64
191.433	5528.7
191.509	5566.29
191.585	5554.4
191.66	5561.4
191.736	5584.89
191.811	5560.72
191.887	5603.5
191.963	5657.34
192.038	5674.32
192.114	5676.95
192.189	5691
192.265	5683.72
192.34	5620.43
192.416	5616.98
192.491	5603.16
192.567	5610.41
192.642	5620.81
192.718	5618.7
192.793	5589.45
192.869	5574.74
192.944	5583.37
193.02	5602.89
193.095	5610.51
193.171	5629.93
193.246	5629.45
193.322	5621.87
193.397	5619.91
193.473	5584.51
193.548	5540.92
193.624	5553.53
193.699	5546.05
193.775	5583.09
193.85	5586.2
193.925	5613.01
194.001	5608.65
194.076	5587.36
194.152	5557.48
194.227	5535.85
194.302	5516.16
194.378	5522.87
194.453	5517.03
194.529	5552.37
194.604	5514.82
194.679	5504.81
194.755	5454.3
194.83	5484.24
194.905	5483.04
194.981	5506
195.056	5483.63
195.131	5500.16
195.207	5495.32
195.282	5472.08
195.357	5424.89
195.433	5467.07
195.508	5433.21
195.583	5455.69
195.659	5496.84
195.734	5515.97
195.809	5517.12
195.884	5533.84
195.96	5530.96
196.035	5570.94
196.11	5559.72
196.185	5588.67
196.261	5594.47
196.336	5672.14
196.411	5630.4
196.486	5635.87
196.561	5618.8
196.637	5650.19
196.712	5692.65
196.787	5699.51
196.862	5745.58
196.937	5764.76
197.013	5778.53
197.088	5809.64
197.163	5864.26
197.238	5907.33
197.313	5909.63
197.388	5946.85
197.464	6025.12
197.539	6056.92
197.614	6041.43
197.689	6074.15
197.764	6119.42
197.839	6174.88
197.914	6161.2
197.989	6224.16
198.065	6265.13
198.14	6399.23
198.215	6465.33
198.29	6494.15
198.365	6532.95
198.44	6560.59
198.515	6641.21
198.59	6680.73
198.665	6743.49
198.74	6766.6
198.815	6772.41
198.89	6833.54
198.965	6911.62
199.04	6904.32
199.115	6948.74
199.19	7056.45
199.265	7061.06
199.34	7084.94
199.415	7169.55
199.49	7226.8
199.565	7246.4
199.64	7313.01
199.715	7305.6
199.79	7318
199.865	7332.66
199.94	7323.77
200.015	7402.6
200.09	7419.67
200.165	7433.17
200.24	7454.66
200.315	7555.12
200.39	7593.39
200.464	7608.29
200.539	7610.89
200.614	7654.43
200.689	7712.42
200.764	7729.88
200.839	7775.62
200.914	7788.21
200.989	7759.21
201.063	7795.61
201.138	7752.28
201.213	7749.4
201.288	7694.69
201.363	7712.81
201.438	7712.57
201.512	7757.26
201.587	7712.54
201.662	7717.11
201.737	7750.33
201.812	7772.65
201.886	7687.82
201.961	7714.76
202.036	7680.21
202.111	7668.23
202.186	7587.38
202.26	7537.61
202.335	7486.5
202.41	7476.65
202.485	7431.05
202.559	7383.23
202.634	7309.55
202.709	7334.47
202.784	7280.07
202.858	7281.51
202.933	7231.87
203.008	7216.1
203.082	7164.93
203.157	7163.01
203.232	7052.7
203.306	6995.88
203.381	6905.63
203.456	6844.91
203.53	6776.52
203.605	6725.36
203.68	6669.76
203.754	6654.27
203.829	6616.32
203.904	6559.14
203.978	6523.11
204.053	6537.52
204.127	6507.17
204.202	6500.69
204.277	6452.88
204.351	6436.51
204.426	6420.13
204.5	6396.8
204.575	6300.98
204.65	6325
204.724	6303.33
204.799	6325.49
204.873	6315.02
204.948	6313.87
205.022	6282.49
205.097	6263.9
205.171	6305.17
205.246	6321.98
205.32	6321.31
205.395	6323.13
205.469	6302.85
205.544	6315.48
205.618	6266.61
205.693	6293.35
205.767	6262.26
205.842	6321.79
205.916	6303.22
205.991	6278.35
206.065	6293.52
206.14	6335.13
206.214	6324.99
206.289	6303.72
206.363	6332.23
206.438	6339.48
206.512	6360.18
206.586	6405.43
206.661	6431.56
206.735	6368.05
206.81	6371.99
206.884	6409.42
206.958	6371.8
207.033	6408.64
207.107	6423.68
207.181	6510.27
207.256	6493.85
207.33	6544.15
207.405	6573.86
207.479	6627.44
207.553	6645.06
207.628	6602.6
207.702	6633.7
207.776	6610.7
207.851	6622.84
207.925	6663.3
207.999	6654.17
208.073	6647.6
208.148	6660.85
208.222	6620.93
208.296	6704.28
208.371	6748.51
208.445	6777.95
208.519	6855.25
208.593	6893.24
208.668	6886.32
208.742	6889.97
208.816	6901.16
208.89	6934.85
208.965	6929.03
209.039	6951.09
209.113	6995
209.187	7055.38
209.261	7049.57
209.336	7103.61
209.41	7153.58
209.484	7156.76
209.558	7221.2
209.632	7253.87
209.707	7277.27
209.781	7339.01
209.855	7386.75
209.929	7422.31
210.003	7441.63
210.077	7440.09
210.151	7567.5
210.226	7658.98
210.3	7733.95
210.374	7789.89
210.448	7802.73
210.522	7833.46
210.596	7856.54
210.67	7882.94
210.744	8008.49
210.818	8092.75
210.892	8146.48
210.966	8134.08
211.041	8173.13
211.115	8162.6
211.189	8226.52
211.263	8277.59
211.337	8295.92
211.411	8330.46
211.485	8316.94
211.559	8344.06
211.633	8349.35
211.707	8264.54
211.781	8281.44
211.855	8184.59
211.929	8162.66
212.003	8114.12
212.077	8137.36
212.151	8168.3
212.225	8189.76
212.299	8149.08
212.373	8117.05
212.447	8102.9
212.52	8174.67
212.594	8181.55
212.668	8206.42
212.742	8163.6
212.816	8147.49
212.89	8130.89
212.964	8124.35
213.038	8129.21
213.112	8162.36
213.186	8200.79
213.26	8139.12
213.333	8013.07
213.407	8024.75
213.481	8033.88
213.555	8062.86
213.629	8025.47
213.703	7976.74
213.777	7971.5
213.85	7916.9
213.924	8003.47
213.998	8004.38
214.072	7983.83
214.146	7940.83
214.219	7927.98
214.293	7917.07
214.367	7914.86
214.441	7932.7
214.515	7891.71
214.588	7828.62
214.662	7725.48
214.736	7660.97
214.81	7674.27
214.883	7698.05
214.957	7661.87
215.031	7615.88
215.105	7545.15
215.178	7499.38
215.252	7475.78
215.326	7400.84
215.4	7339.06
215.473	7195.57
215.547	7122.54
215.621	7073.24
215.694	7075.31
215.768	7001.78
215.842	6955.33
215.915	6899.18
215.989	6811.19
216.063	6769.09
216.136	6756.45
216.21	6742.09
216.284	6756.99
216.357	6746.37
216.431	6712.13
216.504	6712.85
216.578	6756.09
216.652	6765.11
216.725	6751.27
216.799	6754.69
216.873	6738.07
216.946	6752.86
217.02	6723.68
217.093	6707.36
217.167	6629.13
217.24	6563.94
217.314	6534.29
217.387	6497.77
217.461	6465.46
217.535	6485.87
217.608	6437.72
217.682	6411.16
217.755	6417.6
217.829	6374.76
217.902	6354.4
217.976	6342.54
218.049	6301.74
218.123	6241.6
218.196	6243.43
218.27	6211.55
218.343	6158.73
218.417	6154.84
218.49	6125.18
218.563	6163.53
218.637	6169.91
218.71	6230.45
218.784	6254.17
218.857	6281.61
218.931	6298.35
219.004	6301.14
219.077	6316.32
219.151	6335.89
219.224	6331.67
219.298	6331.81
219.371	6362.74
219.444	6334.62
219.518	6337.64
219.591	6352.42
219.665	6436.65
219.738	6448.27
219.811	6436.99
219.885	6470.74
219.958	6498.02
220.031	6505.21
220.105	6517.27
220.178	6526.63
220.251	6500.31
220.325	6516.02
220.398	6524.56
220.471	6538.19
220.544	6570.99
220.618	6551.11
220.691	6571.7
220.764	6585.24
220.838	6606.42
220.911	6597.44
220.984	6664.79
221.057	6697.63
221.131	6717.94
221.204	6640.34
221.277	6695.44
221.35	6796.74
221.424	6794.34
221.497	6804.48
221.57	6824.49
221.643	6848.61
221.716	6873.26
221.79	6877.01
221.863	6887.05
221.936	6900.69
222.009	6916.15
222.082	6938.21
222.155	6949.06
222.229	6996.78
222.302	7020.85
222.375	7026.32
222.448	7059.57
222.521	7064.81
222.594	7071.15
222.667	7051.18
222.74	7101.14
222.814	7096.57
222.887	7082.19
222.96	7125.88
223.033	7159.72
223.106	7179.02
223.179	7207.78
223.252	7222.2
223.325	7253.28
223.398	7261.16
223.471	7280.19
223.544	7292.92
223.617	7303.45
223.69	7319.4
223.763	7291.28
223.837	7308.77
223.91	7334.87
223.983	7292.54
224.056	7271.02
224.129	7278.76
224.202	7322.41
224.275	7309
224.348	7280.84
224.42	7254.17
224.493	7206.06
224.566	7182.8
224.639	7197.98
224.712	7175.38
224.785	7167.69
224.858	7158.75
224.931	7145.63
225.004	7122.9
225.077	7124.68
225.15	7051.91
225.223	7049.7
225.296	7115.39
225.369	7069.31
225.442	7045.04
225.514	7061.18
225.587	7071.65
225.66	7087.37
225.733	7082.8
225.806	7087.37
225.879	7083.53
225.952	7053.8
226.025	7093.48
226.097	7136.14
226.17	7127.92
226.243	7073.64
226.316	7068.35
226.389	7071.04
226.461	7085.41
226.534	7098.34
226.607	7093.15
226.68	7159.33
226.753	7156.07
226.825	7089.03
226.898	7136.21
226.971	7137.7
227.044	7154.03
227.117	7160.71
227.189	7170.62
227.262	7205.66
227.335	7222.92
227.407	7224.89
227.48	7254.86
227.553	7262.12
227.626	7246.15
227.698	7257.25
227.771	7289.52
227.844	7280.05
227.916	7298.99
227.989	7275.39
228.062	7275.34
228.134	7345.73
228.207	7348.62
228.28	7343.09
228.352	7357.17
228.425	7368.04
228.498	7404.62
228.57	7393.42
228.643	7442.57
228.716	7442.76
228.788	7429.2
228.861	7422.32
228.934	7470.05
229.006	7475.86
229.079	7474.95
229.151	7462.69
229.224	7435.31
229.296	7461.02
229.369	7540.71
229.442	7580.59
229.514	7573.38
229.587	7606.79
229.659	7543.8
229.732	7553.41
229.804	7585.9
229.877	7647.42
229.949	7665.75
230.022	7705.53
230.094	7705.63
230.167	7695.05
230.239	7661.93
230.312	7649.91
230.384	7705.47
230.457	7703.45
230.529	7715.37
230.602	7720.56
230.674	7734.7
230.747	7762.71
230.819	7785.4
230.892	7686.06
230.964	7679.08
231.037	7699.12
231.109	7692.72
231.181	7723.05
231.254	7695.12
231.326	7683.83
231.399	7667.18
231.471	7649.67
231.544	7584.93
231.616	7623.24
231.688	7625.45
231.761	7616.37
231.833	7612.29
231.905	7544.14
231.978	7545.34
232.05	7529.87
232.122	7530.63
232.195	7511.88
232.267	7546.11
232.339	7525.58
232.412	7581.29
232.484	7568.73
232.556	7541.15
232.629	7598.26
232.701	7612.25
232.773	7617.87
232.846	7609.46
232.918	7611.24
232.99	7624.71
233.062	7659.23
233.135	7663.03
233.207	7634.9
233.279	7671.81
233.351	7699.45
233.424	7709.06
233.496	7691.61
233.568	7757.25
233.64	7730.38
233.713	7738.7
233.785	7737.74
233.857	7751.44
233.929	7711.73
234.001	7759.37
234.074	7813.63
234.146	7755.37
234.218	7750.8
234.29	7754.17
234.362	7742.78
234.434	7701.32
234.507	7674.3
234.579	7635.02
234.651	7625.5
234.723	7647.85
234.795	7660.12
234.867	7654.49
234.939	7700.56
235.012	7706.67
235.084	7706.28
235.156	7736.66
235.228	7724.79
235.3	7709.3
235.372	7712.82
235.444	7762
235.516	7695.65
235.588	7700.18
235.66	7712.53
235.732	7693.59
235.804	7844.83
235.876	7884.24
235.948	7942.11
236.02	7950.47
236.092	7965.33
236.164	7969.85
236.236	7973.89
236.308	7968.21
236.38	7989.52
236.452	7973.88
236.524	7995.57
236.596	8047.95
236.668	8073.4
236.74	8092.34
236.812	8113.12
236.884	8148.1
236.956	8153.2
237.028	8149.93
237.1	8135.5
237.172	8190.88
237.244	8256.16
237.316	8168.7
237.388	8156.3
237.46	8137
237.532	8190.78
237.604	8181.94
237.675	8246.03
237.747	8282.7
237.819	8279.86
237.891	8283.23
237.963	8271.97
238.035	8268.99
238.107	8178.99
238.178	8227.56
238.25	8233.72
238.322	8303.66
238.394	8265.7
238.466	8267.67
238.538	8299.99
238.609	8334.57
238.681	8293.09
238.753	8268.5
238.825	8285.2
238.897	8312.03
238.968	8370.66
239.04	8356.61
239.112	8445.72
239.184	8410.1
239.255	8403.26
239.327	8425.92
239.399	8438.04
239.471	8477.44
239.542	8504.58
239.614	8563.47
239.686	8497
239.758	8536.55
239.829	8510.36
239.901	8561.32
239.973	8574.16
240.044	8601.93
240.116	8616.89
240.188	8632.58
240.259	8647.45
240.331	8635.27
240.403	8662.46
240.474	8626.06
240.546	8613.45
240.618	8562.48
240.689	8563.83
240.761	8583.9
240.833	8638.24
240.904	8645.94
240.976	8650.32
241.048	8661.87
241.119	8690.42
241.191	8732.82
241.262	8782.27
241.334	8787.37
241.405	8786.65
241.477	8790.11
241.549	8802.29
241.62	8814.57
241.692	8849.27
241.763	8893.61
241.835	8909.54
241.906	8925.57
241.978	8906.9
242.049	8961.19
242.121	9016.74
242.192	9075.8
242.264	9046.25
242.335	9016.4
242.407	9052.56
242.478	9053.52
242.55	9066.52
242.621	9054.09
242.693	9054.19
242.764	9053.18
242.836	9054.81
242.907	9086.02
242.979	9109.79
243.05	9125.68
243.122	9151.2
243.193	9144.75
243.264	9095.02
243.336	9099.64
243.407	9125.74
243.479	9187.12
243.55	9200.41
243.622	9207.49
243.693	9201.37
243.764	9256.01
243.836	9228.82
243.907	9217.89
243.978	9220.69
244.05	9242.3
244.121	9205.14
244.192	9236.01
244.264	9196.38
244.335	9206.78
244.407	9167.2
244.478	9180.63
244.549	9167.39
244.62	9133.59
244.692	9135.04
244.763	9170.32
244.834	9160.5
244.906	9145.72
244.977	9156.99
245.048	9199.09
245.119	9180.07
245.191	9159.7
245.262	9111.03
245.333	9174.95
245.405	9188.63
245.476	9215.58
245.547	9229.46
245.618	9271.53
245.689	9278.22
245.761	9303.12
245.832	9302.78
245.903	9337.54
245.974	9355.31
246.045	9371.34
246.117	9436.78
246.188	9424.51
246.259	9406.17
246.33	9419.36
246.401	9430.67
246.473	9406.31
246.544	9397.06
246.615	9446.9
246.686	9454.65
246.757	9509.44
246.828	9489.27
246.899	9545.82
246.97	9521.17
247.042	9519.15
247.113	9555.85
247.184	9620.45
247.255	9623.49
247.326	9651.61
247.397	9657.78
247.468	9668.61
247.539	9682
247.61	9642.41
247.681	9679.25
247.752	9729.47
247.823	9712.76
247.894	9718.25
247.965	9698.66
248.037	9681.12
248.108	9634.65
248.179	9638.69
248.25	9638.89
248.321	9668.55
248.392	9631.89
248.463	9700.32
248.534	9696.03
248.605	9708.22
248.675	9685.76
248.746	9692.6
248.817	9705.42
248.888	9716.83
248.959	9677.39
249.03	9700.03
249.101	9710.82
249.172	9701.67
249.243	9644.27
249.314	9696.37
249.385	9710.1
249.456	9736.58
249.527	9737.79
249.598	9762.15
249.669	9759.22
249.739	9765.33
249.81	9770.15
249.881	9735.62
249.952	9725.31
250.023	9720.64
250.094	9679.36
250.165	9663.65
250.235	9659.03
250.306	9661.73
250.377	9635.48
250.448	9653.44
250.519	9592.81
250.59	9640.5
250.66	9640.12
250.731	9692.45
250.802	9690.09
250.873	9705.8
250.944	9721.84
251.014	9713.02
251.085	9779.56
251.156	9801.71
251.227	9843.72
251.297	9891.41
251.368	9930.95
251.439	9967.57
251.51	10009.52
251.58	10002.44
251.651	9998.88
251.722	10047.58
251.792	10008.52
251.863	10008.47
251.934	10052.01
252.005	10148.83
252.075	10148.64
252.146	10187.26
252.217	10227.06
252.287	10257.17
252.358	10260.2
252.429	10318.84
252.499	10312.58
252.57	10325.2
252.641	10368.51
252.711	10375.11
252.782	10331.51
252.852	10397.57
252.923	10391.55
252.994	10405.14
253.064	10443.77
253.135	10420.12
253.205	10404.6
253.276	10468.33
253.347	10526.67
253.417	10516.07
253.488	10498.77
253.558	10495.01
253.629	10491.59
253.699	10504.36
253.77	10529.85
253.841	10527.68
253.911	10534.04
253.982	10554.9
254.052	10573.26
254.123	10579.82
254.193	10580.97
254.264	10695.13
254.334	10665.88
254.405	10641.4
254.475	10620.11
254.546	10629.79
254.616	10688.28
254.687	10713.86
254.757	10721.81
254.827	10724.27
254.898	10747.11
254.968	10752.26
255.039	10737.91
255.109	10771.39
255.18	10747.49
255.25	10687.8
255.321	10707.74
255.391	10674.45
255.461	10737.04
255.532	10674.87
255.602	10669.76
255.673	10625.25
255.743	10596.04
255.813	10540.49
255.884	10575.86
255.954	10601.11
256.024	10645.58
256.095	10644.23
256.165	10613.64
256.235	10638.94
256.306	10626.75
256.376	10657.64
256.446	10690.12
256.517	10712.57
256.587	10750.21
256.657	10771.94
256.728	10794.1
256.798	10798.58
256.868	10802
256.938	10781.57
257.009	10816.26
257.079	10835.78
257.149	10914.56
257.219	10863.91
257.29	10893.73
257.36	10849.26
257.43	10883.86
257.5	10834.42
257.571	10835.19
257.641	10870.32
257.711	10837.02
257.781	10856.19
257.852	10874.94
257.922	10827.57
257.992	10837.36
258.062	10824.63
258.132	10856.01
258.202	10865.5
258.273	10881.79
258.343	10937.93
258.413	10926.99
258.483	10936.39
258.553	10917.4
258.623	10896.97
258.693	10921.06
258.764	10972.23
258.834	11030.63
258.904	11036.61
258.974	11026.68
259.044	11037.72
259.114	11056.9
259.184	11081.53
259.254	11093.57
259.324	11050.73
259.394	11094.39
259.464	11156.41
259.535	11164.99
259.605	11158.77
259.675	11147.79
259.745	11172.71
259.815	11154.92
259.885	11160.22
259.955	11239.66
260.025	11235.03
260.095	11246.99
260.165	11269.88
260.235	11324.44
260.305	11317.35
260.375	11299.43
260.445	11381.25
260.515	11425.69
260.585	11468.1
260.655	11477.12
260.725	11508.83
260.795	11535.81
260.865	11588.79
260.934	11560.2
261.004	11580.3
261.074	11578.81
261.144	11632.92
261.214	11660.64
261.284	11663.53
261.354	11690.52
261.424	11663.62
261.494	11717.69
261.564	11724.78
261.634	11756.64
261.703	11694.7
261.773	11715.95
261.843	11740.92
261.913	11730.75
261.983	11687.95
262.053	11694.51
262.123	11694.36
262.192	11669.4
262.262	11707.72
262.332	11667.37
262.402	11694.41
262.472	11698.41
262.541	11661.84
262.611	11700.35
262.681	11681.07
262.751	11713.84
262.821	11720.4
262.89	11686.27
262.96	11716.06
263.03	11781.18
263.1	11796.32
263.169	11826.2
263.239	11854.44
263.309	11910.07
263.379	11931.42
263.448	11955.47
263.518	11986.76
263.588	11997.94
263.657	12055.44
263.727	12081.04
263.797	12092.03
263.867	12095.21
263.936	12067.88
264.006	12114.67
264.076	12105.32
264.145	12112.79
264.215	12088.88
264.285	12125.52
264.354	12102.77
264.424	12089.71
264.494	12047.48
264.563	12034.51
264.633	12093.9
264.702	12106.58
264.772	12059.72
264.842	12059.05
264.911	12081.7
264.981	12042.51
265.05	12060.73
265.12	12061.07
265.19	12072.4
265.259	12110.19
265.329	12136.31
265.398	12166.2
265.468	12247.52
265.537	12246.7
265.607	12266.46
265.676	12313.07
265.746	12327.87
265.815	12373.08
265.885	12375.92
265.955	12366.57
266.024	12372.21
266.094	12323.91
266.163	12379.16
266.232	12436.57
266.302	12443.32
266.371	12460.86
266.441	12484.29
266.51	12521.65
266.58	12515.28
266.649	12506.7
266.719	12547.34
266.788	12576.65
266.858	12627.27
266.927	12572.17
266.996	12596.46
267.066	12622.11
267.135	12599.07
267.205	12631.22
267.274	12655.22
267.343	12696.39
267.413	12715.09
267.482	12759.39
267.552	12810.44
267.621	12775.2
267.69	12737.27
267.76	12762.33
267.829	12780.41
267.898	12796.27
267.968	12770.38
268.037	12812.37
268.106	12847.95
268.176	12825.05
268.245	12823.17
268.314	12825.34
268.384	12875.47
268.453	12887.52
268.522	12901.89
268.592	12954.14
268.661	12944.55
268.73	12966.67
268.799	12953.95
268.869	13012.9
268.938	12980.65
269.007	12977.71
269.076	12997.09
269.146	13040.72
269.215	13070.46
269.284	13129.76
269.353	13125.42
269.422	13143.69
269.492	13133.61
269.561	13073.45
269.63	13098.71
269.699	13099.34
269.768	13104.83
269.838	13116.26
269.907	13156.46
269.976	13140.6
270.045	13101.03
270.114	13126.82
270.183	13134.14
270.253	13162.87
270.322	13127.73
270.391	13145.09
270.46	13197.25
270.529	13232.2
270.598	13275.24
270.667	13277.46
270.736	13256.64
270.806	13288.79
270.875	13337.38
270.944	13354.25
271.013	13455.15
271.082	13477.66
271.151	13507.89
271.22	13490.05
271.289	13506.2
271.358	13506.34
271.427	13540.62
271.496	13565.98
271.565	13567.86
271.634	13587.38
271.703	13692.75
271.772	13741.83
271.841	13760.1
271.91	13732.43
271.979	13745.49
272.048	13721.1
272.117	13762.56
272.186	13766.17
272.255	13808.06
272.324	13840.22
272.393	13868.95
272.462	13860.51
272.531	13879.31
272.6	13886.74
272.669	13950.66
272.738	13957.94
272.807	13990.24
272.876	13985.66
272.945	14102.12
273.013	14158.62
273.082	14208.56
273.151	14140.4
273.22	14172.7
273.289	14196.46
273.358	14268.82
273.427	14274.22
273.496	14314.23
273.564	14344.69
273.633	14392.47
273.702	14380.17
273.771	14391.84
273.84	14421.15
273.909	14458.55
273.977	14487.62
274.046	14506.47
274.115	14552.99
274.184	14549.76
274.253	14567.11
274.322	14625.1
274.39	14576.51
274.459	14570.25
274.528	14541.9
274.597	14560.41
274.665	14584.42
274.734	14649.25
274.803	14654.94
274.872	14676.78
274.94	14682.95
275.009	14848.7
275.078	14848.17
275.147	14883.26
275.215	14909.39
275.284	14961.88
275.353	14976.34
275.421	14954.79
275.49	15025.89
275.559	15023.14
275.627	15049.85
275.696	15067.15
275.765	15094.68
275.833	15113.62
275.902	15149.68
275.971	15217.12
276.039	15291.15
276.108	15339.26
276.177	15362.49
276.245	15375.56
276.314	15409.15
276.383	15452.01
276.451	15335.76
276.52	15385.36
276.588	15442.43
276.657	15488.32
276.725	15491.84
276.794	15518.2
276.863	15588.48
276.931	15572.38
277	15626.51
277.068	15682.96
277.137	15763.06
277.205	15800.95
277.274	15883.13
277.342	15937.93
277.411	15916.72
277.48	15915.33
277.548	15925.35
277.617	15960.58
277.685	15982.81
277.754	16031.15
277.822	16050.43
277.89	16124.7
277.959	16134.58
278.027	16123.88
278.096	16127.74
278.164	16235.31
278.233	16260.13
278.301	16267.6
278.37	16311.9
278.438	16320.38
278.507	16364.53
278.575	16332.48
278.643	16353.97
278.712	16333.78
278.78	16339.95
278.849	16405.4
278.917	16477.07
278.985	16502.47
279.054	16537.46
279.122	16598.62
279.191	16623.1
279.259	16651.3
279.327	16624.6
279.396	16710.92
279.464	16744.7
279.532	16807.84
279.601	16832.7
279.669	16856.27
279.737	16919.89
279.806	16970.16
279.874	17035.32
279.942	17067.41
280.011	17099.27
280.079	17156.86
280.147	17237.73
280.215	17286.12
280.284	17305.98
280.352	17305.25
280.42	17358.36
280.488	17376.82
280.557	17393.74
280.625	17436.87
280.693	17474.65
280.761	17520.34
280.83	17505.74
280.898	17573.93
280.966	17545.93
281.034	17501.93
281.102	17506.8
281.171	17525.6
281.239	17578.89
281.307	17584
281.375	17592.48
281.443	17689.4
281.512	17712.77
281.58	17773.73
281.648	17766.17
281.716	17804.82
281.784	17838.84
281.852	17854.55
281.92	17887.27
281.989	17952.57
282.057	17956.91
282.125	18064.52
282.193	18097.67
282.261	18137
282.329	18165.09
282.397	18227.26
282.465	18274.53
282.533	18353.95
282.601	18374
282.67	18343.79
282.738	18363.98
282.806	18434.24
282.874	18435.3
282.942	18478.86
283.01	18492.5
283.078	18553.13
283.146	18576.45
283.214	18627.44
283.282	18676.54
283.35	18741.26
283.418	18758.61
283.486	18802.94
283.554	18773.21
283.622	18807.38
283.69	18851.57
283.758	18870.26
283.826	18920.09
283.894	18977.15
283.962	19058.64
284.03	19129.82
284.098	19193.28
284.165	19218.82
284.233	19253.71
284.301	19278
284.369	19303.64
284.437	19323.97
284.505	19343.25
284.573	19430.42
284.641	19443
284.709	19504.59
284.777	19502.76
284.845	19568.01
284.912	19620.49
284.98	19674.61
285.048	19697.59
285.116	19745.06
285.184	19812.91
285.252	19847.22
285.319	19843.8
285.387	19863.42
285.455	19864.38
285.523	19907.46
285.591	19946.5
285.659	19991.7
285.726	20059.8
285.794	20057.44
285.862	20090.74
285.93	20133.58
285.997	20159.17
286.065	20187.02
286.133	20193.38
286.201	20222.78
286.269	20215.02
286.336	20223.94
286.404	20246.97
286.472	20308.66
286.539	20283.21
286.607	20281.53
286.675	20324.13
286.743	20388.32
286.81	20405.62
286.878	20479.89
286.946	20498.98
287.013	20537.19
287.081	20566.88
287.149	20568.61
287.216	20661.29
287.284	20672.57
287.352	20709.29
287.419	20735.08
287.487	20812.87
287.555	20862.6
287.622	20895.47
287.69	20961.55
287.758	21037.17
287.825	21051.58
287.893	21061.12
287.96	21127.05
288.028	21189.13
288.096	21226.43
288.163	21267.84
288.231	21276.37
288.298	21308.95
288.366	21389.88
288.433	21414.85
288.501	21438.42
288.569	21486.23
288.636	21506.52
288.704	21590.54
288.771	21648.04
288.839	21657
288.906	21679.47
288.974	21738.09
289.041	21773.32
289.109	21778.28
289.176	21829.19
289.244	21895.52
289.311	21963.77
289.379	22036.85
289.446	22088.05
289.514	22129.02
289.581	22160.16
289.649	22206.2
289.716	22248.04
289.783	22256.05
289.851	22348.12
289.918	22380.32
289.986	22436.14
290.053	22481.7
290.121	22516.95
290.188	22562.65
290.255	22685.4
290.323	22707.48
290.39	22729.52
290.458	22792.77
290.525	22862.48
290.592	22894.69
290.66	22928.2
290.727	22953.46
290.794	23010.65
290.862	23037.85
290.929	23086.16
290.996	23124.64
291.064	23186.93
291.131	23246.01
291.198	23316.55
291.266	23345.58
291.333	23388.78
291.4	23439.47
291.468	23517.41
291.535	23536.4
291.602	23589.74
291.669	23605.03
291.737	23663.57
291.804	23704.81
291.871	23781.98
291.938	23838.45
292.006	23938.8
292.073	24001.98
292.14	24068.15
292.207	24092.46
292.275	24129.6
292.342	24191.05
292.409	24301.57
292.476	24402.35
292.543	24410.89
292.611	24454.26
292.678	24541.34
292.745	24654.46
292.812	24724.37
292.879	24747.34
292.946	24808.89
293.014	24871.71
293.081	24935.35
293.148	25006.61
293.215	25085.16
293.282	25100.6
293.349	25162.47
293.416	25153.06
293.484	25230.22
293.551	25294.01
293.618	25376.38
293.685	25485.5
293.752	25510.78
293.819	25541.82
293.886	25550.56
293.953	25618.01
294.02	25683.8
294.087	25731.54
294.154	25754.13
294.221	25827.13
294.288	25876.84
294.356	25955.52
294.423	26009.25
294.49	26017.36
294.557	26087.12
294.624	26099.09
294.691	26187.18
294.758	26229.77
294.825	26297.16
294.892	26322.75
294.959	26367.22
295.026	26416.57
295.093	26447.14
295.16	26484.88
295.226	26525.3
295.293	26638.52
295.36	26704.52
295.427	26771.22
295.494	26851.56
295.561	26908.15
295.628	27007.03
295.695	27086.91
295.762	27125.02
295.829	27192.5
295.896	27284.06
295.963	27351.89
296.03	27438.93
296.096	27506.61
296.163	27587.24
296.23	27660.83
296.297	27739.81
296.364	27779.37
296.431	27845.86
296.498	27883.59
296.564	27993.54
296.631	28061.42
296.698	28062.54
296.765	28154.45
296.832	28176.05
296.899	28184.17
296.965	28283.26
297.032	28272.13
297.099	28362.15
297.166	28443.44
297.233	28487.38
297.299	28530.15
297.366	28569.31
297.433	28615.57
297.5	28685.48
297.566	28730.35
297.633	28787.69
297.7	28829.46
297.767	28878.81
297.833	28932.96
297.9	28981.3
297.967	28989.03
298.033	29055.18
298.1	29168.26
298.167	29191.52
298.234	29251.67
298.3	29328.26
298.367	29352.01
298.434	29410.58
298.5	29429.88
298.567	29450.05
298.634	29478.48
298.7	29564.33
298.767	29613.57
298.834	29683.66
298.9	29709.39
298.967	29730.68
299.033	29787.19
299.1	29868.9
299.167	29945.17
299.233	29988.33
299.3	30066.3
299.366	30149.64
299.433	30229.31
299.5	30201.97
299.566	30257.22
299.633	30333.38
299.699	30387.29
299.766	30414.44
299.832	30468.98
299.899	30533.4
299.965	30614.16
300.032	30646.96
300.099	30699.43
300.165	30750.06
300.232	30779.39
300.298	30812.35
300.365	30886.92
300.431	30920.72
300.498	30947.34
300.564	31006.98
300.631	31065.26
300.697	31137.02
300.763	31167.99
300.83	31216.14
300.896	31290.34
300.963	31351.25
301.029	31406.31
301.096	31457.98
301.162	31537.86
301.229	31571.66
301.295	31581.93
301.361	31625.99
301.428	31689.94
301.494	31683.45
301.561	31736
301.627	31780.83
301.693	31833.8
301.76	31874.34
301.826	31911.73
301.892	31981.52
301.959	32035.48
302.025	32071.38
302.092	32094.15
302.158	32165.63
302.224	32183.22
302.291	32202.44
302.357	32230.44
302.423	32259.9
302.49	32278.16
302.556	32341.16
302.622	32386.94
302.688	32460.77
302.755	32540.05
302.821	32597.11
302.887	32672.48
302.954	32705.91
303.02	32780.33
303.086	32847.34
303.152	32884.26
303.219	32917.41
303.285	32969.22
303.351	33025
303.417	33062.85
303.483	33089.26
303.55	33105.54
303.616	33145.14
303.682	33197.81
303.748	33223.34
303.815	33290.38
303.881	33361.63
303.947	33360.95
304.013	33401.57
304.079	33413
304.145	33399.29
304.212	33442.76
304.278	33458.66
304.344	33492.49
304.41	33489
304.476	33495.06
304.542	33526.66
304.608	33582.6
304.674	33568.93
304.741	33597
304.807	33648.98
304.873	33700.26
304.939	33783.36
305.005	33793.73
305.071	33815.3
305.137	33861.6
305.203	33837.89
305.269	33868.49
305.335	33938.65
305.401	33955.62
305.467	33994.6
305.533	34055.06
305.599	34098.17
305.666	34152.47
305.732	34191.69
305.798	34256.47
305.864	34355.26
305.93	34408.31
305.996	34439.69
306.062	34488.17
306.128	34518.54
306.194	34514.07
306.259	34541.72
306.325	34546.42
306.391	34583.71
306.457	34648.69
306.523	34693.41
306.589	34784.54
306.655	34798.07
306.721	34788.76
306.787	34803.06
306.853	34878.3
306.919	34864.58
306.985	34885.19
307.051	34909.29
307.117	34924.67
307.183	34935.97
307.248	34892.85
307.314	34942.77
307.38	34978.76
307.446	35031.1
307.512	35025.67
307.578	35069.03
307.644	35092.02
307.709	35130.15
307.775	35163.09
307.841	35170.8
307.907	35202.87
307.973	35187.69
308.039	35219.56
308.104	35259.92
308.17	35304.5
308.236	35296.93
308.302	35339.08
308.368	35333.69
308.433	35363.92
308.499	35393.07
308.565	35408.64
308.631	35452.54
308.696	35418.29
308.762	35417.27
308.828	35433.87
308.894	35422.23
308.959	35412.33
309.025	35419.03
309.091	35439.16
309.156	35450.61
309.222	35496.37
309.288	35498.02
309.354	35469.45
309.419	35504.92
309.485	35500.94
309.551	35532.14
309.616	35520.4
309.682	35544.17
309.748	35569.64
309.813	35585.27
309.879	35584
309.945	35580.56
310.01	35602.4
310.076	35636.26
310.141	35656.74
310.207	35647.47
310.273	35687.15
310.338	35725.77
310.404	35718.1
310.469	35722.91
310.535	35724.12
310.601	35698.4
310.666	35733.44
310.732	35796.42
310.797	35775.79
310.863	35792.09
310.928	35800.59
310.994	35835.91
311.059	35863.33
311.125	35888.47
311.191	35950.11
311.256	35949.72
311.322	35999.55
311.387	35982.86
311.453	36731.72
311.518	36729.78
311.584	36752.25
311.649	36801.07
311.715	36810.1
311.78	36853.77
311.846	36855.32
311.911	36901.57
311.976	36940.44
312.042	36925.54
312.107	36910.45
312.173	36933.06
312.238	36947.82
312.304	36980.68
312.369	36991.06
312.434	36982.81
312.5	36986.21
312.565	36925
312.631	36972.71
312.696	36980.37
312.761	37024.44
312.827	36312.07
312.892	36404.45
312.958	36434.98
313.023	36442.85
313.088	36472.79
313.154	36449.94
313.219	36457.85
313.284	36457.8
313.35	36481.78
313.415	36491.87
313.48	36514.1
313.546	36554.53
313.611	36602.88
313.676	36600.5
313.741	36597.54
313.807	36640.64
313.872	36686.12
313.937	36744.37
314.003	36808.35
314.068	36828.69
314.133	36863.93
314.198	36868.55
314.264	36829.75
314.329	36826.16
314.394	36847.28
314.459	36851.55
314.525	36940.08
314.59	36962.75
314.655	36974.16
314.72	37003.09
314.785	37037.31
314.851	37055.27
314.916	37020.03
314.981	37002.94
315.046	37003.86
315.111	37005.95
315.176	37010.27
315.242	37038.53
315.307	37052.22
315.372	37021.14
315.437	37032.26
315.502	37030.03
315.567	37081.15
315.632	37082.7
315.698	37120.67
315.763	37135.48
315.828	37134.07
315.893	37133.54
315.958	37140.24
316.023	37134.22
316.088	37093.97
316.153	37054.75
316.218	37057.96
316.283	37028.84
316.348	36987.92
316.413	36995.11
316.479	36974.82
316.544	36883.82
316.609	36794.8
316.674	36698.17
316.739	36592.23
316.804	36500.66
316.869	36386.03
316.934	36281.47
316.999	36181.8
317.064	36014.77
317.129	35886.94
317.194	35787.14
317.259	35635.89
317.324	35481.81
317.389	35325.65
317.454	35199.52
317.518	35071.81
317.583	34965.36
317.648	34869.47
317.713	34754.28
317.778	34552.94
317.843	34427.28
317.908	34298.12
317.973	34161.86
318.038	34040.64
318.103	33907.15
318.168	33775.28
318.233	33654.52
318.297	33471.38
318.362	33315.02
318.427	33167.44
318.492	33051.25
318.557	32869.5
318.622	32754.74
318.687	32637.46
318.751	32492.97
318.816	32346.04
318.881	32204.17
318.946	32004.49
319.011	31821.51
319.075	31646.5
319.14	31492.94
319.205	31318.67
319.27	31171.27
319.335	30996.71
319.399	30814.8
319.464	30675.03
319.529	30471.66
319.594	30299.85
319.658	30150.68
319.723	29979.23
319.788	29840.99
319.853	29624.52
319.917	29466.98
319.982	29248.98
320.047	29064.06
320.112	28921.22
320.176	28715.42
320.241	28533.31
320.306	28365.19
320.37	28184.88
320.435	28026.75
320.5	27869.7
320.564	27689.52
320.629	27492.22
320.694	27317.73
320.758	27142.44
320.823	26946.18
320.888	26798.13
320.952	26584.84
321.017	26384.01
321.082	26197.71
321.146	26014.97
321.211	25830.8
321.275	25644.31
321.34	25446.54
321.405	25255.72
321.469	25034.07
321.534	24837.72
321.598	24624.82
321.663	24457
321.727	24283.81
321.792	24068.04
321.857	23872.29
321.921	23668.03
321.986	23467.81
322.05	23227.42
322.115	23032.65
322.179	22813.12
322.244	22566.27
322.308	22388.56
322.373	22175.38
322.437	21974.83
322.502	21814.38
322.566	21607.09
322.631	21416.16
322.695	21220.81
322.76	20998.32
322.824	20810.79
322.889	20609.57
322.953	20398.82
323.018	20133.5
323.082	19875.41
323.146	19647.51
323.211	19406.64
323.275	19201.96
323.34	18987.89
323.404	18808.09
323.468	18596
323.533	18391.86
323.597	18187.47
323.662	17959.38
323.726	17778.17
323.79	17550.22
323.855	17277.59
323.919	17047.84
323.983	16831.21
324.048	16502.92
324.112	16609.62
324.177	15944.7
324.241	15075.04
324.305	14224.28
324.37	13384.56
324.434	12565.76
324.498	12334.81
324.562	12084.18
324.627	11793.49
324.691	11506.06
324.755	11176.82
324.82	10804.55
324.884	10420.53
324.948	10022.04
325.012	9540.86
325.077	8942.93
