Data from 20250626_urea_1M_exp2_MAYP1162681_13-04-00-866.txt Node
Date: Fri Jun 27 13:04:00 BST 2025
User: adleo
Spectrometer: MAYP116268
Trigger mode: 0
Integration Time (sec): 3.000000E0
Scans to average: 1
Electric dark correction enabled: true
Nonlinearity correction enabled: true
Boxcar width: 10
XAxis mode: Wavelengths
Number of Pixels in Spectrum: 2068
>>>>>Begin Spectral Data<<<<<
179.565	3126.75
179.642	3294.07
179.718	3418.93
179.795	3540.04
179.871	3630.86
179.948	3685.32
180.024	3750.28
180.101	3815.95
180.177	3855.98
180.254	3922.58
180.33	3984.41
180.407	4203.68
180.483	4444.19
180.56	4691
180.636	4919.39
180.712	4888.15
180.789	4913.1
180.865	4946.32
180.942	4973.08
181.018	4998.22
181.095	5037.42
181.171	5053.75
181.248	5053.75
181.324	5098.71
181.4	5111.98
181.477	5142.64
181.553	5176.78
181.63	5231.99
181.706	5272.82
181.782	5301.98
181.859	5298.24
181.935	5314.3
182.011	5305.67
182.088	5354.8
182.164	5411.73
182.24	5446.31
182.317	5472.04
182.393	5469.88
182.469	5507.13
182.546	5542.31
182.622	5558.12
182.698	5545.37
182.775	5580.9
182.851	5618.91
182.927	5597.14
183.003	5581.33
183.08	5565.52
183.156	5594.04
183.232	5586.65
183.308	5557.51
183.385	5576.15
183.461	5627.12
183.537	5629.23
183.613	5665.82
183.69	5643.42
183.766	5607.97
183.842	5632.28
183.918	5650.5
183.995	5680.18
184.071	5692.36
184.147	5685.6
184.223	5651.82
184.299	5684.63
184.375	5647.33
184.452	5661.91
184.528	5769.27
184.604	5808.86
184.68	5846.07
184.756	5865.55
184.832	5876.87
184.908	5891.1
184.985	5890
185.061	5843.58
185.137	5863.63
185.213	5825.84
185.289	5825.79
185.365	5806.48
185.441	5798.42
185.517	5832.49
185.593	5829.47
185.669	5816.52
185.745	5836.52
185.822	5885.21
185.898	5863.29
185.974	5897.23
186.05	5877.99
186.126	5811.89
186.202	5787.82
186.278	5770.12
186.354	5741.67
186.43	5756.79
186.506	5752.47
186.582	5749.31
186.658	5770.93
186.734	5718.92
186.81	5729.65
186.886	5740.78
186.962	5775.35
187.038	5762.4
187.114	5737.92
187.19	5756.15
187.266	5730.55
187.341	5735.64
187.417	5713.44
187.493	5713.73
187.569	5718.28
187.645	5697.86
187.721	5669.22
187.797	5688.73
187.873	5701.25
187.949	5683.85
188.025	5670.55
188.101	5680.72
188.176	5689.92
188.252	5676.79
188.328	5702.9
188.404	5700.45
188.48	5681.81
188.556	5662.1
188.632	5661.76
188.707	5663.68
188.783	5658.16
188.859	5648.24
188.935	5618.02
189.011	5639.27
189.086	5620.48
189.162	5595.25
189.238	5594.34
189.314	5582.55
189.39	5568.26
189.465	5550.42
189.541	5598.57
189.617	5555.08
189.693	5537.49
189.768	5555.34
189.844	5625.15
189.92	5599.52
189.996	5623.5
190.071	5661.38
190.147	5659.27
190.223	5685.65
190.298	5663.64
190.374	5623.31
190.45	5654.42
190.526	5677.58
190.601	5665.16
190.677	5671.15
190.753	5755.05
190.828	5768.47
190.904	5812.99
190.98	5857.08
191.055	5887.24
191.131	5863.49
191.207	5915.28
191.282	5943.66
191.358	5912.11
191.433	5869.58
191.509	5905.42
191.585	5898.9
191.66	5900.1
191.736	5923.4
191.811	5900.09
191.887	5946.35
191.963	6017.06
192.038	6032.02
192.114	6032.17
192.189	6042.19
192.265	6035.96
192.34	5968.69
192.416	5964.28
192.491	5949.41
192.567	5953.06
192.642	5962.32
192.718	5962.99
192.793	5933.68
192.869	5923.23
192.944	5929.26
193.02	5950.19
193.095	5958.53
193.171	5975.66
193.246	5968.46
193.322	5962.13
193.397	5965.68
193.473	5930.55
193.548	5877.96
193.624	5893.94
193.699	5890.34
193.775	5931.9
193.85	5933.63
193.925	5961.27
194.001	5959.25
194.076	5939.35
194.152	5908.68
194.227	5887.81
194.302	5863.07
194.378	5871.61
194.453	5859.86
194.529	5897.52
194.604	5855.26
194.679	5846.91
194.755	5791.44
194.83	5830.13
194.905	5820.06
194.981	5841.41
195.056	5820.36
195.131	5835.76
195.207	5831.34
195.282	5804.2
195.357	5752.47
195.433	5797.12
195.508	5758.26
195.583	5781.42
195.659	5824.7
195.734	5844.62
195.809	5843.7
195.884	5865.76
195.96	5864.99
196.035	5910.89
196.11	5901.05
196.185	5937.89
196.261	5941.29
196.336	6032.49
196.411	5988.33
196.486	6007.61
196.561	5994.56
196.637	6019.73
196.712	6064.38
196.787	6068.46
196.862	6114.12
196.937	6140.22
197.013	6155.15
197.088	6188.97
197.163	6239.81
197.238	6286.18
197.313	6287.47
197.388	6325.25
197.464	6410.67
197.539	6446.43
197.614	6423.3
197.689	6454.74
197.764	6495.66
197.839	6553.65
197.914	6530.6
197.989	6597.34
198.065	6628.97
198.14	6766.91
198.215	6838.41
198.29	6872.44
198.365	6918.6
198.44	6941.22
198.515	7015.39
198.59	7056.08
198.665	7124.79
198.74	7154.93
198.815	7154.64
198.89	7221.52
198.965	7302.18
199.04	7288.92
199.115	7331.15
199.19	7454.3
199.265	7463.47
199.34	7494
199.415	7583.69
199.49	7644.47
199.565	7669.14
199.64	7741.78
199.715	7731.52
199.79	7750.23
199.865	7763.26
199.94	7750.19
200.015	7842.56
200.09	7862
200.165	7877.19
200.24	7894.6
200.315	7997.7
200.39	8039.16
200.464	8049.88
200.539	8054.74
200.614	8102.15
200.689	8165.79
200.764	8180.09
200.839	8227.58
200.914	8240.95
200.989	8211.89
201.063	8256.05
201.138	8207.22
201.213	8204.09
201.288	8148.11
201.363	8156.71
201.438	8155.61
201.512	8198.2
201.587	8149.46
201.662	8160.15
201.737	8196.32
201.812	8223.41
201.886	8134.4
201.961	8164.39
202.036	8129.48
202.111	8117.26
202.186	8030.85
202.26	7980.19
202.335	7918.09
202.41	7903.71
202.485	7855.2
202.559	7802.11
202.634	7719.93
202.709	7747.41
202.784	7697.94
202.858	7702.65
202.933	7655.25
203.008	7640.87
203.082	7589.63
203.157	7586.6
203.232	7468.45
203.306	7403.91
203.381	7309.53
203.456	7243.83
203.53	7175.08
203.605	7126.81
203.68	7066.95
203.754	7048.19
203.829	7005.22
203.904	6952
203.978	6915.42
204.053	6924.31
204.127	6889.68
204.202	6885.46
204.277	6831.14
204.351	6811.63
204.426	6786.26
204.5	6765.41
204.575	6664.84
204.65	6689.63
204.724	6662.9
204.799	6685.79
204.873	6680.07
204.948	6676.14
205.022	6644.51
205.097	6623.17
205.171	6662.44
205.246	6679.98
205.32	6682.05
205.395	6682.14
205.469	6660.46
205.544	6677.8
205.618	6630.78
205.693	6664.84
205.767	6633.96
205.842	6695.49
205.916	6675.9
205.991	6647.81
206.065	6662.27
206.14	6707.84
206.214	6698.61
206.289	6682.22
206.363	6708.64
206.438	6714.26
206.512	6734.14
206.586	6788.45
206.661	6811.42
206.735	6744.75
206.81	6748.22
206.884	6788.07
206.958	6752.68
207.033	6794.78
207.107	6812.18
207.181	6898.72
207.256	6882.19
207.33	6930.6
207.405	6967.83
207.479	7017.88
207.553	7043.24
207.628	7000.46
207.702	7029.76
207.776	7007.71
207.851	7014
207.925	7061.15
207.999	7049.72
208.073	7040.83
208.148	7044.92
208.222	7012.23
208.296	7100.67
208.371	7140.78
208.445	7170.29
208.519	7251.09
208.593	7286.6
208.668	7275.88
208.742	7277.66
208.816	7276.75
208.89	7314.2
208.965	7302.12
209.039	7324.67
209.113	7366.83
209.187	7421.8
209.261	7416.66
209.336	7475.78
209.41	7538.77
209.484	7542.81
209.558	7611.61
209.632	7650.06
209.707	7678.76
209.781	7736.49
209.855	7780.45
209.929	7825.12
210.003	7843.53
210.077	7841.71
210.151	7973.3
210.226	8072.28
210.3	8154.54
210.374	8220.69
210.448	8235.27
210.522	8267.55
210.596	8295.31
210.67	8321
210.744	8459.05
210.818	8549.56
210.892	8604.13
210.966	8583.2
211.041	8616.6
211.115	8603.85
211.189	8668.7
211.263	8721.1
211.337	8739.14
211.411	8780.2
211.485	8764.22
211.559	8797.85
211.633	8805.98
211.707	8721.23
211.781	8734.23
211.855	8637.49
211.929	8620.56
212.003	8573.72
212.077	8597.64
212.151	8632.01
212.225	8658.87
212.299	8618.94
212.373	8580.78
212.447	8565.62
212.52	8645.03
212.594	8658.65
212.668	8687.43
212.742	8651.43
212.816	8632.75
212.89	8621.3
212.964	8613.26
213.038	8625.3
213.112	8658.75
213.186	8692.19
213.26	8626.98
213.333	8497.56
213.407	8502.03
213.481	8508.67
213.555	8536.12
213.629	8502.57
213.703	8450.93
213.777	8446.79
213.85	8387.89
213.924	8477.47
213.998	8478.34
214.072	8451.9
214.146	8406.96
214.219	8397.67
214.293	8380.4
214.367	8381.36
214.441	8398.35
214.515	8356.53
214.588	8279.64
214.662	8173.42
214.736	8111.09
214.81	8125.94
214.883	8151.75
214.957	8118.34
215.031	8073.49
215.105	7994.79
215.178	7946.79
215.252	7919.76
215.326	7839.34
215.4	7777.1
215.473	7630.71
215.547	7555.96
215.621	7498.56
215.694	7497.31
215.768	7415.52
215.842	7361.98
215.915	7297.16
215.989	7206.28
216.063	7164.74
216.136	7150.12
216.21	7129.9
216.284	7140.52
216.357	7120.53
216.431	7079.35
216.504	7071.04
216.578	7114.25
216.652	7126.88
216.725	7105.2
216.799	7111.6
216.873	7086.38
216.946	7090.27
217.02	7063.77
217.093	7041.23
217.167	6968.16
217.24	6899.53
217.314	6868.18
217.387	6832.52
217.461	6802.35
217.535	6817.43
217.608	6763.83
217.682	6744.04
217.755	6751.05
217.829	6705.6
217.902	6694.65
217.976	6679.71
218.049	6645.09
218.123	6582.18
218.196	6575.17
218.27	6544.05
218.343	6486.06
218.417	6486.63
218.49	6465.08
218.563	6496.19
218.637	6502.15
218.71	6564.01
218.784	6582.89
218.857	6609.92
218.931	6629.11
219.004	6633.48
219.077	6647.9
219.151	6664.99
219.224	6662.54
219.298	6659.99
219.371	6696.94
219.444	6664.39
219.518	6669.19
219.591	6681.14
219.665	6765.56
219.738	6780.97
219.811	6764.56
219.885	6805.05
219.958	6833.54
220.031	6837.47
220.105	6851.02
220.178	6850.59
220.251	6820.17
220.325	6846.27
220.398	6857.84
220.471	6870.18
220.544	6899.92
220.618	6883.05
220.691	6904.62
220.764	6915.67
220.838	6939.31
220.911	6927.63
220.984	6996.26
221.057	7029.55
221.131	7051.79
221.204	6972.85
221.277	7034.66
221.35	7146
221.424	7133.79
221.497	7144.32
221.57	7166.31
221.643	7196.07
221.716	7238.08
221.79	7247.4
221.863	7254.56
221.936	7268.21
222.009	7281.66
222.082	7305.02
222.155	7314.73
222.229	7366.26
222.302	7389.38
222.375	7393.42
222.448	7424.9
222.521	7428.94
222.594	7430.48
222.667	7413.76
222.74	7461.19
222.814	7452.35
222.887	7429.45
222.96	7471.41
223.033	7507.82
223.106	7531.41
223.179	7552.14
223.252	7562.05
223.325	7583.58
223.398	7592.09
223.471	7611.99
223.544	7630.49
223.617	7641.31
223.69	7658.57
223.763	7626.25
223.837	7645.2
223.91	7672.8
223.983	7632.66
224.056	7608.05
224.129	7621.51
224.202	7662.21
224.275	7651.83
224.348	7625.39
224.42	7605
224.493	7561.49
224.566	7535.81
224.639	7549.85
224.712	7528.54
224.785	7518.25
224.858	7516.9
224.931	7501.71
225.004	7469.31
225.077	7467.05
225.15	7392.14
225.223	7386.66
225.296	7462.28
225.369	7409.8
225.442	7385.95
225.514	7395.27
225.587	7406.23
225.66	7419.6
225.733	7416.47
225.806	7422
225.879	7413.88
225.952	7381.68
226.025	7415.43
226.097	7461.56
226.17	7449.93
226.243	7395.81
226.316	7389.71
226.389	7388.36
226.461	7401.34
226.534	7411.14
226.607	7404.27
226.68	7469.52
226.753	7468.66
226.825	7390.2
226.898	7437.97
226.971	7437.05
227.044	7457.48
227.117	7461.52
227.189	7475.13
227.262	7504.17
227.335	7518.65
227.407	7520.52
227.48	7552.67
227.553	7563.29
227.626	7540.73
227.698	7548.8
227.771	7581.76
227.844	7571.33
227.916	7588.69
227.989	7563.11
228.062	7571.81
228.134	7640.82
228.207	7639.52
228.28	7628.71
228.352	7642.99
228.425	7650.15
228.498	7689.63
228.57	7676.13
228.643	7725.47
228.716	7726.15
228.788	7713.64
228.861	7703.11
228.934	7754.32
229.006	7757.25
229.079	7765.62
229.151	7758.74
229.224	7729.52
229.296	7749.57
229.369	7825.67
229.442	7865.61
229.514	7854.7
229.587	7885.37
229.659	7823.48
229.732	7840.21
229.804	7875.89
229.877	7942.91
229.949	7967.83
230.022	8004.69
230.094	8003.11
230.167	7991.37
230.239	7950.07
230.312	7942.28
230.384	8004.29
230.457	8001.22
230.529	8006.02
230.602	7995.78
230.674	8003.81
230.747	8041.83
230.819	8064.73
230.892	7975.83
230.964	7970.54
231.037	7994.33
231.109	7986.01
231.181	8022.94
231.254	7992.26
231.326	7984.37
231.399	7963.38
231.471	7936.11
231.544	7869.47
231.616	7905.48
231.688	7914
231.761	7907.32
231.833	7906.79
231.905	7835.44
231.978	7832.56
232.05	7821.79
232.122	7832.23
232.195	7811.88
232.267	7836.6
232.339	7818.08
232.412	7865.73
232.484	7846.06
232.556	7820.1
232.629	7875.29
232.701	7884.91
232.773	7893.09
232.846	7879.72
232.918	7879.91
232.99	7903.48
233.062	7943.84
233.135	7950.96
233.207	7923.2
233.279	7957.43
233.351	7984.8
233.424	7992.39
233.496	7970.42
233.568	8038.43
233.64	8006.6
233.713	8017.8
233.785	8017.18
233.857	8027.95
233.929	7989
234.001	8047.29
234.074	8106.81
234.146	8051.76
234.218	8050.75
234.29	8051.28
234.362	8048.64
234.434	8006.69
234.507	7979.51
234.579	7930.64
234.651	7921.17
234.723	7946.52
234.795	7960.03
234.867	7949.88
234.939	7995.15
235.012	8012.7
235.084	8012.46
235.156	8043.43
235.228	8026.55
235.3	8013.42
235.372	8025.35
235.444	8073.1
235.516	8002.41
235.588	8005.15
235.66	8016.55
235.732	7996.83
235.804	8158.79
235.876	8194.28
235.948	8253.8
236.02	8254.76
236.092	8269.81
236.164	8276.64
236.236	8274.24
236.308	8276.31
236.38	8300.89
236.452	8286.46
236.524	8299.68
236.596	8357.52
236.668	8387.78
236.74	8411.4
236.812	8429.2
236.884	8463.56
236.956	8473.09
237.028	8467.99
237.1	8453.17
237.172	8514.2
237.244	8572.09
237.316	8468.86
237.388	8449.34
237.46	8428.4
237.532	8487.39
237.604	8476.91
237.675	8540.54
237.747	8577.74
237.819	8569.13
237.891	8568.84
237.963	8557.78
238.035	8558.88
238.107	8465.78
238.178	8515.76
238.25	8522.35
238.322	8597.64
238.394	8550.53
238.466	8542.3
238.538	8574.87
238.609	8607.25
238.681	8561.42
238.753	8542.7
238.825	8561.72
238.897	8587.07
238.968	8652.84
239.04	8631.47
239.112	8724.1
239.184	8691.31
239.255	8681.59
239.327	8708.58
239.399	8725.09
239.471	8765.31
239.542	8793.9
239.614	8852.47
239.686	8783.34
239.758	8826.42
239.829	8800.41
239.901	8862.06
239.973	8883.53
240.044	8913.99
240.116	8926.56
240.188	8940.37
240.259	8951.82
240.331	8944.55
240.403	8977.71
240.474	8940.15
240.546	8931.2
240.618	8885.03
240.689	8879.5
240.761	8903.33
240.833	8955.56
240.904	8956.86
240.976	8950.99
241.048	8966.01
241.119	8991.29
241.191	9028.84
241.262	9084.8
241.334	9088.41
241.405	9083.89
241.477	9082.64
241.549	9091.21
241.62	9109.26
241.692	9144.45
241.763	9196.03
241.835	9209.41
241.906	9225.3
241.978	9200.08
242.049	9263.09
242.121	9310.94
242.192	9370.7
242.264	9339.74
242.335	9300.89
242.407	9336.08
242.478	9336.47
242.55	9348.02
242.621	9340.56
242.693	9333.72
242.764	9323.65
242.836	9324.42
242.907	9354.91
242.979	9386.15
243.05	9409.13
243.122	9430.31
243.193	9427.81
243.264	9373.4
243.336	9378.84
243.407	9401.57
243.479	9466.43
243.55	9480.49
243.622	9492.87
243.693	9485.65
243.764	9548.39
243.836	9533.56
243.907	9524.7
243.978	9539.34
244.05	9562.41
244.121	9517.82
244.192	9555.33
244.264	9514.88
244.335	9521.47
244.407	9479.15
244.478	9489.79
244.549	9475.05
244.62	9442.4
244.692	9442.21
244.763	9478.76
244.834	9465.66
244.906	9448.61
244.977	9463.83
245.048	9504.45
245.119	9484.32
245.191	9469.73
245.262	9413.05
245.333	9466.97
245.405	9476.98
245.476	9509.44
245.547	9519.17
245.618	9568.62
245.689	9581.38
245.761	9607.25
245.832	9616.16
245.903	9652.17
245.974	9677.22
246.045	9692.34
246.117	9758.33
246.188	9742.97
246.259	9722.98
246.33	9739.41
246.401	9750.96
246.473	9724.57
246.544	9711.27
246.615	9755.96
246.686	9762.75
246.757	9824.83
246.828	9810.14
246.899	9875.56
246.97	9841.61
247.042	9837.38
247.113	9868.4
247.184	9937.11
247.255	9929.26
247.326	9949.2
247.397	9958.79
247.468	9961.97
247.539	9973.34
247.61	9931.38
247.681	9969.85
247.752	10017.29
247.823	10003.62
247.894	10017.01
247.965	9989.8
248.037	9979.63
248.108	9941.73
248.179	9947.46
248.25	9940.33
248.321	9967.88
248.392	9930.1
248.463	9998.01
248.534	9998.44
248.605	10013.72
248.675	9991.31
248.746	10015.39
248.817	10034.37
248.888	10043.82
248.959	9997
249.03	10012.99
249.101	10022.43
249.172	10007.41
249.243	9946.3
249.314	10006.6
249.385	10012.86
249.456	10038.19
249.527	10029.38
249.598	10055
249.669	10053.51
249.739	10063.38
249.81	10072.83
249.881	10035.83
249.952	10025.52
250.023	10016.18
250.094	9974.07
250.165	9953.3
250.235	9946.22
250.306	9948.68
250.377	9932.01
250.448	9957.68
250.519	9909.66
250.59	9957.45
250.66	9957.4
250.731	10016.68
250.802	10006.86
250.873	10023.24
250.944	10044.57
251.014	10040.58
251.085	10104.13
251.156	10115.55
251.227	10153.08
251.297	10192.83
251.368	10229.77
251.439	10265.43
251.51	10309.46
251.58	10301.18
251.651	10296.17
251.722	10343.43
251.792	10303.01
251.863	10300.9
251.934	10347.43
252.005	10431.02
252.075	10437.62
252.146	10476.25
252.217	10515.61
252.287	10549.25
252.358	10555.8
252.429	10615.02
252.499	10604.76
252.57	10617.24
252.641	10662.58
252.711	10670.58
252.782	10634.59
252.852	10706.82
252.923	10705.33
252.994	10723.01
253.064	10761.69
253.135	10741.17
253.205	10724.98
253.276	10779.04
253.347	10836.18
253.417	10818.01
253.488	10807.41
253.558	10799.51
253.629	10803.07
253.699	10814.78
253.77	10835.07
253.841	10823.89
253.911	10837.97
253.982	10851.41
254.052	10871.41
254.123	10882.98
254.193	10886.98
254.264	11001.63
254.334	10968.81
254.405	10939.61
254.475	10910.84
254.546	10921.44
254.616	10976.99
254.687	10996.9
254.757	11019.02
254.827	11012.7
254.898	11039.49
254.968	11050.14
255.039	11035.69
255.109	11066.67
255.18	11046.39
255.25	10986.39
255.321	11016.31
255.391	10982.19
255.461	11056.69
255.532	10989.99
255.602	10976.5
255.673	10929.66
255.743	10901.66
255.813	10840.04
255.884	10887.64
255.954	10917.28
256.024	10959.98
256.095	10957.23
256.165	10929.33
256.235	10944.22
256.306	10934.39
256.376	10968.37
256.446	10998.88
256.517	11027.84
256.587	11058.01
256.657	11070.15
256.728	11091.64
256.798	11095.3
256.868	11091.45
256.938	11062.68
257.009	11109.08
257.079	11138.38
257.149	11221.61
257.219	11169.37
257.29	11199.57
257.36	11149.41
257.43	11180.01
257.5	11126.62
257.571	11123.05
257.641	11150.85
257.711	11123.57
257.781	11145.79
257.852	11161.7
257.922	11108.2
257.992	11113.99
258.062	11115.29
258.132	11156.35
258.202	11164.88
258.273	11187.29
258.343	11243.25
258.413	11234.72
258.483	11235.34
258.553	11213.32
258.623	11191.05
258.693	11211.1
258.764	11273.79
258.834	11328.53
258.904	11338.9
258.974	11333.16
259.044	11339.43
259.114	11372.54
259.184	11394.23
259.254	11410.04
259.324	11363.96
259.394	11401.64
259.464	11460.93
259.535	11468.4
259.605	11460.74
259.675	11448.64
259.745	11466.43
259.815	11451.63
259.885	11452.45
259.955	11540.56
260.025	11528.42
260.095	11541.1
260.165	11575.37
260.235	11622.99
260.305	11611.38
260.375	11587.85
260.445	11668.67
260.515	11723.23
260.585	11754.47
260.655	11764.74
260.725	11795.34
260.795	11825.8
260.865	11888.03
260.934	11861.9
261.004	11873.23
261.074	11877.42
261.144	11928.31
261.214	11957.67
261.284	11953.09
261.354	11985.43
261.424	11955.54
261.494	12016.17
261.564	12011.11
261.634	12025.47
261.703	11970.43
261.773	11990.72
261.843	12021.71
261.913	12010.67
261.983	11964.11
262.053	11981.85
262.123	11982.67
262.192	11947.77
262.262	11982.62
262.332	11937.31
262.402	11956.11
262.472	11970.81
262.541	11925.32
262.611	11968.22
262.681	11944.74
262.751	11977.95
262.821	11984.65
262.89	11953.32
262.96	11975.49
263.03	12049
263.1	12072.53
263.169	12090.46
263.239	12123.86
263.309	12183.15
263.379	12207.4
263.448	12229.96
263.518	12250.44
263.588	12263.94
263.657	12328.43
263.727	12360.97
263.797	12375.05
263.867	12384.54
263.936	12355.67
264.006	12403.91
264.076	12394.95
264.145	12399.14
264.215	12381.88
264.285	12410.23
264.354	12368.44
264.424	12361.88
264.494	12320.28
264.563	12311.22
264.633	12373.64
264.702	12386.8
264.772	12328.86
264.842	12327.75
264.911	12349.54
264.981	12311.84
265.05	12316.13
265.12	12314.06
265.19	12314.73
265.259	12354.69
265.329	12380.72
265.398	12398.75
265.468	12478.24
265.537	12473.08
265.607	12494.82
265.676	12540.28
265.746	12561.49
265.815	12615.43
265.885	12618.75
265.955	12610.08
266.024	12613.21
266.094	12566.06
266.163	12614.61
266.232	12667.59
266.302	12680.02
266.371	12704.99
266.441	12716.71
266.51	12759.22
266.58	12756.33
266.649	12752.47
266.719	12796.34
266.788	12823.15
266.858	12885.14
266.927	12826.9
266.996	12853.66
267.066	12879.4
267.135	12848.26
267.205	12884.9
267.274	12905.63
267.343	12953.64
267.413	12962.84
267.482	13010.86
267.552	13065.09
267.621	13023.58
267.69	12989.16
267.76	13005.22
267.829	13024.35
267.898	13049.47
267.968	13041.23
268.037	13076.47
268.106	13111.37
268.176	13080.23
268.245	13088.32
268.314	13090.11
268.384	13142.6
268.453	13159.91
268.522	13180.88
268.592	13241.33
268.661	13227.74
268.73	13254.88
268.799	13237.81
268.869	13308.63
268.938	13264.66
269.007	13252.9
269.076	13276.76
269.146	13328.29
269.215	13356.54
269.284	13411.45
269.353	13405.42
269.422	13408.22
269.492	13399.98
269.561	13334.85
269.63	13358.57
269.699	13355.82
269.768	13363.05
269.838	13377.85
269.907	13415.11
269.976	13395.88
270.045	13349.75
270.114	13376.55
270.183	13378.43
270.253	13405.62
270.322	13366.71
270.391	13393.57
270.46	13447.65
270.529	13486.65
270.598	13518.32
270.667	13520.44
270.736	13497.21
270.806	13524.3
270.875	13564.02
270.944	13567.69
271.013	13675.14
271.082	13703.44
271.151	13726.77
271.22	13698.66
271.289	13708.79
271.358	13710.14
271.427	13746.34
271.496	13767.21
271.565	13768.75
271.634	13784.23
271.703	13892.98
271.772	13948.61
271.841	13961.19
271.91	13937.52
271.979	13943.11
272.048	13920.84
272.117	13962.49
272.186	13959.79
272.255	14005.01
272.324	14044.87
272.393	14081.7
272.462	14068.26
272.531	14078.57
272.6	14087.97
272.669	14147.31
272.738	14157.2
272.807	14186.65
272.876	14172.09
272.945	14292.07
273.013	14340.42
273.082	14390.65
273.151	14313.62
273.22	14331.94
273.289	14350.89
273.358	14411.63
273.427	14425.22
273.496	14468.12
273.564	14494.97
273.633	14548.58
273.702	14534.07
273.771	14538.36
273.84	14564.2
273.909	14604.78
273.977	14637.85
274.046	14650.96
274.115	14693.72
274.184	14690.83
274.253	14706.49
274.322	14764.05
274.39	14710.11
274.459	14704.14
274.528	14669.52
274.597	14686.73
274.665	14718.69
274.734	14778.76
274.803	14785.84
274.872	14807.24
274.94	14802.66
275.009	14988.26
275.078	14979.06
275.147	15013.43
275.215	15039.51
275.284	15096.91
275.353	15103.18
275.421	15076.77
275.49	15146.66
275.559	15151.48
275.627	15168.54
275.696	15175.58
275.765	15211.78
275.833	15226.24
275.902	15256.9
275.971	15328.91
276.039	15393.79
276.108	15438.57
276.177	15464.84
276.245	15478.72
276.314	15495.45
276.383	15545.77
276.451	15413.24
276.52	15461.35
276.588	15532.2
276.657	15584.07
276.725	15577.32
276.794	15616.89
276.863	15683.84
276.931	15659.07
277	15710.21
277.068	15774.17
277.137	15856.64
277.205	15881.42
277.274	15967.84
277.342	16043.46
277.411	16018.73
277.48	16032.57
277.548	16038.01
277.617	16070.79
277.685	16086.07
277.754	16141.74
277.822	16161.6
277.89	16223.62
277.959	16239.48
278.027	16213.99
278.096	16214.18
278.164	16335.77
278.233	16345.9
278.301	16353.56
278.37	16399.69
278.438	16398.58
278.507	16445.28
278.575	16414.29
278.643	16436.03
278.712	16409.9
278.78	16399.73
278.849	16469.82
278.917	16533.92
278.985	16555.12
279.054	16589.87
279.122	16648.29
279.191	16674.21
279.259	16685.78
279.327	16659.61
279.396	16737.06
279.464	16760.87
279.532	16809.69
279.601	16826.08
279.669	16851.09
279.737	16924.35
279.806	16979.43
279.874	17049.84
279.942	17074.33
280.011	17103.49
280.079	17162.23
280.147	17253.27
280.215	17305.13
280.284	17333.32
280.352	17320.99
280.42	17379.2
280.488	17396.17
280.557	17416.7
280.625	17463.3
280.693	17507.93
280.761	17557.23
280.83	17551.06
280.898	17629.95
280.966	17615.26
281.034	17559.26
281.102	17555.59
281.171	17571.21
281.239	17621.33
281.307	17620.22
281.375	17624.22
281.443	17721.57
281.512	17745.52
281.58	17793.56
281.648	17780.12
281.716	17812.98
281.784	17851.15
281.852	17862.48
281.92	17893.66
281.989	17956.79
282.057	17943.68
282.125	18053.79
282.193	18089.26
282.261	18121.12
282.329	18138.8
282.397	18188.63
282.465	18243.91
282.533	18322.41
282.601	18324.05
282.67	18289.74
282.738	18310.94
282.806	18378.51
282.874	18387.18
282.942	18428.19
283.01	18451.9
283.078	18505.25
283.146	18535.51
283.214	18596.57
283.282	18634.3
283.35	18706.25
283.418	18724.13
283.486	18771.6
283.554	18740.51
283.622	18772.03
283.69	18805.76
283.758	18826.87
283.826	18882.53
283.894	18931.63
283.962	19012.64
284.03	19092.69
284.098	19143.81
284.165	19169.5
284.233	19209.16
284.301	19223.33
284.369	19236.97
284.437	19239.33
284.505	19260.77
284.573	19332.77
284.641	19339.03
284.709	19403.99
284.777	19391.42
284.845	19446.83
284.912	19501.43
284.98	19548.61
285.048	19568.9
285.116	19617.48
285.184	19690.29
285.252	19721.23
285.319	19720.8
285.387	19742.63
285.455	19737.86
285.523	19799.16
285.591	19830.67
285.659	19866.67
285.726	19939.05
285.794	19945.75
285.862	19983.1
285.93	20027.15
285.997	20051.44
286.065	20078.04
286.133	20074.66
286.201	20108.2
286.269	20105.84
286.336	20115.91
286.404	20136.01
286.472	20202.81
286.539	20184.64
286.607	20169.17
286.675	20208.69
286.743	20264.54
286.81	20281.17
286.878	20357.89
286.946	20363.87
287.013	20400.97
287.081	20430.13
287.149	20421.55
287.216	20510.71
287.284	20529.02
287.352	20566.42
287.419	20586.09
287.487	20653.32
287.555	20720.21
287.622	20750.53
287.69	20806.29
287.758	20888.13
287.825	20911.31
287.893	20906.29
287.96	20959.45
288.028	21030.78
288.096	21067.46
288.163	21111.9
288.231	21116.18
288.298	21141.3
288.366	21220.01
288.433	21256.1
288.501	21273.16
288.569	21314.61
288.636	21335
288.704	21407.88
288.771	21468.66
288.839	21482.64
288.906	21497.82
288.974	21552.49
289.041	21571.28
289.109	21584.88
289.176	21633.76
289.244	21684.61
289.311	21760.67
289.379	21826.56
289.446	21861.08
289.514	21899.78
289.581	21940.32
289.649	21988.09
289.716	22022.66
289.783	22036.59
289.851	22122.29
289.918	22157.96
289.986	22224.01
290.053	22270.87
290.121	22304.08
290.188	22336.24
290.255	22462.55
290.323	22490.56
290.39	22508.74
290.458	22576.13
290.525	22645.74
290.592	22659.48
290.66	22696.56
290.727	22715.36
290.794	22789.42
290.862	22837.54
290.929	22879.39
290.996	22907.01
291.064	22966.8
291.131	23034.84
291.198	23116.43
291.266	23146.08
291.333	23181.8
291.4	23229.21
291.468	23305.89
291.535	23332.6
291.602	23379.76
291.669	23379.95
291.737	23423.68
291.804	23452.72
291.871	23523.65
291.938	23576.65
292.006	23683.06
292.073	23752.99
292.14	23810.96
292.207	23823.11
292.275	23853.73
292.342	23911.13
292.409	24018.98
292.476	24112.08
292.543	24128.43
292.611	24143.73
292.678	24223.7
292.745	24334.35
292.812	24398.03
292.879	24416.17
292.946	24464.21
293.014	24527.17
293.081	24585.68
293.148	24659.1
293.215	24731.12
293.282	24753.89
293.349	24813.77
293.416	24795.05
293.484	24872.1
293.551	24936.95
293.618	25012.79
293.685	25118.28
293.752	25143.27
293.819	25162
293.886	25164.46
293.953	25218.64
294.02	25292.28
294.087	25345.9
294.154	25351.12
294.221	25420.97
294.288	25460.1
294.356	25544.6
294.423	25600.59
294.49	25621.3
294.557	25705.19
294.624	25720.58
294.691	25811.12
294.758	25851.67
294.825	25921.85
294.892	25931.31
294.959	25966.26
295.026	26030.71
295.093	26041.77
295.16	26076.85
295.226	26119.72
295.293	26232.57
295.36	26283.84
295.427	26352.6
295.494	26410.32
295.561	26488.09
295.628	26589.7
295.695	26669.03
295.762	26717.13
295.829	26781.71
295.896	26867.51
295.963	26927.74
296.03	27005.29
296.096	27060.4
296.163	27139.33
296.23	27218.64
296.297	27304.71
296.364	27343.97
296.431	27400.49
296.498	27454.29
296.564	27573.25
296.631	27634.69
296.698	27622.57
296.765	27718.27
296.832	27726.68
296.899	27735.66
296.965	27818.96
297.032	27800.93
297.099	27897.84
297.166	27955.05
297.233	27991.83
297.299	28019.03
297.366	28054.12
297.433	28098.62
297.5	28163.43
297.566	28197.51
297.633	28230.81
297.7	28269.77
297.767	28320.93
297.833	28376.86
297.9	28414.36
297.967	28412.72
298.033	28479.57
298.1	28605.18
298.167	28619.24
298.234	28676.95
298.3	28749.94
298.367	28779.96
298.434	28842.97
298.5	28856.08
298.567	28881.51
298.634	28919.41
298.7	28997.34
298.767	29045.02
298.834	29115.9
298.9	29132.73
298.967	29145.01
299.033	29202.66
299.1	29278.11
299.167	29346.62
299.233	29367.75
299.3	29443.24
299.366	29523.12
299.433	29593.17
299.5	29563.37
299.566	29612.84
299.633	29696.43
299.699	29775.05
299.766	29802.67
299.832	29844.23
299.899	29900.31
299.965	29976.64
300.032	30004.06
300.099	30062.03
300.165	30127.6
300.232	30161.8
300.298	30211.73
300.365	30297.02
300.431	30347.44
300.498	30364.57
300.564	30435.32
300.631	30510.81
300.697	30585.4
300.763	30622.36
300.83	30655.77
300.896	30740.4
300.963	30816.29
301.029	30867.89
301.096	30903.04
301.162	30971.52
301.229	31000.86
301.295	31000.66
301.361	31045.97
301.428	31096.06
301.494	31098.48
301.561	31131.11
301.627	31180.82
301.693	31222.3
301.76	31258.91
301.826	31287.33
301.892	31367.02
301.959	31418.69
302.025	31442.56
302.092	31464.7
302.158	31532.58
302.224	31577.04
302.291	31578.25
302.357	31588.08
302.423	31605.13
302.49	31623.53
302.556	31686.88
302.622	31725.77
302.688	31796.22
302.755	31868.54
302.821	31931.25
302.887	31992.36
302.954	32028.3
303.02	32089.62
303.086	32146.33
303.152	32182.46
303.219	32209.78
303.285	32252.42
303.351	32307.56
303.417	32346.26
303.483	32362.78
303.55	32369.47
303.616	32401.88
303.682	32449.29
303.748	32485.33
303.815	32572.22
303.881	32633.07
303.947	32639.71
304.013	32678.56
304.079	32699.01
304.145	32679.24
304.212	32718.43
304.278	32734.47
304.344	32761.51
304.41	32766.74
304.476	32782.49
304.542	32813.4
304.608	32869.51
304.674	32855.6
304.741	32878.34
304.807	32928.25
304.873	32977.44
304.939	33061.28
305.005	33050.86
305.071	33082.4
305.137	33131
305.203	33090.43
305.269	33126.25
305.335	33200.03
305.401	33232.6
305.467	33268.51
305.533	33333.07
305.599	33380.28
305.666	33440.72
305.732	33469.7
305.798	33534.46
305.864	33638.8
305.93	33689.02
305.996	33717.76
306.062	33770.06
306.128	33791.15
306.194	33788.05
306.259	33829.74
306.325	33840.95
306.391	33909.05
306.457	33966.78
306.523	33998.25
306.589	34104.1
306.655	34116.07
306.721	34102.4
306.787	34110.45
306.853	34189.39
306.919	34175.72
306.985	34186.29
307.051	34204.18
307.117	34233.75
307.183	34256.6
307.248	34208.1
307.314	34251.79
307.38	34287.87
307.446	34341.9
307.512	34350
307.578	34403.77
307.644	34426.51
307.709	34465.22
307.775	34482.63
307.841	34501.15
307.907	34536.26
307.973	34510.7
308.039	34530.39
308.104	34577.77
308.17	34620.2
308.236	34591.92
308.302	34650.11
308.368	34659.66
308.433	34679.25
308.499	34700.59
308.565	34699.86
308.631	34744.87
308.696	34718.43
308.762	34713.2
308.828	34723.53
308.894	34705.05
308.959	34681.87
309.025	34685.9
309.091	34704.28
309.156	34726.5
309.222	34764.92
309.288	34762.78
309.354	34736.64
309.419	34768.37
309.485	34751.1
309.551	34784.81
309.616	34786.07
309.682	34795.14
309.748	34806.64
309.813	34833.65
309.879	34827.69
309.945	34831.13
310.01	34850.68
310.076	34892.2
310.141	34915.82
310.207	34919.85
310.273	34966.5
310.338	35009.62
310.404	34993.37
310.469	34988.28
310.535	34984.4
310.601	34943.99
310.666	34984.06
310.732	35045.42
310.797	35061.43
310.863	35069.68
310.928	35073.8
310.994	35114.69
311.059	35129.39
311.125	35152.14
311.191	35215.31
311.256	35232.48
311.322	35273.43
311.387	35245.1
311.453	36081.58
311.518	36066.01
311.584	36086.1
311.649	36123.41
311.715	36125.69
311.78	36167.26
311.846	36166.53
311.911	36217.81
311.976	36255.5
312.042	36241.72
312.107	36225.03
312.173	36211.64
312.238	36235.56
312.304	36260.11
312.369	36269.18
312.434	36276.99
312.5	36290.14
312.565	36224.78
312.631	36264.32
312.696	36270.77
312.761	36312.4
312.827	35509.2
312.892	35623.53
312.958	35643.23
313.023	35666.38
313.088	35686.71
313.154	35675.94
313.219	35689.38
313.284	35684.91
313.35	35714.56
313.415	35730.28
313.48	35749.05
313.546	35790.06
313.611	35834.46
313.676	35837.08
313.741	35850.81
313.807	35886.67
313.872	35927.67
313.937	35977.5
314.003	36031.42
314.068	36057.72
314.133	36102.47
314.198	36104.07
314.264	36077.22
314.329	36080.23
314.394	36086.35
314.459	36111.68
314.525	36186.65
314.59	36200.09
314.655	36204.6
314.72	36251.88
314.785	36279.39
314.851	36295.65
314.916	36274.54
314.981	36252.6
315.046	36257.75
315.111	36246.68
315.176	36251.39
315.242	36278.47
315.307	36293.52
315.372	36268.76
315.437	36263.18
315.502	36260.22
315.567	36305.56
315.632	36298.86
315.698	36316.18
315.763	36331.96
315.828	36326.19
315.893	36331.33
315.958	36346.18
316.023	36330.21
316.088	36284.54
316.153	36243.98
316.218	36236.02
316.283	36199.73
316.348	36174.26
316.413	36176.49
316.479	36147.96
316.544	36061.07
316.609	35976.68
316.674	35882.75
316.739	35779.42
316.804	35686.86
316.869	35577.41
316.934	35461.59
316.999	35354.13
317.064	35206.91
317.129	35073.35
317.194	34953.7
317.259	34814.75
317.324	34652.15
317.389	34520.01
317.454	34388.14
317.518	34285.05
317.583	34190.91
317.648	34102.86
317.713	33985.28
317.778	33785.96
317.843	33668.93
317.908	33526.01
317.973	33395.22
318.038	33287.14
318.103	33150.31
318.168	33045.48
318.233	32925.11
318.297	32757.02
318.362	32617.81
318.427	32471.2
318.492	32358.25
318.557	32195.77
318.622	32062.79
318.687	31964.05
318.751	31803.98
318.816	31671.68
318.881	31518.52
318.946	31322.83
319.011	31155.69
319.075	30985
319.14	30856.32
319.205	30685.94
319.27	30554.96
319.335	30372.34
319.399	30205.1
319.464	30080.13
319.529	29870.95
319.594	29710.48
319.658	29573.65
319.723	29397.31
319.788	29258.49
319.853	29046.81
319.917	28898.89
319.982	28699.92
320.047	28522.2
320.112	28394.17
320.176	28196.77
320.241	28038.05
320.306	27890.27
320.37	27707
320.435	27553.5
320.5	27394.35
320.564	27224.08
320.629	27025.55
320.694	26874.09
320.758	26687.49
320.823	26486.37
320.888	26338.01
320.952	26132.44
321.017	25933.79
321.082	25749.4
321.146	25580.17
321.211	25410.63
321.275	25228.61
321.34	25033.87
321.405	24840.97
321.469	24628.72
321.534	24437.69
321.598	24223.79
321.663	24046.2
321.727	23880.84
321.792	23673.98
321.857	23474.39
321.921	23290.55
321.986	23104.4
322.05	22869.48
322.115	22689.53
322.179	22495.19
322.244	22261.09
322.308	22089.56
322.373	21892.35
322.437	21705.03
322.502	21551.04
322.566	21347.63
322.631	21173.39
322.695	20980.65
322.76	20778.7
322.824	20596.86
322.889	20394.88
322.953	20179.26
323.018	19920.93
323.082	19662.18
323.146	19428.97
323.211	19202.56
323.275	18993.84
323.34	18785.17
323.404	18603.92
323.468	18382.96
323.533	18177.28
323.597	17979.49
323.662	17751.2
323.726	17564.02
323.79	17344.36
323.855	17088.4
323.919	16866.37
323.983	16647.47
324.048	16336.19
324.112	16480.53
324.177	15838.49
324.241	14979.13
324.305	14140.42
324.37	13314.01
324.434	12508.02
324.498	12294.26
324.562	12046.44
324.627	11759.28
324.691	11487.27
324.755	11169.05
324.82	10825
324.884	10448.86
324.948	10060.94
325.012	9599.27
325.077	9026.32
