Data from 20250626_urea_1M_exp2_MAYP1162681_08-33-59-132.txt Node
Date: Fri Jun 27 08:33:59 BST 2025
User: adleo
Spectrometer: MAYP116268
Trigger mode: 0
Integration Time (sec): 3.000000E0
Scans to average: 1
Electric dark correction enabled: true
Nonlinearity correction enabled: true
Boxcar width: 10
XAxis mode: Wavelengths
Number of Pixels in Spectrum: 2068
>>>>>Begin Spectral Data<<<<<
179.565	3001.11
179.642	3154.33
179.718	3271.92
179.795	3388.21
179.871	3473.19
179.948	3527.69
180.024	3587.61
180.101	3651.87
180.177	3689.74
180.254	3751.41
180.33	3812.24
180.407	4018.13
180.483	4250.26
180.56	4486.63
180.636	4702.81
180.712	4675.32
180.789	4696.29
180.865	4724.71
180.942	4751.13
181.018	4779.18
181.095	4822.48
181.171	4831.2
181.248	4833.4
181.324	4876.08
181.4	4890.31
181.477	4919.42
181.553	4946.32
181.63	5000.21
181.706	5036.18
181.782	5063.99
181.859	5067.01
181.935	5084.21
182.011	5081.62
182.088	5125.02
182.164	5177.71
182.24	5214.72
182.317	5239.1
182.393	5234.55
182.469	5272.49
182.546	5305.27
182.622	5320.84
182.698	5306.07
182.775	5342.45
182.851	5383.66
182.927	5359.79
183.003	5344.99
183.08	5331.2
183.156	5364.5
183.232	5355.97
183.308	5333.35
183.385	5352.75
183.461	5395.84
183.537	5395.12
183.613	5425.61
183.69	5400.45
183.766	5372.34
183.842	5393
183.918	5410.35
183.995	5448.26
184.071	5459.43
184.147	5447.16
184.223	5416.94
184.299	5447.81
184.375	5413.4
184.452	5426.55
184.528	5538.32
184.604	5569.89
184.68	5607.7
184.756	5621.52
184.832	5637
184.908	5648.41
184.985	5648.26
185.061	5601.72
185.137	5623.83
185.213	5587.74
185.289	5596.03
185.365	5574.61
185.441	5568.33
185.517	5602.29
185.593	5591.36
185.669	5580.57
185.745	5608.42
185.822	5652.36
185.898	5631.36
185.974	5658.48
186.05	5641.98
186.126	5574.21
186.202	5555.71
186.278	5540.18
186.354	5517.69
186.43	5526.33
186.506	5518.28
186.582	5513.01
186.658	5533.13
186.734	5482.24
186.81	5492.44
186.886	5500.35
186.962	5528.48
187.038	5516.73
187.114	5492.7
187.19	5512.65
187.266	5488.35
187.341	5487.01
187.417	5464
187.493	5463.66
187.569	5468.51
187.645	5448.71
187.721	5419.6
187.797	5441.94
187.873	5452.68
187.949	5434.47
188.025	5420.56
188.101	5433.88
188.176	5449.36
188.252	5440.88
188.328	5467.27
188.404	5467.32
188.48	5452.46
188.556	5435.64
188.632	5440.43
188.707	5437.84
188.783	5430.6
188.859	5422.65
188.935	5390.05
189.011	5411.91
189.086	5394.61
189.162	5375.53
189.238	5371.79
189.314	5364.94
189.39	5347.45
189.465	5332.39
189.541	5378.46
189.617	5340.46
189.693	5326.23
189.768	5333.04
189.844	5393.52
189.92	5361.86
189.996	5383.81
190.071	5413.82
190.147	5413.77
190.223	5438.42
190.298	5421.93
190.374	5387.04
190.45	5417.22
190.526	5445.07
190.601	5434.33
190.677	5437.69
190.753	5512.34
190.828	5522.45
190.904	5560.72
190.98	5602.19
191.055	5628.28
191.131	5606.31
191.207	5658.37
191.282	5681.7
191.358	5654.86
191.433	5615.33
191.509	5655.18
191.585	5648.18
191.66	5654.22
191.736	5678.34
191.811	5650.1
191.887	5696.29
191.963	5755.93
192.038	5766.24
192.114	5769.12
192.189	5776.65
192.265	5771.52
192.34	5707.07
192.416	5702.62
192.491	5694.7
192.567	5702.24
192.642	5705.93
192.718	5705.83
192.793	5681.18
192.869	5670.97
192.944	5682.14
193.02	5702.19
193.095	5710.72
193.171	5728.13
193.246	5724.1
193.322	5714.99
193.397	5717.38
193.473	5678.96
193.548	5633.49
193.624	5647.21
193.699	5643.09
193.775	5686.36
193.85	5691.68
193.925	5716.71
194.001	5714.6
194.076	5693.51
194.152	5660.89
194.227	5647.36
194.302	5617.7
194.378	5622.26
194.453	5615.4
194.529	5646.29
194.604	5610.61
194.679	5600.78
194.755	5546.54
194.83	5576.86
194.905	5568.76
194.981	5593.55
195.056	5577.35
195.131	5593.46
195.207	5585.21
195.282	5553.24
195.357	5499.32
195.433	5539.88
195.508	5511.26
195.583	5532.25
195.659	5566.64
195.734	5582.85
195.809	5575.99
195.884	5605.55
195.96	5604.31
196.035	5643.82
196.11	5634.6
196.185	5665.53
196.261	5665.77
196.336	5750.73
196.411	5706.79
196.486	5721.75
196.561	5700.02
196.637	5723.51
196.712	5762.18
196.787	5772.88
196.862	5821.02
196.937	5846.43
197.013	5856.7
197.088	5881.15
197.163	5935.77
197.238	5984.18
197.313	5989.5
197.388	6025
197.464	6106.32
197.539	6142.01
197.614	6123.54
197.689	6149.41
197.764	6195.06
197.839	6254.9
197.914	6243.33
197.989	6309.74
198.065	6342.42
198.14	6481.39
198.215	6547.26
198.29	6585.78
198.365	6627.03
198.44	6653.96
198.515	6723.1
198.59	6764.84
198.665	6831.44
198.74	6856.91
198.815	6859.89
198.89	6917.47
198.965	6997.67
199.04	6984.69
199.115	7022.01
199.19	7141.57
199.265	7155.59
199.34	7179.42
199.415	7262.45
199.49	7312.17
199.565	7334.8
199.64	7400.97
199.715	7389.04
199.79	7406.87
199.865	7415.23
199.94	7403.32
200.015	7486.87
200.09	7508.8
200.165	7528.45
200.24	7548.74
200.315	7648.25
200.39	7688.01
200.464	7706.71
200.539	7708.88
200.614	7749.74
200.689	7807
200.764	7819.51
200.839	7865.21
200.914	7877.04
200.989	7857.65
201.063	7895.69
201.138	7851.68
201.213	7854.81
201.288	7803.22
201.363	7809.47
201.438	7812.16
201.512	7857.62
201.587	7814.28
201.662	7822.8
201.737	7854.35
201.812	7877.1
201.886	7795.91
201.961	7821.55
202.036	7782.48
202.111	7773.01
202.186	7691.67
202.26	7645.07
202.335	7582.94
202.41	7569.1
202.485	7521.77
202.559	7467.01
202.634	7395.34
202.709	7420.41
202.784	7367.21
202.858	7369.27
202.933	7326.6
203.008	7313.43
203.082	7263.94
203.157	7254.85
203.232	7142.8
203.306	7080.69
203.381	6997.49
203.456	6932.04
203.53	6871.82
203.605	6821.81
203.68	6763.27
203.754	6746.1
203.829	6708.34
203.904	6653.41
203.978	6622.18
204.053	6636.02
204.127	6600.44
204.202	6596.07
204.277	6549.83
204.351	6529.76
204.426	6508.05
204.5	6487.74
204.575	6390.41
204.65	6411.64
204.724	6390.12
204.799	6416.84
204.873	6409.34
204.948	6403.58
205.022	6370.86
205.097	6345.25
205.171	6387.58
205.246	6410.06
205.32	6413.7
205.395	6415.72
205.469	6397.21
205.544	6412.2
205.618	6368.27
205.693	6393.66
205.767	6361.75
205.842	6415.91
205.916	6400.22
205.991	6377.46
206.065	6393.83
206.14	6435.6
206.214	6423.15
206.289	6405.48
206.363	6434.58
206.438	6444.62
206.512	6463.39
206.586	6514.6
206.661	6537.66
206.735	6471.99
206.81	6474.34
206.884	6510.29
206.958	6478.56
207.033	6517.81
207.107	6528.19
207.181	6609.17
207.256	6600.67
207.33	6650.93
207.405	6685.02
207.479	6737.74
207.553	6758.14
207.628	6710.88
207.702	6741.6
207.776	6722.16
207.851	6732.14
207.925	6770.06
207.999	6755.51
208.073	6747.1
208.148	6755.61
208.222	6723.95
208.296	6815.66
208.371	6859.17
208.445	6885.3
208.519	6959.45
208.593	6998.98
208.668	6993.02
208.742	7002.74
208.816	7007.11
208.89	7042.82
208.965	7033.39
209.039	7052.81
209.113	7091.39
209.187	7148.46
209.261	7142.07
209.336	7198.95
209.41	7251.67
209.484	7253.31
209.558	7319.73
209.632	7355.72
209.707	7381.57
209.781	7442.32
209.855	7486.17
209.929	7523.99
210.003	7544.9
210.077	7544.28
210.151	7667.99
210.226	7764.2
210.3	7836.15
210.374	7897.47
210.448	7908.78
210.522	7937.73
210.596	7965.14
210.67	7995.63
210.744	8128.02
210.818	8215.22
210.892	8273.33
210.966	8262.13
211.041	8295.32
211.115	8285.8
211.189	8354.48
211.263	8399.74
211.337	8410.28
211.411	8448.63
211.485	8428.8
211.559	8458.77
211.633	8466.17
211.707	8382.17
211.781	8397.72
211.855	8305.43
211.929	8278.8
212.003	8232.22
212.077	8261.28
212.151	8297.91
212.225	8318.26
212.299	8289.08
212.373	8253.82
212.447	8236.06
212.52	8301.97
212.594	8319.1
212.668	8343.88
212.742	8305.48
212.816	8292.3
212.89	8273.39
212.964	8263.29
213.038	8279.31
213.112	8315.94
213.186	8348.88
213.26	8288.84
213.333	8159.31
213.407	8168.93
213.481	8181.86
213.555	8207.91
213.629	8169.51
213.703	8119.13
213.777	8110.52
213.85	8045.56
213.924	8132.38
213.998	8131.51
214.072	8113.85
214.146	8067.91
214.219	8054.48
214.293	8037.94
214.367	8038.81
214.441	8064.97
214.515	8026.1
214.588	7956.59
214.662	7854.2
214.736	7795.01
214.81	7811.06
214.883	7827.49
214.957	7789.9
215.031	7743.53
215.105	7672.31
215.178	7626.68
215.252	7598.65
215.326	7526.82
215.4	7464.23
215.473	7321.96
215.547	7252.58
215.621	7198.46
215.694	7194.52
215.768	7121.18
215.842	7068.23
215.915	7007.7
215.989	6919.17
216.063	6873.4
216.136	6854.18
216.21	6837.9
216.284	6843.33
216.357	6823.11
216.431	6799.76
216.504	6797.46
216.578	6838.73
216.652	6849.29
216.725	6831.37
216.799	6837.43
216.873	6818.51
216.946	6827.63
217.02	6798.16
217.093	6777.56
217.167	6700.96
217.24	6637.5
217.314	6603.14
217.387	6564.08
217.461	6532.68
217.535	6546.02
217.608	6502.67
217.682	6481.49
217.755	6485.81
217.829	6446.57
217.902	6431.4
217.976	6411.19
218.049	6376.33
218.123	6314.18
218.196	6313.5
218.27	6287.67
218.343	6228.65
218.417	6225.91
218.49	6207.48
218.563	6240.74
218.637	6246.79
218.71	6308.05
218.784	6329.95
218.857	6361.19
218.931	6379.61
219.004	6383.83
219.077	6399.35
219.151	6413.98
219.224	6414.08
219.298	6410.81
219.371	6440.01
219.444	6416.59
219.518	6423.84
219.591	6432.29
219.665	6520.32
219.738	6525.64
219.811	6510.39
219.885	6548.12
219.958	6576.17
220.031	6575.59
220.105	6595.58
220.178	6603.74
220.251	6576.65
220.325	6599.61
220.398	6612.15
220.471	6629.14
220.544	6657.14
220.618	6640.75
220.691	6658.42
220.764	6671.77
220.838	6693.43
220.911	6689.98
220.984	6752.35
221.057	6784.43
221.131	6804.88
221.204	6731.73
221.277	6793.8
221.35	6891.03
221.424	6878.11
221.497	6886.57
221.57	6910.42
221.643	6929.31
221.716	6957.61
221.79	6973.61
221.863	6978.84
221.936	6982.06
222.009	6996.23
222.082	7018.33
222.155	7024.87
222.229	7075.18
222.302	7095.6
222.375	7101.08
222.448	7125.39
222.521	7135.73
222.594	7132.37
222.667	7109.03
222.74	7150.3
222.814	7142.56
222.887	7125.83
222.96	7172.73
223.033	7205.27
223.106	7223.38
223.179	7248.77
223.252	7259.25
223.325	7271.4
223.398	7282.89
223.471	7307.64
223.544	7324.21
223.617	7334.21
223.69	7357.51
223.763	7327.52
223.837	7343.71
223.91	7373.28
223.983	7335.8
224.056	7300.63
224.129	7317.11
224.202	7362.21
224.275	7352.21
224.348	7331.5
224.42	7309
224.493	7267.53
224.566	7247.24
224.639	7262.95
224.712	7239.39
224.785	7232.23
224.858	7232.28
224.931	7214.44
225.004	7182.69
225.077	7182.49
225.15	7111.26
225.223	7106.07
225.296	7171.09
225.369	7126.98
225.442	7096.89
225.514	7106.93
225.587	7128.59
225.66	7136.04
225.733	7138.01
225.806	7141.71
225.879	7131.96
225.952	7103.67
226.025	7137.02
226.097	7177.7
226.17	7171.55
226.243	7116.12
226.316	7108.81
226.389	7104.48
226.461	7129.15
226.534	7143.55
226.607	7129.53
226.68	7198.07
226.753	7196
226.825	7132.28
226.898	7173.94
226.971	7178.26
227.044	7198.44
227.117	7201.42
227.189	7218.25
227.262	7248.3
227.335	7267.38
227.407	7269.59
227.48	7299.71
227.553	7313.17
227.626	7294.32
227.698	7299.99
227.771	7341.72
227.844	7327.21
227.916	7349.56
227.989	7318.7
228.062	7321.24
228.134	7398.02
228.207	7398.41
228.28	7389.76
228.352	7403.41
228.425	7411.44
228.498	7440.52
228.57	7429.04
228.643	7470.73
228.716	7471.69
228.788	7459.43
228.861	7450.82
228.934	7498.07
229.006	7500.09
229.079	7496.91
229.151	7492.34
229.224	7462.89
229.296	7480.92
229.369	7560.9
229.442	7600.09
229.514	7584.43
229.587	7622.26
229.659	7560.71
229.732	7570.14
229.804	7604.94
229.877	7662.32
229.949	7692.91
230.022	7740.83
230.094	7737.56
230.167	7731.17
230.239	7699.63
230.312	7690.21
230.384	7747.35
230.457	7745.38
230.529	7758.17
230.602	7759.27
230.674	7768.22
230.747	7804.54
230.819	7828.11
230.892	7741.45
230.964	7738.56
231.037	7757.4
231.109	7748.45
231.181	7776.96
231.254	7751.67
231.326	7742.25
231.399	7727.52
231.471	7698.76
231.544	7632.19
231.616	7666.69
231.688	7671.46
231.761	7661.46
231.833	7654.49
231.905	7589.75
231.978	7587.78
232.05	7571.06
232.122	7579.38
232.195	7557.02
232.267	7582.79
232.339	7561.73
232.412	7607.77
232.484	7585.26
232.556	7560.95
232.629	7618.97
232.701	7633.5
232.773	7641.19
232.846	7628.98
232.918	7628.11
232.99	7643.74
233.062	7673.17
233.135	7690.53
233.207	7664.13
233.279	7696.76
233.351	7720.51
233.424	7718.3
233.496	7693.16
233.568	7761.06
233.64	7728.8
233.713	7746.06
233.785	7742.41
233.857	7756.98
233.929	7723.52
234.001	7781.98
234.074	7843.93
234.146	7784.81
234.218	7780.91
234.29	7781.63
234.362	7773.7
234.434	7732.78
234.507	7706.04
234.579	7665.56
234.651	7640.46
234.723	7666.09
234.795	7680.61
234.867	7679.41
234.939	7726.58
235.012	7746.05
235.084	7748.79
235.156	7778.17
235.228	7755.19
235.3	7746.67
235.372	7754.85
235.444	7794.61
235.516	7726
235.588	7726.87
235.66	7739.22
235.732	7717.49
235.804	7871.14
235.876	7906.14
235.948	7960.3
236.02	7967.61
236.092	7986.55
236.164	8001.6
236.236	7998.61
236.308	7995.44
236.38	8014.44
236.452	8002.12
236.524	8019.48
236.596	8071.48
236.668	8105.44
236.74	8129.1
236.812	8147.09
236.884	8172.64
236.956	8184.95
237.028	8180.38
237.1	8162.01
237.172	8214.94
237.244	8275.99
237.316	8176.93
237.388	8164.04
237.46	8147.1
237.532	8206.23
237.604	8193.92
237.675	8252.43
237.747	8283.95
237.819	8278.13
237.891	8282.55
237.963	8273.27
238.035	8270.72
238.107	8181.73
238.178	8225.78
238.25	8227.65
238.322	8296.92
238.394	8264.39
238.466	8259.54
238.538	8293.2
238.609	8329.32
238.681	8287.74
238.753	8276
238.825	8300.12
238.897	8324.59
238.968	8391.41
239.04	8362.78
239.112	8451.3
239.184	8416.89
239.255	8412.12
239.327	8436.12
239.399	8449.07
239.471	8493.57
239.542	8522.58
239.614	8577.63
239.686	8511.97
239.758	8552.77
239.829	8523.11
239.901	8567.96
239.973	8586.24
240.044	8613.29
240.116	8628.11
240.188	8639.17
240.259	8643.31
240.331	8630.65
240.403	8654.08
240.474	8609.5
240.546	8604.21
240.618	8556.71
240.689	8557.43
240.761	8584.29
240.833	8633.91
240.904	8638.91
240.976	8630.88
241.048	8641.32
241.119	8671.03
241.191	8706.64
241.262	8772.22
241.334	8784.84
241.405	8794.18
241.477	8793.7
241.549	8797.98
241.62	8814.06
241.692	8854.05
241.763	8900.66
241.835	8917.12
241.906	8935.07
241.978	8915.97
242.049	8975.79
242.121	9027.77
242.192	9084.38
242.264	9049.01
242.335	9016.61
242.407	9051.32
242.478	9053.48
242.55	9066.53
242.621	9051.94
242.693	9052.76
242.764	9035.75
242.836	9029.54
242.907	9055.02
242.979	9077.54
243.05	9098.15
243.122	9116.54
243.193	9108.64
243.264	9059.35
243.336	9068.83
243.407	9100.85
243.479	9164.01
243.55	9171.91
243.622	9184.19
243.693	9176.29
243.764	9242.15
243.836	9222.04
243.907	9213.08
243.978	9222.27
244.05	9246.25
244.121	9205.14
244.192	9237.4
244.264	9193.59
244.335	9207.21
244.407	9163.21
244.478	9177.27
244.549	9167.44
244.62	9135.96
244.692	9143.57
244.763	9176.15
244.834	9166.19
244.906	9146.59
244.977	9160.89
245.048	9208.1
245.119	9192.88
245.191	9175.36
245.262	9112.05
245.333	9173.85
245.405	9187.82
245.476	9209.19
245.547	9222.73
245.618	9268.41
245.689	9272.89
245.761	9304.38
245.832	9310.01
245.903	9351.46
245.974	9375.83
246.045	9386.95
246.117	9454.66
246.188	9437.04
246.259	9426.01
246.33	9437.47
246.401	9448.6
246.473	9421.87
246.544	9405.39
246.615	9450.42
246.686	9462.31
246.757	9530.48
246.828	9507.66
246.899	9569.85
246.97	9546.07
247.042	9537.11
247.113	9569.33
247.184	9638.37
247.255	9637.02
247.326	9659.13
247.397	9661.15
247.468	9673.05
247.539	9684.61
247.61	9650.17
247.681	9686.9
247.752	9729.09
247.823	9712.14
247.894	9722.93
247.965	9704.97
248.037	9690.76
248.108	9647.85
248.179	9645.15
248.25	9634.75
248.321	9663.3
248.392	9615.27
248.463	9682.73
248.534	9685.38
248.605	9705.33
248.675	9687.98
248.746	9704.5
248.817	9717.65
248.888	9731.43
248.959	9686.83
249.03	9705.85
249.101	9714.48
249.172	9703.59
249.243	9647.93
249.314	9697.82
249.385	9704.81
249.456	9731
249.527	9733.75
249.598	9750.36
249.669	9757.73
249.739	9768.85
249.81	9777.38
249.881	9753.83
249.952	9747.08
250.023	9740.92
250.094	9694
250.165	9671.89
250.235	9667.7
250.306	9674.59
250.377	9657.15
250.448	9680.75
250.519	9630.95
250.59	9676.09
250.66	9676.72
250.731	9734.11
250.802	9737.72
250.873	9753.67
250.944	9764.75
251.014	9759.06
251.085	9834.12
251.156	9858.06
251.227	9899.83
251.297	9944.34
251.368	9978.01
251.439	10012.6
251.51	10056.82
251.58	10049.69
251.651	10046.9
251.722	10094.11
251.792	10052.49
251.863	10046.86
251.934	10090.5
252.005	10186.89
252.075	10188.38
252.146	10226.91
252.217	10263.72
252.287	10286.41
252.358	10288.58
252.429	10349.24
252.499	10341.97
252.57	10347.07
252.641	10376.85
252.711	10384.17
252.782	10352.32
252.852	10414.19
252.923	10411.49
252.994	10426.04
253.064	10465.97
253.135	10443.52
253.205	10418.71
253.276	10479.84
253.347	10538.51
253.417	10522.95
253.488	10506.67
253.558	10505.75
253.629	10503.68
253.699	10509.56
253.77	10538.76
253.841	10532.98
253.911	10540.74
253.982	10555
254.052	10581.36
254.123	10592.39
254.193	10591.09
254.264	10693.06
254.334	10670.41
254.405	10638.95
254.475	10606.72
254.546	10615.87
254.616	10667.52
254.687	10696.47
254.757	10705
254.827	10702.35
254.898	10716.76
254.968	10715.65
255.039	10692.33
255.109	10724.13
255.18	10702.59
255.25	10642.46
255.321	10666.55
255.391	10630.22
255.461	10701
255.532	10634.59
255.602	10624.86
255.673	10582.41
255.743	10553.83
255.813	10495.06
255.884	10538.13
255.954	10568.73
256.024	10614.41
256.095	10615.37
256.165	10581.6
256.235	10600.49
256.306	10587.77
256.376	10627.43
256.446	10659.43
256.517	10687.66
256.587	10724.24
256.657	10743.41
256.728	10766.2
256.798	10772.99
256.868	10777.62
256.938	10750.78
257.009	10788.27
257.079	10813.52
257.149	10888.49
257.219	10847.24
257.29	10885
257.36	10838.9
257.43	10866.08
257.5	10820.01
257.571	10814.23
257.641	10849.11
257.711	10822.31
257.781	10845.63
257.852	10863.08
257.922	10816.49
257.992	10822.36
258.062	10808.44
258.132	10846.65
258.202	10852.72
258.273	10866.75
258.343	10922.41
258.413	10908.92
258.483	10908.05
258.553	10886.61
258.623	10870.27
258.693	10889.01
258.764	10936.14
258.834	10998.54
258.904	11011.5
258.974	10998.69
259.044	11012.08
259.114	11035.12
259.184	11065.24
259.254	11078.06
259.324	11031.45
259.394	11067.5
259.464	11126.49
259.535	11137.23
259.605	11131.45
259.675	11121.04
259.745	11152.61
259.815	11132.85
259.885	11140.9
259.955	11233.35
260.025	11230.65
260.095	11237.98
260.165	11265.25
260.235	11313.12
260.305	11303.09
260.375	11284.92
260.445	11367.03
260.515	11414.56
260.585	11458.85
260.655	11461.36
260.725	11490.8
260.795	11524.68
260.865	11583.24
260.934	11555.05
261.004	11576.16
261.074	11576.11
261.144	11631.96
261.214	11660.45
261.284	11665.89
261.354	11696.25
261.424	11667.33
261.494	11722.9
261.564	11732.58
261.634	11754.47
261.703	11701.64
261.773	11719.62
261.843	11743.23
261.913	11727.86
261.983	11684.34
262.053	11694.94
262.123	11690.27
262.192	11657.49
262.262	11681.06
262.332	11642.98
262.402	11678.31
262.472	11688.39
262.541	11641.07
262.611	11667.91
262.681	11641.02
262.751	11670.9
262.821	11672.54
262.89	11640.39
262.96	11664.59
263.03	11719.2
263.1	11730.91
263.169	11747.35
263.239	11776.17
263.309	11830.74
263.379	11860.86
263.448	11881.44
263.518	11900.24
263.588	11920.53
263.657	11984.63
263.727	12023.78
263.797	12034.72
263.867	12035.05
263.936	12002.33
264.006	12055.19
264.076	12047.53
264.145	12054.61
264.215	12040.49
264.285	12073.02
264.354	12037.7
264.424	12019.04
264.494	11982.26
264.563	11983.71
264.633	12045.94
264.702	12058.42
264.772	12014.75
264.842	12008.34
264.911	12033.31
264.981	12000.29
265.05	12008.87
265.12	12001.78
265.19	12004.38
265.259	12040.49
265.329	12065.99
265.398	12091.24
265.468	12171.16
265.537	12169.48
265.607	12195.26
265.676	12232.77
265.746	12246.31
265.815	12295.81
265.885	12306.46
265.955	12299.86
266.024	12294.89
266.094	12244.71
266.163	12295.72
266.232	12345.95
266.302	12357.66
266.371	12382.63
266.441	12395.31
266.51	12428.52
266.58	12429.1
266.649	12424.28
266.719	12465.15
266.788	12484.29
266.858	12539.1
266.927	12483.38
266.996	12511.86
267.066	12539.2
267.135	12516.54
267.205	12558.57
267.274	12578.15
267.343	12623.07
267.413	12634.78
267.482	12683.28
267.552	12744.55
267.621	12703.96
267.69	12672.09
267.76	12688.34
267.829	12703.91
267.898	12729.12
267.968	12723.72
268.037	12758.62
268.106	12797.76
268.176	12766.96
268.245	12775.4
268.314	12768.02
268.384	12814.49
268.453	12833.19
268.522	12854.45
268.592	12903.91
268.661	12889.69
268.73	12919.67
268.799	12909.17
268.869	12978.77
268.938	12940.35
269.007	12923.96
269.076	12937.75
269.146	12982.58
269.215	13012.81
269.284	13071.23
269.353	13067.04
269.422	13067.91
269.492	13059.13
269.561	12996.61
269.63	13029.29
269.699	13032.04
269.768	13048.77
269.838	13063.86
269.907	13093.79
269.976	13070.03
270.045	13035.66
270.114	13060.15
270.183	13062.08
270.253	13087.82
270.322	13049.88
270.391	13076.54
270.46	13130.14
270.529	13172.03
270.598	13206.65
270.667	13213.88
270.736	13184.76
270.806	13208.86
270.875	13263.77
270.944	13284.98
271.013	13386.31
271.082	13406.85
271.151	13427.43
271.22	13397.59
271.289	13410.32
271.358	13420.54
271.427	13445.85
271.496	13465.9
271.565	13467.97
271.634	13489.09
271.703	13586.12
271.772	13633.99
271.841	13646.33
271.91	13627.05
271.979	13643.2
272.048	13618.61
272.117	13648.65
272.186	13654.09
272.255	13690.15
272.324	13715.41
272.393	13736.33
272.462	13720.14
272.531	13748.39
272.6	13756.05
272.669	13824.55
272.738	13831.06
272.807	13857.77
272.876	13849.14
272.945	13962.03
273.013	14015.69
273.082	14056.23
273.151	13994.67
273.22	14021.81
273.289	14042.06
273.358	14102.36
273.427	14115.33
273.496	14157.61
273.564	14192.51
273.633	14240.81
273.702	14230.25
273.771	14240.67
273.84	14265.64
273.909	14300.68
273.977	14324.45
274.046	14338.91
274.115	14380.75
274.184	14383.6
274.253	14391.69
274.322	14448.82
274.39	14402.74
274.459	14393.29
274.528	14367.21
274.597	14369.14
274.665	14398.06
274.734	14451.57
274.803	14467.19
274.872	14480.59
274.94	14479.43
275.009	14584.41
275.078	14576.94
275.147	14608.85
275.215	14637.67
275.284	14693.59
275.353	14709.74
275.421	14675.56
275.49	14750.23
275.559	14746.71
275.627	14758.86
275.696	14775.83
275.765	14808.03
275.833	14816.94
275.902	14858.3
275.971	14919.91
276.039	14999.64
276.108	15043.07
276.177	15073.43
276.245	15075.6
276.314	15093.49
276.383	15144
276.451	15081.73
276.52	15124.92
276.588	15193.08
276.657	15238.87
276.725	15246.83
276.794	15276.81
276.863	15347.86
276.931	15313.15
277	15373.02
277.068	15439.35
277.137	15519.99
277.205	15555.51
277.274	15644.73
277.342	15700.35
277.411	15678.37
277.48	15682.42
277.548	15691.29
277.617	15722.91
277.685	15742.14
277.754	15802.15
277.822	15811.31
277.89	15887.8
277.959	15913.35
278.027	15903.27
278.096	15899.66
278.164	16002.32
278.233	16016.05
278.301	16028.25
278.37	16090.14
278.438	16087.53
278.507	16135.68
278.575	16100.98
278.643	16123.88
278.712	16104.89
278.78	16101.95
278.849	16172.32
278.917	16231.46
278.985	16247.31
279.054	16281.05
279.122	16346.99
279.191	16365.64
279.259	16390.12
279.327	16360.19
279.396	16431.72
279.464	16455.38
279.532	16515.92
279.601	16530.95
279.669	16559.53
279.737	16638.38
279.806	16680.02
279.874	16748.03
279.942	16770.34
280.011	16802.34
280.079	16854.44
280.147	16936.81
280.215	16982.88
280.284	17011.8
280.352	17012.19
280.42	17068.67
280.488	17090.55
280.557	17105.06
280.625	17146.07
280.693	17190.31
280.761	17238.41
280.83	17228.58
280.898	17301.74
280.966	17280.68
281.034	17237.88
281.102	17229.5
281.171	17225.3
281.239	17284
281.307	17285.45
281.375	17286.36
281.443	17380.34
281.512	17406.84
281.58	17451.81
281.648	17454.99
281.716	17485.73
281.784	17522.02
281.852	17541.59
281.92	17570.6
281.989	17638.94
282.057	17633.11
282.125	17741.68
282.193	17768.81
282.261	17806.21
282.329	17818.35
282.397	17873.39
282.465	17921.53
282.533	17997.73
282.601	18011.03
282.67	17980.43
282.738	18005.92
282.806	18073.1
282.874	18078.98
282.942	18120.09
283.01	18133.34
283.078	18183.55
283.146	18212.47
283.214	18268.8
283.282	18305.09
283.35	18368.12
283.418	18380.22
283.486	18432.94
283.554	18397.04
283.622	18415.49
283.69	18449.81
283.758	18471.68
283.826	18523.01
283.894	18582.47
283.962	18681.17
284.03	18761.55
284.098	18803.43
284.165	18828.44
284.233	18865.98
284.301	18885.16
284.369	18902.12
284.437	18923.47
284.505	18945.73
284.573	19019.51
284.641	19024.23
284.709	19089.24
284.777	19080.66
284.845	19141.67
284.912	19192.85
284.98	19239.98
285.048	19277.95
285.116	19331.3
285.184	19412.11
285.252	19444.64
285.319	19440.01
285.387	19448.88
285.455	19446.52
285.523	19507.67
285.591	19534.85
285.659	19578.08
285.726	19642.27
285.794	19640.1
285.862	19670.36
285.93	19704.39
285.997	19729.83
286.065	19761.49
286.133	19766.21
286.201	19802.45
286.269	19799.18
286.336	19808.91
286.404	19831.51
286.472	19893.29
286.539	19869.92
286.607	19850.6
286.675	19887.08
286.743	19938.69
286.81	19952.71
286.878	20020.13
286.946	20028.04
287.013	20070.06
287.081	20102.78
287.149	20104.81
287.216	20194.64
287.284	20217.53
287.352	20247.89
287.419	20275.6
287.487	20351.55
287.555	20399.22
287.622	20426.49
287.69	20477.29
287.758	20549.82
287.825	20575.89
287.893	20577.63
287.96	20633.96
288.028	20703.07
288.096	20739.94
288.163	20786.93
288.231	20799.46
288.298	20829.73
288.366	20906.56
288.433	20928.39
288.501	20935.23
288.569	20975.91
288.636	20985.69
288.704	21063
288.771	21132.31
288.839	21143.68
288.906	21149.37
288.974	21209.53
289.041	21242.92
289.109	21255.79
289.176	21312.82
289.244	21361.16
289.311	21426.71
289.379	21492.45
289.446	21531.88
289.514	21571.6
289.581	21606.88
289.649	21651.42
289.716	21681.21
289.783	21694.51
289.851	21783.97
289.918	21819.2
289.986	21885.24
290.053	21946.85
290.121	21975.1
290.188	22009.51
290.255	22119.76
290.323	22141.89
290.39	22165.61
290.458	22220.8
290.525	22294.51
290.592	22314.81
290.66	22349.8
290.727	22380.46
290.794	22453.99
290.862	22494
290.929	22539.85
290.996	22574.46
291.064	22638
291.131	22722.53
291.198	22794.32
291.266	22824.36
291.333	22871.55
291.4	22914.94
291.468	22975.36
291.535	22995.95
291.602	23040.07
291.669	23049.96
291.737	23104.43
291.804	23134.43
291.871	23205.98
291.938	23246.44
292.006	23342.23
292.073	23409.97
292.14	23470.93
292.207	23478.93
292.275	23513.36
292.342	23567.04
292.409	23672.13
292.476	23763.15
292.543	23765.99
292.611	23796.76
292.678	23874.37
292.745	23988.43
292.812	24050.85
292.879	24073.81
292.946	24120.15
293.014	24186.28
293.081	24250.1
293.148	24319.84
293.215	24393.16
293.282	24417.18
293.349	24484.96
293.416	24478.88
293.484	24551
293.551	24607.26
293.618	24691.34
293.685	24797.05
293.752	24812.44
293.819	24836.91
293.886	24847.62
293.953	24896.58
294.02	24972.58
294.087	25020.06
294.154	25020.64
294.221	25098.49
294.288	25141.62
294.356	25229.01
294.423	25284.84
294.49	25305.26
294.557	25386.53
294.624	25398.59
294.691	25486.85
294.758	25527.35
294.825	25586.9
294.892	25604.51
294.959	25650.08
295.026	25702.11
295.093	25726.35
295.16	25776.39
295.226	25813.89
295.293	25914.27
295.36	25967.74
295.427	26018.44
295.494	26093.28
295.561	26171.43
295.628	26267.71
295.695	26344.42
295.762	26384.93
295.829	26450.65
295.896	26531.18
295.963	26591.06
296.03	26664.88
296.096	26722.73
296.163	26790.77
296.23	26868.96
296.297	26942.26
296.364	26973.26
296.431	27019.33
296.498	27039.85
296.564	27134.74
296.631	27183.37
296.698	27186.07
296.765	27291.57
296.832	27305.96
296.899	27312.24
296.965	27388.09
297.032	27366.92
297.099	27465.3
297.166	27529.64
297.233	27563.51
297.299	27587.33
297.366	27623.43
297.433	27679.71
297.5	27745.24
297.566	27790.71
297.633	27829.42
297.7	27884.65
297.767	27931.55
297.833	27996.69
297.9	28052.83
297.967	28062.49
298.033	28141.61
298.1	28254.33
298.167	28268.35
298.234	28332.38
298.3	28393.99
298.367	28412.46
298.434	28478.98
298.5	28488.36
298.567	28515.67
298.634	28541.62
298.7	28626.21
298.767	28670.59
298.834	28736.24
298.9	28746.59
298.967	28757.41
299.033	28817.13
299.1	28891.02
299.167	28966.86
299.233	28992.35
299.3	29067.24
299.366	29152.36
299.433	29227.39
299.5	29200.45
299.566	29252.67
299.633	29335.42
299.699	29410.34
299.766	29455.45
299.832	29499.91
299.899	29549.54
299.965	29618.41
300.032	29655.01
300.099	29712.19
300.165	29766.51
300.232	29795.63
300.298	29850
300.365	29934.06
300.431	29973.59
300.498	29986.51
300.564	30036.58
300.631	30109.34
300.697	30186.87
300.763	30217.39
300.83	30244.5
300.896	30326.99
300.963	30392.31
301.029	30434.27
301.096	30474.54
301.162	30537.44
301.229	30566.58
301.295	30583.81
301.361	30634.28
301.428	30691.23
301.494	30683.05
301.561	30725.21
301.627	30768.66
301.693	30809.8
301.76	30863.24
301.826	30896.35
301.892	30977.19
301.959	31036.69
302.025	31063.07
302.092	31081.37
302.158	31145.07
302.224	31194.42
302.291	31203.71
302.357	31219.49
302.423	31244.09
302.49	31263.75
302.556	31326.12
302.622	31357.97
302.688	31424.88
302.755	31506.35
302.821	31556.6
302.887	31627.81
302.954	31661.75
303.02	31714.44
303.086	31772.93
303.152	31794.48
303.219	31824.75
303.285	31864.66
303.351	31931.42
303.417	31977.28
303.483	31995.4
303.55	32013.8
303.616	32037.25
303.682	32077.73
303.748	32107.27
303.815	32170.34
303.881	32232.83
303.947	32242.56
304.013	32289.4
304.079	32312.56
304.145	32284.84
304.212	32315.21
304.278	32328.97
304.344	32362.63
304.41	32384.92
304.476	32407.01
304.542	32437.19
304.608	32498.38
304.674	32493.49
304.741	32510.79
304.807	32548.34
304.873	32598.34
304.939	32678.53
305.005	32672.72
305.071	32700.81
305.137	32745.38
305.203	32732.15
305.269	32764
305.335	32843.09
305.401	32866.5
305.467	32892.57
305.533	32951.83
305.599	33014.63
305.666	33078.45
305.732	33119.64
305.798	33175.86
305.864	33271.75
305.93	33317.4
305.996	33331.5
306.062	33369.98
306.128	33386.56
306.194	33381.76
306.259	33415.11
306.325	33417.05
306.391	33482.33
306.457	33532.93
306.523	33574.61
306.589	33675.01
306.655	33688.29
306.721	33668.32
306.787	33679.85
306.853	33747.33
306.919	33737.44
306.985	33738.07
307.051	33761.68
307.117	33771.38
307.183	33794.75
307.248	33743.98
307.314	33786.89
307.38	33828.2
307.446	33878.48
307.512	33881.34
307.578	33938.05
307.644	33963.02
307.709	34008.5
307.775	34033.52
307.841	34064.07
307.907	34098.01
307.973	34071.68
308.039	34105.62
308.104	34143.87
308.17	34185.08
308.236	34181.69
308.302	34230.56
308.368	34241.71
308.433	34260.42
308.499	34285.34
308.565	34286.6
308.631	34323.6
308.696	34287.91
308.762	34284.37
308.828	34297.32
308.894	34292.08
308.959	34262.12
309.025	34275.02
309.091	34288.6
309.156	34296.89
309.222	34328.81
309.288	34327.89
309.354	34304.37
309.419	34323.19
309.485	34307.48
309.551	34338.85
309.616	34344.67
309.682	34356.99
309.748	34376.19
309.813	34387.73
309.879	34394.52
309.945	34393.7
310.01	34420.91
310.076	34458.68
310.141	34474.49
310.207	34473.08
310.273	34507.07
310.338	34560.31
310.404	34539.32
310.469	34536.16
310.535	34546.88
310.601	34520.01
310.666	34567.5
310.732	34635.98
310.797	34643.93
310.863	34665.41
310.928	34679.48
310.994	34709.55
311.059	34740.01
311.125	34773.67
311.191	34840.62
311.256	34838
311.322	34885.92
311.387	34852.17
311.453	35809.41
311.518	35801.75
311.584	35828.14
311.649	35874.66
311.715	35874.46
311.78	35906.37
311.846	35912.1
311.911	35958.67
311.976	35992.52
312.042	35969.33
312.107	35949.54
312.173	35956.77
312.238	35969.96
312.304	35984.95
312.369	35984.23
312.434	35977.58
312.5	35980.69
312.565	35919.56
312.631	35966.7
312.696	35969.08
312.761	36012.49
312.827	35099.33
312.892	35213.26
312.958	35234.27
313.023	35254.69
313.088	35288.5
313.154	35291.03
313.219	35297.86
313.284	35284.47
313.35	35303.01
313.415	35309.21
313.48	35327.5
313.546	35367.63
313.611	35417.16
313.676	35414.35
313.741	35421.14
313.807	35461.51
313.872	35499.2
313.937	35550.43
314.003	35603.62
314.068	35632.58
314.133	35675.23
314.198	35664.7
314.264	35626.12
314.329	35625.63
314.394	35641.35
314.459	35648.97
314.525	35722.58
314.59	35727.86
314.655	35740.53
314.72	35777.75
314.785	35801.76
314.851	35816.56
314.916	35785.02
314.981	35765.12
315.046	35770.85
315.111	35772.55
315.176	35771.92
315.242	35785.65
315.307	35802.97
315.372	35772.88
315.437	35783.12
315.502	35789.34
315.567	35850.62
315.632	35844.41
315.698	35870.33
315.763	35870.18
315.828	35869.99
315.893	35864.31
315.958	35889.25
316.023	35880.12
316.088	35853.34
316.153	35822.53
316.218	35806.18
316.283	35770.43
316.348	35747.63
316.413	35753.11
316.479	35727.5
316.544	35648.29
316.609	35572.75
316.674	35476.22
316.739	35382.65
316.804	35281.37
316.869	35170
316.934	35064.57
316.999	34963.01
317.064	34804.47
317.129	34681.66
317.194	34561.64
317.259	34420.64
317.324	34259.82
317.389	34123.43
317.454	33989.54
317.518	33880.95
317.583	33795.7
317.648	33700.64
317.713	33567.57
317.778	33377.7
317.843	33261.27
317.908	33122.3
317.973	32997.4
318.038	32897.96
318.103	32752.29
318.168	32639.1
318.233	32517.06
318.297	32336.02
318.362	32202.99
318.427	32072.59
318.492	31965.67
318.557	31810
318.622	31690.03
318.687	31582.07
318.751	31429.77
318.816	31294.48
318.881	31148.18
318.946	30947.61
319.011	30776.26
319.075	30629.61
319.14	30489.54
319.205	30317.03
319.27	30175.24
319.335	30006.96
319.399	29828.76
319.464	29706.93
319.529	29511.33
319.594	29358.14
319.658	29224.63
319.723	29043.55
319.788	28896.73
319.853	28677.64
319.917	28524.87
319.982	28319.86
320.047	28156.97
320.112	28022.09
320.176	27822.32
320.241	27654.65
320.306	27506.28
320.37	27344.25
320.435	27179.42
320.5	27039.58
320.564	26857.91
320.629	26679.78
320.694	26519.98
320.758	26340.08
320.823	26153.18
320.888	25998.37
320.952	25785.26
321.017	25587.98
321.082	25412.56
321.146	25238.59
321.211	25075.59
321.275	24888.83
321.34	24692.58
321.405	24495.74
321.469	24284.43
321.534	24089.44
321.598	23877.55
321.663	23710.64
321.727	23536.24
321.792	23324.96
321.857	23122.16
321.921	22951.27
321.986	22754.61
322.05	22509.78
322.115	22325.03
322.179	22123.37
322.244	21891.93
322.308	21725.87
322.373	21528.09
322.437	21334.7
322.502	21197.32
322.566	20995.26
322.631	20827.49
322.695	20640.25
322.76	20439.66
322.824	20265.01
322.889	20068.33
322.953	19868
323.018	19607.22
323.082	19354.49
323.146	19139.22
323.211	18906.64
323.275	18703.8
323.34	18496.57
323.404	18323.28
323.468	18117.02
323.533	17909.64
323.597	17709.35
323.662	17482.69
323.726	17296.62
323.79	17087.12
323.855	16815.83
323.919	16600.4
323.983	16386.26
324.048	16082.5
324.112	16230.36
324.177	15581.16
324.241	14740.12
324.305	13908.97
324.37	13097.01
324.434	12302.94
324.498	12081
324.562	11840.45
324.627	11556.98
324.691	11286.59
324.755	10975.64
324.82	10620.05
324.884	10255.17
324.948	9877.29
325.012	9421.67
325.077	8863.51
