Data from 20250626_urea_1M_exp2_MAYP1162681_16-44-00-756.txt Node
Date: Thu Jun 26 16:44:00 BST 2025
User: adleo
Spectrometer: MAYP116268
Trigger mode: 0
Integration Time (sec): 3.000000E0
Scans to average: 1
Electric dark correction enabled: true
Nonlinearity correction enabled: true
Boxcar width: 10
XAxis mode: Wavelengths
Number of Pixels in Spectrum: 2068
>>>>>Begin Spectral Data<<<<<
179.565	3350.06
179.642	3516.42
179.718	3644.42
179.795	3772.39
179.871	3870.68
179.948	3935.87
180.024	4002.39
180.101	4074.71
180.177	4116.28
180.254	4178.69
180.33	4244.46
180.407	4481.18
180.483	4742.19
180.56	5006.11
180.636	5248.77
180.712	5210.95
180.789	5238.69
180.865	5273.27
180.942	5300.2
181.018	5333.93
181.095	5372.43
181.171	5382.26
181.248	5387.15
181.324	5438.65
181.4	5455.43
181.477	5489.42
181.553	5520.81
181.63	5578.92
181.706	5621.99
181.782	5651.59
181.859	5657.59
181.935	5673.84
182.011	5666.46
182.088	5715.48
182.164	5770.85
182.24	5808.43
182.317	5839.83
182.393	5833.46
182.469	5872.3
182.546	5909.76
182.622	5921.37
182.698	5914.84
182.775	5955.86
182.851	5998.16
182.927	5971.3
183.003	5959.12
183.08	5943.63
183.156	5970.01
183.232	5961.95
183.308	5929.71
183.385	5950.19
183.461	5995.28
183.537	5998.45
183.613	6034.72
183.69	6006.66
183.766	5974.11
183.842	5999.97
183.918	6013.98
183.995	6046.55
184.071	6057.21
184.147	6037.34
184.223	6005.08
184.299	6038.58
184.375	6003.94
184.452	6018.35
184.528	6134.98
184.604	6167.6
184.68	6198.64
184.756	6220.43
184.832	6234.78
184.908	6244.99
184.985	6244.37
185.061	6202.92
185.137	6231.57
185.213	6193.96
185.289	6193.52
185.365	6173.57
185.441	6163.92
185.517	6205.46
185.593	6199.27
185.669	6192.79
185.745	6223.35
185.822	6271.31
185.898	6243.23
185.974	6267.02
186.05	6245.03
186.126	6172.69
186.202	6146.93
186.278	6132.53
186.354	6106.14
186.43	6123.33
186.506	6122.18
186.582	6119.82
186.658	6142.03
186.734	6079.19
186.81	6087.06
186.886	6094.44
186.962	6132.35
187.038	6124.43
187.114	6096.91
187.19	6115.1
187.266	6083.92
187.341	6089.39
187.417	6068.09
187.493	6067.85
187.569	6083.11
187.645	6068.48
187.721	6034.02
187.797	6063.09
187.873	6075.33
187.949	6056.05
188.025	6039.43
188.101	6052.19
188.176	6065.62
188.252	6050.27
188.328	6078.46
188.404	6076.35
188.48	6069.21
188.556	6040.32
188.632	6039.41
188.707	6044.3
188.783	6042.29
188.859	6031.93
188.935	5998
189.011	6021.51
189.086	6007.36
189.162	5980.01
189.238	5974.88
189.314	5969.98
189.39	5948.78
189.465	5934.91
189.541	5983.85
189.617	5938.86
189.693	5918.67
189.768	5928.79
189.844	5997.78
189.92	5972.08
189.996	5999.67
190.071	6029.85
190.147	6034.17
190.223	6059.08
190.298	6035.03
190.374	5994.35
190.45	6029.31
190.526	6053.11
190.601	6041.16
190.677	6038.09
190.753	6120.56
190.828	6129.57
190.904	6169.7
190.98	6214.72
191.055	6240.39
191.131	6213.56
191.207	6271
191.282	6296.18
191.358	6268.25
191.433	6231.94
191.509	6273.47
191.585	6258.69
191.66	6262.77
191.736	6289.36
191.811	6262.48
191.887	6311.84
191.963	6379.03
192.038	6392.85
192.114	6395.3
192.189	6410.66
192.265	6404.14
192.34	6332.18
192.416	6330.69
192.491	6322.63
192.567	6331.23
192.642	6341.89
192.718	6346.06
192.793	6310.35
192.869	6302.15
192.944	6310.88
193.02	6328.55
193.095	6335.12
193.171	6357.44
193.246	6356.58
193.322	6344.53
193.397	6347.31
193.473	6305.63
193.548	6260.3
193.624	6278.36
193.699	6273.32
193.775	6309.77
193.85	6315.48
193.925	6342.26
194.001	6335.12
194.076	6315.82
194.152	6283.74
194.227	6263.96
194.302	6239.45
194.378	6253.89
194.453	6247.13
194.529	6284.72
194.604	6241.18
194.679	6228.66
194.755	6175.26
194.83	6209.32
194.905	6200.15
194.981	6224.68
195.056	6202.9
195.131	6215.42
195.207	6202.7
195.282	6176.45
195.357	6120.28
195.433	6170.14
195.508	6136.83
195.583	6168.16
195.659	6209.79
195.734	6227.31
195.809	6220.31
195.884	6238.01
195.96	6235.22
196.035	6283.46
196.11	6276.06
196.185	6309.9
196.261	6313.83
196.336	6402.15
196.411	6355.42
196.486	6374.48
196.561	6350
196.637	6380.08
196.712	6426.67
196.787	6441.41
196.862	6486.81
196.937	6514.89
197.013	6529.25
197.088	6561.65
197.163	6620.51
197.238	6666.42
197.313	6667.33
197.388	6712.37
197.464	6803.6
197.539	6840.43
197.614	6817.67
197.689	6852.02
197.764	6896.03
197.839	6960.69
197.914	6942.71
197.989	7010.26
198.065	7043.64
198.14	7197.77
198.215	7270.76
198.29	7306.63
198.365	7345.56
198.44	7377.42
198.515	7461.63
198.59	7496.38
198.665	7567.72
198.74	7588.3
198.815	7588.64
198.89	7657.61
198.965	7734.08
199.04	7721.63
199.115	7763.69
199.19	7886.14
199.265	7894.36
199.34	7927.35
199.415	8021.85
199.49	8083.92
199.565	8112.2
199.64	8187.32
199.715	8174.75
199.79	8192.75
199.865	8203.76
199.94	8196.45
200.015	8289.6
200.09	8305.24
200.165	8331.02
200.24	8354.6
200.315	8463.99
200.39	8510.23
200.464	8522.93
200.539	8533.57
200.614	8577.87
200.689	8646.45
200.764	8668.16
200.839	8711.55
200.914	8724.78
200.989	8691.99
201.063	8733.91
201.138	8682.7
201.213	8681.5
201.288	8624.77
201.363	8633.72
201.438	8639.11
201.512	8685.81
201.587	8628.63
201.662	8641.48
201.737	8672.77
201.812	8697.07
201.886	8609.1
201.961	8636.64
202.036	8600.03
202.111	8588.48
202.186	8505.24
202.26	8455.57
202.335	8389.01
202.41	8375.54
202.485	8328.26
202.559	8271.78
202.634	8194.81
202.709	8222.06
202.784	8163.47
202.858	8160.54
202.933	8109.32
203.008	8085.07
203.082	8033.47
203.157	8035.53
203.232	7913.76
203.306	7852.37
203.381	7756.64
203.456	7686.72
203.53	7619.62
203.605	7568.3
203.68	7501.4
203.754	7482.86
203.829	7437.03
203.904	7375.95
203.978	7336.47
204.053	7348.15
204.127	7311.05
204.202	7301.68
204.277	7245.8
204.351	7225.76
204.426	7208.69
204.5	7187.11
204.575	7089.22
204.65	7112.78
204.724	7087.29
204.799	7108.52
204.873	7095.78
204.948	7086.55
205.022	7052.35
205.097	7028.74
205.171	7070.93
205.246	7094.19
205.32	7094.43
205.395	7090.54
205.469	7069.51
205.544	7089.03
205.618	7034.88
205.693	7070.63
205.767	7035.47
205.842	7099.52
205.916	7084.44
205.991	7051.58
206.065	7066.71
206.14	7113.94
206.214	7096.77
206.289	7078.7
206.363	7111.76
206.438	7121.23
206.512	7146.46
206.586	7198.73
206.661	7223.98
206.735	7155.25
206.81	7160.16
206.884	7200.75
206.958	7161.56
207.033	7205.26
207.107	7222.62
207.181	7314.34
207.256	7292.19
207.33	7348.02
207.405	7390.22
207.479	7446.21
207.553	7476.82
207.628	7433.63
207.702	7467.85
207.776	7449.92
207.851	7458.91
207.925	7504.89
207.999	7496.43
208.073	7487.15
208.148	7495.85
208.222	7457.53
208.296	7551.98
208.371	7597.5
208.445	7634.33
208.519	7723.63
208.593	7761.46
208.668	7748.14
208.742	7754.16
208.816	7757.47
208.89	7798.84
208.965	7788.98
209.039	7815.87
209.113	7858.81
209.187	7917.57
209.261	7906.9
209.336	7963.16
209.41	8019.15
209.484	8016.65
209.558	8085.53
209.632	8125.68
209.707	8158.06
209.781	8219.47
209.855	8263.69
209.929	8310.59
210.003	8322.14
210.077	8314.49
210.151	8450.66
210.226	8550.24
210.3	8632.16
210.374	8702.76
210.448	8715.61
210.522	8743.62
210.596	8768.41
210.67	8800.32
210.744	8944.5
210.818	9034.17
210.892	9095.98
210.966	9081.21
211.041	9121.35
211.115	9103.84
211.189	9174.11
211.263	9221.14
211.337	9238.95
211.411	9276.55
211.485	9257.15
211.559	9296.66
211.633	9311.19
211.707	9221.03
211.781	9247.14
211.855	9141.55
211.929	9112.59
212.003	9058.51
212.077	9086.49
212.151	9123.9
212.225	9149.03
212.299	9109.15
212.373	9075.36
212.447	9064.13
212.52	9147.33
212.594	9162.26
212.668	9200.09
212.742	9153.1
212.816	9140.63
212.89	9124.65
212.964	9123.79
213.038	9130.53
213.112	9164.19
213.186	9204.19
213.26	9145.49
213.333	9002.44
213.407	9020.2
213.481	9036.99
213.555	9067.19
213.629	9029.78
213.703	8974.03
213.777	8961.31
213.85	8897.67
213.924	8997.3
213.998	8990.8
214.072	8960.99
214.146	8915.16
214.219	8892.67
214.293	8881.94
214.367	8881.99
214.441	8908.75
214.515	8863.98
214.588	8787.93
214.662	8673.87
214.736	8606.4
214.81	8618.86
214.883	8645.88
214.957	8602.78
215.031	8554.21
215.105	8477.19
215.178	8425.23
215.252	8392.85
215.326	8309.85
215.4	8242.87
215.473	8085.72
215.547	8011.23
215.621	7956.55
215.694	7952.84
215.768	7876.6
215.842	7818.22
215.915	7752.02
215.989	7650.52
216.063	7606.02
216.136	7589.43
216.21	7569.96
216.284	7577.71
216.357	7557.22
216.431	7521.21
216.504	7516.74
216.578	7558.96
216.652	7567.27
216.725	7552.03
216.799	7560.16
216.873	7540.65
216.946	7548.43
217.02	7518.12
217.093	7496.77
217.167	7415.54
217.24	7345.57
217.314	7313.05
217.387	7273.19
217.461	7238.53
217.535	7260.5
217.608	7205.81
217.682	7191.92
217.755	7205.23
217.829	7159.7
217.902	7139.61
217.976	7124.81
218.049	7088.97
218.123	7025.84
218.196	7024.78
218.27	6989.99
218.343	6935.67
218.417	6939.94
218.49	6919.48
218.563	6955.65
218.637	6960.75
218.71	7019.71
218.784	7047.16
218.857	7077.52
218.931	7102.24
219.004	7113.58
219.077	7132.77
219.151	7145.98
219.224	7136.03
219.298	7131.75
219.371	7170.31
219.444	7139.95
219.518	7147.83
219.591	7158.73
219.665	7258.92
219.738	7278
219.811	7267.48
219.885	7304.39
219.958	7330.78
220.031	7336.64
220.105	7351.4
220.178	7360.1
220.251	7342.07
220.325	7362.65
220.398	7378.23
220.471	7399.95
220.544	7429.32
220.618	7410.95
220.691	7441.52
220.764	7456.32
220.838	7478.38
220.911	7469.78
220.984	7544.17
221.057	7578.97
221.131	7604.16
221.204	7517.38
221.277	7576.67
221.35	7682.89
221.424	7675.15
221.497	7679.38
221.57	7700.52
221.643	7732.65
221.716	7767.14
221.79	7773.77
221.863	7781.27
221.936	7787.28
222.009	7795.79
222.082	7817.87
222.155	7820.75
222.229	7877.71
222.302	7908.15
222.375	7918.4
222.448	7947.59
222.521	7955.72
222.594	7956.54
222.667	7932.46
222.74	7985.79
222.814	7975.3
222.887	7965.82
222.96	8009.54
223.033	8048.36
223.106	8067.4
223.179	8090.31
223.252	8098.83
223.325	8125.42
223.398	8132.4
223.471	8162.75
223.544	8182.46
223.617	8196.56
223.69	8217
223.763	8181.82
223.837	8194.53
223.91	8223.06
223.983	8184.68
224.056	8157.41
224.129	8171.5
224.202	8220.92
224.275	8205.58
224.348	8179.41
224.42	8143.9
224.493	8103.4
224.566	8088.05
224.639	8113.5
224.712	8087.89
224.785	8077.41
224.858	8077.69
224.931	8068.75
225.004	8038.16
225.077	8040.13
225.15	7964.58
225.223	7970.74
225.296	8039.71
225.369	7998.64
225.442	7965.11
225.514	7981.46
225.587	7999.83
225.66	8011.33
225.733	8016.09
225.806	8024.65
225.879	8025.9
225.952	7998.45
226.025	8039.09
226.097	8083.57
226.17	8068.22
226.243	8020.71
226.316	8022.63
226.389	8020.81
226.461	8037.16
226.534	8051.06
226.607	8045.15
226.68	8115.35
226.753	8107.03
226.825	8038.34
226.898	8088.08
226.971	8097.41
227.044	8116.84
227.117	8115.01
227.189	8127.28
227.262	8158.03
227.335	8171.65
227.407	8172.95
227.48	8209.44
227.553	8220.65
227.626	8205.88
227.698	8216.22
227.771	8250.5
227.844	8237.7
227.916	8257.38
227.989	8228.85
228.062	8230.63
228.134	8306.38
228.207	8307.44
228.28	8300.42
228.352	8316.3
228.425	8326.4
228.498	8365.91
228.57	8347.87
228.643	8405.86
228.716	8420.44
228.788	8412.36
228.861	8411.4
228.934	8466.68
229.006	8473.27
229.079	8468.22
229.151	8460.03
229.224	8433.68
229.296	8454.99
229.369	8544.82
229.442	8590.41
229.514	8584.63
229.587	8627.51
229.659	8563.64
229.732	8576.54
229.804	8616.32
229.877	8680.54
229.949	8708.37
230.022	8751.8
230.094	8764.98
230.167	8753.76
230.239	8708.48
230.312	8699.29
230.384	8760.34
230.457	8754.03
230.529	8762.31
230.602	8767.27
230.674	8778.1
230.747	8818.5
230.819	8839.05
230.892	8737.88
230.964	8732.1
231.037	8758.17
231.109	8753.16
231.181	8791.56
231.254	8765.15
231.326	8754.22
231.399	8741.41
231.471	8711.85
231.544	8647.82
231.616	8681.79
231.688	8689.79
231.761	8679.83
231.833	8672.61
231.905	8599.06
231.978	8607.05
232.05	8595.5
232.122	8602.87
232.195	8585.88
232.267	8616.49
232.339	8604.65
232.412	8662.58
232.484	8641.01
232.556	8611
232.629	8670.42
232.701	8685.92
232.773	8698.86
232.846	8692.85
232.918	8693.71
232.99	8709.5
233.062	8742.76
233.135	8748.1
233.207	8722.93
233.279	8766.23
233.351	8796.35
233.424	8805.64
233.496	8779.41
233.568	8854.02
233.64	8822.02
233.713	8834.53
233.785	8834.25
233.857	8855.18
233.929	8814.62
234.001	8878.47
234.074	8943.72
234.146	8880.54
234.218	8876.69
234.29	8875.92
234.362	8873.18
234.434	8837.84
234.507	8815.56
234.579	8778.06
234.651	8767.23
234.723	8798.62
234.795	8816.04
234.867	8817.49
234.939	8875.88
235.012	8896.82
235.084	8902.31
235.156	8939.65
235.228	8926.37
235.3	8915.3
235.372	8922.66
235.444	8982.35
235.516	8914.93
235.588	8917.19
235.66	8935.14
235.732	8912.23
235.804	9078.51
235.876	9113.07
235.948	9168.73
236.02	9181.72
236.092	9199.87
236.164	9216.76
236.236	9217.87
236.308	9216.71
236.38	9238
236.452	9215.36
236.524	9231.06
236.596	9280.68
236.668	9317.76
236.74	9340.19
236.812	9360.89
236.884	9394.07
236.956	9402.5
237.028	9397.74
237.1	9384.06
237.172	9447.73
237.244	9523.19
237.316	9427.92
237.388	9421.72
237.46	9404.28
237.532	9462.11
237.604	9458.7
237.675	9519.19
237.747	9557.91
237.819	9554.11
237.891	9563.59
237.963	9558.97
238.035	9557.29
238.107	9471.21
238.178	9527.48
238.25	9541.49
238.322	9624.25
238.394	9590.83
238.466	9582.79
238.538	9624.87
238.609	9664.25
238.681	9620.71
238.753	9601.1
238.825	9626.97
238.897	9655.24
238.968	9732.42
239.04	9712.72
239.112	9813.28
239.184	9784.23
239.255	9782.5
239.327	9815.91
239.399	9831.76
239.471	9873.37
239.542	9910.11
239.614	9969.88
239.686	9898.73
239.758	9943.13
239.829	9918.22
239.901	9972.55
239.973	10000.78
240.044	10033.53
240.116	10054.48
240.188	10066.04
240.259	10084.11
240.331	10078.85
240.403	10116.81
240.474	10072.82
240.546	10071.13
240.618	10016.21
240.689	10021.37
240.761	10043.62
240.833	10104.37
240.904	10117.76
240.976	10123.83
241.048	10141.37
241.119	10184.3
241.191	10220.52
241.262	10282.83
241.334	10288.13
241.405	10291.31
241.477	10298.78
241.549	10310.49
241.62	10323.93
241.692	10370.27
241.763	10424.09
241.835	10444.91
241.906	10454.35
241.978	10435.37
242.049	10493.09
242.121	10552.54
242.192	10608.09
242.264	10577.3
242.335	10535.24
242.407	10569.16
242.478	10577.45
242.55	10598.79
242.621	10584.24
242.693	10594.55
242.764	10584.43
242.836	10594.4
242.907	10636.28
242.979	10663.4
243.05	10682.29
243.122	10709.85
243.193	10703.3
243.264	10644.66
243.336	10645.19
243.407	10686.05
243.479	10761.07
243.55	10785.75
243.622	10799.96
243.693	10803.19
243.764	10872.91
243.836	10855.62
243.907	10852.58
243.978	10855.96
244.05	10880.15
244.121	10840.69
244.192	10878.85
244.264	10839.38
244.335	10850.9
244.407	10801.9
244.478	10814.86
244.549	10806.62
244.62	10775.11
244.692	10782
244.763	10825.12
244.834	10820.06
244.906	10802.08
244.977	10815.87
245.048	10860.79
245.119	10850.48
245.191	10833.08
245.262	10781.86
245.333	10851.81
245.405	10866.46
245.476	10908
245.547	10924.05
245.618	10980.33
245.689	10986.64
245.761	11024.13
245.832	11030.78
245.903	11078.49
245.974	11107.02
246.045	11128.42
246.117	11209.47
246.188	11205.67
246.259	11196.66
246.33	11221.04
246.401	11236.75
246.473	11224.51
246.544	11213.47
246.615	11264.36
246.686	11284.41
246.757	11352.31
246.828	11345.22
246.899	11418.54
246.97	11394.11
247.042	11392.95
247.113	11425.29
247.184	11510.13
247.255	11509.31
247.326	11537.16
247.397	11539.57
247.468	11549.79
247.539	11566.76
247.61	11529.69
247.681	11573.35
247.752	11620.97
247.823	11599.86
247.894	11617.45
247.965	11592.68
248.037	11585.02
248.108	11538.75
248.179	11538.85
248.25	11528.05
248.321	11554.32
248.392	11509.78
248.463	11579.42
248.534	11578.41
248.605	11597.4
248.675	11575.66
248.746	11593.25
248.817	11607.76
248.888	11631.52
248.959	11590.89
249.03	11609.4
249.101	11613.98
249.172	11595.76
249.243	11538.84
249.314	11594.27
249.385	11601.59
249.456	11623.23
249.527	11617.45
249.598	11639.09
249.669	11641.16
249.739	11655.43
249.81	11664.58
249.881	11629.88
249.952	11622.31
250.023	11626.75
250.094	11592.04
250.165	11567.85
250.235	11571.22
250.306	11578.31
250.377	11552.52
250.448	11580.18
250.519	11533.34
250.59	11590.31
250.66	11592.09
250.731	11651.03
250.802	11653.44
250.873	11671.76
250.944	11690.94
251.014	11686.8
251.085	11767.73
251.156	11795.63
251.227	11842.01
251.297	11895.85
251.368	11950.55
251.439	11985.45
251.51	12024.74
251.58	12015.24
251.651	12012.64
251.722	12062.96
251.792	12022.96
251.863	12027.73
251.934	12076.85
252.005	12179.37
252.075	12192.87
252.146	12241.98
252.217	12288.98
252.287	12329.08
252.358	12334.68
252.429	12407.17
252.499	12410.02
252.57	12423.13
252.641	12466.56
252.711	12483.1
252.782	12443.91
252.852	12506.57
252.923	12516.55
252.994	12535.54
253.064	12578.06
253.135	12568.13
253.205	12546.53
253.276	12617.24
253.347	12677.11
253.417	12659.8
253.488	12644.52
253.558	12631.12
253.629	12630.16
253.699	12641.49
253.77	12675.47
253.841	12668.96
253.911	12680.68
253.982	12692.29
254.052	12718.86
254.123	12727.82
254.193	12731.05
254.264	12855.62
254.334	12823.37
254.405	12792.76
254.475	12765.47
254.546	12765.18
254.616	12818.5
254.687	12849.88
254.757	12870.61
254.827	12874.27
254.898	12905.07
254.968	12909.99
255.039	12897.36
255.109	12930.67
255.18	12913.6
255.25	12847.37
255.321	12887.77
255.391	12855.85
255.461	12940.07
255.532	12876.77
255.602	12871.66
255.673	12828.47
255.743	12796.85
255.813	12745.27
255.884	12792.66
255.954	12826.74
256.024	12898.47
256.095	12909.75
256.165	12883.04
256.235	12899.53
256.306	12890.71
256.376	12932.12
256.446	12975.31
256.517	13009.87
256.587	13048.73
256.657	13069.89
256.728	13096.21
256.798	13100.02
256.868	13087.97
256.938	13060.39
257.009	13100.21
257.079	13133.76
257.149	13219.23
257.219	13169.87
257.29	13203.75
257.36	13153.23
257.43	13186.98
257.5	13128.41
257.571	13124.55
257.641	13160.85
257.711	13131.11
257.781	13165.91
257.852	13187.56
257.922	13130.38
257.992	13134.14
258.062	13127.4
258.132	13160.66
258.202	13172.52
258.273	13189.49
258.343	13259.38
258.413	13248.68
258.483	13250.61
258.553	13229.4
258.623	13206.41
258.693	13232.39
258.764	13292.41
258.834	13359.36
258.904	13379.75
258.974	13377.92
259.044	13388.67
259.114	13413.55
259.184	13445.46
259.254	13453.03
259.324	13407.23
259.394	13456.02
259.464	13525.92
259.535	13542.31
259.605	13539.7
259.675	13526.01
259.745	13557.54
259.815	13543.99
259.885	13555.13
259.955	13659.39
260.025	13652.02
260.095	13668.31
260.165	13696.75
260.235	13751.76
260.305	13749.35
260.375	13728.14
260.445	13811.63
260.515	13859.55
260.585	13898.5
260.655	13912.04
260.725	13946.27
260.795	13977.22
260.865	14038.34
260.934	14017.61
261.004	14051.12
261.074	14055.46
261.144	14115.95
261.214	14152.4
261.284	14159.34
261.354	14191.35
261.424	14157.37
261.494	14217.19
261.564	14221.96
261.634	14247.08
261.703	14189.71
261.773	14207.5
261.843	14236.86
261.913	14225.34
261.983	14188.17
262.053	14211.12
262.123	14206.1
262.192	14172.07
262.262	14202
262.332	14155.97
262.402	14176.75
262.472	14178.91
262.541	14124.73
262.611	14155.82
262.681	14130.85
262.751	14158.43
262.821	14162.91
262.89	14127.48
262.96	14154.33
263.03	14227.41
263.1	14251.03
263.169	14275.52
263.239	14304.01
263.309	14362.72
263.379	14390.48
263.448	14414.39
263.518	14434.93
263.588	14453.87
263.657	14524.35
263.727	14560.02
263.797	14583.74
263.867	14591.31
263.936	14561.56
264.006	14621.2
264.076	14623.46
264.145	14622.4
264.215	14608.42
264.285	14645.3
264.354	14605.43
264.424	14595.31
264.494	14546.14
264.563	14536.36
264.633	14600.08
264.702	14616.42
264.772	14569.18
264.842	14569.67
264.911	14592.51
264.981	14556.03
265.05	14567.69
265.12	14564.41
265.19	14573.96
265.259	14598.54
265.329	14625
265.398	14642.31
265.468	14729.94
265.537	14725.9
265.607	14754.67
265.676	14799.7
265.746	14814.06
265.815	14871.14
265.885	14881.07
265.955	14872.73
266.024	14874.17
266.094	14821.54
266.163	14875.09
266.232	14927.72
266.302	14935.68
266.371	14958
266.441	14974.53
266.51	15009
266.58	15004.51
266.649	14996.03
266.719	15046.26
266.788	15069.44
266.858	15138.9
266.927	15081.83
266.996	15107.67
267.066	15142.23
267.135	15120.25
267.205	15154.57
267.274	15184.21
267.343	15233.91
267.413	15254.35
267.482	15308.28
267.552	15361.69
267.621	15320.63
267.69	15280.62
267.76	15295.75
267.829	15316.63
267.898	15342.61
267.968	15330.56
268.037	15367.29
268.106	15414.81
268.176	15386.23
268.245	15393.12
268.314	15381.22
268.384	15431.93
268.453	15448.7
268.522	15465.33
268.592	15522.16
268.661	15514.83
268.73	15535.9
268.799	15519.99
268.869	15588.92
268.938	15552.24
269.007	15547.18
269.076	15572.39
269.146	15624.78
269.215	15654.14
269.284	15710.91
269.353	15710.43
269.422	15721.04
269.492	15716.55
269.561	15645.26
269.63	15673.22
269.699	15672.26
269.768	15691.54
269.838	15715.54
269.907	15752.8
269.976	15721.51
270.045	15672.11
270.114	15700.74
270.183	15712.69
270.253	15744.55
270.322	15700.74
270.391	15716.21
270.46	15768.36
270.529	15807.69
270.598	15842.39
270.667	15850.49
270.736	15839.7
270.806	15862.74
270.875	15906.12
270.944	15921.01
271.013	16026.08
271.082	16051.73
271.151	16084.12
271.22	16050.81
271.289	16051.1
271.358	16052.69
271.427	16096.69
271.496	16126.73
271.565	16138.92
271.634	16147.11
271.703	16182.44
271.772	16240.33
271.841	16259.95
271.91	16243.61
271.979	16260.09
272.048	16233.29
272.117	16277.44
272.186	16272.77
272.255	16319.03
272.324	16360.44
272.393	16392.01
272.462	16393.11
272.531	16416.87
272.6	16432.3
272.669	16502.38
272.738	16515.1
272.807	16550.53
272.876	16536.16
272.945	16654.34
273.013	16702.15
273.082	16762.2
273.151	16745.86
273.22	16781.38
273.289	16798.49
273.358	16868.71
273.427	16869.53
273.496	16913.29
273.564	16940.14
273.633	16983.66
273.702	16970.5
273.771	16988.91
273.84	17013.97
273.909	17039.46
273.977	17061.06
274.046	17068.38
274.115	17106.55
274.184	17100.77
274.253	17117.35
274.322	17178.65
274.39	17121.93
274.459	17105.59
274.528	17062.99
274.597	17086.12
274.665	17101.11
274.734	17162.56
274.803	17168.58
274.872	17194.03
274.94	17198.8
275.009	17385.54
275.078	17376.14
275.147	17403.52
275.215	17420.72
275.284	17475.66
275.353	17486.5
275.421	17459.23
275.49	17537.3
275.559	17548.77
275.627	17571.71
275.696	17581.3
275.765	17611.42
275.833	17625.64
275.902	17665.73
275.971	17737.35
276.039	17815.37
276.108	17868.62
276.177	17894.07
276.245	17895.56
276.314	17922.07
276.383	17972.62
276.451	17839.71
276.52	17895.03
276.588	17974.26
276.657	18024.09
276.725	18027.89
276.794	18065.24
276.863	18141.82
276.931	18119.46
277	18172.66
277.068	18240.8
277.137	18322.39
277.205	18360.17
277.274	18449.18
277.342	18520.55
277.411	18502.19
277.48	18504.94
277.548	18499.39
277.617	18535.68
277.685	18554.19
277.754	18604.11
277.822	18621.65
277.89	18692.64
277.959	18707.38
278.027	18680.97
278.096	18673.6
278.164	18785.6
278.233	18806.03
278.301	18811.38
278.37	18862.17
278.438	18868.77
278.507	18906.65
278.575	18866.02
278.643	18896
278.712	18880.14
278.78	18872.24
278.849	18937.2
278.917	18994.4
278.985	19024.96
279.054	19059.41
279.122	19137.24
279.191	19167.41
279.259	19187.16
279.327	19161.38
279.396	19240.36
279.464	19271.11
279.532	19340.31
279.601	19366.82
279.669	19384.46
279.737	19456.89
279.806	19504.16
279.874	19563.1
279.942	19595.38
280.011	19625.36
280.079	19670.85
280.147	19751.18
280.215	19796.68
280.284	19822.55
280.352	19825.93
280.42	19882.31
280.488	19903.51
280.557	19911.08
280.625	19954.55
280.693	20002.59
280.761	20040.18
280.83	20028.95
280.898	20104.86
280.966	20078.11
281.034	20022.74
281.102	20024.47
281.171	20037.48
281.239	20081.29
281.307	20087.99
281.375	20096.52
281.443	20216.13
281.512	20238.88
281.58	20295.51
281.648	20287.61
281.716	20319.65
281.784	20355.61
281.852	20377.25
281.92	20404.96
281.989	20473.97
282.057	20460.38
282.125	20577.94
282.193	20620.97
282.261	20643.62
282.329	20660.93
282.397	20711.91
282.465	20757.79
282.533	20833.45
282.601	20842.08
282.67	20822.71
282.738	20842.27
282.806	20915.33
282.874	20914.61
282.942	20967.24
283.01	20977.9
283.078	21038.72
283.146	21068.89
283.214	21130.87
283.282	21178.01
283.35	21249.05
283.418	21269.44
283.486	21311.28
283.554	21258.73
283.622	21302.84
283.69	21355.95
283.758	21381.74
283.826	21437.93
283.894	21496.83
283.962	21590.06
284.03	21666.8
284.098	21714.66
284.165	21736.25
284.233	21760.83
284.301	21768.59
284.369	21776.93
284.437	21785.61
284.505	21801.56
284.573	21881.19
284.641	21880.08
284.709	21925.16
284.777	21918.26
284.845	21971.73
284.912	22030.15
284.98	22086.55
285.048	22090.26
285.116	22136.39
285.184	22208.36
285.252	22243.41
285.319	22235.02
285.387	22242.4
285.455	22238.93
285.523	22293.5
285.591	22318.03
285.659	22367.69
285.726	22445.89
285.794	22446.8
285.862	22476.31
285.93	22519.93
285.997	22540.71
286.065	22567.18
286.133	22569.4
286.201	22606.57
286.269	22607.29
286.336	22624.98
286.404	22644.36
286.472	22714.57
286.539	22697.11
286.607	22681.01
286.675	22722.86
286.743	22789.92
286.81	22815
286.878	22889.01
286.946	22904.2
287.013	22948.84
287.081	22973.53
287.149	22965.67
287.216	23052.46
287.284	23091.51
287.352	23123.29
287.419	23152.7
287.487	23246.26
287.555	23303.74
287.622	23315.21
287.69	23364.83
287.758	23432.01
287.825	23453.27
287.893	23450.14
287.96	23506.65
288.028	23585.01
288.096	23632.42
288.163	23674.67
288.231	23681.52
288.298	23704.67
288.366	23777.45
288.433	23815.69
288.501	23825.67
288.569	23876.17
288.636	23897.29
288.704	23975.24
288.771	24040.35
288.839	24054.1
288.906	24057.19
288.974	24122.51
289.041	24166.44
289.109	24170.83
289.176	24228.78
289.244	24284.87
289.311	24355.3
289.379	24421.38
289.446	24458.19
289.514	24487.96
289.581	24523.8
289.649	24571.07
289.716	24616.62
289.783	24629.11
289.851	24712.72
289.918	24760.28
289.986	24819.04
290.053	24866.28
290.121	24897.11
290.188	24941.46
290.255	25064.66
290.323	25087.48
290.39	25110.16
290.458	25171.43
290.525	25254.28
290.592	25270.98
290.66	25305.48
290.727	25337.66
290.794	25419.43
290.862	25451.91
290.929	25497.18
290.996	25533.23
291.064	25602.29
291.131	25684.98
291.198	25750.29
291.266	25783.15
291.333	25827.26
291.4	25878.48
291.468	25959.39
291.535	25972.23
291.602	26021.81
291.669	26026.39
291.737	26076.64
291.804	26111.93
291.871	26191
291.938	26234.41
292.006	26355.88
292.073	26434.95
292.14	26497.67
292.207	26508.25
292.275	26547.79
292.342	26609.41
292.409	26717.15
292.476	26810.71
292.543	26818.2
292.611	26864.37
292.678	26955.22
292.745	27063.68
292.812	27130.92
292.879	27161.11
292.946	27216.35
293.014	27285.19
293.081	27358.23
293.148	27439.6
293.215	27514.77
293.282	27536.02
293.349	27609.65
293.416	27584.81
293.484	27657.48
293.551	27722.8
293.618	27803.34
293.685	27923.08
293.752	27942.17
293.819	27971.94
293.886	27975.08
293.953	28040.12
294.02	28112.36
294.087	28168.44
294.154	28183.27
294.221	28260.82
294.288	28317.36
294.356	28414.74
294.423	28470.48
294.49	28481.21
294.557	28547.91
294.624	28565.84
294.691	28667.45
294.758	28718.12
294.825	28784.63
294.892	28795.31
294.959	28833.41
295.026	28895.54
295.093	28912.32
295.16	28957.6
295.226	29001.22
295.293	29113.23
295.36	29148.23
295.427	29212.46
295.494	29272.68
295.561	29343.18
295.628	29455.52
295.695	29535.42
295.762	29585.15
295.829	29652.1
295.896	29744.27
295.963	29819.06
296.03	29906.12
296.096	29962.29
296.163	30032.64
296.23	30114.74
296.297	30203.55
296.364	30249.16
296.431	30312.55
296.498	30341.09
296.564	30461.79
296.631	30513.61
296.698	30523
296.765	30632.26
296.832	30658.49
296.899	30676.92
296.965	30767.67
297.032	30739.59
297.099	30822.18
297.166	30888.06
297.233	30931.14
297.299	30958.53
297.366	31004.77
297.433	31052.74
297.5	31112.39
297.566	31153.69
297.633	31197.02
297.7	31249.83
297.767	31296.44
297.833	31350.63
297.9	31417.57
297.967	31406.97
298.033	31487.49
298.1	31615.61
298.167	31628.78
298.234	31683.97
298.3	31745.51
298.367	31784.07
298.434	31846.06
298.5	31859.53
298.567	31883.5
298.634	31919.78
298.7	32013.58
298.767	32060.04
298.834	32136.18
298.9	32174.5
298.967	32201.77
299.033	32279.34
299.1	32362.23
299.167	32448.55
299.233	32466.81
299.3	32548.44
299.366	32643.18
299.433	32728.09
299.5	32693.05
299.566	32758.45
299.633	32844.17
299.699	32929.12
299.766	32945.11
299.832	33013.4
299.899	33088.86
299.965	33168.53
300.032	33190.52
300.099	33245.48
300.165	33300.88
300.232	33331.03
300.298	33371.01
300.365	33449.18
300.431	33493.79
300.498	33523.46
300.564	33582.11
300.631	33680.71
300.697	33750.57
300.763	33780.19
300.83	33828.78
300.896	33906.1
300.963	33984.15
301.029	34028.04
301.096	34076.43
301.162	34162.38
301.229	34188.04
301.295	34192.98
301.361	34229.73
301.428	34299.05
301.494	34292.55
301.561	34352.54
301.627	34394.53
301.693	34442.77
301.76	34486.37
301.826	34504.7
301.892	34569.98
301.959	34632.07
302.025	34655.06
302.092	34688.48
302.158	34760.44
302.224	34791.06
302.291	34809.44
302.357	34838.74
302.423	34874.05
302.49	34891.95
302.556	34965.01
302.622	34991.26
302.688	35068.96
302.755	35154.69
302.821	35215.37
302.887	35296.75
302.954	35329.21
303.02	35395.18
303.086	35455.14
303.152	35499.24
303.219	35538.82
303.285	35595.55
303.351	35654.76
303.417	35694.74
303.483	35703.42
303.55	35733.45
303.616	35772.72
303.682	35820.55
303.748	35827.87
303.815	35911.15
303.881	35976.13
303.947	35974.77
304.013	36042.46
304.079	36055.32
304.145	36041.88
304.212	36071.58
304.278	36079.68
304.344	36092.25
304.41	36098.8
304.476	36110.15
304.542	36127.53
304.608	36183
304.674	36168.82
304.741	36177.51
304.807	36222.84
304.873	36285.45
304.939	36363.6
305.005	36339.48
305.071	36364.56
305.137	36414.5
305.203	36379.55
305.269	36416.78
305.335	36491.49
305.401	36498.92
305.467	36526.1
305.533	36596.19
305.599	36656.19
305.666	36737.05
305.732	36786.36
305.798	36869.86
305.864	36978.13
305.93	37039.05
305.996	37068.32
306.062	37108.17
306.128	37143.76
306.194	37153.9
306.259	37179.34
306.325	37183.13
306.391	37264.54
306.457	37325.32
306.523	37377.26
306.589	37483.89
306.655	37504.04
306.721	37484.76
306.787	37490.83
306.853	37582.99
306.919	37577.35
306.985	37590.17
307.051	37598.14
307.117	37622.02
307.183	37624.55
307.248	37581.28
307.314	37630.81
307.38	37675.05
307.446	37735.75
307.512	37733.08
307.578	37779.88
307.644	37799.02
307.709	37835.39
307.775	37849.86
307.841	37868.36
307.907	37897.15
307.973	37864.86
308.039	37889.24
308.104	37939.25
308.17	37991.15
308.236	37970.95
308.302	37994.79
308.368	37998.82
308.433	38025.97
308.499	38047.67
308.565	38069.38
308.631	38104.97
308.696	38072.14
308.762	38067.97
308.828	38085.84
308.894	38078.66
308.959	38042.92
309.025	38048.89
309.091	38077.84
309.156	38096.2
309.222	38149.33
309.288	38154.43
309.354	38140.93
309.419	38159.39
309.485	38157.15
309.551	38184.74
309.616	38189.55
309.682	38225
309.748	38241.02
309.813	38254.19
309.879	38264.14
309.945	38255.25
310.01	38282.6
310.076	38323.44
310.141	38338.98
310.207	38332.23
310.273	38370.16
310.338	38430.57
310.404	38429.6
310.469	38421.68
310.535	38417.21
310.601	38371.55
310.666	38403.95
310.732	38465.58
310.797	38477.1
310.863	38479.57
310.928	38494.73
310.994	38513.67
311.059	38532.71
311.125	38564.33
311.191	38629.18
311.256	38628.94
311.322	38678.72
311.387	38643.17
311.453	39770.87
311.518	39778.98
311.584	39813.61
311.649	39861.46
311.715	39857.52
311.78	39898.42
311.846	39904
311.911	39964.43
311.976	40003.73
312.042	39991.97
312.107	39983.71
312.173	39972.78
312.238	39989.54
312.304	40010.72
312.369	40037.87
312.434	40041.23
312.5	40057.5
312.565	40003.38
312.631	40043.84
312.696	40041.56
312.761	40097.27
312.827	39005.18
312.892	39098.17
312.958	39110.17
313.023	39128
313.088	39165.89
313.154	39157.87
313.219	39174.97
313.284	39161.32
313.35	39180.17
313.415	39185.76
313.48	39192.51
313.546	39233.9
313.611	39285.39
313.676	39298.51
313.741	39296.66
313.807	39342.28
313.872	39376.53
313.937	39418.94
314.003	39470.78
314.068	39501.87
314.133	39533.45
314.198	39527.77
314.264	39495.5
314.329	39496.91
314.394	39514.6
314.459	39534.62
314.525	39605.06
314.59	39620.36
314.655	39634.89
314.72	39677.99
314.785	39719.91
314.851	39749.4
314.916	39733.76
314.981	39723.7
315.046	39729.72
315.111	39718.65
315.176	39712.53
315.242	39751.11
315.307	39766.66
315.372	39748.63
315.437	39750.86
315.502	39758.25
315.567	39814.32
315.632	39815.63
315.698	39849.94
315.763	39852.17
315.828	39830.31
315.893	39843.09
315.958	39837.75
316.023	39820.01
316.088	39781.92
316.153	39741.5
316.218	39718.08
316.283	39681.07
316.348	39639
316.413	39634.68
316.479	39625.84
316.544	39534.42
316.609	39430.35
316.674	39335.15
316.739	39232.32
316.804	39135.51
316.869	39017.58
316.934	38902.59
316.999	38786.06
317.064	38608.4
317.129	38470.26
317.194	38354.78
317.259	38191.73
317.324	38027.81
317.389	37875.09
317.454	37740.97
317.518	37600.75
317.583	37503.62
317.648	37401.08
317.713	37268.88
317.778	37060.74
317.843	36915.24
317.908	36762.26
317.973	36624.25
318.038	36493.45
318.103	36336.13
318.168	36205.91
318.233	36068.18
318.297	35861.96
318.362	35708.33
318.427	35552.82
318.492	35433.88
318.557	35246.9
318.622	35114.06
318.687	35000.03
318.751	34839.57
318.816	34682.9
318.881	34527.82
318.946	34314.32
319.011	34122.3
319.075	33938.36
319.14	33774.37
319.205	33589.04
319.27	33435.07
319.335	33230.44
319.399	33052.29
319.464	32903.19
319.529	32670.26
319.594	32490.29
319.658	32348.08
319.723	32152.86
319.788	32002.35
319.853	31768.83
319.917	31603.45
319.982	31371.39
320.047	31175.24
320.112	31017.87
320.176	30799.74
320.241	30627.04
320.306	30449.42
320.37	30259.2
320.435	30085.45
320.5	29933.19
320.564	29746.12
320.629	29533.72
320.694	29358.75
320.758	29157.05
320.823	28951.93
320.888	28786.68
320.952	28567.35
321.017	28356.69
321.082	28151.65
321.146	27967.11
321.211	27790.55
321.275	27587.9
321.34	27368.47
321.405	27154.97
321.469	26929.6
321.534	26727.22
321.598	26490.74
321.663	26304.37
321.727	26116.84
321.792	25891.54
321.857	25670.94
321.921	25463.33
321.986	25259.18
322.05	25001.52
322.115	24794.28
322.179	24575.05
322.244	24329.37
322.308	24136.71
322.373	23913.43
322.437	23711.63
322.502	23540.22
322.566	23301.35
322.631	23112.27
322.695	22906.25
322.76	22693.67
322.824	22487.61
322.889	22263.1
322.953	22028.83
323.018	21744.97
323.082	21467.27
323.146	21220.77
323.211	20961.44
323.275	20727.34
323.34	20498.45
323.404	20308.86
323.468	20085.95
323.533	19852.65
323.597	19623.06
323.662	19369.03
323.726	19164.4
323.79	18928.4
323.855	18631.72
323.919	18400.3
323.983	18154.18
324.048	17819.74
324.112	17980.94
324.177	17278.36
324.241	16336.12
324.305	15421.32
324.37	14519.63
324.434	13637.02
324.498	13395.18
324.562	13124.68
324.627	12819.58
324.691	12516.03
324.755	12165.86
324.82	11770.36
324.884	11368.45
324.948	10959.68
325.012	10461.77
325.077	9839.11
