Data from 20250626_urea_1M_exp2_MAYP1162681_01-33-58-178.txt Node
Date: Fri Jun 27 01:33:58 BST 2025
User: adleo
Spectrometer: MAYP116268
Trigger mode: 0
Integration Time (sec): 3.000000E0
Scans to average: 1
Electric dark correction enabled: true
Nonlinearity correction enabled: true
Boxcar width: 10
XAxis mode: Wavelengths
Number of Pixels in Spectrum: 2068
>>>>>Begin Spectral Data<<<<<
179.565	2761.88
179.642	2902.52
179.718	3014.19
179.795	3117.44
179.871	3200.76
179.948	3249.63
180.024	3305.51
180.101	3365.94
180.177	3400.36
180.254	3455.89
180.33	3512.97
180.407	3700.28
180.483	3914.71
180.56	4134.55
180.636	4335.96
180.712	4307.53
180.789	4326.28
180.865	4357.21
180.942	4384.85
181.018	4413.74
181.095	4450.31
181.171	4464.04
181.248	4469.59
181.324	4509.56
181.4	4524.73
181.477	4551.2
181.553	4581.52
181.63	4628.52
181.706	4667.06
181.782	4687.95
181.859	4695.75
181.935	4708.97
182.011	4702.69
182.088	4746.55
182.164	4796.03
182.24	4827.76
182.317	4850.11
182.393	4849.58
182.469	4881.13
182.546	4913.59
182.622	4924.55
182.698	4916.51
182.775	4951.13
182.851	4982.59
182.927	4962.09
183.003	4951.99
183.08	4941.65
183.156	4966.5
183.232	4962.09
183.308	4932.93
183.385	4953.37
183.461	4988.29
183.537	4989.53
183.613	5020.13
183.69	4999.11
183.766	4968.29
183.842	4985.68
183.918	5000.38
183.995	5030.93
184.071	5043.49
184.147	5030.41
184.223	5002.32
184.299	5027.81
184.375	4996.92
184.452	5012.88
184.528	5115.18
184.604	5145.39
184.68	5172.02
184.756	5187.78
184.832	5196.55
184.908	5209.38
184.985	5209.33
185.061	5169.34
185.137	5193.25
185.213	5164.47
185.289	5167.15
185.365	5149.67
185.441	5148.62
185.517	5181.69
185.593	5170.87
185.669	5160.8
185.745	5190.32
185.822	5231.44
185.898	5214.81
185.974	5234.11
186.05	5215.99
186.126	5156.09
186.202	5131.96
186.278	5122.28
186.354	5103.4
186.43	5120.9
186.506	5114.43
186.582	5112.52
186.658	5130.57
186.734	5081.29
186.81	5090.63
186.886	5100.49
186.962	5129.32
187.038	5117.73
187.114	5097.93
187.19	5117.09
187.266	5094.49
187.341	5090.13
187.417	5070.01
187.493	5066.56
187.569	5077.3
187.645	5061.92
187.721	5033.5
187.797	5057.11
187.873	5064.44
187.949	5048.26
188.025	5030.86
188.101	5043.45
188.176	5057.58
188.252	5048
188.328	5066.47
188.404	5063.31
188.48	5047.27
188.556	5025.29
188.632	5027.06
188.707	5028.5
188.783	5025.72
188.859	5014.42
188.935	4987.26
189.011	5006.71
189.086	4994.26
189.162	4972.75
189.238	4967.82
189.314	4958.15
189.39	4938.75
189.465	4921.94
189.541	4963.52
189.617	4926.13
189.693	4909.9
189.768	4915.93
189.844	4973.25
189.92	4951.28
189.996	4973.6
190.071	5001.34
190.147	5008.04
190.223	5031.04
190.298	5011.49
190.374	4975.04
190.45	5005.68
190.526	5026.66
190.601	5015.45
190.677	5016.41
190.753	5088.13
190.828	5100.77
190.904	5139.01
190.98	5184.96
191.055	5211.69
191.131	5187.54
191.207	5241.04
191.282	5264.93
191.358	5241.27
191.433	5211.31
191.509	5245.72
191.585	5236.47
191.66	5236.52
191.736	5254.58
191.811	5227.13
191.887	5266.67
191.963	5332.56
192.038	5344.49
192.114	5350.82
192.189	5361.69
192.265	5355.52
192.34	5301.32
192.416	5295.77
192.491	5286.56
192.567	5294.05
192.642	5304.88
192.718	5302.1
192.793	5275.51
192.869	5266.64
192.944	5277.61
193.02	5290.74
193.095	5301.43
193.171	5318.44
193.246	5317.62
193.322	5311.58
193.397	5315.8
193.473	5278.65
193.548	5229.23
193.624	5245.34
193.699	5238.72
193.775	5275.88
193.85	5283.39
193.925	5304.63
194.001	5301.66
194.076	5275.26
194.152	5243
194.227	5218.12
194.302	5198.54
194.378	5204.38
194.453	5195.24
194.529	5219.58
194.604	5184.99
194.679	5172.96
194.755	5125.55
194.83	5156.14
194.905	5146.85
194.981	5168.41
195.056	5150.74
195.131	5164.63
195.207	5155.38
195.282	5129.33
195.357	5080.63
195.433	5115.93
195.508	5080.14
195.583	5105.48
195.659	5152.31
195.734	5169.18
195.809	5173.92
195.884	5195.61
195.96	5198.24
196.035	5241.17
196.11	5239.21
196.185	5272.03
196.261	5276.48
196.336	5354.2
196.411	5319.15
196.486	5335.15
196.561	5314.07
196.637	5341.71
196.712	5381.65
196.787	5389.61
196.862	5434.12
196.937	5457.4
197.013	5474.57
197.088	5501.69
197.163	5548.36
197.238	5588.58
197.313	5586.38
197.388	5621.18
197.464	5696.92
197.539	5723.05
197.614	5701
197.689	5726.89
197.764	5764.02
197.839	5816.68
197.914	5803.72
197.989	5862.57
198.065	5897.15
198.14	6036.32
198.215	6099.98
198.29	6130.56
198.365	6168.32
198.44	6188.51
198.515	6261.84
198.59	6293.95
198.665	6361.23
198.74	6381.54
198.815	6378.9
198.89	6437.59
198.965	6510.21
199.04	6497.1
199.115	6534.19
199.19	6641.61
199.265	6650.54
199.34	6670.7
199.415	6751.28
199.49	6799.52
199.565	6817.68
199.64	6880.45
199.715	6868.33
199.79	6878.7
199.865	6892.78
199.94	6889.85
200.015	6969.74
200.09	6981.9
200.165	6999.96
200.24	7015.14
200.315	7111.46
200.39	7150.28
200.464	7162.29
200.539	7164.7
200.614	7210.28
200.689	7267.33
200.764	7281.17
200.839	7322.57
200.914	7339.24
200.989	7312.36
201.063	7352.44
201.138	7312.4
201.213	7308.9
201.288	7254.45
201.363	7268.63
201.438	7267.23
201.512	7303.64
201.587	7260.53
201.662	7268.22
201.737	7302.24
201.812	7322.1
201.886	7245.77
201.961	7271.11
202.036	7241.86
202.111	7233.16
202.186	7153.31
202.26	7111.93
202.335	7059.4
202.41	7047.35
202.485	7004.61
202.559	6955.51
202.634	6887.2
202.709	6909.32
202.784	6858.79
202.858	6863.31
202.933	6816.44
203.008	6800.83
203.082	6747.05
203.157	6741.52
203.232	6636.41
203.306	6574.05
203.381	6495.04
203.456	6432.62
203.53	6372.54
203.605	6325.77
203.68	6264.87
203.754	6252.4
203.829	6210.11
203.904	6160.59
203.978	6129.43
204.053	6141.76
204.127	6117.05
204.202	6108.32
204.277	6063.08
204.351	6046.48
204.426	6022.04
204.5	6005.15
204.575	5914.91
204.65	5943.9
204.724	5925.08
204.799	5947.03
204.873	5943
204.948	5936.18
205.022	5909.72
205.097	5883.22
205.171	5920.48
205.246	5942.03
205.32	5943.04
205.395	5947.74
205.469	5929.91
205.544	5943.4
205.618	5897.92
205.693	5919.65
205.767	5891.26
205.842	5947.4
205.916	5934.07
205.991	5910.95
206.065	5923.62
206.14	5961.32
206.214	5945.96
206.289	5927.24
206.363	5958.28
206.438	5962.84
206.512	5984.96
206.586	6032.3
206.661	6060.24
206.735	6001.37
206.81	6002.66
206.884	6035.42
206.958	6002.09
207.033	6035.08
207.107	6052.32
207.181	6133.15
207.256	6120.48
207.33	6168.21
207.405	6197.62
207.479	6244.88
207.553	6269.78
207.628	6229.45
207.702	6265.91
207.776	6250.08
207.851	6258.57
207.925	6291.75
207.999	6283.45
208.073	6279.23
208.148	6285.9
208.222	6254.16
208.296	6334.11
208.371	6375.38
208.445	6401.93
208.519	6473.57
208.593	6513.7
208.668	6498.82
208.742	6506.17
208.816	6513.46
208.89	6548.05
208.965	6547.62
209.039	6568.94
209.113	6604.47
209.187	6657.61
209.261	6642.07
209.336	6693.68
209.41	6745.4
209.484	6747.9
209.558	6805.4
209.632	6832.57
209.707	6859.8
209.781	6917.92
209.855	6953.86
209.929	6994.73
210.003	7010.92
210.077	7007.46
210.151	7124.39
210.226	7217.36
210.3	7282.15
210.374	7338.82
210.448	7344.78
210.522	7368.63
210.596	7395.59
210.67	7424.52
210.744	7543.71
210.818	7626.14
210.892	7674.79
210.966	7661.67
211.041	7698.73
211.115	7685.57
211.189	7747.96
211.263	7791.99
211.337	7806.85
211.411	7845.99
211.485	7828.34
211.559	7861.99
211.633	7872.08
211.707	7791
211.781	7806.88
211.855	7718.21
211.929	7698.56
212.003	7656.04
212.077	7678.36
212.151	7703.13
212.225	7720.54
212.299	7689.02
212.373	7659.12
212.447	7650.22
212.52	7720.18
212.594	7728.69
212.668	7756.48
212.742	7715.08
212.816	7696.23
212.89	7679.12
212.964	7675.7
213.038	7681.95
213.112	7707.93
213.186	7743.21
213.26	7687.24
213.333	7570.04
213.407	7580.75
213.481	7590.07
213.555	7616.25
213.629	7579.99
213.703	7531.62
213.777	7528.2
213.85	7475.36
213.924	7558.42
213.998	7556.12
214.072	7537.3
214.146	7499.75
214.219	7492.93
214.293	7483.17
214.367	7483.89
214.441	7502.4
214.515	7464.75
214.588	7403.99
214.662	7313.06
214.736	7253.81
214.81	7267.97
214.883	7284.68
214.957	7253.7
215.031	7210.96
215.105	7145.06
215.178	7101.62
215.252	7077.07
215.326	7002.75
215.4	6942.06
215.473	6810.26
215.547	6746.97
215.621	6696.21
215.694	6688.66
215.768	6616.76
215.842	6571.24
215.915	6521.56
215.989	6434
216.063	6396.24
216.136	6382.41
216.21	6364.41
216.284	6372.48
216.357	6352.61
216.431	6320.2
216.504	6314.68
216.578	6354.78
216.652	6364.18
216.725	6346.42
216.799	6358.81
216.873	6344.13
216.946	6355.21
217.02	6325.95
217.093	6304.6
217.167	6235.2
217.24	6176.24
217.314	6149.05
217.387	6117.78
217.461	6084.48
217.535	6104.68
217.608	6056.41
217.682	6035.1
217.755	6045.71
217.829	6005.05
217.902	5992.58
217.976	5980.1
218.049	5948.11
218.123	5890.83
218.196	5890.25
218.27	5863.34
218.343	5810.92
218.417	5813.71
218.49	5793.08
218.563	5827.23
218.637	5836.73
218.71	5892.54
218.784	5912.93
218.857	5937.44
218.931	5949.81
219.004	5956.28
219.077	5974.53
219.151	5988.67
219.224	5982.43
219.298	5976.68
219.371	6008.16
219.444	5977.33
219.518	5984.62
219.591	5994.06
219.665	6068.02
219.738	6078.62
219.811	6068.7
219.885	6099.6
219.958	6120.38
220.031	6124.69
220.105	6140.87
220.178	6142.74
220.251	6118.98
220.325	6142.26
220.398	6153.88
220.471	6173.64
220.544	6195.62
220.618	6178.34
220.691	6201.03
220.764	6215.95
220.838	6236.02
220.911	6228.91
220.984	6299.3
221.057	6326.31
221.131	6349.25
221.204	6277.94
221.277	6331.81
221.35	6423.98
221.424	6418.79
221.497	6429.02
221.57	6449.12
221.643	6474.91
221.716	6510.55
221.79	6519.14
221.863	6526.54
221.936	6529.42
222.009	6536.81
222.082	6564.38
222.155	6569.99
222.229	6612.02
222.302	6632.81
222.375	6640.44
222.448	6667.72
222.521	6667.28
222.594	6671.94
222.667	6649.25
222.74	6695.04
222.814	6691.78
222.887	6677.26
222.96	6718.47
223.033	6752.15
223.106	6768.14
223.179	6787.41
223.252	6797.21
223.325	6815.41
223.398	6829.97
223.471	6859.65
223.544	6875.78
223.617	6885.19
223.69	6903.44
223.763	6880.14
223.837	6898.49
223.91	6918.14
223.983	6884.28
224.056	6862.48
224.129	6876.99
224.202	6920.09
224.275	6912.93
224.348	6888.77
224.42	6866.68
224.493	6826.04
224.566	6806.63
224.639	6824.3
224.712	6801.38
224.785	6788.02
224.858	6782.59
224.931	6766.3
225.004	6731.64
225.077	6737.64
225.15	6668.22
225.223	6667.64
225.296	6729.26
225.369	6686.14
225.442	6662.7
225.514	6673.69
225.587	6687.42
225.66	6696.02
225.733	6693.76
225.806	6700.63
225.879	6694.01
225.952	6672.74
226.025	6706.94
226.097	6744.76
226.17	6732.61
226.243	6685.8
226.316	6680.23
226.389	6684.45
226.461	6697.14
226.534	6715.62
226.607	6702.66
226.68	6767.27
226.753	6764.2
226.825	6703.59
226.898	6751.7
226.971	6755.88
227.044	6773.17
227.117	6778.16
227.189	6789.79
227.262	6822.23
227.335	6835.01
227.407	6834.48
227.48	6858.67
227.553	6866.65
227.626	6852.85
227.698	6868.56
227.771	6902.35
227.844	6891.79
227.916	6907.45
227.989	6881.65
228.062	6885.83
228.134	6956.9
228.207	6957.81
228.28	6949.7
228.352	6959.16
228.425	6964.83
228.498	6996.4
228.57	6983.48
228.643	7030.58
228.716	7032.4
228.788	7023.37
228.861	7019.09
228.934	7064.72
229.006	7073.27
229.079	7076.45
229.151	7065.05
229.224	7035.14
229.296	7049.65
229.369	7128.96
229.442	7169.15
229.514	7155.04
229.587	7185.4
229.659	7121.77
229.732	7131.14
229.804	7161.98
229.877	7220.93
229.949	7241.02
230.022	7279.59
230.094	7281.99
230.167	7267.42
230.239	7234.46
230.312	7220.14
230.384	7273.95
230.457	7274.14
230.529	7284.8
230.602	7285.81
230.674	7290.48
230.747	7321.74
230.819	7343.12
230.892	7251.61
230.964	7246.27
231.037	7270.76
231.109	7263.98
231.181	7300.5
231.254	7271.91
231.326	7262.97
231.399	7245.17
231.471	7223.83
231.544	7165.75
231.616	7196.69
231.688	7200.49
231.761	7192.14
231.833	7190.74
231.905	7119.07
231.978	7117.72
232.05	7101.05
232.122	7103.41
232.195	7088.13
232.267	7117.3
232.339	7104.95
232.412	7155.1
232.484	7139.19
232.556	7115.9
232.629	7167.88
232.701	7177.49
232.773	7183.3
232.846	7177.35
232.918	7181.53
232.99	7188.12
233.062	7225.99
233.135	7236.23
233.207	7212.73
233.279	7248.37
233.351	7268.21
233.424	7276.72
233.496	7259.08
233.568	7322.87
233.64	7293.7
233.713	7310.86
233.785	7305.33
233.857	7310.52
233.929	7271.41
234.001	7319.31
234.074	7371.38
234.146	7314.26
234.218	7315.56
234.29	7322.09
234.362	7313.78
234.434	7274.75
234.507	7254.33
234.579	7209.2
234.651	7189.35
234.723	7214.53
234.795	7228.76
234.867	7225.97
234.939	7272.36
235.012	7285.09
235.084	7286.77
235.156	7315.46
235.228	7293.02
235.3	7282.59
235.372	7292.3
235.444	7341.41
235.516	7279.8
235.588	7283.55
235.66	7301.58
235.732	7279.61
235.804	7424.78
235.876	7458.13
235.948	7508.37
236.02	7523.31
236.092	7541.28
236.164	7555.6
236.236	7553.39
236.308	7545.99
236.38	7565.55
236.452	7545.12
236.524	7561.89
236.596	7610.69
236.668	7636.42
236.74	7659.58
236.812	7676.98
236.884	7702.66
236.956	7712.81
237.028	7704.11
237.1	7690.56
237.172	7742.26
237.244	7798.47
237.316	7709.94
237.388	7693.45
237.46	7679.94
237.532	7726.44
237.604	7717.83
237.675	7773.05
237.747	7803.49
237.819	7798.88
237.891	7803.92
237.963	7800.42
238.035	7797.92
238.107	7712.33
238.178	7764.15
238.25	7768.91
238.322	7837.91
238.394	7806.99
238.466	7799.87
238.538	7837.31
238.609	7869.81
238.681	7826.57
238.753	7808.67
238.825	7825.71
238.897	7852.82
238.968	7907.77
239.04	7893.86
239.112	7978.02
239.184	7947.96
239.255	7944.73
239.327	7967.71
239.399	7984.45
239.471	8020.42
239.542	8042.54
239.614	8094.38
239.686	8030.92
239.758	8074.55
239.829	8052.5
239.901	8101.56
239.973	8115.41
240.044	8138.93
240.116	8151.53
240.188	8160.14
240.259	8174.72
240.331	8164.03
240.403	8189.81
240.474	8159.15
240.546	8148.04
240.618	8095.46
240.689	8098.97
240.761	8122.65
240.833	8171.96
240.904	8169.94
240.976	8171.14
241.048	8186.05
241.119	8211.47
241.191	8249.18
241.262	8293.75
241.334	8297.84
241.405	8300.92
241.477	8302.61
241.549	8312.71
241.62	8328.78
241.692	8366.93
241.763	8409.91
241.835	8427.43
241.906	8443.74
241.978	8420.21
242.049	8469.14
242.121	8523.36
242.192	8570.66
242.264	8539.53
242.335	8502.53
242.407	8537.9
242.478	8537.71
242.55	8554.41
242.621	8541.99
242.693	8534.38
242.764	8529.14
242.836	8525.67
242.907	8548.68
242.979	8575.81
243.05	8596.17
243.122	8612.06
243.193	8608.25
243.264	8557.19
243.336	8560.13
243.407	8589.92
243.479	8652.63
243.55	8665.19
243.622	8671.06
243.693	8669.04
243.764	8726.59
243.836	8714.81
243.907	8704.8
243.978	8713.36
244.05	8730.93
244.121	8698.7
244.192	8732.1
244.264	8692.96
244.335	8703.99
244.407	8664.28
244.478	8675.64
244.549	8660.05
244.62	8630.02
244.692	8628.38
244.763	8659.22
244.834	8645.32
244.906	8624.14
244.977	8630.01
245.048	8670.17
245.119	8656.16
245.191	8640.14
245.262	8589.03
245.333	8647.44
245.405	8661.35
245.476	8682.91
245.547	8691
245.618	8732.09
245.689	8743.02
245.761	8770.41
245.832	8772.33
245.903	8808.76
245.974	8829.56
246.045	8840.72
246.117	8908.21
246.188	8896.09
246.259	8884.63
246.33	8903.98
246.401	8908.46
246.473	8889.01
246.544	8881.06
246.615	8928.39
246.686	8935.65
246.757	8996.92
246.828	8980.07
246.899	9026.11
246.97	9007.58
247.042	9010.47
247.113	9040.95
247.184	9103.76
247.255	9107.51
247.326	9132.02
247.397	9132.98
247.468	9137.6
247.539	9151.66
247.61	9115.35
247.681	9146.83
247.752	9187.94
247.823	9165.27
247.894	9180.19
247.965	9151.56
248.037	9138.27
248.108	9093.54
248.179	9096.67
248.25	9083.28
248.321	9103.69
248.392	9073.54
248.463	9133.86
248.534	9122.94
248.605	9139.07
248.675	9116.57
248.746	9127.89
248.817	9143.1
248.888	9159.86
248.959	9121.2
249.03	9139.88
249.101	9144.07
249.172	9139.21
249.243	9092.81
249.314	9143.11
249.385	9150.29
249.456	9179.98
249.527	9172.42
249.598	9195.38
249.669	9194.03
249.739	9204.63
249.81	9209.3
249.881	9180.46
249.952	9171.84
250.023	9171.55
250.094	9128.65
250.165	9109
250.235	9104.42
250.306	9098.45
250.377	9080.83
250.448	9104.65
250.519	9058.01
250.59	9104.81
250.66	9102.26
250.731	9149
250.802	9150.01
250.873	9168.5
250.944	9188.53
251.014	9185.26
251.085	9252.11
251.156	9270.07
251.227	9311.63
251.297	9353
251.368	9390.94
251.439	9423.25
251.51	9460.33
251.58	9452.97
251.651	9449.89
251.722	9490.97
251.792	9456.54
251.863	9454.76
251.934	9499.26
252.005	9588.3
252.075	9585.69
252.146	9619.64
252.217	9652.15
252.287	9684.71
252.358	9678.69
252.429	9737.98
252.499	9730.57
252.57	9735.67
252.641	9772.13
252.711	9772.13
252.782	9744.58
252.852	9804.89
252.923	9804.7
252.994	9820.59
253.064	9861.71
253.135	9840.38
253.205	9819.38
253.276	9879
253.347	9932.64
253.417	9917.9
253.488	9899.45
253.558	9902.2
253.629	9904.9
253.699	9917.71
253.77	9932.93
253.841	9932.6
253.911	9934.62
253.982	9950.94
254.052	9969.59
254.123	9977.83
254.193	9982.5
254.264	10084.64
254.334	10059.01
254.405	10033.29
254.475	10009.74
254.546	10011.13
254.616	10066.57
254.687	10100.58
254.757	10110.69
254.827	10106.21
254.898	10120.81
254.968	10126.35
255.039	10112.09
255.109	10140.07
255.18	10118.78
255.25	10072.78
255.321	10104.14
255.391	10074.6
255.461	10144.4
255.532	10085.72
255.602	10081
255.673	10041.02
255.743	10006.08
255.813	9949.93
255.884	9990.11
255.954	10015.97
256.024	10069.98
256.095	10070.17
256.165	10042.81
256.235	10062.56
256.306	10047.34
256.376	10081.5
256.446	10113.98
256.517	10138.44
256.587	10171.98
256.657	10190.57
256.728	10207.33
256.798	10210.95
256.868	10202.52
256.938	10178.86
257.009	10217.25
257.079	10242.11
257.149	10322.13
257.219	10283.73
257.29	10315.18
257.36	10265.51
257.43	10299
257.5	10245.72
257.571	10240.32
257.641	10266.29
257.711	10240.41
257.781	10274.18
257.852	10287.43
257.922	10239.59
257.992	10235.74
258.062	10231.74
258.132	10262.57
258.202	10271.97
258.273	10279.24
258.343	10342.46
258.413	10329.06
258.483	10331.62
258.553	10308.64
258.623	10283
258.693	10303.43
258.764	10356.18
258.834	10410.47
258.904	10415.77
258.974	10409.89
259.044	10418.23
259.114	10441.64
259.184	10469.83
259.254	10473.54
259.324	10434.17
259.394	10465.24
259.464	10529.38
259.535	10527.74
259.605	10525.96
259.675	10516.13
259.745	10546.1
259.815	10529.57
259.885	10532.61
259.955	10618.64
260.025	10613.34
260.095	10626.98
260.165	10655.41
260.235	10701.38
260.305	10701.38
260.375	10687.75
260.445	10757.75
260.515	10807.67
260.585	10842.95
260.655	10842.32
260.725	10873.74
260.795	10905.44
260.865	10961.92
260.934	10940.71
261.004	10969.92
261.074	10972.33
261.144	11019.59
261.214	11045.76
261.284	11043.78
261.354	11076.64
261.424	11045.89
261.494	11098.36
261.564	11101.88
261.634	11127.95
261.703	11074.55
261.773	11086.21
261.843	11110.93
261.913	11100.86
261.983	11062.31
262.053	11071.42
262.123	11072.96
262.192	11052
262.262	11079.28
262.332	11048.1
262.402	11068.24
262.472	11082.41
262.541	11037.75
262.611	11071.39
262.681	11052.35
262.751	11090.56
262.821	11097.89
262.89	11067.19
262.96	11092.83
263.03	11155.43
263.1	11170.09
263.169	11185.8
263.239	11210.04
263.309	11256.36
263.379	11283.49
263.448	11297.03
263.518	11323.1
263.588	11346.28
263.657	11402.91
263.727	11434.29
263.797	11441.03
263.867	11440.22
263.936	11406.14
264.006	11456.78
264.076	11453.21
264.145	11452.92
264.215	11434.27
264.285	11456.92
264.354	11423.67
264.424	11415.63
264.494	11380.44
264.563	11366.8
264.633	11432.68
264.702	11455.82
264.772	11414.9
264.842	11409.93
264.911	11440.97
264.981	11414.51
265.05	11417.74
265.12	11404.82
265.19	11417.88
265.259	11454.75
265.329	11486.52
265.398	11511.91
265.468	11578.96
265.537	11574.52
265.607	11601.9
265.676	11640.46
265.746	11657.57
265.815	11708.7
265.885	11709.13
265.955	11697.95
266.024	11705.66
266.094	11656.69
266.163	11702.92
266.232	11748.61
266.302	11768.03
266.371	11785
266.441	11795.99
266.51	11839.9
266.58	11840.48
266.649	11821.97
266.719	11857.01
266.788	11880.78
266.858	11931.39
266.927	11890.42
266.996	11913.21
267.066	11939
267.135	11919.72
267.205	11957.03
267.274	11977.42
267.343	12021.57
267.413	12042.29
267.482	12087.41
267.552	12137.2
267.621	12100.57
267.69	12071.89
267.76	12088.76
267.829	12111.65
267.898	12128.33
267.968	12110.35
268.037	12151.71
268.106	12197.07
268.176	12182.99
268.245	12195.33
268.314	12195.72
268.384	12240.64
268.453	12262.77
268.522	12286.73
268.592	12330.54
268.661	12318.54
268.73	12344.37
268.799	12338.59
268.869	12396.67
268.938	12363.9
269.007	12360.52
269.076	12387.37
269.146	12435.09
269.215	12458.18
269.284	12516.8
269.353	12515.98
269.422	12526.05
269.492	12518.53
269.561	12466.43
269.63	12494.82
269.699	12488.22
269.768	12505.47
269.838	12526.3
269.907	12557.58
269.976	12540.66
270.045	12504.32
270.114	12542.79
270.183	12550.45
270.253	12584.77
270.322	12552.14
270.391	12574.55
270.46	12625.75
270.529	12655.39
270.598	12689.91
270.667	12703.6
270.736	12679.69
270.806	12707.41
270.875	12754.16
270.944	12767.18
271.013	12857.27
271.082	12870.24
271.151	12897.67
271.22	12873.42
271.289	12885.09
271.358	12888.46
271.427	12919.7
271.496	12943.27
271.565	12945.44
271.634	12966.6
271.703	13055.78
271.772	13101.82
271.841	13110.59
271.91	13089.29
271.979	13099.07
272.048	13077.04
272.117	13106.74
272.186	13106.74
272.255	13145.98
272.324	13176.01
272.393	13207.63
272.462	13204.31
272.531	13225.95
272.6	13236.56
272.669	13286.5
272.738	13296.62
272.807	13328.68
272.876	13312.14
272.945	13426.87
273.013	13476.38
273.082	13518.47
273.151	13447.51
273.22	13479.85
273.289	13505.93
273.358	13574.58
273.427	13592.51
273.496	13637.54
273.564	13666.46
273.633	13710.28
273.702	13695.05
273.771	13711.05
273.84	13736.79
273.909	13771.74
273.977	13799.7
274.046	13813.3
274.115	13864.78
274.184	13856.64
274.253	13867.58
274.322	13932.08
274.39	13887.44
274.459	13876.88
274.528	13848.92
274.597	13876.55
274.665	13896.02
274.734	13950.98
274.803	13954.45
274.872	13977.39
274.94	13974.4
275.009	14147.82
275.078	14147.2
275.147	14194.68
275.215	14211.6
275.284	14269.06
275.353	14279.23
275.421	14249.3
275.49	14325.8
275.559	14332.06
275.627	14369.33
275.696	14393.05
275.765	14425.39
275.833	14435.61
275.902	14474.37
275.971	14542.43
276.039	14606.06
276.108	14657.11
276.177	14680.73
276.245	14698.42
276.314	14717.9
276.383	14770.49
276.451	14651.59
276.52	14697.14
276.588	14748.62
276.657	14801.65
276.725	14804.78
276.794	14839.15
276.863	14912.76
276.931	14889.04
277	14942.4
277.068	14996.15
277.137	15067.25
277.205	15090.82
277.274	15179.37
277.342	15231.24
277.411	15208.77
277.48	15216.39
277.548	15224.01
277.617	15259.05
277.685	15272.21
277.754	15322.05
277.822	15333.52
277.89	15395.22
277.959	15414.31
278.027	15403.61
278.096	15414.16
278.164	15514.66
278.233	15535.72
278.301	15550.9
278.37	15604.07
278.438	15598.91
278.507	15630.44
278.575	15604.84
278.643	15632.7
278.712	15618.87
278.78	15623.98
278.849	15697.68
278.917	15757.83
278.985	15774.51
279.054	15815.86
279.122	15875.25
279.191	15902.38
279.259	15928.36
279.327	15915.73
279.396	15987.84
279.464	16022.74
279.532	16070.02
279.601	16100.09
279.669	16118.5
279.737	16183.62
279.806	16222.9
279.874	16291.29
279.942	16325.99
280.011	16351.3
280.079	16405.28
280.147	16482.2
280.215	16532.86
280.284	16549.53
280.352	16553.58
280.42	16609.44
280.488	16625.59
280.557	16647.23
280.625	16691.04
280.693	16735.14
280.761	16787.24
280.83	16776.83
280.898	16840.98
280.966	16825.75
281.034	16774.81
281.102	16773.94
281.171	16788.49
281.239	16841.51
281.307	16854.23
281.375	16876.88
281.443	16979.01
281.512	17008.84
281.58	17062.67
281.648	17058.52
281.716	17092.12
281.784	17122.62
281.852	17146.77
281.92	17182.24
281.989	17245.32
282.057	17237.61
282.125	17347.1
282.193	17363.97
282.261	17401.18
282.329	17421.18
282.397	17467.2
282.465	17514.19
282.533	17596.12
282.601	17606.19
282.67	17587.98
282.738	17606.15
282.806	17660.36
282.874	17667.54
282.942	17706.14
283.01	17713.28
283.078	17762.24
283.146	17795.88
283.214	17857.23
283.282	17900.84
283.35	17970.14
283.418	17994.67
283.486	18052.45
283.554	18017.13
283.622	18058.38
283.69	18102.62
283.758	18131.48
283.826	18188.78
283.894	18253.21
283.962	18340.34
284.03	18418.6
284.098	18472.14
284.165	18502.31
284.233	18537.63
284.301	18562.55
284.369	18575.12
284.437	18605.44
284.505	18637.34
284.573	18710.83
284.641	18726.2
284.709	18780.66
284.777	18772.66
284.845	18827.26
284.912	18880.26
284.98	18931.3
285.048	18957.13
285.116	19001.94
285.184	19066.95
285.252	19103.09
285.319	19092.68
285.387	19104.78
285.455	19104.73
285.523	19147.38
285.591	19174.03
285.659	19212.15
285.726	19281.06
285.794	19290.89
285.862	19312.86
285.93	19349.92
285.997	19374.02
286.065	19398.88
286.133	19413.97
286.201	19456.23
286.269	19457.68
286.336	19470.4
286.404	19491.36
286.472	19552.56
286.539	19545.72
286.607	19538.06
286.675	19575.12
286.743	19638.53
286.81	19658
286.878	19727.3
286.946	19740.46
287.013	19777.56
287.081	19807.49
287.149	19796.31
287.216	19888.07
287.284	19924.84
287.352	19961.08
287.419	19997.89
287.487	20071.63
287.555	20117.65
287.622	20139.1
287.69	20195.53
287.758	20265.84
287.825	20289.41
287.893	20295.19
287.96	20345.46
288.028	20418.71
288.096	20457.74
288.163	20501.36
288.231	20506.9
288.298	20541.51
288.366	20616.83
288.433	20658.52
288.501	20676.78
288.569	20724.64
288.636	20746.86
288.704	20816.02
288.771	20869.8
288.839	20879.88
288.906	20893.95
288.974	20955.94
289.041	20991.41
289.109	20999.46
289.176	21052.43
289.244	21106.89
289.311	21173.4
289.379	21247.29
289.446	21287.77
289.514	21331.44
289.581	21370.1
289.649	21420.22
289.716	21458.4
289.783	21475.12
289.851	21551.66
289.918	21595.14
289.986	21662.81
290.053	21702.91
290.121	21725.76
290.188	21771.99
290.255	21889.08
290.323	21910.29
290.39	21927.64
290.458	21982.98
290.525	22050.8
290.592	22070.61
290.66	22108.88
290.727	22133.81
290.794	22197.3
290.862	22235.43
290.929	22278.82
290.996	22312.13
291.064	22379.96
291.131	22452.42
291.198	22529.61
291.266	22561.91
291.333	22607.17
291.4	22659
291.468	22742.32
291.535	22777.95
291.602	22818.4
291.669	22823.51
291.737	22880.06
291.804	22916.51
291.871	22991.73
291.938	23053.74
292.006	23156.08
292.073	23223.48
292.14	23287.56
292.207	23293.06
292.275	23333.85
292.342	23386.94
292.409	23492.8
292.476	23579.86
292.543	23590.95
292.611	23621.24
292.678	23709.54
292.745	23814.49
292.812	23871.88
292.879	23884.57
292.946	23927.15
293.014	23998.87
293.081	24062.29
293.148	24139.89
293.215	24220.93
293.282	24249.39
293.349	24307.42
293.416	24289.28
293.484	24361.01
293.551	24423.72
293.618	24514.02
293.685	24612.29
293.752	24641.86
293.819	24664.97
293.886	24681.43
293.953	24734.63
294.02	24808.79
294.087	24847.83
294.154	24861.67
294.221	24939.13
294.288	24994.71
294.356	25078.71
294.423	25143.04
294.49	25164.32
294.557	25223.77
294.624	25232.65
294.691	25324.77
294.758	25355.7
294.825	25426.54
294.892	25455.83
294.959	25496.18
295.026	25543.05
295.093	25571.82
295.16	25617.8
295.226	25663.03
295.293	25754.8
295.36	25809.33
295.427	25877.07
295.494	25953.74
295.561	26018.85
295.628	26107.97
295.695	26184.25
295.762	26240.59
295.829	26294.38
295.896	26386.58
295.963	26461.82
296.03	26541.95
296.096	26591.65
296.163	26668.23
296.23	26743.8
296.297	26822.02
296.364	26856.06
296.431	26924.54
296.498	26960.71
296.564	27069.16
296.631	27126.15
296.698	27145.08
296.765	27238.83
296.832	27253.95
296.899	27268.87
296.965	27359.64
297.032	27344.76
297.099	27444.79
297.166	27507.74
297.233	27540.59
297.299	27557.78
297.366	27597.16
297.433	27649.24
297.5	27710.51
297.566	27758.15
297.633	27799.32
297.7	27843.63
297.767	27897.39
297.833	27947.6
297.9	27990.12
297.967	27987.07
298.033	28060.24
298.1	28170.8
298.167	28201.92
298.234	28257.54
298.3	28314.08
298.367	28333.61
298.434	28403.02
298.5	28401.67
298.567	28423.76
298.634	28463.78
298.7	28551.6
298.767	28599.07
298.834	28671.73
298.9	28692.95
298.967	28720.85
299.033	28788.83
299.1	28874.32
299.167	28949.98
299.233	28987.88
299.3	29061.22
299.366	29144.75
299.433	29215.95
299.5	29187.85
299.566	29242.69
299.633	29317.84
299.699	29382.78
299.766	29417.16
299.832	29457.46
299.899	29528.28
299.965	29602.03
300.032	29636.16
300.099	29704.76
300.165	29763.39
300.232	29780.27
300.298	29831.01
300.365	29906.81
300.431	29955.53
300.498	29960.37
300.564	30012.28
300.631	30080.64
300.697	30160.14
300.763	30198.7
300.83	30240.81
300.896	30315.6
300.963	30375.85
301.029	30438.91
301.096	30502.75
301.162	30577.55
301.229	30612.64
301.295	30622.22
301.361	30669.5
301.428	30723.45
301.494	30712.7
301.561	30755.59
301.627	30810.61
301.693	30850.87
301.76	30904.36
301.826	30934.28
301.892	31016.72
301.959	31083.63
302.025	31111.46
302.092	31129.76
302.158	31196.95
302.224	31229.3
302.291	31244.88
302.357	31263.38
302.423	31282.41
302.49	31298.92
302.556	31367.78
302.622	31413.83
302.688	31468.54
302.755	31550.24
302.821	31606.35
302.887	31676.16
302.954	31716.31
303.02	31784.98
303.086	31850.4
303.152	31870.35
303.219	31905.08
303.285	31948.29
303.351	31993.78
303.417	32036.73
303.483	32060.08
303.55	32085.7
303.616	32125.95
303.682	32182.76
303.748	32212.88
303.815	32284.49
303.881	32343.29
303.947	32344.46
304.013	32380.4
304.079	32414.31
304.145	32393.96
304.212	32441.09
304.278	32454.6
304.344	32481.64
304.41	32478.97
304.476	32482.9
304.542	32517.68
304.608	32556.05
304.674	32548.83
304.741	32572.38
304.807	32616.09
304.873	32676.26
304.939	32750.55
305.005	32750.17
305.071	32769.79
305.137	32811.5
305.203	32786.69
305.269	32814.6
305.335	32885.56
305.401	32902.86
305.467	32927.96
305.533	32974.86
305.599	33014.26
305.666	33071.1
305.732	33098.97
305.798	33169.77
305.864	33279.76
305.93	33327.3
305.996	33364.43
306.062	33405.43
306.128	33421.77
306.194	33423.85
306.259	33454.92
306.325	33458.8
306.391	33515.41
306.457	33573.87
306.523	33611.43
306.589	33701.4
306.655	33726.42
306.721	33707.22
306.787	33725.93
306.853	33796.51
306.919	33797.87
306.985	33820.46
307.051	33830.84
307.117	33854.35
307.183	33868.46
307.248	33834.46
307.314	33877.86
307.38	33913.06
307.446	33960.77
307.512	33973.67
307.578	34016.91
307.644	34025.59
307.709	34057.93
307.775	34074.08
307.841	34099.48
307.907	34130.95
307.973	34112.48
308.039	34125.81
308.104	34170.66
308.17	34218.22
308.236	34206.19
308.302	34251.18
308.368	34251.67
308.433	34302.82
308.499	34316.35
308.565	34320.96
308.631	34350.2
308.696	34325.81
308.762	34333.47
308.828	34355.97
308.894	34348.02
308.959	34319.27
309.025	34331.78
309.091	34352.59
309.156	34366.7
309.222	34402.45
309.288	34403.47
309.354	34377.92
309.419	34408.57
309.485	34414.05
309.551	34438.73
309.616	34439.46
309.682	34460.61
309.748	34477.29
309.813	34493.29
309.879	34507.21
309.945	34518.56
310.01	34536.26
310.076	34564.44
310.141	34578.31
310.207	34567.49
310.273	34611.23
310.338	34661.75
310.404	34656.66
310.469	34661.07
310.535	34662.67
310.601	34623.49
310.666	34656.61
310.732	34726.35
310.797	34738.47
310.863	34739.25
310.928	34755.84
310.994	34799.3
311.059	34827.63
311.125	34857.16
311.191	34906.7
311.256	34913.01
311.322	34957.19
311.387	34934.06
311.453	35820.49
311.518	35809.62
311.584	35834.41
311.649	35877.34
311.715	35880.54
311.78	35911.19
311.846	35901.98
311.911	35942.39
311.976	35983.61
312.042	35994.09
312.107	35982.26
312.173	35980.03
312.238	35997.92
312.304	36003.31
312.369	36009.86
312.434	36000.59
312.5	36010.2
312.565	35948.39
312.631	35989.23
312.696	35992.67
312.761	36034.78
312.827	35190.99
312.892	35288.61
312.958	35316.08
313.023	35336.8
313.088	35369.15
313.154	35368.23
313.219	35389.04
313.284	35405.29
313.35	35415.72
313.415	35412.96
313.48	35428.53
313.546	35464.87
313.611	35509.89
313.676	35526.1
313.741	35529.01
313.807	35586.07
313.872	35621.78
313.937	35667.19
314.003	35716.35
314.068	35735.8
314.133	35769.19
314.198	35765.74
314.264	35737.3
314.329	35735.17
314.394	35736.28
314.459	35751.32
314.525	35837.16
314.59	35858.36
314.655	35858.94
314.72	35899.41
314.785	35932.89
314.851	35957.39
314.916	35935.41
314.981	35916.63
315.046	35923.57
315.111	35923.04
315.176	35906.98
315.242	35937.89
315.307	35961.52
315.372	35940.61
315.437	35951.86
315.502	35962.49
315.567	36006.65
315.632	36002.19
315.698	36027.42
315.763	36050.52
315.828	36047.03
315.893	36038.34
315.958	36044.99
316.023	36028.44
316.088	36003.84
316.153	35957.65
316.218	35950.81
316.283	35915.55
316.348	35890.37
316.413	35883.91
316.479	35849.67
316.544	35761.52
316.609	35681.46
316.674	35582.55
316.739	35477.73
316.804	35390.17
316.869	35284.71
316.934	35188.3
316.999	35093.71
317.064	34948.79
317.129	34811.9
317.194	34702.35
317.259	34547.72
317.324	34394.39
317.389	34245.06
317.454	34109.92
317.518	34002.92
317.583	33899.38
317.648	33808.34
317.713	33687.77
317.778	33501.76
317.843	33388.38
317.908	33254.36
317.973	33111.23
318.038	33005.19
318.103	32876.47
318.168	32750.33
318.233	32626.39
318.297	32446.35
318.362	32303.29
318.427	32155.24
318.492	32040.67
318.557	31881.69
318.622	31770.29
318.687	31648.23
318.751	31507.17
318.816	31376
318.881	31223.84
318.946	31035.44
319.011	30862.53
319.075	30693.52
319.14	30554.84
319.205	30378.3
319.27	30237.58
319.335	30056.78
319.399	29885.41
319.464	29741.95
319.529	29539.59
319.594	29368.26
319.658	29221.45
319.723	29049.44
319.788	28909.2
319.853	28703.84
319.917	28542.07
319.982	28341.14
320.047	28168.31
320.112	28020.1
320.176	27816.03
320.241	27654.78
320.306	27491.17
320.37	27320.74
320.435	27156.41
320.5	26993.92
320.564	26813.02
320.629	26622.77
320.694	26472.99
320.758	26290.23
320.823	26112.42
320.888	25954.05
320.952	25753.15
321.017	25564.77
321.082	25373.22
321.146	25196.92
321.211	25022.81
321.275	24837.02
321.34	24633.28
321.405	24438.19
321.469	24235.01
321.534	24035.96
321.598	23816.31
321.663	23645.88
321.727	23470.95
321.792	23256.41
321.857	23065
321.921	22882.83
321.986	22692.25
322.05	22460.06
322.115	22268.7
322.179	22067.28
322.244	21838.36
322.308	21665.78
322.373	21464.35
322.437	21275.64
322.502	21122.78
322.566	20915.57
322.631	20733.1
322.695	20544.03
322.76	20336.36
322.824	20160.02
322.889	19964.64
322.953	19759.78
323.018	19496.2
323.082	19238.47
323.146	19024.73
323.211	18791.82
323.275	18586.19
323.34	18382.58
323.404	18194.43
323.468	17983.88
323.533	17764.51
323.597	17566.38
323.662	17331.87
323.726	17138.56
323.79	16922.55
323.855	16651.55
323.919	16436.41
323.983	16221.93
324.048	15904.34
324.112	16016.72
324.177	15364.38
324.241	14525.5
324.305	13703.42
324.37	12896.52
324.434	12110.15
324.498	11889.22
324.562	11642.84
324.627	11363.75
324.691	11081.47
324.755	10766.63
324.82	10415.68
324.884	10049.15
324.948	9659.72
325.012	9206.47
325.077	8647.54
