Data from 20250626_urea_1M_exp2_MAYP1162681_21-13-59-459.txt Node
Date: Thu Jun 26 21:13:59 BST 2025
User: adleo
Spectrometer: MAYP116268
Trigger mode: 0
Integration Time (sec): 3.000000E0
Scans to average: 1
Electric dark correction enabled: true
Nonlinearity correction enabled: true
Boxcar width: 10
XAxis mode: Wavelengths
Number of Pixels in Spectrum: 2068
>>>>>Begin Spectral Data<<<<<
179.565	2974.98
179.642	3138.08
179.718	3261.01
179.795	3369.83
179.871	3461.06
179.948	3512.74
180.024	3569.58
180.101	3632.32
180.177	3673.29
180.254	3735.43
180.33	3795.53
180.407	4004.54
180.483	4237.39
180.56	4475.29
180.636	4694.49
180.712	4665.23
180.789	4689.46
180.865	4718.02
180.942	4746.92
181.018	4775.93
181.095	4815.64
181.171	4835.03
181.248	4834.64
181.324	4875.75
181.4	4890.74
181.477	4918.47
181.553	4950.05
181.63	5007.68
181.706	5046.14
181.782	5071.17
181.859	5076.3
181.935	5094.41
182.011	5088.03
182.088	5133.36
182.164	5181.49
182.24	5214.67
182.317	5239.57
182.393	5233.73
182.469	5274.16
182.546	5305.02
182.622	5316.42
182.698	5305.26
182.775	5337.22
182.851	5372.87
182.927	5347.19
183.003	5337.8
183.08	5325.78
183.156	5353.57
183.232	5345.42
183.308	5320.6
183.385	5336.79
183.461	5374.36
183.537	5372.35
183.613	5402.59
183.69	5376.71
183.766	5344.11
183.842	5361.6
183.918	5379.86
183.995	5413.83
184.071	5423.71
184.147	5412.5
184.223	5382.23
184.299	5416.13
184.375	5381.96
184.452	5398.7
184.528	5508.79
184.604	5536.24
184.68	5566.86
184.756	5586.86
184.832	5598.13
184.908	5613.22
184.985	5615.47
185.061	5575.64
185.137	5601.39
185.213	5569.32
185.289	5573.06
185.365	5559.69
185.441	5558.3
185.517	5593.42
185.593	5584.21
185.669	5574.48
185.745	5596.44
185.822	5642.76
185.898	5615.38
185.974	5644.13
186.05	5621.35
186.126	5557
186.202	5539.03
186.278	5526.56
186.354	5500.91
186.43	5518.23
186.506	5510.13
186.582	5506.34
186.658	5528.67
186.734	5476.96
186.81	5486.02
186.886	5492.68
186.962	5527.28
187.038	5514.2
187.114	5493.18
187.19	5516.92
187.266	5493.58
187.341	5499.57
187.417	5476.67
187.493	5481.75
187.569	5489.95
187.645	5478.25
187.721	5449
187.797	5471.52
187.873	5482.98
187.949	5464.68
188.025	5446.93
188.101	5458.24
188.176	5470.46
188.252	5453.59
188.328	5473.9
188.404	5471.6
188.48	5463.21
188.556	5436.18
188.632	5438.76
188.707	5432.91
188.783	5428.21
188.859	5413.18
188.935	5380.43
189.011	5404.92
189.086	5390.83
189.162	5365.23
189.238	5360.15
189.314	5347.65
189.39	5331.83
189.465	5310.84
189.541	5358.63
189.617	5321.3
189.693	5303.19
189.768	5315.18
189.844	5380.59
189.92	5355.26
189.996	5377.59
190.071	5403.29
190.147	5405.25
190.223	5427.93
190.298	5412.01
190.374	5371.32
190.45	5401.84
190.526	5426.05
190.601	5413.68
190.677	5411.04
190.753	5485.69
190.828	5495.18
190.904	5540.68
190.98	5579.28
191.055	5610.01
191.131	5587.66
191.207	5639.57
191.282	5665.98
191.358	5641.29
191.433	5611.39
191.509	5648.61
191.585	5639.98
191.66	5649.24
191.736	5670.66
191.811	5643.34
191.887	5692.22
191.963	5754.07
192.038	5770.08
192.114	5769.89
192.189	5781.2
192.265	5774.78
192.34	5716.48
192.416	5712.4
192.491	5703.05
192.567	5716.68
192.642	5721.52
192.718	5718.26
192.793	5685.7
192.869	5677.03
192.944	5682.97
193.02	5695.06
193.095	5706.04
193.171	5723.92
193.246	5720.09
193.322	5713.52
193.397	5722.1
193.473	5681.46
193.548	5637.1
193.624	5657.53
193.699	5652.59
193.775	5690.54
193.85	5697.63
193.925	5720.03
194.001	5718.45
194.076	5691.41
194.152	5659.79
194.227	5636.44
194.302	5612.96
194.378	5622.83
194.453	5611.05
194.529	5641.88
194.604	5604.19
194.679	5593.26
194.755	5544.04
194.83	5575.86
194.905	5567.51
194.981	5588.81
195.056	5570.31
195.131	5583.87
195.207	5572.16
195.282	5547.24
195.357	5493.38
195.433	5532.4
195.508	5501.57
195.583	5524.34
195.659	5570.81
195.734	5587.36
195.809	5592.01
195.884	5616.21
195.96	5616.35
196.035	5662.04
196.11	5657.25
196.185	5683.57
196.261	5686.35
196.336	5767.91
196.411	5720.42
196.486	5737.48
196.561	5714.32
196.637	5743.13
196.712	5786.36
196.787	5797.5
196.862	5838.77
196.937	5872.05
197.013	5885.82
197.088	5915.36
197.163	5966.91
197.238	6005.76
197.313	6001.06
197.388	6036.9
197.464	6120.66
197.539	6153.57
197.614	6133.14
197.689	6159.82
197.764	6208.25
197.839	6263.72
197.914	6248.89
197.989	6314.15
198.065	6352.59
198.14	6492.57
198.215	6555.27
198.29	6588.17
198.365	6621.74
198.44	6650.77
198.515	6724.45
198.59	6765.9
198.665	6834.77
198.74	6860.52
198.815	6867.92
198.89	6930.25
198.965	7008.05
199.04	6996.56
199.115	7036.33
199.19	7151.7
199.265	7160.92
199.34	7186.58
199.415	7271.25
199.49	7322.88
199.565	7346.33
199.64	7408.04
199.715	7398.61
199.79	7415.62
199.865	7430.57
199.94	7425.38
200.015	7513.79
200.09	7523.45
200.165	7535.81
200.24	7547.01
200.315	7642.13
200.39	7681.7
200.464	7697.57
200.539	7698.19
200.614	7739.1
200.689	7809.79
200.764	7825.96
200.839	7870.46
200.914	7880.65
200.989	7855.92
201.063	7898.48
201.138	7855.77
201.213	7855.68
201.288	7805.57
201.363	7819.28
201.438	7821.34
201.512	7866.71
201.587	7814.19
201.662	7826.26
201.737	7867.86
201.812	7893.74
201.886	7810.63
201.961	7836.18
202.036	7806.92
202.111	7801.38
202.186	7722.54
202.26	7667.13
202.335	7610.34
202.41	7594.18
202.485	7550.02
202.559	7495.95
202.634	7424.32
202.709	7446.36
202.784	7396.86
202.858	7397.29
202.933	7349.85
203.008	7330.15
203.082	7273.49
203.157	7273.2
203.232	7162.73
203.306	7094.56
203.381	7007.66
203.456	6950.06
203.53	6882.91
203.605	6830.01
203.68	6767.59
203.754	6744.89
203.829	6705.64
203.904	6650.03
203.978	6621.11
204.053	6632.49
204.127	6604.36
204.202	6593.46
204.277	6544.59
204.351	6520
204.426	6494.25
204.5	6474.14
204.575	6381.33
204.65	6410.72
204.724	6388
204.799	6409.87
204.873	6401.13
204.948	6395.66
205.022	6363.56
205.097	6340.59
205.171	6376.44
205.246	6395.56
205.32	6397.95
205.395	6394.55
205.469	6370.61
205.544	6384.88
205.618	6336.39
205.693	6361.17
205.767	6332.9
205.842	6390.47
205.916	6378.04
205.991	6355.81
206.065	6364.26
206.14	6405.98
206.214	6386.9
206.289	6364.19
206.363	6389.68
206.438	6402.02
206.512	6424.35
206.586	6471.67
206.661	6497.47
206.735	6440.77
206.81	6449.03
206.884	6490.69
206.958	6455.37
207.033	6499.03
207.107	6517.96
207.181	6602.78
207.256	6586.12
207.33	6634.9
207.405	6670.61
207.479	6717.91
207.553	6738.6
207.628	6697.81
207.702	6725.46
207.776	6713.31
207.851	6726.04
207.925	6771.4
207.999	6759.92
208.073	6750.84
208.148	6755.89
208.222	6724.04
208.296	6806.15
208.371	6848.08
208.445	6871.33
208.519	6951.19
208.593	6982.98
208.668	6968.37
208.742	6975.54
208.816	6986.49
208.89	7028.06
208.965	7021.33
209.039	7049.88
209.113	7094.33
209.187	7154.13
209.261	7145.82
209.336	7202.38
209.41	7253.46
209.484	7251.59
209.558	7314.02
209.632	7349.43
209.707	7382.54
209.781	7438.72
209.855	7485.12
209.929	7520.39
210.003	7541.34
210.077	7537.26
210.151	7663.13
210.226	7758.46
210.3	7836.09
210.374	7897.23
210.448	7900.11
210.522	7924.5
210.596	7946.67
210.67	7971.77
210.744	8095.45
210.818	8185.92
210.892	8235.13
210.966	8223.5
211.041	8261.11
211.115	8248.03
211.189	8312.67
211.263	8357.21
211.337	8373.28
211.411	8405.33
211.485	8397.05
211.559	8429.85
211.633	8438.12
211.707	8358.69
211.781	8376.65
211.855	8274.84
211.929	8246.23
212.003	8199.94
212.077	8233.29
212.151	8267.55
212.225	8290.7
212.299	8258.2
212.373	8219.96
212.447	8205.71
212.52	8280.72
212.594	8289.38
212.668	8323.01
212.742	8281.49
212.816	8262.39
212.89	8245.36
212.964	8244.25
213.038	8252.05
213.112	8277.12
213.186	8312.04
213.26	8250.46
213.333	8126.26
213.407	8139.1
213.481	8152.89
213.555	8185.67
213.629	8147.03
213.703	8096.99
213.777	8089.53
213.85	8033.34
213.924	8129.06
213.998	8124.2
214.072	8097.34
214.146	8057.12
214.219	8039.32
214.293	8028.7
214.367	8031.34
214.441	8056.4
214.515	8017.72
214.588	7947.01
214.662	7847.14
214.736	7786.51
214.81	7802.6
214.883	7819.56
214.957	7784.96
215.031	7741.23
215.105	7666.25
215.178	7616.92
215.252	7588.08
215.326	7514.33
215.4	7452.83
215.473	7306.04
215.547	7245.6
215.621	7198.84
215.694	7198.84
215.768	7122.53
215.842	7071.5
215.915	7019
215.989	6925.57
216.063	6878.79
216.136	6860.68
216.21	6852.61
216.284	6858.18
216.357	6834.07
216.431	6800.54
216.504	6795.07
216.578	6838.79
216.652	6851.08
216.725	6833.3
216.799	6839.46
216.873	6816.74
216.946	6821.45
217.02	6795.24
217.093	6770.99
217.167	6695.78
217.24	6629.67
217.314	6606.53
217.387	6571.94
217.461	6535.92
217.535	6556.37
217.608	6508.7
217.682	6493.52
217.755	6495.21
217.829	6455.73
217.902	6447.47
217.976	6433.84
218.049	6402.39
218.123	6340.9
218.196	6340.13
218.27	6312.33
218.343	6262.53
218.417	6267.23
218.49	6247.84
218.563	6280.91
218.637	6288.88
218.71	6348.52
218.784	6370.03
218.857	6396.14
218.931	6415.72
219.004	6421.57
219.077	6436.7
219.151	6454.27
219.224	6444.28
219.298	6441.54
219.371	6477.13
219.444	6447.57
219.518	6457.12
219.591	6466.82
219.665	6548.79
219.738	6556.95
219.811	6545.87
219.885	6579.44
219.958	6604.27
220.031	6615.21
220.105	6627.41
220.178	6633.12
220.251	6609.49
220.325	6631.35
220.398	6640.95
220.471	6656.22
220.544	6683.3
220.618	6668.46
220.691	6693.28
220.764	6711.58
220.838	6733.05
220.911	6718.97
220.984	6783.26
221.057	6811.74
221.131	6833.2
221.204	6758.61
221.277	6814.59
221.35	6918.12
221.424	6907.98
221.497	6911.49
221.57	6928.96
221.643	6959.19
221.716	6989.61
221.79	6990.28
221.863	6996.39
221.936	7003.11
222.009	7009.93
222.082	7037.08
222.155	7040.93
222.229	7088.75
222.302	7108.5
222.375	7114.79
222.448	7148.04
222.521	7151.89
222.594	7151.41
222.667	7132.73
222.74	7180.92
222.814	7177.69
222.887	7156
222.96	7202.24
223.033	7242.67
223.106	7256.55
223.179	7275.35
223.252	7285.54
223.325	7308.46
223.398	7317.98
223.471	7341.38
223.544	7358.43
223.617	7366.89
223.69	7385.44
223.763	7356.02
223.837	7370.44
223.91	7395.67
223.983	7354.5
224.056	7333.98
224.129	7348.63
224.202	7388.74
224.275	7377.06
224.348	7350.24
224.42	7327.08
224.493	7286.32
224.566	7267.23
224.639	7285.59
224.712	7267.41
224.785	7260.39
224.858	7260
224.931	7248.28
225.004	7216.76
225.077	7221.37
225.15	7149.12
225.223	7146.67
225.296	7209.43
225.369	7165.61
225.442	7137.49
225.514	7152.91
225.587	7164.01
225.66	7174.92
225.733	7175.59
225.806	7177.23
225.879	7173.81
225.952	7148.74
226.025	7181.56
226.097	7216.43
226.17	7209.08
226.243	7150.37
226.316	7147.34
226.389	7149.5
226.461	7164.69
226.534	7183.57
226.607	7172.72
226.68	7242.76
226.753	7237.9
226.825	7180.43
226.898	7226.74
226.971	7231.55
227.044	7247.5
227.117	7256.2
227.189	7269.13
227.262	7298.22
227.335	7322.69
227.407	7327.98
227.48	7356.85
227.553	7366.61
227.626	7352.95
227.698	7362.32
227.771	7395.55
227.844	7382.96
227.916	7397.52
227.989	7370.32
228.062	7368.25
228.134	7444.03
228.207	7441.19
228.28	7437.44
228.352	7442.73
228.425	7456.34
228.498	7489.03
228.57	7481.15
228.643	7528.18
228.716	7532.51
228.788	7521.78
228.861	7513.99
228.934	7564.47
229.006	7567.12
229.079	7571.64
229.151	7559.76
229.224	7530.11
229.296	7552.94
229.369	7631.68
229.442	7673.29
229.514	7662.53
229.587	7695.36
229.659	7632.74
229.732	7643.61
229.804	7678.46
229.877	7740.61
229.949	7761.63
230.022	7804.45
230.094	7804.26
230.167	7795.65
230.239	7758.82
230.312	7746.18
230.384	7797.46
230.457	7789.86
230.529	7801.21
230.602	7796.88
230.674	7810.1
230.747	7840.28
230.819	7868.55
230.892	7772.04
230.964	7767.8
231.037	7789.38
231.109	7789.81
231.181	7820.86
231.254	7795.34
231.326	7787.31
231.399	7770.85
231.471	7744.44
231.544	7682.34
231.616	7719.59
231.688	7719.4
231.761	7706.43
231.833	7705.52
231.905	7641.79
231.978	7641.83
232.05	7629.53
232.122	7631.93
232.195	7612.55
232.267	7646.07
232.339	7623.56
232.412	7677.21
232.484	7655.66
232.556	7634.56
232.629	7689.75
232.701	7709.37
232.773	7712.26
232.846	7698.75
232.918	7703.03
232.99	7719.77
233.062	7747.27
233.135	7746.65
233.207	7722.46
233.279	7764.94
233.351	7785.62
233.424	7790.57
233.496	7769.99
233.568	7836.65
233.64	7811.36
233.713	7824.34
233.785	7817.13
233.857	7833.53
233.929	7788
234.001	7842.28
234.074	7894.43
234.146	7837.71
234.218	7833.96
234.29	7839.15
234.362	7835.21
234.434	7797.11
234.507	7776.38
234.579	7738.83
234.651	7731.91
234.723	7756.09
234.795	7767.68
234.867	7765.09
234.939	7816.02
235.012	7830.79
235.084	7827.42
235.156	7857.75
235.228	7844.05
235.3	7833.86
235.372	7835.2
235.444	7891.17
235.516	7828.62
235.588	7834.44
235.66	7846.03
235.732	7821.02
235.804	7973.9
235.876	8006.26
235.948	8058.75
236.02	8062.89
236.092	8083.94
236.164	8090.77
236.236	8090.48
236.308	8088.8
236.38	8115.16
236.452	8094.27
236.524	8104.66
236.596	8158.97
236.668	8182.11
236.74	8206.2
236.812	8226.93
236.884	8263.84
236.956	8274.57
237.028	8269.18
237.1	8252.73
237.172	8306.97
237.244	8367.49
237.316	8278.39
237.388	8267.33
237.46	8246.44
237.532	8296.62
237.604	8286.14
237.675	8348.65
237.747	8376.94
237.819	8366.65
237.891	8364.29
237.963	8354.43
238.035	8351.74
238.107	8265.05
238.178	8321.67
238.25	8324.12
238.322	8395.46
238.394	8357.01
238.466	8351.53
238.538	8389.19
238.609	8420.41
238.681	8378.29
238.753	8359.52
238.825	8374.64
238.897	8397.68
238.968	8461.8
239.04	8444.72
239.112	8532.48
239.184	8505.14
239.255	8505.76
239.327	8539.68
239.399	8554.69
239.471	8592.94
239.542	8626.14
239.614	8681.57
239.686	8608.98
239.758	8646.33
239.829	8620.56
239.901	8668.68
239.973	8683.22
240.044	8710.94
240.116	8723.11
240.188	8742.51
240.259	8754.2
240.331	8742.89
240.403	8776.33
240.474	8734.68
240.546	8727.99
240.618	8678.8
240.689	8671.54
240.761	8697.24
240.833	8740.66
240.904	8744.9
240.976	8743.4
241.048	8756.78
241.119	8786.25
241.191	8824.61
241.262	8874.64
241.334	8882.01
241.405	8886.96
241.477	8890.04
241.549	8890.19
241.62	8912.86
241.692	8941.36
241.763	8989.89
241.835	9011.36
241.906	9026.19
241.978	9005.5
242.049	9062.87
242.121	9111.54
242.192	9167.91
242.264	9138.35
242.335	9105.47
242.407	9143.02
242.478	9150.87
242.55	9165.55
242.621	9150.38
242.693	9149.37
242.764	9149.71
242.836	9144.46
242.907	9164.2
242.979	9194.39
243.05	9218.75
243.122	9240.08
243.193	9239.41
243.264	9190.39
243.336	9187.98
243.407	9210.62
243.479	9277.97
243.55	9283.65
243.622	9299.5
243.693	9302.63
243.764	9354.96
243.836	9335.38
243.907	9322.76
243.978	9318.96
244.05	9343.95
244.121	9310.54
244.192	9345.11
244.264	9298.4
244.335	9316.07
244.407	9276.02
244.478	9285.02
244.549	9273.47
244.62	9229.7
244.692	9226
244.763	9254.88
244.834	9247.95
244.906	9229.99
244.977	9239.62
245.048	9287.21
245.119	9273.2
245.191	9252.83
245.262	9206.27
245.333	9269.86
245.405	9289.17
245.476	9329.42
245.547	9339.15
245.618	9378.53
245.689	9385.03
245.761	9415.46
245.832	9417.58
245.903	9460.29
245.974	9480.66
246.045	9497.08
246.117	9576.25
246.188	9565.46
246.259	9556.07
246.33	9571
246.401	9578.37
246.473	9547.25
246.544	9538.77
246.615	9576.44
246.686	9584
246.757	9640.96
246.828	9621.27
246.899	9679.22
246.97	9644.55
247.042	9637.13
247.113	9675.23
247.184	9746.01
247.255	9747.17
247.326	9768.12
247.397	9775.34
247.468	9778.86
247.539	9792.68
247.61	9751.93
247.681	9792.28
247.752	9835.39
247.823	9815.21
247.894	9827.88
247.965	9814.44
248.037	9796.57
248.108	9762.13
248.179	9759.34
248.25	9746.14
248.321	9770.65
248.392	9738.28
248.463	9801.8
248.534	9802.71
248.605	9812.4
248.675	9793.84
248.746	9807.91
248.817	9817.93
248.888	9831.51
248.959	9791.63
249.03	9808.78
249.101	9810.66
249.172	9787.84
249.243	9725.04
249.314	9774.89
249.385	9787.03
249.456	9812.59
249.527	9812.06
249.598	9828.49
249.669	9828.29
249.739	9842.79
249.81	9859.55
249.881	9821.31
249.952	9813.27
250.023	9807.1
250.094	9774.25
250.165	9744.38
250.235	9736.48
250.306	9741.78
250.377	9717.21
250.448	9743.26
250.519	9686.15
250.59	9740.48
250.66	9749.58
250.731	9813.72
250.802	9819.36
250.873	9839.21
250.944	9852.31
251.014	9846.58
251.085	9918.32
251.156	9941.68
251.227	9979.74
251.297	10019.77
251.368	10059.56
251.439	10099.16
251.51	10142.52
251.58	10128.16
251.651	10129.61
251.722	10178.32
251.792	10137.32
251.863	10144.5
251.934	10186.7
252.005	10282.41
252.075	10289.02
252.146	10329.09
252.217	10367.78
252.287	10396.83
252.358	10396.98
252.429	10456.29
252.499	10446.51
252.57	10446.66
252.641	10482.79
252.711	10485.82
252.782	10447.86
252.852	10511.8
252.923	10503.61
252.994	10522.45
253.064	10567.01
253.135	10548.94
253.205	10533.43
253.276	10592.05
253.347	10644.85
253.417	10636.61
253.488	10619.99
253.558	10615.12
253.629	10611.89
253.699	10618.25
253.77	10643.22
253.841	10635.65
253.911	10638.45
253.982	10656.17
254.052	10686.63
254.123	10696.27
254.193	10704.8
254.264	10817.23
254.334	10787.79
254.405	10763.41
254.475	10730.45
254.546	10728.91
254.616	10783.21
254.687	10810.05
254.757	10830.14
254.827	10827.78
254.898	10843.15
254.968	10848.84
255.039	10827.01
255.109	10855.97
255.18	10834.14
255.25	10780.22
255.321	10808.26
255.391	10791.3
255.461	10856.78
255.532	10792.54
255.602	10788.16
255.673	10749.18
255.743	10721.51
255.813	10663.89
255.884	10715.35
255.954	10745.23
256.024	10794.86
256.095	10793.66
256.165	10763.59
256.235	10779.78
256.306	10771.11
256.376	10810.91
256.446	10835.59
256.517	10865.75
256.587	10901.41
256.657	10920.59
256.728	10934.85
256.798	10941.16
256.868	10938.56
256.938	10917.74
257.009	10958.13
257.079	10985.16
257.149	11060.67
257.219	11015.32
257.29	11044.22
257.36	10992.47
257.43	11020.23
257.5	10974.74
257.571	10973.29
257.641	11005
257.711	10978.49
257.781	11002.15
257.852	11011.31
257.922	10967.27
257.992	10971.22
258.062	10968.09
258.132	10990.3
258.202	11001.77
258.273	11014.16
258.343	11071.36
258.413	11059.99
258.483	11060.04
258.553	11039.85
258.623	11014.16
258.693	11033.96
258.764	11091.6
258.834	11149.37
258.904	11157.95
258.974	11150.63
259.044	11156.84
259.114	11180.46
259.184	11206.24
259.254	11211.3
259.324	11169.04
259.394	11214.62
259.464	11275.45
259.535	11277.23
259.605	11285.86
259.675	11275.5
259.745	11305.91
259.815	11285.95
259.885	11287.3
259.955	11378.12
260.025	11369.06
260.095	11386.31
260.165	11412.82
260.235	11461.65
260.305	11448.88
260.375	11433.84
260.445	11503.38
260.515	11550.95
260.585	11583.73
260.655	11585.03
260.725	11618.57
260.795	11653.08
260.865	11700.94
260.934	11677.52
261.004	11705.62
261.074	11706.82
261.144	11756.36
261.214	11792.18
261.284	11789.38
261.354	11828.8
261.424	11795.2
261.494	11846.29
261.564	11854.14
261.634	11868.22
261.703	11815.34
261.773	11838.76
261.843	11863.54
261.913	11859.39
261.983	11827.44
262.053	11841.85
262.123	11850.04
262.192	11818.14
262.262	11848.36
262.332	11811.39
262.402	11837.32
262.472	11844.12
262.541	11794.19
262.611	11836.51
262.681	11809.33
262.751	11842.63
262.821	11846.97
262.89	11821.04
262.96	11852.8
263.03	11914.36
263.1	11938.8
263.169	11957.11
263.239	11984.15
263.309	12043.93
263.379	12071.64
263.448	12089.38
263.518	12112.08
263.588	12125.1
263.657	12182.98
263.727	12213.69
263.797	12230.13
263.867	12234.8
263.936	12206.03
264.006	12260.77
264.076	12252.34
264.145	12248.82
264.215	12230.55
264.285	12261.83
264.354	12231.08
264.424	12218.02
264.494	12175.12
264.563	12170.01
264.633	12233.83
264.702	12249.83
264.772	12204.61
264.842	12203.55
264.911	12225.15
264.981	12192.47
265.05	12203.74
265.12	12204.9
265.19	12216.62
265.259	12247.71
265.329	12262.84
265.398	12282.75
265.468	12362.58
265.537	12362.53
265.607	12393.52
265.676	12442.79
265.746	12461.68
265.815	12510.94
265.885	12517.88
265.955	12513.59
266.024	12508.34
266.094	12458.11
266.163	12508.78
266.232	12554.52
266.302	12565.61
266.371	12582.09
266.441	12603.5
266.51	12641.05
266.58	12641.68
266.649	12624.8
266.719	12662.79
266.788	12694.08
266.858	12747.92
266.927	12694.75
266.996	12715.28
267.066	12745.03
267.135	12715.19
267.205	12753.13
267.274	12771.49
267.343	12817.29
267.413	12837.1
267.482	12895.38
267.552	12944.16
267.621	12902.9
267.69	12873.16
267.76	12890.37
267.829	12917.94
267.898	12932.79
267.968	12919.1
268.037	12958.48
268.106	13005.19
268.176	12984.9
268.245	13001.14
268.314	12999.5
268.384	13047.32
268.453	13072.1
268.522	13087.96
268.592	13147.79
268.661	13121.13
268.73	13142.63
268.799	13124.4
268.869	13182.25
268.938	13137.03
269.007	13137.03
269.076	13166.54
269.146	13207.37
269.215	13240.2
269.284	13294.33
269.353	13292.84
269.422	13299.25
269.492	13294.33
269.561	13228.05
269.63	13261.46
269.699	13250.27
269.768	13267.67
269.838	13286.28
269.907	13320.89
269.976	13295.2
270.045	13251.81
270.114	13294.28
270.183	13306.91
270.253	13336.08
270.322	13303.44
270.391	13330.63
270.46	13381.78
270.529	13412.2
270.598	13457.03
270.667	13457.75
270.736	13436.01
270.806	13461.22
270.875	13508.8
270.944	13517.14
271.013	13621.89
271.082	13639.97
271.151	13681.82
271.22	13658.92
271.289	13669.43
271.358	13673.67
271.427	13708.14
271.496	13737.49
271.565	13732.09
271.634	13747.95
271.703	13859.31
271.772	13903.66
271.841	13918.7
271.91	13890.11
271.979	13913.06
272.048	13887.51
272.117	13924.34
272.186	13925.78
272.255	13971.77
272.324	14008.7
272.393	14040.85
272.462	14036.27
272.531	14055.31
272.6	14052.76
272.669	14114.03
272.738	14113.06
272.807	14135.33
272.876	14126.85
272.945	14229.62
273.013	14290.75
273.082	14339.29
273.151	14261.3
273.22	14292.68
273.289	14307.14
273.358	14381.67
273.427	14388.42
273.496	14433.29
273.564	14459.86
273.633	14510.47
273.702	14499.58
273.771	14508.83
273.84	14529.51
273.909	14555.06
273.977	14589.57
274.046	14611.7
274.115	14650.17
274.184	14651.47
274.253	14666.85
274.322	14732.84
274.39	14687.38
274.459	14678.32
274.528	14647.18
274.597	14669.02
274.665	14698.86
274.734	14765.48
274.803	14773.62
274.872	14788.18
274.94	14783.26
275.009	14899.71
275.078	14901.54
275.147	14935.33
275.215	14961.22
275.284	15025.62
275.353	15047.69
275.421	15018.63
275.49	15089.05
275.559	15097.34
275.627	15130.75
275.696	15145.4
275.765	15176.83
275.833	15198.91
275.902	15239.15
275.971	15302.25
276.039	15373.49
276.108	15419.09
276.177	15443.43
276.245	15454.04
276.314	15477.27
276.383	15532.8
276.451	15472.85
276.52	15507.31
276.588	15571.42
276.657	15617.16
276.725	15622.7
276.794	15652.92
276.863	15727.06
276.931	15704.07
277	15763.54
277.068	15818.54
277.137	15902.46
277.205	15935.38
277.274	16018.14
277.342	16075.59
277.411	16070.86
277.48	16074.67
277.548	16082.33
277.617	16115.06
277.685	16128.41
277.754	16181.72
277.822	16195.36
277.89	16256.23
277.959	16275.9
278.027	16267.41
278.096	16270.6
278.164	16373.2
278.233	16389.2
278.301	16395.28
278.37	16446.85
278.438	16442.03
278.507	16489.79
278.575	16459.77
278.643	16477.36
278.712	16448.49
278.78	16443.43
278.849	16502.37
278.917	16562.38
278.985	16575.73
279.054	16615.92
279.122	16687.59
279.191	16712.99
279.259	16724.7
279.327	16714.53
279.396	16801.04
279.464	16826.3
279.532	16887.75
279.601	16911.31
279.669	16939.17
279.737	17008.57
279.806	17048.66
279.874	17115.41
279.942	17140.09
280.011	17167.61
280.079	17226.74
280.147	17316.48
280.215	17363.57
280.284	17383.9
280.352	17383.23
280.42	17447.18
280.488	17473.16
280.557	17489.49
280.625	17538.89
280.693	17592
280.761	17624.97
280.83	17612.53
280.898	17684.63
280.966	17671.91
281.034	17618.27
281.102	17621.64
281.171	17640.97
281.239	17696.1
281.307	17701.98
281.375	17720.34
281.443	17825.15
281.512	17854.74
281.58	17915.03
281.648	17913.29
281.716	17945.58
281.784	17982.88
281.852	18005.05
281.92	18027.89
281.989	18090.98
282.057	18086.98
282.125	18199.45
282.193	18248.51
282.261	18286
282.329	18305.28
282.397	18349.08
282.465	18400.41
282.533	18470.58
282.601	18485.95
282.67	18465.71
282.738	18487.01
282.806	18548.16
282.874	18546.33
282.942	18585.08
283.01	18597.03
283.078	18656.83
283.146	18692.44
283.214	18756.1
283.282	18793.35
283.35	18868.48
283.418	18893.73
283.486	18945.15
283.554	18907.76
283.622	18929.73
283.69	18971.75
283.758	19003.46
283.826	19055.46
283.894	19121.43
283.962	19218.53
284.03	19290.1
284.098	19341.47
284.165	19376.31
284.233	19407.87
284.301	19429.8
284.369	19444.93
284.437	19458.18
284.505	19478.57
284.573	19568.06
284.641	19572.88
284.709	19638.42
284.777	19631.86
284.845	19687.91
284.912	19745.35
284.98	19802.89
285.048	19829.59
285.116	19875.13
285.184	19938.07
285.252	19985.53
285.319	19982.4
285.387	19992.62
285.455	19989.97
285.523	20041.58
285.591	20062.16
285.659	20095.22
285.726	20159.07
285.794	20162.54
285.862	20198.68
285.93	20249.38
285.997	20262.97
286.065	20291.31
286.133	20300.51
286.201	20334.92
286.269	20335.5
286.336	20349.52
286.404	20370.44
286.472	20430.01
286.539	20409
286.607	20407.6
286.675	20434.54
286.743	20499.02
286.81	20519.02
286.878	20590.4
286.946	20609
287.013	20653.82
287.081	20698.45
287.149	20702.74
287.216	20802.6
287.284	20835.18
287.352	20858.31
287.419	20890.22
287.487	20982.42
287.555	21032.02
287.622	21058.47
287.69	21108.89
287.758	21170.15
287.825	21192.51
287.893	21203.79
287.96	21265.23
288.028	21326.45
288.096	21372.96
288.163	21420.77
288.231	21437.93
288.298	21471.63
288.366	21545.71
288.433	21581.23
288.501	21599.93
288.569	21646.88
288.636	21659.03
288.704	21729.21
288.771	21797.56
288.839	21799.39
288.906	21795.25
288.974	21856.52
289.041	21890.4
289.109	21898.07
289.176	21960.07
289.244	22017.48
289.311	22090.56
289.379	22155.2
289.446	22196.22
289.514	22246.36
289.581	22276.88
289.649	22320.6
289.716	22364.85
289.783	22376.76
289.851	22468.12
289.918	22509.48
289.986	22579.53
290.053	22637.29
290.121	22672.92
290.188	22701.12
290.255	22828.02
290.323	22861.87
290.39	22878.84
290.458	22929.6
290.525	23009.4
290.592	23031.67
290.66	23070.2
290.727	23092.96
290.794	23174.79
290.862	23228.07
290.929	23269.5
290.996	23323.7
291.064	23388.02
291.131	23460.75
291.198	23532.07
291.266	23558.98
291.333	23603.73
291.4	23641.06
291.468	23712.97
291.535	23725.08
291.602	23781.31
291.669	23790.71
291.737	23845.69
291.804	23885.04
291.871	23969.73
291.938	24014.25
292.006	24115.66
292.073	24184.97
292.14	24244.49
292.207	24251.48
292.275	24281.44
292.342	24343.33
292.409	24429.94
292.476	24519.1
292.543	24524.5
292.611	24564.59
292.678	24645.59
292.745	24754.14
292.812	24821.01
292.879	24844.13
292.946	24901.24
293.014	24971.3
293.081	25036.24
293.148	25113.25
293.215	25195.71
293.282	25218.82
293.349	25294.49
293.416	25290.58
293.484	25358.96
293.551	25427.3
293.618	25511.55
293.685	25619.57
293.752	25650.6
293.819	25680.68
293.886	25695.74
293.953	25758.72
294.02	25828.9
294.087	25876.74
294.154	25883.06
294.221	25962.97
294.288	26017.18
294.356	26105.46
294.423	26161.22
294.49	26187.14
294.557	26248.65
294.624	26259.85
294.691	26355.78
294.758	26389.09
294.825	26445.24
294.892	26467.69
294.959	26511.63
295.026	26573.59
295.093	26600.25
295.16	26632.64
295.226	26674.32
295.293	26774.25
295.36	26823.65
295.427	26893.45
295.494	26976.59
295.561	27049.36
295.628	27154.68
295.695	27228.58
295.762	27273.35
295.829	27348.1
295.896	27427.6
295.963	27493.83
296.03	27566.47
296.096	27623.39
296.163	27703.16
296.23	27784.42
296.297	27867.9
296.364	27913.02
296.431	27967.68
296.498	27994.83
296.564	28101.12
296.631	28150.59
296.698	28157.84
296.765	28254.78
296.832	28276.92
296.899	28286.73
296.965	28380.35
297.032	28359.46
297.099	28441.8
297.166	28511.49
297.233	28533.3
297.299	28562.05
297.366	28613.35
297.433	28666.51
297.5	28725.69
297.566	28775.2
297.633	28821.14
297.7	28860.88
297.767	28904.67
297.833	28963.81
297.9	29016.45
297.967	29016.35
298.033	29096.14
298.1	29212.55
298.167	29238.14
298.234	29284.17
298.3	29345.87
298.367	29371.84
298.434	29436.03
298.5	29446.67
298.567	29480.18
298.634	29527.39
298.7	29624.84
298.767	29671.38
298.834	29743.74
298.9	29773.68
298.967	29793.66
299.033	29860.48
299.1	29956.08
299.167	30029.02
299.233	30061.05
299.3	30142.66
299.366	30226.19
299.433	30294.82
299.5	30270.87
299.566	30325.54
299.633	30421.07
299.699	30496.08
299.766	30534.74
299.832	30588.47
299.899	30658.31
299.965	30737.29
300.032	30769.22
300.099	30808.43
300.165	30865.94
300.232	30899.53
300.298	30940.95
300.365	31014.91
300.431	31065.17
300.498	31088.46
300.564	31157.05
300.631	31223.62
300.697	31287.92
300.763	31337.34
300.83	31384.03
300.896	31463.52
300.963	31529.17
301.029	31572.42
301.096	31625.75
301.162	31693.19
301.229	31731.02
301.295	31747.34
301.361	31785.98
301.428	31847.32
301.494	31860.01
301.561	31900.98
301.627	31946.31
301.693	32000.78
301.76	32057.41
301.826	32064.28
301.892	32126.39
301.959	32170.81
302.025	32199.87
302.092	32227.82
302.158	32281.34
302.224	32329.22
302.291	32340.26
302.357	32371.07
302.423	32397.14
302.49	32405.33
302.556	32472.25
302.622	32502.58
302.688	32575.49
302.755	32659.38
302.821	32710.1
302.887	32777.77
302.954	32833.99
303.02	32899.06
303.086	32959.34
303.152	32989.14
303.219	33023.69
303.285	33067.99
303.351	33123.53
303.417	33182.08
303.483	33211.93
303.55	33237.66
303.616	33268
303.682	33322.85
303.748	33349.56
303.815	33428.14
303.881	33491.44
303.947	33492.99
304.013	33536.9
304.079	33551.78
304.145	33530.74
304.212	33579.21
304.278	33593.94
304.344	33608.2
304.41	33619.06
304.476	33637.14
304.542	33657.06
304.608	33721.67
304.674	33720.12
304.741	33744.46
304.807	33777.58
304.873	33830.47
304.939	33911.78
305.005	33898.21
305.071	33920.94
305.137	33958.51
305.203	33927.87
305.269	33959.77
305.335	34040.03
305.401	34072.66
305.467	34106.5
305.533	34171.38
305.599	34222.93
305.666	34288.87
305.732	34332.81
305.798	34405.26
305.864	34492.8
305.93	34555.12
305.996	34590.08
306.062	34637.65
306.128	34663.84
306.194	34663.07
306.259	34683.29
306.325	34685.67
306.391	34755.16
306.457	34803.75
306.523	34849.82
306.589	34950.62
306.655	34978.8
306.721	34961.87
306.787	34967.69
306.853	35038.32
306.919	35022.12
306.985	35025.17
307.051	35051.27
307.117	35057.04
307.183	35078.34
307.248	35039.05
307.314	35091.74
307.38	35126.33
307.446	35177.56
307.512	35193.32
307.578	35237.03
307.644	35263.56
307.709	35303.73
307.775	35330.61
307.841	35357.68
307.907	35384.5
307.973	35362.82
308.039	35388.87
308.104	35439.76
308.17	35485.36
308.236	35485.65
308.302	35532.56
308.368	35531.69
308.433	35551.19
308.499	35576.95
308.565	35572.73
308.631	35621.34
308.696	35582.72
308.762	35582.77
308.828	35593.44
308.894	35562.83
308.959	35544.89
309.025	35556.19
309.091	35576.33
309.156	35584.77
309.222	35622.47
309.288	35616.02
309.354	35591.47
309.419	35616.42
309.485	35603.99
309.551	35635.54
309.616	35625.1
309.682	35654.32
309.748	35685.41
309.813	35695.02
309.879	35702.54
309.945	35712.39
310.01	35716.95
310.076	35753.2
310.141	35764.99
310.207	35769.99
310.273	35831.84
310.338	35892.44
310.404	35879.39
310.469	35872.94
310.535	35873.57
310.601	35843.73
310.666	35891.91
310.732	35953.39
310.797	35953.58
310.863	35958.05
310.928	35965.23
310.994	35996.97
311.059	36002.55
311.125	36022.2
311.191	36082.14
311.256	36081.46
311.322	36115.73
311.387	36104.52
311.453	37243.09
311.518	37255.22
311.584	37271.28
311.649	37304.04
311.715	37305.99
311.78	37348.05
311.846	37359.12
311.911	37407.32
311.976	37454.05
312.042	37448.32
312.107	37446.77
312.173	37452.11
312.238	37481.61
312.304	37497.48
312.369	37509.18
312.434	37520.39
312.5	37532.96
312.565	37478.41
312.631	37523.63
312.696	37530.28
312.761	37571.92
312.827	36473.88
312.892	36564.42
312.958	36593.06
313.023	36611.32
313.088	36640.29
313.154	36635.83
313.219	36636.12
313.284	36626.94
313.35	36642.48
313.415	36638.88
313.48	36655.1
313.546	36691.7
313.611	36736.5
313.676	36748.3
313.741	36755.63
313.807	36790.43
313.872	36832.33
313.937	36890.47
314.003	36946.4
314.068	36970.28
314.133	37008.1
314.198	36992.13
314.264	36969.31
314.329	36961.01
314.394	36982.66
314.459	36997.86
314.525	37072.61
314.59	37099.07
314.655	37107.71
314.72	37149.31
314.785	37186.64
314.851	37194.46
314.916	37178.49
314.981	37162.61
315.046	37154.21
315.111	37159.75
315.176	37167.17
315.242	37191.99
315.307	37204.75
315.372	37184.31
315.437	37194.99
315.502	37198.68
315.567	37269.28
315.632	37255.15
315.698	37297.83
315.763	37301.95
315.828	37294.48
315.893	37300.89
315.958	37305.35
316.023	37300.98
316.088	37255.15
316.153	37215.3
316.218	37207.29
316.283	37173.17
316.348	37131.62
316.413	37146.57
316.479	37120.56
316.544	37026.64
316.609	36935.43
316.674	36825.65
316.739	36721.55
316.804	36629.24
316.869	36517.03
316.934	36397.57
316.999	36290.56
317.064	36131.48
317.129	35993.37
317.194	35871.43
317.259	35723.12
317.324	35563.61
317.389	35414.39
317.454	35288.73
317.518	35160.92
317.583	35057.29
317.648	34957.31
317.713	34834.6
317.778	34637.37
317.843	34509.71
317.908	34388.34
317.973	34252.03
318.038	34150.35
318.103	34016.7
318.168	33890.74
318.233	33772.29
318.297	33590.9
318.362	33456.19
318.427	33302.09
318.492	33187.36
318.557	33017.25
318.622	32880.96
318.687	32766.1
318.751	32614.29
318.816	32472.62
318.881	32336.37
318.946	32135.62
319.011	31954.86
319.075	31782.02
319.14	31634.73
319.205	31456.43
319.27	31296.23
319.335	31113.88
319.399	30940.37
319.464	30792.46
319.529	30583.59
319.594	30399.38
319.658	30249.44
319.723	30060.88
319.788	29907.11
319.853	29692.93
319.917	29536.78
319.982	29324.1
320.047	29151.89
320.112	29004.51
320.176	28804.76
320.241	28640.61
320.306	28479.21
320.37	28302.54
320.435	28135.18
320.5	27968.78
320.564	27789.12
320.629	27601.04
320.694	27428.73
320.758	27228.5
320.823	27030.46
320.888	26878.15
320.952	26672.91
321.017	26481.84
321.082	26297.06
321.146	26125.28
321.211	25952.12
321.275	25755.68
321.34	25563.46
321.405	25366.01
321.469	25157.1
321.534	24955.03
321.598	24725.02
321.663	24553.96
321.727	24376.56
321.792	24169.66
321.857	23967.77
321.921	23773.15
321.986	23567.09
322.05	23333.89
322.115	23154.74
322.179	22946.73
322.244	22702.14
322.308	22523.31
322.373	22315.09
322.437	22108.27
322.502	21943.86
322.566	21733.14
322.631	21554.41
322.695	21356.83
322.76	21145.43
322.824	20961.36
322.889	20754.21
322.953	20538.49
323.018	20274.13
323.082	20013.68
323.146	19788.86
323.211	19552.52
323.275	19341.58
323.34	19122.54
323.404	18937.59
323.468	18712.72
323.533	18506.22
323.597	18295.52
323.662	18058.6
323.726	17867.91
323.79	17652.53
323.855	17382.12
323.919	17150.3
323.983	16928.61
324.048	16602.64
324.112	16703.12
324.177	16032.57
324.241	15157.36
324.305	14304.39
324.37	13460.63
324.434	12636
324.498	12398.99
324.562	12146.78
324.627	11850.58
324.691	11568.41
324.755	11243.82
324.82	10879.67
324.884	10489.88
324.948	10097.89
325.012	9625.48
325.077	9027.32
