Data from 20250626_urea_1M_exp2_MAYP1162681_06-53-59-637.txt Node
Date: Fri Jun 27 06:53:59 BST 2025
User: adleo
Spectrometer: MAYP116268
Trigger mode: 0
Integration Time (sec): 3.000000E0
Scans to average: 1
Electric dark correction enabled: true
Nonlinearity correction enabled: true
Boxcar width: 10
XAxis mode: Wavelengths
Number of Pixels in Spectrum: 2068
>>>>>Begin Spectral Data<<<<<
179.565	2889.94
179.642	3037.95
179.718	3145.66
179.795	3253.4
179.871	3341.09
179.948	3390.32
180.024	3445.1
180.101	3506.96
180.177	3545.6
180.254	3602.29
180.33	3659.98
180.407	3857.54
180.483	4080.87
180.56	4307.7
180.636	4515.9
180.712	4486.31
180.789	4509.95
180.865	4540.93
180.942	4562.75
181.018	4585.15
181.095	4619.23
181.171	4634.74
181.248	4637.75
181.324	4682.48
181.4	4696.46
181.477	4725.28
181.553	4755.23
181.63	4812.07
181.706	4849.18
181.782	4871.38
181.859	4874.49
181.935	4892.69
182.011	4882.87
182.088	4928.27
182.164	4978.88
182.24	5011.57
182.317	5030.77
182.393	5024.73
182.469	5061.27
182.546	5096.48
182.622	5111.37
182.698	5100.83
182.775	5134.17
182.851	5169.43
182.927	5146
183.003	5137.43
183.08	5119.91
183.156	5149.12
183.232	5136.71
183.308	5110.85
183.385	5131.48
183.461	5176.76
183.537	5178.63
183.613	5213.75
183.69	5189.45
183.766	5164.28
183.842	5181.63
183.918	5197.25
183.995	5231.64
184.071	5242.18
184.147	5226.56
184.223	5198.17
184.299	5235.08
184.375	5207.48
184.452	5225.56
184.528	5336.24
184.604	5364.02
184.68	5396.64
184.756	5416.83
184.832	5429.1
184.908	5441.12
184.985	5442.03
185.061	5400.29
185.137	5422.15
185.213	5387.94
185.289	5393.64
185.365	5371.61
185.441	5371.03
185.517	5404.31
185.593	5395.54
185.669	5384.95
185.745	5411.74
185.822	5456.09
185.898	5434.56
185.974	5453.29
186.05	5428.69
186.126	5361.33
186.202	5342.75
186.278	5331.44
186.354	5304.5
186.43	5324.64
186.506	5321.57
186.582	5319.08
186.658	5337.38
186.734	5285.78
186.81	5295.36
186.886	5302.45
186.962	5332.73
187.038	5324.05
187.114	5303.67
187.19	5321.6
187.266	5297.31
187.341	5296.97
187.417	5273.26
187.493	5271.25
187.569	5281.93
187.645	5265.93
187.721	5236.31
187.797	5254.99
187.873	5269.9
187.949	5253.8
188.025	5235.34
188.101	5244.01
188.176	5252.68
188.252	5238.17
188.328	5258.04
188.404	5256.55
188.48	5245.77
188.556	5222.82
188.632	5225.65
188.707	5229.44
188.783	5224.79
188.859	5214.11
188.935	5184.45
189.011	5207.59
189.086	5188.48
189.162	5170.03
189.238	5167.11
189.314	5161.6
189.39	5149.19
189.465	5130.4
189.541	5168.88
189.617	5129.12
189.693	5113.32
189.768	5127.07
189.844	5193.09
189.92	5169.83
189.996	5196.04
190.071	5218.99
190.147	5223.11
190.223	5243.62
190.298	5225.26
190.374	5189.19
190.45	5220.7
190.526	5243.6
190.601	5230.14
190.677	5234.21
190.753	5303.51
190.828	5314.44
190.904	5349.95
190.98	5388.01
191.055	5411.98
191.131	5394.96
191.207	5447.86
191.282	5473.29
191.358	5444.83
191.433	5406.03
191.509	5443.04
191.585	5433.21
191.66	5440.07
191.736	5461.2
191.811	5431.39
191.887	5471.53
191.963	5537.53
192.038	5550.19
192.114	5555.32
192.189	5569.6
192.265	5568.74
192.34	5510.74
192.416	5506.81
192.491	5498.18
192.567	5506.14
192.642	5512.81
192.718	5511.95
192.793	5481.12
192.869	5474.56
192.944	5485.24
193.02	5502.88
193.095	5508.25
193.171	5523.88
193.246	5519.13
193.322	5510.36
193.397	5520.23
193.473	5481.34
193.548	5434.01
193.624	5448.97
193.699	5445.14
193.775	5478.81
193.85	5476.56
193.925	5501.97
194.001	5498.62
194.076	5479.4
194.152	5447.46
194.227	5426.51
194.302	5407.06
194.378	5415.4
194.453	5404.24
194.529	5425.8
194.604	5389.33
194.679	5378.4
194.755	5329.92
194.83	5361.72
194.905	5356.64
194.981	5374.71
195.056	5358.33
195.131	5373.43
195.207	5365.42
195.282	5341.27
195.357	5293.31
195.433	5336.88
195.508	5306.34
195.583	5328.47
195.659	5365.1
195.734	5388.12
195.809	5390.23
195.884	5409.63
195.96	5412.65
196.035	5456.41
196.11	5453.87
196.185	5485.69
196.261	5488.95
196.336	5566.36
196.411	5528.18
196.486	5541.12
196.561	5521.85
196.637	5545.86
196.712	5586.44
196.787	5594.31
196.862	5637.69
196.937	5661.84
197.013	5675.13
197.088	5695.79
197.163	5753.23
197.238	5792.49
197.313	5786.64
197.388	5820.74
197.464	5898.57
197.539	5924.66
197.614	5902.03
197.689	5930.42
197.764	5972.08
197.839	6027.28
197.914	6014.23
197.989	6075.36
198.065	6113.88
198.14	6250.54
198.215	6316.1
198.29	6349.81
198.365	6388.69
198.44	6409.28
198.515	6482.54
198.59	6521.33
198.665	6590.74
198.74	6612.75
198.815	6618.08
198.89	6678.51
198.965	6755.62
199.04	6743.47
199.115	6785.28
199.19	6897.74
199.265	6913.05
199.34	6938.03
199.415	7021.8
199.49	7076.54
199.565	7096.76
199.64	7160.9
199.715	7148.54
199.79	7164.83
199.865	7175.5
199.94	7163.16
200.015	7243.7
200.09	7258.27
200.165	7274.46
200.24	7291.18
200.315	7384.26
200.39	7421.75
200.464	7438
200.539	7442.04
200.614	7480.24
200.689	7541.48
200.764	7555.67
200.839	7592.9
200.914	7606.84
200.989	7584.09
201.063	7619.33
201.138	7575.48
201.213	7570.82
201.288	7523.57
201.363	7533.04
201.438	7533.9
201.512	7579.16
201.587	7535.64
201.662	7544.97
201.737	7576.51
201.812	7603.34
201.886	7523.38
201.961	7549.79
202.036	7517.74
202.111	7506.73
202.186	7433.63
202.26	7389.69
202.335	7331.66
202.41	7314.99
202.485	7266.18
202.559	7213.99
202.634	7140.96
202.709	7171.25
202.784	7119.65
202.858	7117.3
202.933	7072.33
203.008	7055.22
203.082	7005.7
203.157	7004.59
203.232	6893.01
203.306	6832.84
203.381	6741.5
203.456	6682.28
203.53	6623.52
203.605	6573.71
203.68	6512.55
203.754	6498.02
203.829	6458.06
203.904	6401.23
203.978	6375.58
204.053	6391.91
204.127	6365.46
204.202	6358.98
204.277	6309.54
204.351	6293.85
204.426	6276.75
204.5	6260.62
204.575	6166.7
204.65	6194.12
204.724	6169.19
204.799	6190.71
204.873	6184.47
204.948	6183.32
205.022	6154.06
205.097	6130.81
205.171	6169.2
205.246	6189.46
205.32	6189.94
205.395	6187.78
205.469	6170.9
205.544	6184.11
205.618	6134.82
205.693	6155.89
205.767	6129.55
205.842	6181.44
205.916	6166.38
205.991	6140.65
206.065	6150.54
206.14	6199.67
206.214	6185.65
206.289	6165.34
206.363	6195
206.438	6202.35
206.512	6221.59
206.586	6268.52
206.661	6293.93
206.735	6231.39
206.81	6232.64
206.884	6271.17
206.958	6235.81
207.033	6277.97
207.107	6295.02
207.181	6380.64
207.256	6368.4
207.33	6418.31
207.405	6454.4
207.479	6502.16
207.553	6522.36
207.628	6481.25
207.702	6509
207.776	6487.54
207.851	6500.16
207.925	6543.4
207.999	6535.52
208.073	6528.66
208.148	6535
208.222	6503.54
208.296	6588.26
208.371	6633.15
208.445	6654.86
208.519	6734.55
208.593	6765.71
208.668	6755.52
208.742	6756.15
208.816	6762.68
208.89	6798.23
208.965	6792.46
209.039	6809.71
209.113	6852.27
209.187	6907.59
209.261	6898.18
209.336	6951.59
209.41	7002.42
209.484	7002.61
209.558	7059.84
209.632	7091.58
209.707	7122.67
209.781	7177.97
209.855	7218.97
209.929	7263.99
210.003	7283.79
210.077	7278.51
210.151	7403.48
210.226	7493.98
210.3	7569.23
210.374	7628.61
210.448	7635.44
210.522	7661.99
210.596	7695.5
210.67	7717.75
210.744	7838.13
210.818	7921.51
210.892	7980.95
210.966	7967.93
211.041	8006.01
211.115	7995.2
211.189	8063.77
211.263	8103.82
211.337	8122.87
211.411	8160.44
211.485	8142.39
211.559	8171.29
211.633	8179.46
211.707	8094.19
211.781	8111.23
211.855	8018.34
211.929	7995.84
212.003	7955.04
212.077	7981.27
212.151	8009.89
212.225	8033.65
212.299	8005.54
212.373	7970.1
212.447	7949.89
212.52	8024.78
212.594	8030.84
212.668	8059.84
212.742	8018.62
212.816	8006.5
212.89	7983.22
212.964	7978.56
213.038	7986.35
213.112	8017.24
213.186	8052.39
213.26	8002.17
213.333	7878.92
213.407	7888.54
213.481	7896.8
213.555	7921.64
213.629	7885.7
213.703	7839.62
213.777	7830.29
213.85	7770.17
213.924	7859.13
213.998	7854.9
214.072	7831.65
214.146	7792.31
214.219	7782.89
214.293	7771.11
214.367	7771.78
214.441	7795.2
214.515	7757.49
214.588	7679.93
214.662	7585.84
214.736	7523.5
214.81	7533.39
214.883	7553.57
214.957	7520.27
215.031	7477.76
215.105	7410.77
215.178	7365.59
215.252	7335.75
215.326	7260.97
215.4	7202.62
215.473	7055.16
215.547	6998.77
215.621	6944.58
215.694	6940.63
215.768	6864.62
215.842	6811.79
215.915	6757.86
215.989	6672.62
216.063	6631.29
216.136	6622.83
216.21	6605.45
216.284	6612.23
216.357	6591.58
216.431	6557.34
216.504	6554.6
216.578	6597.84
216.652	6604.03
216.725	6582.99
216.799	6597.02
216.873	6580.03
216.946	6586.89
217.02	6565.64
217.093	6539.04
217.167	6469.96
217.24	6411.36
217.314	6383.68
217.387	6353.7
217.461	6317.55
217.535	6335.45
217.608	6288.08
217.682	6271.56
217.755	6271.23
217.829	6234.79
217.902	6224.99
217.976	6211.46
218.049	6176.67
218.123	6112.32
218.196	6109.34
218.27	6079.64
218.343	6018.56
218.417	6025.47
218.49	6006.47
218.563	6038.81
218.637	6049.08
218.71	6106.06
218.784	6125.35
218.857	6148.48
218.931	6159.41
219.004	6164.21
219.077	6177.7
219.151	6194.3
219.224	6186.67
219.298	6188.4
219.371	6220.57
219.444	6192.27
219.518	6202.1
219.591	6214.19
219.665	6298.4
219.738	6309
219.811	6303.15
219.885	6337.08
219.958	6359.27
220.031	6363.68
220.105	6380.2
220.178	6380.1
220.251	6355.61
220.325	6373.76
220.398	6385.23
220.471	6400.73
220.544	6432.47
220.618	6418.44
220.691	6437.69
220.764	6453.48
220.838	6477.3
220.911	6469.47
220.984	6537.25
221.057	6563.17
221.131	6581.27
221.204	6509.25
221.277	6567.17
221.35	6665.72
221.424	6664.19
221.497	6673.65
221.57	6692.84
221.643	6717.16
221.716	6752.94
221.79	6758.61
221.863	6763.03
221.936	6772.15
222.009	6787.94
222.082	6810.19
222.155	6815.18
222.229	6863.14
222.302	6885.13
222.375	6889.94
222.448	6921.84
222.521	6920.15
222.594	6922.99
222.667	6902.44
222.74	6946.87
222.814	6942.11
222.887	6923.94
222.96	6956.65
223.033	6986.59
223.106	7004.79
223.179	7027.87
223.252	7037.58
223.325	7060.25
223.398	7079.47
223.471	7103.06
223.544	7122.12
223.617	7129.77
223.69	7146.34
223.763	7114.47
223.837	7128.12
223.91	7151.14
223.983	7107.91
224.056	7088.55
224.129	7108.2
224.202	7153.67
224.275	7143.19
224.348	7119.22
224.42	7094.61
224.493	7058.15
224.566	7041.43
224.639	7056.03
224.712	7031.32
224.785	7024.2
224.858	7016.28
224.931	6997.2
225.004	6965.11
225.077	6964.35
225.15	6896.44
225.223	6895.04
225.296	6960.57
225.369	6918.5
225.442	6893.65
225.514	6910.03
225.587	6922.8
225.66	6926.55
225.733	6925.74
225.806	6929.87
225.879	6922.38
225.952	6895.1
226.025	6929.78
226.097	6965.79
226.17	6963.49
226.243	6916.52
226.316	6908.97
226.389	6912.72
226.461	6927.95
226.534	6946.11
226.607	6939
226.68	6997.58
226.753	6995.66
226.825	6928.5
226.898	6973.36
226.971	6974.99
227.044	6988.59
227.117	6990.7
227.189	7003.1
227.262	7033.04
227.335	7047.7
227.407	7051.74
227.48	7080.07
227.553	7094.87
227.626	7084.53
227.698	7090.59
227.771	7126.27
227.844	7112.29
227.916	7132.18
227.989	7102.44
228.062	7103.3
228.134	7168.44
228.207	7175.21
228.28	7166.33
228.352	7182.9
228.425	7196.75
228.498	7232.65
228.57	7221.55
228.643	7271.11
228.716	7273.37
228.788	7261.93
228.861	7256.45
228.934	7303.84
229.006	7307.82
229.079	7309.79
229.151	7305.23
229.224	7279.14
229.296	7292.41
229.369	7373.28
229.442	7409.2
229.514	7402.29
229.587	7436.74
229.659	7370.65
229.732	7379.35
229.804	7412.03
229.877	7473.05
229.949	7491.47
230.022	7531.11
230.094	7528.9
230.167	7519.86
230.239	7488.33
230.312	7477.9
230.384	7531.14
230.457	7522.72
230.529	7532.67
230.602	7531.03
230.674	7531.76
230.747	7562.26
230.819	7588.89
230.892	7497.21
230.964	7500.48
231.037	7521.81
231.109	7513.92
231.181	7553.62
231.254	7528.19
231.326	7521.65
231.399	7501.25
231.471	7478.03
231.544	7416.52
231.616	7453.19
231.688	7457.42
231.761	7448.53
231.833	7443.68
231.905	7388.66
231.978	7390.01
232.05	7374.16
232.122	7374.49
232.195	7356.37
232.267	7383.96
232.339	7362.9
232.412	7416.25
232.484	7389.51
232.556	7367.22
232.629	7420.7
232.701	7428.25
232.773	7433.78
232.846	7425.99
232.918	7433.88
232.99	7448.16
233.062	7481.04
233.135	7488.83
233.207	7461.43
233.279	7495.59
233.351	7517.12
233.424	7516.35
233.496	7497.08
233.568	7566.51
233.64	7535.41
233.713	7551.23
233.785	7551.51
233.857	7564.01
233.929	7521.57
234.001	7580.41
234.074	7632.84
234.146	7576.95
234.218	7581.81
234.29	7584.31
234.362	7574.5
234.434	7531.75
234.507	7509.49
234.579	7472
234.651	7458.2
234.723	7487.14
234.795	7505.36
234.867	7504.6
234.939	7552.1
235.012	7565.85
235.084	7569.31
235.156	7602.86
235.228	7587.14
235.3	7569.11
235.372	7581.33
235.444	7633.34
235.516	7567.82
235.588	7569.26
235.66	7581.66
235.732	7557.38
235.804	7711.92
235.876	7746.82
235.948	7799.91
236.02	7808.76
236.092	7819.91
236.164	7826.49
236.236	7821.92
236.308	7813.08
236.38	7832.31
236.452	7813.55
236.524	7829.61
236.596	7875.49
236.668	7901.79
236.74	7924.29
236.812	7952.42
236.884	7977.58
236.956	7982.78
237.028	7978.6
237.1	7966.62
237.172	8021.75
237.244	8084.91
237.316	7993.94
237.388	7978.89
237.46	7962.63
237.532	8017.28
237.604	8011.84
237.675	8071.93
237.747	8100.31
237.819	8093.1
237.891	8095.6
237.963	8088.63
238.035	8090.41
238.107	8006.87
238.178	8054.66
238.25	8057.74
238.322	8123.77
238.394	8093.08
238.466	8089.19
238.538	8120.01
238.609	8155.98
238.681	8124.03
238.753	8108.1
238.825	8117.73
238.897	8148.55
238.968	8212.32
239.04	8191.34
239.112	8278.31
239.184	8249.49
239.255	8250.02
239.327	8279.11
239.399	8296.77
239.471	8331.59
239.542	8363.92
239.614	8415.78
239.686	8351.05
239.758	8391.37
239.829	8364.75
239.901	8413.53
239.973	8426.67
240.044	8453.08
240.116	8457.22
240.188	8463.13
240.259	8470.93
240.331	8467.42
240.403	8494.65
240.474	8458.4
240.546	8445.94
240.618	8394.26
240.689	8389.16
240.761	8411.29
240.833	8460.77
240.904	8466.16
240.976	8466.3
241.048	8473.37
241.119	8503.7
241.191	8545.32
241.262	8600.45
241.334	8604.64
241.405	8605.02
241.477	8609.98
241.549	8622.4
241.62	8655.08
241.692	8691.51
241.763	8731.89
241.835	8745.66
241.906	8755.53
241.978	8735.56
242.049	8791.67
242.121	8847.49
242.192	8902.98
242.264	8872.23
242.335	8833.2
242.407	8868.29
242.478	8872.38
242.55	8892.02
242.621	8880.89
242.693	8873.53
242.764	8863.17
242.836	8863.7
242.907	8892.21
242.979	8921.9
243.05	8938.85
243.122	8951.75
243.193	8949.2
243.264	8904.34
243.336	8910.31
243.407	8937.22
243.479	9001.48
243.55	9015.83
243.622	9021.9
243.693	9022.67
243.764	9083.51
243.836	9076.1
243.907	9065.9
243.978	9072.39
244.05	9083.47
244.121	9051.07
244.192	9086.69
244.264	9048.27
244.335	9062.86
244.407	9019.87
244.478	9033.16
244.549	9024.06
244.62	8988.97
244.692	8984.11
244.763	9011.54
244.834	9006.44
244.906	8988.05
244.977	8996.72
245.048	9040.55
245.119	9030.63
245.191	9009.98
245.262	8958.13
245.333	9010.3
245.405	9028.12
245.476	9053.15
245.547	9068.94
245.618	9102.97
245.689	9112.41
245.761	9141.68
245.832	9141.83
245.903	9177.4
245.974	9194.88
246.045	9205.81
246.117	9279.24
246.188	9268.55
246.259	9263.64
246.33	9278.57
246.401	9289.54
246.473	9262.62
246.544	9245.67
246.615	9283.52
246.686	9297.67
246.757	9355.49
246.828	9342.68
246.899	9396.63
246.97	9372.32
247.042	9368.42
247.113	9410.41
247.184	9481.09
247.255	9481.33
247.326	9505.98
247.397	9513.59
247.468	9524.24
247.539	9535.12
247.61	9489.61
247.681	9524.75
247.752	9565.82
247.823	9540.65
247.894	9554.42
247.965	9536.22
248.037	9523.98
248.108	9488.11
248.179	9487.19
248.25	9477.75
248.321	9497.35
248.392	9458.38
248.463	9527.09
248.534	9528.92
248.605	9536.68
248.675	9516.29
248.746	9529.1
248.817	9538.26
248.888	9553.43
248.959	9507.01
249.03	9526.9
249.101	9532.72
249.172	9519.53
249.243	9457.91
249.314	9510.49
249.385	9517.91
249.456	9543.76
249.527	9543.9
249.598	9560.52
249.669	9557.05
249.739	9568.7
249.81	9590.42
249.881	9556.62
249.952	9547.23
250.023	9542.85
250.094	9505.08
250.165	9476.66
250.235	9467.51
250.306	9475.75
250.377	9451.28
250.448	9480.27
250.519	9430.72
250.59	9480.67
250.66	9484.18
250.731	9542.82
250.802	9541.85
250.873	9557.99
250.944	9571.28
251.014	9559.82
251.085	9626.34
251.156	9652.3
251.227	9690.59
251.297	9722.63
251.368	9764.09
251.439	9793.33
251.51	9833.65
251.58	9827.87
251.651	9825.85
251.722	9872.62
251.792	9837.46
251.863	9838.66
251.934	9883.56
252.005	9973.05
252.075	9985.72
252.146	10023.96
252.217	10060.42
252.287	10096.17
252.358	10101.13
252.429	10161.78
252.499	10156.97
252.57	10162.99
252.641	10199.07
252.711	10206.73
252.782	10175.95
252.852	10229.38
252.923	10227.35
252.994	10237.33
253.064	10274.03
253.135	10261.79
253.205	10247.44
253.276	10302.88
253.347	10359.43
253.417	10340.3
253.488	10324.5
253.558	10314.67
253.629	10317.89
253.699	10334.81
253.77	10354.56
253.841	10344.74
253.911	10355.19
253.982	10375.04
254.052	10405.35
254.123	10414.94
254.193	10418.65
254.264	10522.64
254.334	10504.04
254.405	10479.66
254.475	10460.53
254.546	10466.41
254.616	10516.51
254.687	10537.18
254.757	10552.79
254.827	10548.89
254.898	10568.88
254.968	10579.05
255.039	10565.18
255.109	10589.17
255.18	10566.96
255.25	10511.07
255.321	10544.6
255.391	10508.27
255.461	10576.54
255.532	10513.6
255.602	10502.14
255.673	10457.53
255.743	10423.35
255.813	10364.49
255.884	10403.8
255.954	10433.63
256.024	10481.09
256.095	10479.45
256.165	10453.05
256.235	10472.95
256.306	10463.8
256.376	10496.86
256.446	10526.39
256.517	10548.32
256.587	10588.31
256.657	10605.56
256.728	10624.44
256.798	10631.14
256.868	10630.56
256.938	10608.59
257.009	10646.46
257.079	10672.05
257.149	10755.74
257.219	10718.11
257.29	10755.96
257.36	10716.41
257.43	10739.64
257.5	10692.32
257.571	10690.29
257.641	10722.09
257.711	10692.84
257.781	10722.33
257.852	10736.84
257.922	10687.83
257.992	10691.49
258.062	10683.35
258.132	10717.9
258.202	10728.69
258.273	10734.47
258.343	10793.07
258.413	10780.59
258.483	10786.96
258.553	10772.11
258.623	10749.85
258.693	10766.14
258.764	10815.86
258.834	10872.96
258.904	10890.88
258.974	10880.14
259.044	10896.09
259.114	10917.54
259.184	10941.2
259.254	10944.14
259.324	10903.8
259.394	10940.32
259.464	11002.88
259.535	11006.06
259.605	10997.96
259.675	10991.22
259.745	11020.86
259.815	10999.26
259.885	10999.31
259.955	11074.46
260.025	11063.42
260.095	11072.82
260.165	11099.38
260.235	11151.43
260.305	11136.78
260.375	11111.82
260.445	11190.45
260.515	11237.01
260.585	11274.8
260.655	11284.49
260.725	11321.93
260.795	11350.94
260.865	11405.26
260.934	11376.48
261.004	11402.56
261.074	11404.29
261.144	11449.16
261.214	11473.3
261.284	11472.19
261.354	11501.2
261.424	11475.03
261.494	11534.93
261.564	11542.88
261.634	11562.98
261.703	11512.61
261.773	11538.05
261.843	11561.04
261.913	11546.49
261.983	11495.16
262.053	11517.77
262.123	11508.32
262.192	11474.06
262.262	11509.29
262.332	11478.05
262.402	11515.46
262.472	11523.31
262.541	11477.44
262.611	11513.64
262.681	11492.09
262.751	11529.73
262.821	11541.88
262.89	11518.11
262.96	11542.7
263.03	11603.48
263.1	11621.31
263.169	11640.74
263.239	11663.2
263.309	11717.42
263.379	11744.46
263.448	11771.55
263.518	11789.05
263.588	11809.67
263.657	11868.57
263.727	11900.38
263.797	11905.93
263.867	11897.73
263.936	11863.08
264.006	11918.35
264.076	11912.56
264.145	11919.26
264.215	11903.07
264.285	11929.24
264.354	11898.78
264.424	11880.66
264.494	11835.64
264.563	11823.83
264.633	11875.64
264.702	11891.89
264.772	11855.78
264.842	11856.8
264.911	11876.03
264.981	11838.28
265.05	11851.59
265.12	11843.97
265.19	11849.22
265.259	11884.56
265.329	11911.4
265.398	11937.67
265.468	12018.17
265.537	12012.29
265.607	12038.32
265.676	12084.83
265.746	12111.97
265.815	12157.37
265.885	12171.88
265.955	12161.9
266.024	12174.77
266.094	12121.37
266.163	12170.2
266.232	12218.16
266.302	12223.37
266.371	12247.76
266.441	12266.32
266.51	12304.25
266.58	12312.25
266.649	12304.06
266.719	12345.8
266.788	12370.2
266.858	12421.68
266.927	12366.63
266.996	12392.41
267.066	12416.61
267.135	12391.88
267.205	12415.89
267.274	12434.64
267.343	12474.07
267.413	12492.29
267.482	12542.47
267.552	12603.02
267.621	12557.66
267.69	12522.9
267.76	12545.84
267.829	12569.03
267.898	12588.36
267.968	12573.08
268.037	12603.83
268.106	12638.59
268.176	12615.84
268.245	12622.97
268.314	12622.97
268.384	12667.75
268.453	12685.59
268.522	12706.61
268.592	12750.14
268.661	12741.12
268.73	12766.67
268.799	12759.82
268.869	12827.17
268.938	12785.13
269.007	12773.37
269.076	12801.47
269.146	12842.74
269.215	12870.65
269.284	12913.89
269.353	12906.18
269.422	12912.01
269.492	12906.56
269.561	12844.57
269.63	12869.11
269.699	12870.31
269.768	12886.56
269.838	12906.56
269.907	12943.06
269.976	12921.31
270.045	12878.61
270.114	12915.92
270.183	12921.61
270.253	12947.68
270.322	12906.76
270.391	12932.6
270.46	12994.93
270.529	13032.05
270.598	13065.89
270.667	13074.56
270.736	13060.68
270.806	13089.07
270.875	13134.58
270.944	13148.56
271.013	13253.17
271.082	13271.63
271.151	13293.23
271.22	13261.89
271.289	13264.4
271.358	13264.35
271.427	13291.73
271.496	13317.28
271.565	13304.17
271.634	13321.71
271.703	13359.8
271.772	13420.25
271.841	13427.04
271.91	13399.62
271.979	13422.13
272.048	13402.65
272.117	13437.07
272.186	13433.41
272.255	13475.88
272.324	13511.55
272.393	13539.65
272.462	13531.07
272.531	13555.42
272.6	13573.59
272.669	13641.95
272.738	13659.98
272.807	13692.9
272.876	13680.95
272.945	13791.53
273.013	13846.78
273.082	13890.98
273.151	13881.15
273.22	13898.89
273.289	13925.88
273.358	13992.07
273.427	13994.58
273.496	14037.34
273.564	14064.62
273.633	14118.13
273.702	14105.84
273.771	14118.71
273.84	14142.81
273.909	14180.84
273.977	14211.98
274.046	14224.08
274.115	14264
274.184	14254.07
274.253	14268.77
274.322	14331.54
274.39	14289.89
274.459	14285.11
274.528	14249.15
274.597	14265.45
274.665	14296.1
274.734	14346.67
274.803	14357.18
274.872	14376.46
274.94	14368.99
275.009	14536.62
275.078	14531.03
275.147	14562.32
275.215	14582.37
275.284	14635.49
275.353	14648.02
275.421	14613.17
275.49	14689.81
275.559	14695.6
275.627	14720.71
275.696	14738.21
275.765	14771.47
275.833	14782.13
275.902	14814.66
275.971	14886.92
276.039	14949.11
276.108	14987.77
276.177	15017.31
276.245	15019.77
276.314	15040.98
276.383	15095.89
276.451	14974.43
276.52	15019.89
276.588	15085.54
276.657	15132.35
276.725	15137.7
276.794	15163.15
276.863	15237.77
276.931	15204.94
277	15251.99
277.068	15311.33
277.137	15382.47
277.205	15410.04
277.274	15495.22
277.342	15561.35
277.411	15540.28
277.48	15554.69
277.548	15561.3
277.617	15593.78
277.685	15609.64
277.754	15661.65
277.822	15670.62
277.89	15737.42
277.959	15751.98
278.027	15739.59
278.096	15743.25
278.164	15845.53
278.233	15861.77
278.301	15867.79
278.37	15915.13
278.438	15922.02
278.507	15966.6
278.575	15943.61
278.643	15971.09
278.712	15957.21
278.78	15947.13
278.849	16013.75
278.917	16066.57
278.985	16093.03
279.054	16125.61
279.122	16194.63
279.191	16222.88
279.259	16245.77
279.327	16223.8
279.396	16297.34
279.464	16320.24
279.532	16373.4
279.601	16394.32
279.669	16415.76
279.737	16490.76
279.806	16537.75
279.874	16599.58
279.942	16624.74
280.011	16651.2
280.079	16702.87
280.147	16783.55
280.215	16837.19
280.284	16859.12
280.352	16864.23
280.42	16914.4
280.488	16932.67
280.557	16948.33
280.625	16987.56
280.693	17032.14
280.761	17083.81
280.83	17069.68
280.898	17141.69
280.966	17129.93
281.034	17083.33
281.102	17085.11
281.171	17103.52
281.239	17150.75
281.307	17156.05
281.375	17166.51
281.443	17259.66
281.512	17282.8
281.58	17332.05
281.648	17321.35
281.716	17358.89
281.784	17390.75
281.852	17409.21
281.92	17442.94
281.989	17506.55
282.057	17503.47
282.125	17610.89
282.193	17645.34
282.261	17695.99
282.329	17712.62
282.397	17764.19
282.465	17808.62
282.533	17881.44
282.601	17885.35
282.67	17868.09
282.738	17883.61
282.806	17949.25
282.874	17955.18
282.942	18003.41
283.01	18015.03
283.078	18067.85
283.146	18095.56
283.214	18156.57
283.282	18199.5
283.35	18265.57
283.418	18286.68
283.486	18332.75
283.554	18297.43
283.622	18318.78
283.69	18347.3
283.758	18377.66
283.826	18420.6
283.894	18479.25
283.962	18575
284.03	18654.71
284.098	18698.8
284.165	18727.04
284.233	18754.56
284.301	18764.97
284.369	18775.86
284.437	18794.12
284.505	18820.68
284.573	18896.38
284.641	18895.95
284.709	18953.63
284.777	18946.02
284.845	18995.75
284.912	19041.44
284.98	19090.11
285.048	19120.13
285.116	19169.52
285.184	19238.58
285.252	19269.04
285.319	19263.69
285.387	19270.82
285.455	19251.93
285.523	19298.77
285.591	19329.66
285.659	19372.79
285.726	19442.23
285.794	19438.23
285.862	19463.48
285.93	19496.49
285.997	19516.93
286.065	19550.61
286.133	19559.48
286.201	19591.81
286.269	19589.69
286.336	19611.09
286.404	19634.65
286.472	19684.63
286.539	19665.59
286.607	19647.43
286.675	19685.35
286.743	19744
286.81	19765.59
286.878	19841.73
286.946	19867.03
287.013	19907.66
287.081	19936.72
287.149	19939.46
287.216	20033.34
287.284	20061.24
287.352	20099.31
287.419	20121.91
287.487	20200.04
287.555	20243.51
287.622	20269.48
287.69	20328.23
287.758	20396.61
287.825	20420.42
287.893	20427.17
287.96	20477.77
288.028	20549.58
288.096	20599.94
288.163	20642.49
288.231	20655.36
288.298	20683.17
288.366	20748.38
288.433	20778.6
288.501	20795.27
288.569	20832.86
288.636	20848.48
288.704	20918.51
288.771	20977.26
288.839	20992.82
288.906	21004.58
288.974	21069.17
289.041	21093.9
289.109	21088.84
289.176	21137.47
289.244	21184.13
289.311	21249.1
289.379	21316.28
289.446	21360.72
289.514	21393.6
289.581	21429.41
289.649	21474.47
289.716	21514.29
289.783	21529.71
289.851	21618.01
289.918	21656.23
289.986	21721.98
290.053	21773.51
290.121	21805.18
290.188	21845.53
290.255	21956.49
290.323	21981.32
290.39	21999.16
290.458	22063.41
290.525	22144.68
290.592	22162.95
290.66	22206.48
290.727	22232.55
290.794	22302.31
290.862	22337.75
290.929	22374.1
290.996	22412.08
291.064	22458.89
291.131	22526.1
291.198	22589.89
291.266	22622.53
291.333	22662.3
291.4	22711.86
291.468	22782.79
291.535	22809.31
291.602	22855.69
291.669	22868.18
291.737	22915.28
291.804	22954.86
291.871	23035.82
291.938	23086.55
292.006	23184.59
292.073	23239.99
292.14	23304.65
292.207	23316.71
292.275	23344.43
292.342	23400.23
292.409	23495.23
292.476	23592.22
292.543	23598.92
292.611	23640.54
292.678	23706.57
292.745	23805.77
292.812	23866.83
292.879	23886.12
292.946	23931.36
293.014	23999.37
293.081	24056.91
293.148	24124.67
293.215	24189.74
293.282	24204.21
293.349	24257.8
293.416	24259.58
293.484	24338.55
293.551	24400.93
293.618	24477.81
293.685	24583.03
293.752	24609.27
293.819	24643.77
293.886	24645.94
293.953	24706.48
294.02	24772.53
294.087	24830.34
294.154	24838.68
294.221	24910.26
294.288	24958.02
294.356	25044.24
294.423	25087.57
294.49	25111.45
294.557	25180.02
294.624	25194.88
294.691	25282.75
294.758	25327.97
294.825	25384.82
294.892	25398.91
294.959	25432.65
295.026	25481.2
295.093	25505.96
295.16	25549.43
295.226	25590.41
295.293	25697.29
295.36	25755.35
295.427	25823.81
295.494	25898.94
295.561	25981.23
295.628	26068.56
295.695	26146.96
295.762	26190.11
295.829	26255.59
295.896	26345.13
295.963	26410.66
296.03	26486.64
296.096	26545.41
296.163	26622.28
296.23	26699.31
296.297	26778.87
296.364	26823.05
296.431	26890.37
296.498	26920.26
296.564	27022.28
296.631	27075.16
296.698	27074.92
296.765	27171.13
296.832	27181.47
296.899	27186.64
296.965	27271.08
297.032	27259.14
297.099	27352.21
297.166	27409.2
297.233	27444.81
297.299	27468.48
297.366	27510.56
297.433	27561.04
297.5	27620.81
297.566	27654.58
297.633	27690.58
297.7	27734.65
297.767	27773.82
297.833	27831.13
297.9	27890.17
297.967	27887.41
298.033	27961.21
298.1	28089.15
298.167	28099.78
298.234	28151.19
298.3	28211.6
298.367	28234.7
298.434	28296.62
298.5	28294.11
298.567	28324.5
298.634	28366.17
298.7	28452.1
298.767	28503.73
298.834	28582.67
298.9	28608.39
298.967	28633.38
299.033	28695.46
299.1	28775.72
299.167	28857.51
299.233	28887.34
299.3	28956.38
299.366	29035.88
299.433	29110.56
299.5	29073.28
299.566	29123.7
299.633	29202.96
299.699	29272.98
299.766	29311.04
299.832	29351.18
299.899	29423.15
299.965	29495.1
300.032	29520.39
300.099	29578.01
300.165	29621.98
300.232	29646.84
300.298	29696.7
300.365	29769.15
300.431	29810.23
300.498	29830.11
300.564	29884.39
300.631	29948.54
300.697	30017.78
300.763	30063.92
300.83	30089.33
300.896	30164.55
300.963	30224.16
301.029	30283.39
301.096	30331.21
301.162	30389.12
301.229	30436.01
301.295	30436.06
301.361	30488.23
301.428	30551.45
301.494	30538.53
301.561	30590.18
301.627	30641.38
301.693	30680.48
301.76	30734.98
301.826	30761.94
301.892	30834.3
301.959	30895.2
302.025	30926.57
302.092	30939.88
302.158	30997.91
302.224	31046.57
302.291	31058.33
302.357	31088.1
302.423	31103.6
302.49	31114.93
302.556	31185.72
302.622	31217.53
302.688	31299.29
302.755	31360.6
302.821	31407.02
302.887	31476.24
302.954	31512.17
303.02	31563.69
303.086	31618.65
303.152	31638.65
303.219	31673.32
303.285	31718.02
303.351	31770.87
303.417	31804.72
303.483	31834.02
303.55	31852.8
303.616	31887.25
303.682	31939.1
303.748	31963.17
303.815	32033.84
303.881	32097.29
303.947	32102.57
304.013	32137.2
304.079	32145.68
304.145	32135.8
304.212	32178.32
304.278	32198.13
304.344	32218.72
304.41	32214.07
304.476	32230.63
304.542	32259.79
304.608	32296.56
304.674	32294.33
304.741	32300.67
304.807	32353.29
304.873	32402.51
304.939	32483.08
305.005	32471.45
305.071	32502.69
305.137	32545.95
305.203	32519.84
305.269	32542.71
305.335	32610.41
305.401	32637.01
305.467	32670.78
305.533	32730.42
305.599	32780.68
305.666	32837.8
305.732	32878.12
305.798	32952.98
305.864	33047.11
305.93	33096.83
305.996	33134.14
306.062	33171.45
306.128	33200.48
306.194	33195.98
306.259	33230.97
306.325	33234.61
306.391	33298.48
306.457	33337.25
306.523	33371.7
306.589	33468.21
306.655	33487.69
306.721	33468.69
306.787	33481.68
306.853	33552.55
306.919	33537.86
306.985	33548.38
307.051	33564.86
307.117	33578.39
307.183	33596.28
307.248	33560.35
307.314	33599.33
307.38	33639.86
307.446	33688.34
307.512	33693.86
307.578	33737
307.644	33751.69
307.709	33788.1
307.775	33795.28
307.841	33821.12
307.907	33863.68
307.973	33849.72
308.039	33875.8
308.104	33923.6
308.17	33970.14
308.236	33965.05
308.302	34019.2
308.368	34021.86
308.433	34055.27
308.499	34077.57
308.565	34083.29
308.631	34117.23
308.696	34103.94
308.762	34098.95
308.828	34127.9
308.894	34116.17
308.959	34093.53
309.025	34109.92
309.091	34135.19
309.156	34159.92
309.222	34201.67
309.288	34190.57
309.354	34170.88
309.419	34209.87
309.485	34194.55
309.551	34234.27
309.616	34233.01
309.682	34247.56
309.748	34271.89
309.813	34285.67
309.879	34299.92
309.945	34295.95
310.01	34315.73
310.076	34349.15
310.141	34382.36
310.207	34366.31
310.273	34415.37
310.338	34460.85
310.404	34447.57
310.469	34438.74
310.535	34442.08
310.601	34405.96
310.666	34451.16
310.732	34511.43
310.797	34510.51
310.863	34520.06
310.928	34532.77
310.994	34573.51
311.059	34602.18
311.125	34615.42
311.191	34670.43
311.256	34668
311.322	34721.35
311.387	34701.47
311.453	35679.53
311.518	35659.69
311.584	35682.63
311.649	35709.45
311.715	35715.27
311.78	35748.78
311.846	35749.95
311.911	35792.2
311.976	35835.74
312.042	35825.46
312.107	35810.72
312.173	35814.5
312.238	35833.99
312.304	35832.64
312.369	35832.54
312.434	35823.86
312.5	35837.78
312.565	35785.68
312.631	35822.68
312.696	35818.31
312.761	35844.12
312.827	34896.28
312.892	34998.74
312.958	35023.34
313.023	35048.03
313.088	35078.05
313.154	35070.34
313.219	35072.77
313.284	35066.41
313.35	35079.66
313.415	35081.21
313.48	35095.47
313.546	35126.86
313.611	35174.98
313.676	35179.73
313.741	35181.96
313.807	35219.42
313.872	35262.79
313.937	35310.62
314.003	35361.27
314.068	35383.06
314.133	35430.84
314.198	35427.64
314.264	35405.07
314.329	35399.25
314.394	35418.32
314.459	35426.62
314.525	35495.65
314.59	35523.25
314.655	35531.54
314.72	35575.31
314.785	35610
314.851	35613.83
314.916	35594.71
314.981	35588.11
315.046	35589.47
315.111	35593.01
315.176	35596.56
315.242	35607.28
315.307	35625.28
315.372	35600.39
315.437	35607.76
315.502	35609.56
315.567	35662.89
315.632	35651
315.698	35684.48
315.763	35697
315.828	35701.22
315.893	35709.81
315.958	35716.17
316.023	35714.03
316.088	35666.97
316.153	35625.39
316.218	35626.7
316.283	35592.07
316.348	35550.94
316.413	35566.85
316.479	35537.89
316.544	35453.83
316.609	35379.27
316.674	35268.63
316.739	35173.14
316.804	35086.18
316.869	34985.78
316.934	34861.74
316.999	34758.34
317.064	34596.8
317.129	34465.26
317.194	34352.28
317.259	34210.04
317.324	34060.28
317.389	33907.77
317.454	33803.57
317.518	33683.75
317.583	33590.56
317.648	33491.58
317.713	33368.66
317.778	33165.8
317.843	33050.88
317.908	32928.78
317.973	32792.66
318.038	32695.61
318.103	32572.57
318.168	32449.36
318.233	32330.91
318.297	32172.08
318.362	32043.23
318.427	31904.66
318.492	31794.22
318.557	31633.81
318.622	31515.64
318.687	31417.07
318.751	31278.55
318.816	31132.56
318.881	30999.46
318.946	30803.65
319.011	30633.05
319.075	30468.57
319.14	30333.16
319.205	30150.12
319.27	29993.77
319.335	29827.56
319.399	29658.39
319.464	29525.33
319.529	29329.62
319.594	29158.46
319.658	29020.17
319.723	28840.55
319.788	28708.44
319.853	28494.93
319.917	28343.23
319.982	28126.78
320.047	27952.59
320.112	27803.72
320.176	27595.38
320.241	27433.32
320.306	27271.11
320.37	27104.81
320.435	26952.09
320.5	26803.47
320.564	26636.54
320.629	26449.6
320.694	26282.12
320.758	26109.94
320.823	25916.92
320.888	25773.38
320.952	25566.57
321.017	25380.89
321.082	25196.16
321.146	25023.88
321.211	24854.9
321.275	24669.65
321.34	24482.53
321.405	24286.62
321.469	24093.33
321.534	23909.01
321.598	23696.31
321.663	23541.29
321.727	23377.07
321.792	23175.26
321.857	22981.83
321.921	22797.06
321.986	22616.75
322.05	22394.31
322.115	22196.79
322.179	21992.01
322.244	21758.5
322.308	21593.17
322.373	21384.5
322.437	21194.54
322.502	21044.91
322.566	20834
322.631	20659.24
322.695	20468.2
322.76	20266.74
322.824	20089.24
322.889	19891.32
322.953	19684.29
323.018	19426.59
323.082	19166.69
323.146	18944.66
323.211	18711.17
323.275	18510.6
323.34	18302.07
323.404	18126.36
323.468	17919.38
323.533	17714.41
323.597	17507.56
323.662	17282.4
323.726	17095.64
323.79	16882.57
323.855	16616.3
323.919	16400.91
323.983	16185.18
324.048	15882.19
324.112	15923.49
324.177	15278.08
324.241	14443.2
324.305	13625.41
324.37	12818.46
324.434	12034.31
324.498	11809.86
324.562	11565.14
324.627	11278.5
324.691	10995.34
324.755	10672.18
324.82	10316.18
324.884	9942.79
324.948	9560.56
325.012	9094.2
325.077	8527.31
