Data from 20250626_urea_1M_exp2_MAYP1162681_06-33-59-731.txt Node
Date: Fri Jun 27 06:33:59 BST 2025
User: adleo
Spectrometer: MAYP116268
Trigger mode: 0
Integration Time (sec): 3.000000E0
Scans to average: 1
Electric dark correction enabled: true
Nonlinearity correction enabled: true
Boxcar width: 10
XAxis mode: Wavelengths
Number of Pixels in Spectrum: 2068
>>>>>Begin Spectral Data<<<<<
179.565	2812.76
179.642	2962.17
179.718	3067.42
179.795	3172.42
179.871	3254.84
179.948	3304.49
180.024	3361.95
180.101	3420.89
180.177	3458.71
180.254	3515.06
180.33	3571.44
180.407	3764.55
180.483	3985.63
180.56	4209.26
180.636	4414.49
180.712	4385.58
180.789	4405.2
180.865	4437.24
180.942	4461.05
181.018	4487.13
181.095	4524.95
181.171	4539.35
181.248	4538.58
181.324	4581.28
181.4	4593.58
181.477	4622.59
181.553	4651.24
181.63	4704.29
181.706	4742.78
181.782	4765.93
181.859	4769.38
181.935	4783.07
182.011	4773.59
182.088	4813.52
182.164	4863.84
182.24	4894.85
182.317	4921.98
182.393	4917.58
182.469	4951.86
182.546	4989.12
182.622	5000.61
182.698	4992.28
182.775	5027.53
182.851	5065.22
182.927	5045.39
183.003	5038.88
183.08	5023.56
183.156	5049.61
183.232	5039.4
183.308	5013.16
183.385	5031.4
183.461	5073.12
183.537	5075.8
183.613	5108.08
183.69	5086.58
183.766	5060.26
183.842	5085.51
183.918	5097.39
183.995	5130.38
184.071	5137.57
184.147	5119.27
184.223	5090.6
184.299	5119.64
184.375	5089.08
184.452	5104.14
184.528	5202.7
184.604	5233.87
184.68	5264.77
184.756	5282.07
184.832	5293.86
184.908	5309.32
184.985	5304.63
185.061	5258.41
185.137	5281.79
185.213	5250.08
185.289	5254.44
185.365	5230.11
185.441	5220.14
185.517	5256.92
185.593	5246.9
185.669	5236.93
185.745	5266.79
185.822	5312.18
185.898	5289.22
185.974	5313.21
186.05	5289.63
186.126	5233.04
186.202	5211.15
186.278	5197.64
186.354	5176.41
186.43	5192.76
186.506	5185.05
186.582	5184.77
186.658	5203.43
186.734	5156.45
186.81	5165.16
186.886	5171.44
186.962	5204.39
187.038	5190.07
187.114	5163.5
187.19	5182.72
187.266	5161.55
187.341	5161.31
187.417	5140.47
187.493	5141.72
187.569	5148.57
187.645	5137.75
187.721	5108.22
187.797	5129.2
187.873	5139.5
187.949	5121.83
188.025	5103.14
188.101	5109.03
188.176	5123.01
188.252	5116.79
188.328	5130.14
188.404	5126.74
188.48	5115.92
188.556	5091.29
188.632	5095.75
188.707	5098.82
188.783	5091.91
188.859	5084.02
188.935	5053.35
189.011	5074.72
189.086	5058.05
189.162	5035.63
189.238	5029.64
189.314	5023.27
189.39	5005.93
189.465	4991.61
189.541	5033.58
189.617	4998.14
189.693	4988.56
189.768	5001.93
189.844	5064.44
189.92	5046.73
189.996	5069.63
190.071	5101.49
190.147	5103.35
190.223	5125.25
190.298	5106.42
190.374	5077.01
190.45	5106.99
190.526	5132.71
190.601	5117.81
190.677	5122.03
190.753	5193.47
190.828	5203.86
190.904	5236.83
190.98	5274.93
191.055	5302.34
191.131	5278.04
191.207	5324.89
191.282	5351.33
191.358	5319.99
191.433	5284.41
191.509	5321.61
191.585	5318.5
191.66	5320.37
191.736	5345.18
191.811	5325.44
191.887	5367.15
191.963	5421.49
192.038	5433.76
192.114	5432.56
192.189	5441.23
192.265	5429.26
192.34	5367.11
192.416	5364.28
192.491	5354.31
192.567	5364.15
192.642	5367.31
192.718	5374.11
192.793	5347.95
192.869	5334.68
192.944	5343.58
193.02	5358.92
193.095	5361.08
193.171	5373.59
193.246	5366.26
193.322	5353.89
193.397	5355.09
193.473	5321.62
193.548	5280.5
193.624	5294.98
193.699	5291.43
193.775	5334.82
193.85	5345.69
193.925	5372.34
194.001	5365.4
194.076	5351.98
194.152	5319.28
194.227	5303.61
194.302	5277.32
194.378	5283.21
194.453	5274.21
194.529	5305.21
194.604	5270.42
194.679	5266.15
194.755	5220.94
194.83	5252.69
194.905	5250.72
194.981	5268.79
195.056	5250.11
195.131	5265.3
195.207	5255.37
195.282	5233.72
195.357	5181.32
195.433	5211.55
195.508	5181.88
195.583	5207.99
195.659	5246.25
195.734	5267.1
195.809	5267.72
195.884	5289.8
195.96	5297.37
196.035	5335.17
196.11	5328.08
196.185	5354.91
196.261	5356.68
196.336	5432.83
196.411	5392.94
196.486	5402.66
196.561	5382.87
196.637	5408.5
196.712	5449.27
196.787	5459.77
196.862	5499.02
196.937	5523.46
197.013	5546.71
197.088	5572.59
197.163	5622.77
197.238	5662.08
197.313	5660.07
197.388	5696.13
197.464	5772.79
197.539	5801.56
197.614	5786.46
197.689	5817.35
197.764	5858.8
197.839	5911.02
197.914	5895.53
197.989	5957.07
198.065	5990.88
198.14	6123.23
198.215	6188.3
198.29	6217.01
198.365	6252.33
198.44	6278.67
198.515	6348.89
198.59	6384.12
198.665	6452.09
198.74	6473.94
198.815	6473.12
198.89	6532.4
198.965	6602.95
199.04	6592.24
199.115	6628.53
199.19	6735.25
199.265	6743.31
199.34	6771.17
199.415	6849.73
199.49	6906
199.565	6926.8
199.64	6987.89
199.715	6980.62
199.79	6994.99
199.865	7005.75
199.94	7000.8
200.015	7083.45
200.09	7096.67
200.165	7108.87
200.24	7123.05
200.315	7222.7
200.39	7262.78
200.464	7276.52
200.539	7277.82
200.614	7317.22
200.689	7375.52
200.764	7393.17
200.839	7435.96
200.914	7445.91
200.989	7423.35
201.063	7458.49
201.138	7413.36
201.213	7419.8
201.288	7369.39
201.363	7379.29
201.438	7382.85
201.512	7420.79
201.587	7370.84
201.662	7384.69
201.737	7418.29
201.812	7441.8
201.886	7354.54
201.961	7381.47
202.036	7349.91
202.111	7340.92
202.186	7265.44
202.26	7220.92
202.335	7165.79
202.41	7151.28
202.485	7113.38
202.559	7066.25
202.634	6998.31
202.709	7026.01
202.784	6972.64
202.858	6977.97
202.933	6932.29
203.008	6913.79
203.082	6866.87
203.157	6867.54
203.232	6756.65
203.306	6704.94
203.381	6616.8
203.456	6563.02
203.53	6498.21
203.605	6450.29
203.68	6393.27
203.754	6379.27
203.829	6339.95
203.904	6289.36
203.978	6256.18
204.053	6264.29
204.127	6228.78
204.202	6220
204.277	6171.2
204.351	6154.12
204.426	6132.17
204.5	6114.32
204.575	6023.54
204.65	6043.56
204.724	6012.92
204.799	6035.4
204.873	6020.13
204.948	6021.43
205.022	5989.06
205.097	5968.32
205.171	6004.1
205.246	6028.25
205.32	6026.09
205.395	6029.84
205.469	6005.29
205.544	6022.14
205.618	5977.52
205.693	6007.32
205.767	5980.12
205.842	6034.1
205.916	6019.48
205.991	5993.95
206.065	6007.91
206.14	6053.63
206.214	6043.93
206.289	6031.84
206.363	6058.8
206.438	6067.54
206.512	6088.65
206.586	6135.8
206.661	6160.1
206.735	6103.52
206.81	6100.16
206.884	6134.4
206.958	6099.68
207.033	6141.34
207.107	6150.8
207.181	6235.26
207.256	6223.59
207.33	6269.03
207.405	6299.54
207.479	6345.71
207.553	6365.23
207.628	6321.21
207.702	6350.81
207.776	6330.8
207.851	6342.85
207.925	6383.19
207.999	6375.27
208.073	6364.09
208.148	6372.73
208.222	6342.91
208.296	6424.26
208.371	6468.81
208.445	6500.49
208.519	6571.29
208.593	6606.62
208.668	6599.03
208.742	6597.5
208.816	6599.42
208.89	6631.84
208.965	6626.84
209.039	6651.1
209.113	6694.32
209.187	6747.32
209.261	6738.16
209.336	6797.95
209.41	6848.77
209.484	6852.42
209.558	6911.37
209.632	6941.95
209.707	6970.29
209.781	7028.7
209.855	7068.4
209.929	7110.34
210.003	7128.41
210.077	7124.75
210.151	7243.22
210.226	7332.55
210.3	7403.74
210.374	7465.03
210.448	7476.43
210.522	7501.14
210.596	7524.55
210.67	7548.19
210.744	7665.75
210.818	7749.5
210.892	7798.65
210.966	7779.71
211.041	7814.28
211.115	7804.14
211.189	7865.67
211.263	7909.71
211.337	7918.41
211.411	7954.25
211.485	7938.9
211.559	7969.77
211.633	7984.71
211.707	7900.36
211.781	7920.48
211.855	7833.81
211.929	7812.81
212.003	7770.48
212.077	7796.6
212.151	7832.87
212.225	7856.14
212.299	7829.53
212.373	7794.57
212.447	7777.02
212.52	7850.64
212.594	7860.16
212.668	7884.3
212.742	7849.24
212.816	7836.78
212.89	7822.89
212.964	7817.79
213.038	7822.36
213.112	7849.21
213.186	7878.1
213.26	7826.02
213.333	7706.49
213.407	7712.02
213.481	7716.63
213.555	7743.92
213.629	7713.04
213.703	7658.65
213.777	7651.14
213.85	7599.49
213.924	7683.15
213.998	7681.7
214.072	7657.17
214.146	7622.73
214.219	7611.82
214.293	7601.92
214.367	7595.14
214.441	7613.26
214.515	7577.77
214.588	7512.2
214.662	7415.82
214.736	7358.1
214.81	7369.82
214.883	7385.04
214.957	7351.03
215.031	7310.4
215.105	7240.27
215.178	7191.06
215.252	7167.56
215.326	7094.33
215.4	7035.6
215.473	6898.93
215.547	6833.33
215.621	6790.1
215.694	6781.88
215.768	6706.71
215.842	6658.16
215.915	6608.23
215.989	6527.96
216.063	6482.65
216.136	6470.55
216.21	6457.88
216.284	6468.06
216.357	6452.27
216.431	6426.87
216.504	6422.79
216.578	6464.57
216.652	6476.9
216.725	6460.09
216.799	6459.85
216.873	6442.1
216.946	6448.24
217.02	6416.25
217.093	6397.91
217.167	6324.85
217.24	6261.18
217.314	6236.67
217.387	6199.03
217.461	6166.1
217.535	6182.37
217.608	6136.16
217.682	6119.41
217.755	6125.84
217.829	6083.79
217.902	6066.75
217.976	6049.72
218.049	6016.42
218.123	5956.41
218.196	5951.7
218.27	5928.87
218.343	5878.28
218.417	5879.38
218.49	5857.17
218.563	5892.09
218.637	5899.29
218.71	5951.07
218.784	5974.92
218.857	6004.32
218.931	6024.55
219.004	6030.16
219.077	6045.39
219.151	6062.46
219.224	6053.1
219.298	6050.7
219.371	6080.32
219.444	6053.89
219.518	6056.63
219.591	6071.16
219.665	6150.26
219.738	6158.13
219.811	6145.52
219.885	6182.18
219.958	6204.3
220.031	6210.49
220.105	6226.91
220.178	6228.73
220.251	6211.4
220.325	6228.92
220.398	6238.38
220.471	6250.61
220.544	6277.44
220.618	6262.89
220.691	6283.34
220.764	6294.04
220.838	6310.74
220.911	6304.79
220.984	6366.88
221.057	6400.19
221.131	6415.06
221.204	6347.91
221.277	6402.12
221.35	6499.98
221.424	6494.74
221.497	6507.57
221.57	6527.33
221.643	6553.9
221.716	6585.16
221.79	6588.47
221.863	6593.37
221.936	6604.61
222.009	6618.67
222.082	6642.11
222.155	6646.67
222.229	6695.28
222.302	6719.63
222.375	6727.84
222.448	6752.33
222.521	6763.91
222.594	6762.47
222.667	6744.81
222.74	6786.73
222.814	6782.17
222.887	6762.51
222.96	6804.97
223.033	6832.93
223.106	6849.35
223.179	6871.37
223.252	6883.09
223.325	6907.63
223.398	6922.81
223.471	6938.95
223.544	6949.51
223.617	6963.31
223.69	6979.73
223.763	6950.32
223.837	6966.03
223.91	6986.55
223.983	6957.16
224.056	6933.91
224.129	6954.23
224.202	6992.72
224.275	6981.29
224.348	6958.33
224.42	6938.92
224.493	6898.28
224.566	6882.28
224.639	6895.06
224.712	6873.52
224.785	6862.95
224.858	6856.18
224.931	6843.16
225.004	6814.3
225.077	6816.22
225.15	6742.84
225.223	6740.01
225.296	6804.71
225.369	6761.69
225.442	6735.12
225.514	6738.82
225.587	6747.32
225.66	6751.78
225.733	6755.19
225.806	6761.39
225.879	6753.71
225.952	6728.89
226.025	6765.78
226.097	6801.73
226.17	6801.73
226.243	6750.93
226.316	6750.21
226.389	6753.67
226.461	6767.89
226.534	6781.52
226.607	6778.5
226.68	6840.14
226.753	6838.75
226.825	6775.06
226.898	6820.82
226.971	6825.34
227.044	6845.32
227.117	6853.67
227.189	6867.23
227.262	6898.22
227.335	6914.6
227.407	6916.33
227.48	6942.74
227.553	6946.63
227.626	6933.94
227.698	6936.01
227.771	6966.25
227.844	6951.74
227.916	6969.66
227.989	6941.65
228.062	6943.09
228.134	7009.32
228.207	7010.62
228.28	7008.94
228.352	7020.32
228.425	7023.21
228.498	7060.83
228.57	7045.37
228.643	7091.22
228.716	7093.19
228.788	7081.85
228.861	7074.69
228.934	7127.58
229.006	7129.89
229.079	7134.12
229.151	7123.4
229.224	7098.28
229.296	7117.98
229.369	7197.78
229.442	7232.93
229.514	7220.3
229.587	7259.08
229.659	7200.01
229.732	7213.27
229.804	7235.71
229.877	7294.37
229.949	7320.71
230.022	7355.68
230.094	7360.53
230.167	7348.22
230.239	7313.62
230.312	7305.21
230.384	7355.17
230.457	7355.75
230.529	7368.62
230.602	7366.51
230.674	7375.25
230.747	7406.57
230.819	7426.75
230.892	7336.58
230.964	7334.99
231.037	7358.13
231.109	7348.52
231.181	7380.81
231.254	7351.16
231.326	7350.39
231.399	7334.33
231.471	7308.85
231.544	7250.19
231.616	7283.44
231.688	7290.21
231.761	7276.58
231.833	7267.4
231.905	7209.57
231.978	7202.02
232.05	7184.29
232.122	7189.63
232.195	7169.78
232.267	7194.87
232.339	7183.09
232.412	7231.18
232.484	7207.91
232.556	7186.25
232.629	7237.13
232.701	7249.97
232.773	7259.09
232.846	7244.29
232.918	7251.03
232.99	7270.11
233.062	7304.72
233.135	7312.56
233.207	7285.64
233.279	7322.96
233.351	7347.32
233.424	7346.94
233.496	7329.15
233.568	7393.66
233.64	7368.43
233.713	7389.05
233.785	7385.01
233.857	7392.08
233.929	7349.08
234.001	7399.43
234.074	7451.51
234.146	7396.02
234.218	7390.73
234.29	7389.68
234.362	7383.77
234.434	7342.75
234.507	7316.61
234.579	7276.81
234.651	7266.04
234.723	7291.23
234.795	7308.25
234.867	7304.02
234.939	7351.13
235.012	7361.94
235.084	7366.07
235.156	7394.14
235.228	7374.53
235.3	7366.17
235.372	7377.37
235.444	7434.56
235.516	7377.42
235.588	7379.25
235.66	7390.3
235.732	7365.89
235.804	7517.13
235.876	7557.16
235.948	7606.78
236.02	7614.42
236.092	7628.31
236.164	7631.39
236.236	7627.35
236.308	7625.23
236.38	7648.26
236.452	7633.01
236.524	7652.96
236.596	7701
236.668	7724.85
236.74	7745.76
236.812	7768.93
236.884	7794.47
236.956	7801.3
237.028	7795.82
237.1	7785.53
237.172	7839.88
237.244	7902.87
237.316	7812.69
237.388	7802.31
237.46	7783.69
237.532	7832.6
237.604	7828.03
237.675	7889.84
237.747	7923.46
237.819	7911.25
237.891	7913.56
237.963	7903.8
238.035	7896.87
238.107	7813.2
238.178	7861.95
238.25	7868.06
238.322	7934.61
238.394	7908.97
238.466	7903.35
238.538	7935.27
238.609	7963.15
238.681	7930.44
238.753	7916.25
238.825	7928.66
238.897	7947.27
238.968	8010.94
239.04	7997.23
239.112	8081.4
239.184	8053.97
239.255	8054.69
239.327	8084.98
239.399	8101.81
239.471	8143.17
239.542	8170.63
239.614	8216.13
239.686	8153.29
239.758	8192.26
239.829	8163.66
239.901	8207.87
239.973	8222.93
240.044	8246.93
240.116	8255.92
240.188	8258.57
240.259	8270.16
240.331	8264.58
240.403	8289.06
240.474	8252.29
240.546	8241.76
240.618	8193.07
240.689	8190.8
240.761	8200.96
240.833	8252.25
240.904	8250.76
240.976	8244.17
241.048	8258.31
241.119	8288.97
241.191	8320.77
241.262	8372.76
241.334	8386.24
241.405	8389.12
241.477	8390.81
241.549	8400.48
241.62	8422.56
241.692	8464.66
241.763	8506.15
241.835	8525.12
241.906	8541.81
241.978	8516.89
242.049	8571.41
242.121	8618.03
242.192	8665.67
242.264	8642.38
242.335	8606.58
242.407	8642.43
242.478	8647.58
242.55	8669.04
242.621	8658.4
242.693	8658.21
242.764	8647.57
242.836	8638.52
242.907	8657.68
242.979	8685.93
243.05	8704.36
243.122	8727.85
243.193	8720.39
243.264	8670.53
243.336	8667.83
243.407	8690.99
243.479	8756.24
243.55	8767.99
243.622	8781.09
243.693	8780.03
243.764	8837.39
243.836	8819.07
243.907	8812.23
243.978	8818.25
244.05	8833.75
244.121	8799.15
244.192	8836.11
244.264	8798.71
244.335	8815.94
244.407	8779.9
244.478	8790.39
244.549	8781.05
244.62	8741.97
244.692	8745.05
244.763	8779.6
244.834	8773.73
244.906	8756.88
244.977	8769.69
245.048	8806.48
245.119	8789.44
245.191	8775.1
245.262	8720.62
245.333	8775.61
245.405	8789
245.476	8812.58
245.547	8826.35
245.618	8868.41
245.689	8870.67
245.761	8897.24
245.832	8896.52
245.903	8931.61
245.974	8950.14
246.045	8961.98
246.117	9031.55
246.188	9018.31
246.259	9011.48
246.33	9027.46
246.401	9034.34
246.473	9009.25
246.544	9007.04
246.615	9050.13
246.686	9062.89
246.757	9131.28
246.828	9114.73
246.899	9172.61
246.97	9148.45
247.042	9138.49
247.113	9169.79
247.184	9239.77
247.255	9241.51
247.326	9265.49
247.397	9280.36
247.468	9285.95
247.539	9292.64
247.61	9260.67
247.681	9298.4
247.752	9337.5
247.823	9318.63
247.894	9330.18
247.965	9310.98
248.037	9294.99
248.108	9253.39
248.179	9246.94
248.25	9240.29
248.321	9269.56
248.392	9230.06
248.463	9293.8
248.534	9298.28
248.605	9313.31
248.675	9293.75
248.746	9304.2
248.817	9312
248.888	9314.41
248.959	9275.5
249.03	9293.8
249.101	9291.44
249.172	9276.57
249.243	9218.18
249.314	9265.84
249.385	9281.25
249.456	9305.56
249.527	9294.63
249.598	9316.29
249.669	9316.14
249.739	9319.61
249.81	9327.07
249.881	9301.75
249.952	9298.19
250.023	9291.93
250.094	9251.76
250.165	9222.43
250.235	9218.09
250.306	9230.14
250.377	9212.8
250.448	9236
250.519	9189.74
250.59	9237.17
250.66	9236.89
250.731	9290.61
250.802	9292.72
250.873	9301.78
250.944	9315.12
251.014	9312.52
251.085	9378.65
251.156	9401.57
251.227	9438.12
251.297	9483.16
251.368	9515.47
251.439	9551.07
251.51	9590.37
251.58	9583.34
251.651	9586.27
251.722	9632.95
251.792	9598.8
251.863	9596.2
251.934	9638.49
252.005	9723.24
252.075	9734.75
252.146	9773.66
252.217	9807.95
252.287	9842.49
252.358	9847.74
252.429	9900.87
252.499	9902.84
252.57	9912.86
252.641	9945.95
252.711	9951.83
252.782	9913.01
252.852	9972.26
252.923	9966.96
252.994	9980.69
253.064	10016.42
253.135	10000.57
253.205	9983.81
253.276	10033.61
253.347	10091.93
253.417	10078.78
253.488	10067.27
253.558	10053.39
253.629	10055.08
253.699	10069.39
253.77	10086.45
253.841	10085
253.911	10098.11
253.982	10107.45
254.052	10128.85
254.123	10138.29
254.193	10139.93
254.264	10242.36
254.334	10215.62
254.405	10186.52
254.475	10157.67
254.546	10165.18
254.616	10208.48
254.687	10227.03
254.757	10240.57
254.827	10237.58
254.898	10256.95
254.968	10267.02
255.039	10253.19
255.109	10280.6
255.18	10257.04
255.25	10203.96
255.321	10227.95
255.391	10198.6
255.461	10266.14
255.532	10205.43
255.602	10202.35
255.673	10161.16
255.743	10134.18
255.813	10080.19
255.884	10122.96
255.954	10151.34
256.024	10204.05
256.095	10212.91
256.165	10189.11
256.235	10205.21
256.306	10195.96
256.376	10230.46
256.446	10260.14
256.517	10291.59
256.587	10325.71
256.657	10351.67
256.728	10375.71
256.798	10375.47
256.868	10370.6
256.938	10349.16
257.009	10395.8
257.079	10422.15
257.149	10497.89
257.219	10456.45
257.29	10483.37
257.36	10443
257.43	10475.04
257.5	10425.17
257.571	10415.68
257.641	10445.65
257.711	10419.92
257.781	10441.84
257.852	10458.9
257.922	10411.73
257.992	10415.73
258.062	10405.17
258.132	10430.37
258.202	10434.37
258.273	10453.45
258.343	10517.06
258.413	10503.28
258.483	10489.45
258.553	10461.75
258.623	10446.23
258.693	10467.96
258.764	10529.77
258.834	10584.16
258.904	10597.27
258.974	10588.69
259.044	10602.19
259.114	10628.98
259.184	10658.66
259.254	10668.68
259.324	10627.09
259.394	10668.24
259.464	10730.26
259.535	10737.44
259.605	10732.81
259.675	10726.94
259.745	10757.3
259.815	10729.73
259.885	10730.45
259.955	10825.59
260.025	10821.98
260.095	10830.12
260.165	10854.07
260.235	10897.31
260.305	10888.01
260.375	10866.32
260.445	10937.44
260.515	10981.43
260.585	11017.1
260.655	11024.28
260.725	11058.54
260.795	11083.02
260.865	11136.27
260.934	11107.55
261.004	11132.46
261.074	11140.08
261.144	11186.67
261.214	11206.29
261.284	11204.6
261.354	11238.76
261.424	11202.37
261.494	11257.92
261.564	11255.75
261.634	11277.83
261.703	11225.01
261.773	11243.75
261.843	11260.96
261.913	11253.49
261.983	11218.55
262.053	11233.1
262.123	11232.72
262.192	11193.54
262.262	11223.08
262.332	11183.85
262.402	11208.09
262.472	11220.24
262.541	11176.25
262.611	11208.59
262.681	11196.73
262.751	11231.67
262.821	11238.66
262.89	11210.41
262.96	11227.52
263.03	11289.84
263.1	11310.47
263.169	11331.34
263.239	11356.11
263.309	11417.71
263.379	11440.46
263.448	11452.7
263.518	11464.84
263.588	11479.01
263.657	11542.91
263.727	11575.55
263.797	11586.73
263.867	11588.41
263.936	11558.2
264.006	11603.3
264.076	11596.88
264.145	11594.57
264.215	11581.41
264.285	11609.7
264.354	11578.77
264.424	11572.31
264.494	11547.92
264.563	11536.69
264.633	11599.97
264.702	11610
264.772	11565.12
264.842	11562.42
264.911	11592.26
264.981	11556.73
265.05	11560.93
265.12	11550.56
265.19	11559
265.259	11593.85
265.329	11621.61
265.398	11639.63
265.468	11717.04
265.537	11718.2
265.607	11744.9
265.676	11790.74
265.746	11816.82
265.815	11869.11
265.885	11881.78
265.955	11862.07
266.024	11869.11
266.094	11817.15
266.163	11871.18
266.232	11926.23
266.302	11938.37
266.371	11953.56
266.441	11982.33
266.51	12017.76
266.58	12028.17
266.649	12017.33
266.719	12047.45
266.788	12064.28
266.858	12117.39
266.927	12062.68
266.996	12083.36
267.066	12106.31
267.135	12082.21
267.205	12103.56
267.274	12119.8
267.343	12155.18
267.413	12174.61
267.482	12217.8
267.552	12266.34
267.621	12220.69
267.69	12182.75
267.76	12199.86
267.829	12228.06
267.898	12242.33
267.968	12236.02
268.037	12267.35
268.106	12304.13
268.176	12287.35
268.245	12297.91
268.314	12294.97
268.384	12343.12
268.453	12359.95
268.522	12376.05
268.592	12422.42
268.661	12417.89
268.73	12445.17
268.799	12444.88
268.869	12505.57
268.938	12465.61
269.007	12462.52
269.076	12486
269.146	12540.27
269.215	12569.97
269.284	12620.92
269.353	12615.76
269.422	12617.55
269.492	12612.87
269.561	12558.11
269.63	12586.84
269.699	12590.26
269.768	12609.79
269.838	12629.55
269.907	12660.79
269.976	12644.69
270.045	12604.54
270.114	12628.3
270.183	12625.79
270.253	12643.68
270.322	12606.99
270.391	12633.41
270.46	12682.1
270.529	12719.22
270.598	12742.55
270.667	12739.17
270.736	12713.53
270.806	12740.18
270.875	12784.87
270.944	12794.95
271.013	12892.61
271.082	12917.53
271.151	12945.88
271.22	12914.98
271.289	12921.97
271.358	12928.96
271.427	12958.12
271.496	12984.73
271.565	12985.79
271.634	13009.12
271.703	13106.06
271.772	13161.64
271.841	13168.3
271.91	13149.98
271.979	13168.63
272.048	13147.13
272.117	13194.14
272.186	13200.35
272.255	13247.64
272.324	13282.35
272.393	13310.31
272.462	13301.49
272.531	13313.74
272.6	13318.12
272.669	13379.2
272.738	13393.32
272.807	13420.56
272.876	13410.48
272.945	13517.6
273.013	13565.23
273.082	13611.6
273.151	13547.25
273.22	13571.25
273.289	13599.45
273.358	13660.92
273.427	13674.37
273.496	13713.17
273.564	13740.99
273.633	13786.64
273.702	13774.3
273.771	13783.31
273.84	13811.66
273.909	13846.85
273.977	13874.91
274.046	13889.75
274.115	13937.57
274.184	13929.81
274.253	13944.8
274.322	14005.26
274.39	13962.59
274.459	13956.28
274.528	13927.4
274.597	13942.01
274.665	13963.22
274.734	14014.13
274.803	14021.74
274.872	14035.53
274.94	14037.36
275.009	14201.29
275.078	14196.27
275.147	14222.59
275.215	14244.38
275.284	14299.14
275.353	14310.23
275.421	14289.94
275.49	14363.88
275.559	14361.9
275.627	14386.59
275.696	14401
275.765	14433.97
275.833	14438.17
275.902	14480.83
275.971	14543.69
276.039	14618.07
276.108	14657.45
276.177	14688.16
276.245	14690.18
276.314	14717.27
276.383	14764.13
276.451	14653.08
276.52	14696.85
276.588	14759.33
276.657	14811.92
276.725	14817.84
276.794	14848.65
276.863	14915.51
276.931	14885.43
277	14941.25
277.068	14994.61
277.137	15071.35
277.205	15101.72
277.274	15181.11
277.342	15236.68
277.411	15223.43
277.48	15226.9
277.548	15246.42
277.617	15273.22
277.685	15301.66
277.754	15347.69
277.822	15360.08
277.89	15424.28
277.959	15447.66
278.027	15433.2
278.096	15432
278.164	15527.48
278.233	15544.93
278.301	15551.29
278.37	15599.2
278.438	15598.53
278.507	15644.7
278.575	15612.02
278.643	15633.81
278.712	15627.4
278.78	15629.28
278.849	15695.03
278.917	15754.5
278.985	15779.76
279.054	15816.63
279.122	15878.91
279.191	15898.52
279.259	15926.14
279.327	15901.8
279.396	15971.45
279.464	16007.26
279.532	16058.93
279.601	16078.16
279.669	16104.24
279.737	16174.65
279.806	16214.66
279.874	16272.79
279.942	16297.46
280.011	16330.58
280.079	16384.17
280.147	16450.97
280.215	16494.54
280.284	16516.09
280.352	16514.26
280.42	16560.33
280.488	16579.66
280.557	16599.52
280.625	16651.09
280.693	16691.23
280.761	16735.67
280.83	16730.03
280.898	16797.02
280.966	16786.13
281.034	16749.07
281.102	16744.2
281.171	16753.22
281.239	16813.75
281.307	16821.79
281.375	16833.51
281.443	16929.75
281.512	16950.57
281.58	17014.96
281.648	17007.87
281.716	17044.21
281.784	17075.83
281.852	17095.73
281.92	17122.04
281.989	17178.72
282.057	17165.37
282.125	17271.34
282.193	17296.5
282.261	17324.55
282.329	17343.25
282.397	17394.48
282.465	17431.59
282.533	17509.38
282.601	17515.06
282.67	17494.77
282.738	17509.76
282.806	17575.98
282.874	17578.15
282.942	17621.81
283.01	17634.1
283.078	17692.22
283.146	17717.9
283.214	17778.43
283.282	17822.43
283.35	17889.71
283.418	17910.43
283.486	17962.43
283.554	17931.49
283.622	17971.49
283.69	18011.87
283.758	18030.76
283.826	18080.64
283.894	18148.3
283.962	18233.07
284.03	18319.72
284.098	18359.18
284.165	18394.36
284.233	18424.63
284.301	18445.69
284.369	18454.22
284.437	18477.83
284.505	18493.25
284.573	18568.19
284.641	18569.58
284.709	18611.56
284.777	18611.56
284.845	18668.71
284.912	18717.38
284.98	18757.72
285.048	18772.85
285.116	18815.01
285.184	18884.7
285.252	18916.02
285.319	18900.41
285.387	18907.83
285.455	18901.42
285.523	18952.74
285.591	18978.38
285.659	19019.58
285.726	19092.11
285.794	19100.64
285.862	19127.29
285.93	19161.98
285.997	19180.34
286.065	19202.8
286.133	19220.05
286.201	19250.94
286.269	19245.11
286.336	19262.12
286.404	19292.43
286.472	19356.38
286.539	19343.32
286.607	19335.66
286.675	19370.64
286.743	19431.56
286.81	19448.09
286.878	19510.69
286.946	19533.86
287.013	19577.24
287.081	19602.39
287.149	19594.44
287.216	19680.85
287.284	19699.45
287.352	19739.35
287.419	19766.58
287.487	19842.09
287.555	19888.74
287.622	19911.15
287.69	19958.14
287.758	20022.86
287.825	20039.87
287.893	20047
287.96	20098.52
288.028	20171.77
288.096	20210.66
288.163	20261.12
288.231	20276.15
288.298	20311.48
288.366	20378.52
288.433	20408.88
288.501	20425.36
288.569	20465.17
288.636	20486.9
288.704	20561.31
288.771	20621.65
288.839	20634.08
288.906	20648.11
288.974	20700.69
289.041	20733.8
289.109	20741.17
289.176	20801.37
289.244	20855.5
289.311	20927.98
289.379	20995.46
289.446	21025
289.514	21070.21
289.581	21089.1
289.649	21130.26
289.716	21163.86
289.783	21171.76
289.851	21256.3
289.918	21303.77
289.986	21372.31
290.053	21408.7
290.121	21437.62
290.188	21476.28
290.255	21591.19
290.323	21616.59
290.39	21643.54
290.458	21701.52
290.525	21772.08
290.592	21779.8
290.66	21826.31
290.727	21835.85
290.794	21904.79
290.862	21945.52
290.929	21980.04
290.996	22023.47
291.064	22090.57
291.131	22156.71
291.198	22239.72
291.266	22259.68
291.333	22288.94
291.4	22331.56
291.468	22417.13
291.535	22442.39
291.602	22486.36
291.669	22492.24
291.737	22544.74
291.804	22578.92
291.871	22650.23
291.938	22708.03
292.006	22820.1
292.073	22869.81
292.14	22940.39
292.207	22954.86
292.275	22991.36
292.342	23055.25
292.409	23162.15
292.476	23249.44
292.543	23267.96
292.611	23297.23
292.678	23380.41
292.745	23486.2
292.812	23537.47
292.879	23547.55
292.946	23590.41
293.014	23650.98
293.081	23715.89
293.148	23785.82
293.215	23861.29
293.282	23888.93
293.349	23948.5
293.416	23921.34
293.484	23993.35
293.551	24045.15
293.618	24116.96
293.685	24217.73
293.752	24231.82
293.819	24254.2
293.886	24257.96
293.953	24314.69
294.02	24374.02
294.087	24430.18
294.154	24452.76
294.221	24531.89
294.288	24589.63
294.356	24672.6
294.423	24727.31
294.49	24745.79
294.557	24818.02
294.624	24822.36
294.691	24909.44
294.758	24950.27
294.825	25018.53
294.892	25041.02
294.959	25085.51
295.026	25145.44
295.093	25162.48
295.16	25212.75
295.226	25238.8
295.293	25338.42
295.36	25381.41
295.427	25449.23
295.494	25503.97
295.561	25562.36
295.628	25652.57
295.695	25727.53
295.762	25776.86
295.829	25839.47
295.896	25917.61
295.963	25974.96
296.03	26059.96
296.096	26107.56
296.163	26180.12
296.23	26256.4
296.297	26335.09
296.364	26369.84
296.431	26421.94
296.498	26466.06
296.564	26564.89
296.631	26631.36
296.698	26637.35
296.765	26737.36
296.832	26745.23
296.899	26763.24
296.965	26852.68
297.032	26837.27
297.099	26920.07
297.166	26988.6
297.233	27021.45
297.299	27051.19
297.366	27092.64
297.433	27139.58
297.5	27208.52
297.566	27258.18
297.633	27300.07
297.7	27343.88
297.767	27378.31
297.833	27441.94
297.9	27481.35
297.967	27484.73
298.033	27559.67
298.1	27676.61
298.167	27689.7
298.234	27752.65
298.3	27825.26
298.367	27839.33
298.434	27912.3
298.5	27917.37
298.567	27948.59
298.634	27993.58
298.7	28073.59
298.767	28121.97
298.834	28187.94
298.9	28208.34
298.967	28218.05
299.033	28273.88
299.1	28352.28
299.167	28431.87
299.233	28457.68
299.3	28529.64
299.366	28603.05
299.433	28670.41
299.5	28644.35
299.566	28698.14
299.633	28779.41
299.699	28838.07
299.766	28876.11
299.832	28921.42
299.899	28977.99
299.965	29039.4
300.032	29063.71
300.099	29120.73
300.165	29181.57
300.232	29212.32
300.298	29255.98
300.365	29328.22
300.431	29370.44
300.498	29383.12
300.564	29438.29
300.631	29508.04
300.697	29577.5
300.763	29628.95
300.83	29680.59
300.896	29749.6
300.963	29814.03
301.029	29859.9
301.096	29904.5
301.162	29971.25
301.229	29988.96
301.295	30011.45
301.361	30049.82
301.428	30104.61
301.494	30093.34
301.561	30128.13
301.627	30176.71
301.693	30225.62
301.76	30276.52
301.826	30305.94
301.892	30380.22
301.959	30450.25
302.025	30473.62
302.092	30495.5
302.158	30545.15
302.224	30571.48
302.291	30594.52
302.357	30619.05
302.423	30632.41
302.49	30643.35
302.556	30706.38
302.622	30743.84
302.688	30808.89
302.755	30885.77
302.821	30940.6
302.887	31015.46
302.954	31049.39
303.02	31108.45
303.086	31158.99
303.152	31182.67
303.219	31220.95
303.285	31258.24
303.351	31297.08
303.417	31341.43
303.483	31363.55
303.55	31382.38
303.616	31423.35
303.682	31460.39
303.748	31483.96
303.815	31563.04
303.881	31627.01
303.947	31630.69
304.013	31672.96
304.079	31695.47
304.145	31677.8
304.212	31713.68
304.278	31728.4
304.344	31751.2
304.41	31751.83
304.476	31762.58
304.542	31791.06
304.608	31832.56
304.674	31831.88
304.741	31850.34
304.807	31883.18
304.873	31941.69
304.939	32022.92
305.005	32016.81
305.071	32046.35
305.137	32094.3
305.203	32071
305.269	32094.88
305.335	32156.65
305.401	32185.42
305.467	32210.51
305.533	32271.65
305.599	32319.51
305.666	32378.02
305.732	32413.14
305.798	32482.96
305.864	32579.67
305.93	32626.28
305.996	32658.45
306.062	32697.3
306.128	32727.92
306.194	32731.17
306.259	32760.78
306.325	32771.25
306.391	32819.17
306.457	32875.42
306.523	32906.72
306.589	33003.59
306.655	33032.86
306.721	33023.12
306.787	33028.79
306.853	33100.18
306.919	33097.13
306.985	33110.7
307.051	33131.1
307.117	33156.68
307.183	33168.36
307.248	33134.19
307.314	33182.76
307.38	33218.87
307.446	33274.17
307.512	33289.44
307.578	33340.42
307.644	33349.34
307.709	33383.56
307.775	33398.88
307.841	33416.66
307.907	33445.26
307.973	33422.81
308.039	33440.31
308.104	33497.46
308.17	33542.19
308.236	33536.66
308.302	33573.79
308.368	33581.01
308.433	33605.88
308.499	33623.95
308.565	33630.06
308.631	33661.81
308.696	33635.49
308.762	33643.44
308.828	33657.74
308.894	33635.5
308.959	33622.02
309.025	33643.21
309.091	33667.26
309.156	33683.11
309.222	33727.96
309.288	33722.82
309.354	33695.63
309.419	33732.62
309.485	33719.63
309.551	33760.94
309.616	33752.06
309.682	33773.88
309.748	33786
309.813	33800.88
309.879	33805.15
309.945	33800.06
310.01	33814.46
310.076	33846.7
310.141	33864.39
310.207	33864.49
310.273	33906.32
310.338	33952.23
310.404	33929.54
310.469	33911.94
310.535	33924.79
310.601	33887.31
310.666	33939.87
310.732	34006.63
310.797	33998.72
310.863	34011.76
310.928	34019.67
310.994	34064.37
311.059	34078.53
311.125	34102.68
311.191	34163.11
311.256	34176.92
311.322	34229.92
311.387	34207.18
311.453	34923.25
311.518	34908.56
311.584	34926.55
311.649	34971.65
311.715	34958.8
311.78	34992.93
311.846	34992.2
311.911	35030.27
311.976	35068.24
312.042	35052.38
312.107	35034.92
312.173	35042.19
312.238	35055.67
312.304	35063.97
312.369	35066.68
312.434	35066.05
312.5	35077.84
312.565	35023.47
312.631	35054.6
312.696	35044.99
312.761	35083.1
312.827	34394.14
312.892	34506.54
312.958	34530.21
313.023	34540.25
313.088	34567.01
313.154	34568.95
313.219	34577.44
313.284	34585.2
313.35	34606.39
313.415	34613.04
313.48	34635.05
313.546	34665.8
313.611	34703.63
313.676	34713.72
313.741	34714.06
313.807	34760.04
313.872	34797.39
313.937	34850.3
314.003	34903.42
314.068	34943.14
314.133	34984.28
314.198	34991.75
314.264	34956.37
314.329	34958.7
314.394	34979.27
314.459	34997.89
314.525	35067.25
314.59	35085.49
314.655	35081.99
314.72	35118.43
314.785	35145.93
314.851	35157.03
314.916	35143.21
314.981	35137.87
315.046	35149.18
315.111	35139.67
315.176	35140.54
315.242	35168.49
315.307	35172.22
315.372	35146.66
315.437	35143.41
315.502	35150.88
315.567	35205.8
315.632	35188.67
315.698	35210.16
315.763	35217.49
315.828	35212.83
315.893	35221.32
315.958	35238.88
316.023	35225.83
316.088	35188.92
316.153	35157.2
316.218	35134.74
316.283	35103.32
316.348	35065.1
316.413	35064.71
316.479	35051.09
316.544	34970.73
316.609	34889
316.674	34797.01
316.739	34712.93
316.804	34635.24
316.869	34530.6
316.934	34415.31
316.999	34325.22
317.064	34173.75
317.129	34040.45
317.194	33932.3
317.259	33789.89
317.324	33635.32
317.389	33493.27
317.454	33367.47
317.518	33246.95
317.583	33172.35
317.648	33077.89
317.713	32963.82
317.778	32776.55
317.843	32670.71
317.908	32530.09
317.973	32398.51
318.038	32299.19
318.103	32162.23
318.168	32037.25
318.233	31928.66
318.297	31766.23
318.362	31626.12
318.427	31493.97
318.492	31386.27
318.557	31225.81
318.622	31105.68
318.687	31005.88
318.751	30864.83
318.816	30733.66
318.881	30599.61
318.946	30401.86
319.011	30238.79
319.075	30078.11
319.14	29926.81
319.205	29736.54
319.27	29595.33
319.335	29416.59
319.399	29247.45
319.464	29113.61
319.529	28917.75
319.594	28739.61
319.658	28598.41
319.723	28426.08
319.788	28276.95
319.853	28073.69
319.917	27922.08
319.982	27718.82
320.047	27550.57
320.112	27418.68
320.176	27215.59
320.241	27050.09
320.306	26893.17
320.37	26725.2
320.435	26565.93
320.5	26431.3
320.564	26256.44
320.629	26076.44
320.694	25929.98
320.758	25741.82
320.823	25543.45
320.888	25391.34
320.952	25191.85
321.017	25002.59
321.082	24831.93
321.146	24678.01
321.211	24512.72
321.275	24347.27
321.34	24164.84
321.405	23977.34
321.469	23771.63
321.534	23595.9
321.598	23394.56
321.663	23235.5
321.727	23063.73
321.792	22866.95
321.857	22662.25
321.921	22497.08
321.986	22313.75
322.05	22080.23
322.115	21907.17
322.179	21714.51
322.244	21488.15
322.308	21329.86
322.373	21139.62
322.437	20942.1
322.502	20784.82
322.566	20584.51
322.631	20392.93
322.695	20196.79
322.76	19994.47
322.824	19826.9
322.889	19626.28
322.953	19417.9
323.018	19165.27
323.082	18914.81
323.146	18688.64
323.211	18464.31
323.275	18259.69
323.34	18048.07
323.404	17886.92
323.468	17675.88
323.533	17477.18
323.597	17276.15
323.662	17052.58
323.726	16853.77
323.79	16648.65
323.855	16390.18
323.919	16182.02
323.983	15974.19
324.048	15671.01
324.112	15812.59
324.177	15166.95
324.241	14339.98
324.305	13533.17
324.37	12738.81
324.434	11963.92
324.498	11751.7
324.562	11515.43
324.627	11238.91
324.691	10976.48
324.755	10657.39
324.82	10316.95
324.884	9961.14
324.948	9601.58
325.012	9149.71
325.077	8617.33
