Data from 20250626_urea_1M_exp2_MAYP1162681_01-03-58-328.txt Node
Date: Fri Jun 27 01:03:58 BST 2025
User: adleo
Spectrometer: MAYP116268
Trigger mode: 0
Integration Time (sec): 3.000000E0
Scans to average: 1
Electric dark correction enabled: true
Nonlinearity correction enabled: true
Boxcar width: 10
XAxis mode: Wavelengths
Number of Pixels in Spectrum: 2068
>>>>>Begin Spectral Data<<<<<
179.565	2783.9
179.642	2925.52
179.718	3036.15
179.795	3140.95
179.871	3223.14
179.948	3273.15
180.024	3328.8
180.101	3388.92
180.177	3423.58
180.254	3478.22
180.33	3536.32
180.407	3727.75
180.483	3942.61
180.56	4163.89
180.636	4366.26
180.712	4334.96
180.789	4353.04
180.865	4383.83
180.942	4410.66
181.018	4432.9
181.095	4468.32
181.171	4480.76
181.248	4484.59
181.324	4523.6
181.4	4538.73
181.477	4567.97
181.553	4599.39
181.63	4652.24
181.706	4689.73
181.782	4716.08
181.859	4718.18
181.935	4731.64
182.011	4724.89
182.088	4770.99
182.164	4818.61
182.24	4854.84
182.317	4876.13
182.393	4872.64
182.469	4907.06
182.546	4939.05
182.622	4950.2
182.698	4944.07
182.775	4976.77
182.851	5013.07
182.927	4996.31
183.003	4983.53
183.08	4971.32
183.156	4994.45
183.232	4981.99
183.308	4954.27
183.385	4970.45
183.461	5014.51
183.537	5016.19
183.613	5048.04
183.69	5021.98
183.766	4991.17
183.842	5005.97
183.918	5028.15
183.995	5061.43
184.071	5070.48
184.147	5055.11
184.223	5029.84
184.299	5056.72
184.375	5029.47
184.452	5045.05
184.528	5144
184.604	5170.86
184.68	5196.34
184.756	5214.17
184.832	5224.9
184.908	5237.1
184.985	5237.44
185.061	5194.91
185.137	5214.84
185.213	5181.36
185.289	5189.98
185.365	5175.37
185.441	5169.43
185.517	5198.2
185.593	5187.61
185.669	5177.4
185.745	5204.61
185.822	5246.41
185.898	5229.54
185.974	5252.04
186.05	5231.53
186.126	5172.2
186.202	5156.88
186.278	5145.19
186.354	5121.04
186.43	5136.43
186.506	5131.59
186.582	5128.19
186.658	5148.35
186.734	5099.41
186.81	5109.7
186.886	5112.57
186.962	5142.75
187.038	5131.83
187.114	5111.93
187.19	5128.65
187.266	5108.4
187.341	5109.83
187.417	5090.49
187.493	5089.43
187.569	5102.37
187.645	5085.8
187.721	5055.41
187.797	5078.98
187.873	5089.37
187.949	5074.24
188.025	5062.31
188.101	5072.79
188.176	5083.62
188.252	5070.59
188.328	5095.34
188.404	5089.02
188.48	5079.73
188.556	5059.75
188.632	5067.03
188.707	5070.87
188.783	5068.56
188.859	5055.88
188.935	5028.43
189.011	5049.55
189.086	5032.74
189.162	5006.49
189.238	5002.61
189.314	4992.37
189.39	4976.03
189.465	4963.72
189.541	5006.31
189.617	4968.72
189.693	4953.78
189.768	4969.45
189.844	5035.49
189.92	5011.95
189.996	5038.96
190.071	5061.86
190.147	5059.89
190.223	5078.53
190.298	5059.46
190.374	5022.73
190.45	5052.36
190.526	5070.76
190.601	5062.56
190.677	5066.87
190.753	5143.54
190.828	5155.66
190.904	5195.04
190.98	5231.13
191.055	5256.28
191.131	5235.86
191.207	5285.3
191.282	5308.19
191.358	5279.64
191.433	5242.9
191.509	5278.76
191.585	5269.75
191.66	5276.51
191.736	5298.16
191.811	5274.97
191.887	5316.15
191.963	5380.31
192.038	5395.83
192.114	5401.78
192.189	5407.57
192.265	5397.62
192.34	5332.63
192.416	5330.09
192.491	5320.55
192.567	5324.82
192.642	5327.5
192.718	5328.22
192.793	5297.41
192.869	5287.11
192.944	5291.28
193.02	5303.5
193.095	5305.61
193.171	5325.36
193.246	5321.71
193.322	5312.42
193.397	5310.79
193.473	5276.41
193.548	5230.35
193.624	5244.83
193.699	5238.89
193.775	5274.22
193.85	5278.15
193.925	5302.2
194.001	5294.49
194.076	5274.32
194.152	5246.47
194.227	5229.08
194.302	5201.69
194.378	5212.18
194.453	5206.81
194.529	5241.46
194.604	5206.67
194.679	5198.29
194.755	5145.75
194.83	5179.84
194.905	5174.72
194.981	5195.8
195.056	5176.83
195.131	5193.31
195.207	5182.57
195.282	5158.24
195.357	5112.51
195.433	5152.85
195.508	5123.29
195.583	5147.71
195.659	5185.77
195.734	5202.97
195.809	5206.42
195.884	5226.77
195.96	5228.31
196.035	5266.06
196.11	5260.93
196.185	5292.6
196.261	5297.44
196.336	5375.49
196.411	5334.5
196.486	5348.92
196.561	5336.7
196.637	5361.37
196.712	5393.83
196.787	5408.07
196.862	5448.89
196.937	5473.38
197.013	5488.1
197.088	5512.2
197.163	5562.28
197.238	5602.16
197.313	5606.71
197.388	5641.14
197.464	5721.44
197.539	5757.3
197.614	5736.78
197.689	5762.54
197.764	5798.85
197.839	5852.42
197.914	5836.63
197.989	5891.69
198.065	5926.03
198.14	6058.01
198.215	6120.96
198.29	6153.93
198.365	6189.3
198.44	6215.25
198.515	6289.12
198.59	6319.36
198.665	6388.37
198.74	6412.04
198.815	6416.89
198.89	6473.29
198.965	6542.35
199.04	6530.44
199.115	6565.14
199.19	6674.77
199.265	6680.91
199.34	6706.84
199.415	6790.26
199.49	6849.55
199.565	6875.1
199.64	6940.23
199.715	6926.76
199.79	6939.92
199.865	6954.48
199.94	6945.69
200.015	7026.41
200.09	7037.99
200.165	7063.69
200.24	7075.99
200.315	7165.19
200.39	7202.58
200.464	7218.24
200.539	7221.03
200.614	7263.07
200.689	7317.86
200.764	7337.33
200.839	7382.95
200.914	7399.58
200.989	7369.57
201.063	7401.97
201.138	7359.62
201.213	7358.47
201.288	7309.74
201.363	7323.68
201.438	7327.24
201.512	7368.01
201.587	7323.84
201.662	7335.81
201.737	7359.94
201.812	7384.12
201.886	7310.53
201.961	7333.27
202.036	7300.51
202.111	7295.08
202.186	7217.2
202.26	7177.21
202.335	7121.26
202.41	7106.27
202.485	7059.83
202.559	7011.12
202.634	6939.44
202.709	6962.05
202.784	6913.53
202.858	6913.38
202.933	6866.41
203.008	6848.45
203.082	6802
203.157	6799.55
203.232	6688.48
203.306	6634.52
203.381	6552.14
203.456	6490.25
203.53	6434.25
203.605	6384.93
203.68	6328.25
203.754	6313.82
203.829	6273.58
203.904	6217.59
203.978	6187.1
204.053	6201.59
204.127	6171.51
204.202	6167.91
204.277	6124.25
204.351	6100.54
204.426	6081.34
204.5	6061.52
204.575	5975.29
204.65	5992.38
204.724	5973.89
204.799	5998.48
204.873	5985.67
204.948	5980.2
205.022	5954.26
205.097	5932.51
205.171	5969.63
205.246	5983.98
205.32	5985.95
205.395	5980.77
205.469	5961.6
205.544	5974.03
205.618	5927.82
205.693	5954.02
205.767	5927.21
205.842	5980.43
205.916	5967.96
205.991	5942.39
206.065	5956.35
206.14	5992.38
206.214	5980.04
206.289	5957.24
206.363	5982.29
206.438	5993.04
206.512	6015.98
206.586	6061.4
206.661	6083.2
206.735	6022.74
206.81	6027.06
206.884	6060.93
206.958	6029.76
207.033	6074.34
207.107	6090.82
207.181	6169.06
207.256	6158.12
207.33	6197.89
207.405	6232.53
207.479	6279.22
207.553	6301.19
207.628	6261.34
207.702	6290.75
207.776	6277.7
207.851	6287.25
207.925	6324.56
207.999	6315.78
208.073	6303.44
208.148	6313.09
208.222	6279.68
208.296	6365.63
208.371	6409.88
208.445	6435.23
208.519	6509.9
208.593	6539.76
208.668	6528.86
208.742	6534.48
208.816	6539.86
208.89	6574.24
208.965	6566.41
209.039	6593.41
209.113	6629.61
209.187	6687.84
209.261	6680.12
209.336	6726.21
209.41	6773.9
209.484	6775.73
209.558	6834.91
209.632	6871.01
209.707	6892.19
209.781	6948.53
209.855	6986.25
209.929	7023.58
210.003	7042.55
210.077	7040.58
210.151	7157.74
210.226	7245.61
210.3	7318.97
210.374	7377.71
210.448	7397.56
210.522	7425.11
210.596	7450.01
210.67	7480
210.744	7591.5
210.818	7670.43
210.892	7725.15
210.966	7713.28
211.041	7748.52
211.115	7739.24
211.189	7798.41
211.263	7846.44
211.337	7861.1
211.411	7899.82
211.485	7880.77
211.559	7906.49
211.633	7911.77
211.707	7835.89
211.781	7862.27
211.855	7769.98
211.929	7747.83
212.003	7699.64
212.077	7721.76
212.151	7746.1
212.225	7769.42
212.299	7746.32
212.373	7721.13
212.447	7709.88
212.52	7783.83
212.594	7794.08
212.668	7824.46
212.742	7791.09
212.816	7777.39
212.89	7763.59
212.964	7754.78
213.038	7771.09
213.112	7798.75
213.186	7830.47
213.26	7773.92
213.333	7647.28
213.407	7660.74
213.481	7667.08
213.555	7689.7
213.629	7656.37
213.703	7615.49
213.777	7606.31
213.85	7547.79
213.924	7630.04
213.998	7627.69
214.072	7604.93
214.146	7568.1
214.219	7555.11
214.293	7540.12
214.367	7534.78
214.441	7557.67
214.515	7524.53
214.588	7456.89
214.662	7370.62
214.736	7316.7
214.81	7336.25
214.883	7352.38
214.957	7310.4
215.031	7268.04
215.105	7205.98
215.178	7161.87
215.252	7130.01
215.326	7059.33
215.4	6999.46
215.473	6857.27
215.547	6793.6
215.621	6742.06
215.694	6737.69
215.768	6663.18
215.842	6613.63
215.915	6569.71
215.989	6481.76
216.063	6438.08
216.136	6420.03
216.21	6402.6
216.284	6411.54
216.357	6389.88
216.431	6362.23
216.504	6364.05
216.578	6405.26
216.652	6411.78
216.725	6391.76
216.799	6401.7
216.873	6385.86
216.946	6395.7
217.02	6375.17
217.093	6354.68
217.167	6284.27
217.24	6225.64
217.314	6200.65
217.387	6169.92
217.461	6134.2
217.535	6156.62
217.608	6109.35
217.682	6093.9
217.755	6098.84
217.829	6060.44
217.902	6044.94
217.976	6028.34
218.049	5993.37
218.123	5937.82
218.196	5937.58
218.27	5910.67
218.343	5854.27
218.417	5853.84
218.49	5833.83
218.563	5861.8
218.637	5867.99
218.71	5926.34
218.784	5946.16
218.857	5967.83
218.931	5985.04
219.004	5992.86
219.077	6002.32
219.151	6016.81
219.224	6007.93
219.298	6004.76
219.371	6038.07
219.444	6009.16
219.518	6017.94
219.591	6028.1
219.665	6108.07
219.738	6114.16
219.811	6107.73
219.885	6144.1
219.958	6168.2
220.031	6173.47
220.105	6189.55
220.178	6198.58
220.251	6179.66
220.325	6195.65
220.398	6206.73
220.471	6226.11
220.544	6248.39
220.618	6232.26
220.691	6256.92
220.764	6271.51
220.838	6293.64
220.911	6278.9
220.984	6346.55
221.057	6378.18
221.131	6395.98
221.204	6324.51
221.277	6383.23
221.35	6477.63
221.424	6472.88
221.497	6482.05
221.57	6499.56
221.643	6523.91
221.716	6553.4
221.79	6559.11
221.863	6567.18
221.936	6577.65
222.009	6585.18
222.082	6608.53
222.155	6618.85
222.229	6664.96
222.302	6688.73
222.375	6695.98
222.448	6726.76
222.521	6727.68
222.594	6724.7
222.667	6713.76
222.74	6757.88
222.814	6744.62
222.887	6722.56
222.96	6763.73
223.033	6794
223.106	6813.87
223.179	6839.97
223.252	6846.98
223.325	6864.37
223.398	6878.2
223.471	6901.64
223.544	6914.27
223.617	6921.62
223.69	6939
223.763	6912.82
223.837	6931.22
223.91	6950.72
223.983	6917.87
224.056	6894.34
224.129	6911.78
224.202	6946.43
224.275	6935.53
224.348	6919.3
224.42	6899.74
224.493	6856.76
224.566	6840.46
224.639	6856.46
224.712	6836.42
224.785	6826.52
224.858	6827.91
224.931	6814.7
225.004	6783.48
225.077	6786.46
225.15	6719.05
225.223	6717.37
225.296	6779.72
225.369	6734.58
225.442	6708.69
225.514	6720.31
225.587	6734.14
225.66	6739.9
225.733	6747.25
225.806	6747.15
225.879	6740.62
225.952	6716.72
226.025	6756.63
226.097	6793.83
226.17	6784.52
226.243	6731.46
226.316	6732.42
226.389	6729.06
226.461	6745.49
226.534	6757.25
226.607	6753.36
226.68	6817.4
226.753	6812.98
226.825	6747.18
226.898	6790.4
226.971	6790.16
227.044	6804.95
227.117	6812.06
227.189	6825.8
227.262	6851.32
227.335	6870.29
227.407	6871.16
227.48	6898.91
227.553	6905.2
227.626	6892.65
227.698	6904.13
227.771	6936.53
227.844	6917.85
227.916	6937.64
227.989	6909.97
228.062	6911.12
228.134	6971.19
228.207	6968.6
228.28	6961.64
228.352	6975.71
228.425	6984.55
228.498	7029.77
228.57	7017.33
228.643	7067.07
228.716	7072.5
228.788	7059.53
228.861	7061.64
228.934	7110.41
229.006	7111.61
229.079	7114.35
229.151	7105.69
229.224	7080.48
229.296	7100.32
229.369	7184.54
229.442	7221.66
229.514	7211.29
229.587	7249.29
229.659	7195.66
229.732	7209.06
229.804	7240.68
229.877	7296.11
229.949	7314.04
230.022	7354.11
230.094	7354.78
230.167	7343.91
230.239	7311.82
230.312	7306.53
230.384	7355.62
230.457	7351.97
230.529	7364.61
230.602	7362.15
230.674	7368.55
230.747	7396.6
230.819	7413.95
230.892	7319.3
230.964	7318.1
231.037	7336.4
231.109	7334.47
231.181	7363.3
231.254	7334.28
231.326	7322.12
231.399	7306.39
231.471	7287.84
231.544	7222.83
231.616	7257.18
231.688	7260.31
231.761	7249.84
231.833	7243.54
231.905	7176.72
231.978	7179.22
232.05	7159.62
232.122	7164.04
232.195	7143.23
232.267	7173.27
232.339	7160.05
232.412	7213.48
232.484	7188.62
232.556	7164.42
232.629	7209.48
232.701	7223.18
232.773	7234.8
232.846	7227.93
232.918	7227.6
232.99	7242.69
233.062	7274.08
233.135	7275.13
233.207	7244.08
233.279	7270.89
233.351	7290.59
233.424	7297.79
233.496	7274.97
233.568	7345.67
233.64	7318.18
233.713	7334.72
233.785	7332.79
233.857	7346.16
233.929	7304.11
234.001	7355.24
234.074	7415.34
234.146	7364.03
234.218	7352.54
234.29	7351.77
234.362	7345.05
234.434	7314.81
234.507	7289.62
234.579	7252.81
234.651	7243.63
234.723	7269.1
234.795	7289.53
234.867	7285.34
234.939	7324.57
235.012	7339.51
235.084	7339.32
235.156	7364.5
235.228	7349.55
235.3	7332.39
235.372	7342.2
235.444	7387.8
235.516	7328.22
235.588	7323.84
235.66	7330.57
235.732	7320
235.804	7469.07
235.876	7501.79
235.948	7546.03
236.02	7554.1
236.092	7570
236.164	7582.31
236.236	7583.22
236.308	7579.76
236.38	7604.28
236.452	7594.32
236.524	7613.46
236.596	7657.92
236.668	7686.53
236.74	7699.75
236.812	7720.8
236.884	7743.65
236.956	7753.22
237.028	7748.89
237.1	7739.66
237.172	7798.01
237.244	7858.02
237.316	7770.68
237.388	7760.88
237.46	7746.01
237.532	7794.15
237.604	7784.83
237.675	7836.43
237.747	7870.25
237.819	7865.87
237.891	7867.31
237.963	7858.28
238.035	7849.72
238.107	7770.15
238.178	7814.03
238.25	7824.56
238.322	7895.05
238.394	7863.84
238.466	7862.45
238.538	7892.06
238.609	7923.6
238.681	7880.35
238.753	7853.41
238.825	7863.71
238.897	7886.11
238.968	7950.89
239.04	7933.38
239.112	8017.4
239.184	7991.75
239.255	7991.7
239.327	8015.98
239.399	8029.84
239.471	8061.14
239.542	8093.51
239.614	8143.62
239.686	8083.63
239.758	8121
239.829	8092.89
239.901	8138.92
239.973	8157.58
240.044	8188.9
240.116	8199.14
240.188	8215.3
240.259	8235.6
240.331	8229.97
240.403	8260.18
240.474	8217.63
240.546	8207.34
240.618	8160.09
240.689	8155.86
240.761	8168.13
240.833	8220.33
240.904	8223.65
240.976	8229.33
241.048	8235.44
241.119	8260.56
241.191	8291.49
241.262	8343.33
241.334	8346.8
241.405	8351.27
241.477	8342.47
241.549	8344.06
241.62	8366.43
241.692	8398.19
241.763	8442.47
241.835	8461.05
241.906	8474.18
241.978	8454.7
242.049	8510.36
242.121	8557.66
242.192	8611.02
242.264	8587.97
242.335	8543.51
242.407	8573.3
242.478	8575.8
242.55	8599.57
242.621	8588.26
242.693	8593.6
242.764	8585.41
242.836	8585.51
242.907	8604.86
242.979	8641.04
243.05	8656.83
243.122	8672.71
243.193	8669.68
243.264	8614.1
243.336	8617.8
243.407	8638.11
243.479	8701.69
243.55	8714.88
243.622	8726.48
243.693	8723.98
243.764	8774.8
243.836	8762.72
243.907	8760.61
243.978	8760.65
244.05	8769.08
244.121	8741.07
244.192	8770.53
244.264	8734.04
244.335	8747.23
244.407	8713.3
244.478	8718.55
244.549	8714.99
244.62	8682.4
244.692	8682.64
244.763	8720.42
244.834	8704.68
244.906	8691.3
244.977	8701.12
245.048	8737.91
245.119	8719.72
245.191	8703.21
245.262	8656.43
245.333	8713.49
245.405	8723.41
245.476	8758.4
245.547	8777.56
245.618	8816.92
245.689	8823.42
245.761	8849.75
245.832	8847.92
245.903	8880.84
245.974	8905.01
246.045	8911.99
246.117	8975.87
246.188	8961.77
246.259	8950.12
246.33	8968.17
246.401	8977.51
246.473	8949.97
246.544	8943.47
246.615	8988.96
246.686	8993.58
246.757	9048.21
246.828	9028.81
246.899	9081.64
246.97	9049.25
247.042	9037.26
247.113	9070.44
247.184	9143.03
247.255	9143.12
247.326	9167.77
247.397	9180.63
247.468	9180.19
247.539	9193.58
247.61	9156.21
247.681	9196.64
247.752	9239.3
247.823	9221.06
247.894	9234.97
247.965	9216.87
248.037	9204.98
248.108	9169.73
248.179	9175.89
248.25	9163.28
248.321	9189.75
248.392	9153.73
248.463	9220.69
248.534	9221.17
248.605	9231.63
248.675	9205.95
248.746	9220.54
248.817	9234.6
248.888	9248.95
248.959	9208.8
249.03	9222.43
249.101	9228.59
249.172	9209.24
249.243	9155.37
249.314	9203.9
249.385	9211.22
249.456	9233.4
249.527	9225.22
249.598	9235.9
249.669	9229.5
249.739	9245.63
249.81	9251.99
249.881	9228.45
249.952	9219.54
250.023	9213.86
250.094	9181.45
250.165	9157.6
250.235	9155.82
250.306	9155.63
250.377	9131.94
250.448	9159.18
250.519	9117.06
250.59	9152.93
250.66	9155.2
250.731	9208.48
250.802	9204.39
250.873	9214.74
250.944	9232.36
251.014	9229.04
251.085	9294.26
251.156	9316.5
251.227	9355.03
251.297	9392.02
251.368	9426.3
251.439	9453.03
251.51	9497.48
251.58	9479.95
251.651	9481.45
251.722	9523.06
251.792	9487.57
251.863	9483.96
251.934	9530.96
252.005	9614.94
252.075	9626.65
252.146	9666.47
252.217	9697
252.287	9734.53
252.358	9739.05
252.429	9797.72
252.499	9793.49
252.57	9807.6
252.641	9844.11
252.711	9846.47
252.782	9818.2
252.852	9878.7
252.923	9882.94
252.994	9895.95
253.064	9937.02
253.135	9919.06
253.205	9897.19
253.276	9955.84
253.347	10011.61
253.417	9985.89
253.488	9969.85
253.558	9968.6
253.629	9964.94
253.699	9976.4
253.77	9996.93
253.841	9992.35
253.911	9997.17
253.982	10010.8
254.052	10032.72
254.123	10046.31
254.193	10054.54
254.264	10158.71
254.334	10132.16
254.405	10103.84
254.475	10080.48
254.546	10088.09
254.616	10136.06
254.687	10159.37
254.757	10173.49
254.827	10170.55
254.898	10200.13
254.968	10209.33
255.039	10191.51
255.109	10221.08
255.18	10202.92
255.25	10151.28
255.321	10179.22
255.391	10147.9
255.461	10207.25
255.532	10145.53
255.602	10130.79
255.673	10085.17
255.743	10056.69
255.813	9994.47
255.884	10036.86
255.954	10061.47
256.024	10102.66
256.095	10105.31
256.165	10078.19
256.235	10094.34
256.306	10079.31
256.376	10111.49
256.446	10147.24
256.517	10178.5
256.587	10212.67
256.657	10227.74
256.728	10239.64
256.798	10243.3
256.868	10244.26
256.938	10228.17
257.009	10262.28
257.079	10292.78
257.149	10372.07
257.219	10325.34
257.29	10361.31
257.36	10318.34
257.43	10344.98
257.5	10304.03
257.571	10296.13
257.641	10327.15
257.711	10304.84
257.781	10329.51
257.852	10340.64
257.922	10287.11
257.992	10283.6
258.062	10273.57
258.132	10304.65
258.202	10314.57
258.273	10323.54
258.343	10381.4
258.413	10375.86
258.483	10378.51
258.553	10359.63
258.623	10340.45
258.693	10368.25
258.764	10420.13
258.834	10472.74
258.904	10487.77
258.974	10470.24
259.044	10481.47
259.114	10500.26
259.184	10520.88
259.254	10531.29
259.324	10497.27
259.394	10535.66
259.464	10594.93
259.535	10602.69
259.605	10602.4
259.675	10594.5
259.745	10624.57
259.815	10606.88
259.885	10605.1
259.955	10696.77
260.025	10690.08
260.095	10693.16
260.165	10711.57
260.235	10761.21
260.305	10754.46
260.375	10729.74
260.445	10811.45
260.515	10856.55
260.585	10893.66
260.655	10891.49
260.725	10921.37
260.795	10949.03
260.865	11001.75
260.934	10978.18
261.004	11004.93
261.074	11006.42
261.144	11054.89
261.214	11083.28
261.284	11084.05
261.354	11117.29
261.424	11080.37
261.494	11131.44
261.564	11142
261.634	11162.38
261.703	11110.86
261.773	11126.47
261.843	11160.11
261.913	11151.53
261.983	11115.44
262.053	11130.53
262.123	11142.04
262.192	11113.9
262.262	11140.74
262.332	11107.44
262.402	11141.08
262.472	11152.17
262.541	11112.03
262.611	11150.68
262.681	11131.16
262.751	11164.37
262.821	11164.37
262.89	11140.37
262.96	11166.87
263.03	11226.2
263.1	11246.93
263.169	11266.25
263.239	11292.08
263.309	11339.75
263.379	11363.66
263.448	11383.27
263.518	11409.64
263.588	11419.37
263.657	11475.66
263.727	11508.58
263.797	11518.89
263.867	11513.11
263.936	11484.67
264.006	11530.78
264.076	11522.06
264.145	11520.61
264.215	11498.49
264.285	11527.99
264.354	11496.62
264.424	11487.27
264.494	11449.57
264.563	11441.62
264.633	11494.4
264.702	11510.25
264.772	11466.83
264.842	11468.13
264.911	11490.1
264.981	11452.65
265.05	11457.71
265.12	11452.75
265.19	11460.89
265.259	11490.34
265.329	11509.57
265.398	11525.72
265.468	11599.27
265.537	11599.61
265.607	11624.48
265.676	11667.03
265.746	11683.23
265.815	11727.52
265.885	11735.81
265.955	11727.13
266.024	11731.28
266.094	11683.71
266.163	11735.28
266.232	11787.68
266.302	11803
266.371	11826.96
266.441	11849.57
266.51	11892.22
266.58	11899.93
266.649	11886.2
266.719	11929.39
266.788	11964.91
266.858	12025.21
266.927	11981.59
266.996	12007.42
267.066	12040.83
267.135	12021.31
267.205	12062.28
267.274	12082.18
267.343	12120.94
267.413	12139.25
267.482	12191.84
267.552	12244.43
267.621	12207.94
267.69	12173.14
267.76	12180.61
267.829	12204.76
267.898	12220.28
267.968	12216.18
268.037	12250.36
268.106	12294.7
268.176	12269.11
268.245	12278.56
268.314	12277.01
268.384	12317.74
268.453	12333.27
268.522	12345.75
268.592	12395.64
268.661	12384.5
268.73	12413.91
268.799	12407.16
268.869	12469.39
268.938	12427.93
269.007	12424.18
269.076	12446.54
269.146	12491.9
269.215	12517.83
269.284	12567.34
269.353	12565.46
269.422	12562.76
269.492	12561.51
269.561	12499.23
269.63	12536.4
269.699	12531.05
269.768	12541.6
269.838	12560.16
269.907	12599.26
269.976	12585.71
270.045	12545.94
270.114	12572.12
270.183	12578.29
270.253	12606.59
270.322	12563.59
270.391	12587.01
270.46	12640.52
270.529	12674.7
270.598	12707.24
270.667	12719.82
270.736	12701.5
270.806	12729.89
270.875	12785.43
270.944	12793.96
271.013	12893.89
271.082	12908.88
271.151	12942.96
271.22	12914.18
271.289	12920.79
271.358	12920.5
271.427	12945.85
271.496	12971.98
271.565	12975.31
271.634	12988.85
271.703	13083.96
271.772	13138.43
271.841	13153.67
271.91	13134.19
271.979	13149.28
272.048	13136.99
272.117	13173.33
272.186	13175.79
272.255	13213.63
272.324	13241.5
272.393	13269.31
272.462	13267.77
272.531	13292.69
272.6	13301.27
272.669	13364.62
272.738	13373.92
272.807	13401.11
272.876	13392.96
272.945	13500.8
273.013	13547.7
273.082	13599.04
273.151	13526.2
273.22	13557.54
273.289	13582.22
273.358	13643.15
273.427	13654.72
273.496	13690.88
273.564	13719.32
273.633	13763.91
273.702	13754.8
273.771	13765.98
273.84	13796.69
273.909	13828.41
273.977	13852.27
274.046	13863.75
274.115	13911.86
274.184	13914.17
274.253	13934.99
274.322	13996.36
274.39	13956.69
274.459	13957.31
274.528	13929.02
274.597	13956.35
274.665	13980.02
274.734	14030.2
274.803	14044.95
274.872	14068.14
274.94	14068.72
275.009	14172.35
275.078	14168.26
275.147	14197.18
275.215	14221.81
275.284	14275.95
275.353	14288.53
275.421	14270.88
275.49	14347.24
275.559	14353.22
275.627	14377.76
275.696	14392.22
275.765	14426.59
275.833	14436.28
275.902	14475.8
275.971	14539.48
276.039	14610.15
276.108	14655.51
276.177	14683.33
276.245	14686.27
276.314	14707.72
276.383	14753.61
276.451	14695.05
276.52	14746
276.588	14816.62
276.657	14862.22
276.725	14866.55
276.794	14894.42
276.863	14958.43
276.931	14927.97
277	14969.37
277.068	15027.41
277.137	15095.33
277.205	15129.12
277.274	15215.69
277.342	15268.38
277.411	15251.07
277.48	15258.16
277.548	15268.71
277.617	15311.66
277.685	15338.08
277.754	15387.68
277.822	15414.24
277.89	15490.92
277.959	15506.64
278.027	15494.1
278.096	15506.49
278.164	15607.71
278.233	15629.35
278.301	15634.6
278.37	15686.32
278.438	15695.39
278.507	15736.89
278.575	15720.35
278.643	15733.95
278.712	15713.94
278.78	15710.52
278.849	15775.06
278.917	15829.62
278.985	15854.16
279.054	15891.08
279.122	15955.23
279.191	15985.79
279.259	15999.53
279.327	15974.56
279.396	16050.42
279.464	16077.61
279.532	16132.46
279.601	16146.72
279.669	16170.53
279.737	16238.83
279.806	16280.62
279.874	16345.01
279.942	16380.1
280.011	16406.03
280.079	16467.96
280.147	16550.28
280.215	16607.01
280.284	16634.72
280.352	16638.43
280.42	16695.21
280.488	16709.76
280.557	16726.15
280.625	16771.45
280.693	16817.14
280.761	16864.38
280.83	16852.38
280.898	16921.73
280.966	16897.82
281.034	16857.78
281.102	16859.61
281.171	16882.26
281.239	16938.79
281.307	16944.52
281.375	16949.15
281.443	17045.88
281.512	17076.72
281.58	17135.32
281.648	17129.97
281.716	17164.96
281.784	17202.94
281.852	17215.23
281.92	17242.7
281.989	17308.14
282.057	17310.89
282.125	17418.69
282.193	17446.31
282.261	17490.5
282.329	17510.5
282.397	17563.13
282.465	17613.88
282.533	17682.8
282.601	17693.11
282.67	17672.77
282.738	17697.59
282.806	17768.48
282.874	17776
282.942	17816.05
283.01	17826.94
283.078	17885.25
283.146	17917.92
283.214	17973.01
283.282	18025.2
283.35	18098.4
283.418	18112.23
283.486	18151.75
283.554	18120.52
283.622	18151.27
283.69	18186.73
283.758	18216.42
283.826	18275.02
283.894	18335.88
283.962	18426.29
284.03	18497.18
284.098	18554.04
284.165	18581.46
284.233	18606.38
284.301	18619.87
284.369	18630.57
284.437	18649.65
284.505	18668.16
284.573	18738.27
284.641	18745.45
284.709	18795.91
284.777	18793.84
284.845	18858.8
284.912	18910.12
284.98	18955.99
285.048	18986.88
285.116	19033.44
285.184	19105.72
285.252	19136.95
285.319	19133.67
285.387	19145.38
285.455	19147.4
285.523	19191.5
285.591	19225.04
285.659	19270.63
285.726	19337.85
285.794	19338.86
285.862	19376.79
285.93	19411.77
285.997	19430.13
286.065	19459.77
286.133	19471.72
286.201	19501.36
286.269	19498.18
286.336	19509.41
286.404	19533.74
286.472	19600.2
286.539	19578.32
286.607	19571.33
286.675	19612.15
286.743	19675.33
286.81	19698.46
286.878	19769.16
286.946	19789.4
287.013	19828.77
287.081	19863.37
287.149	19866.79
287.216	19960.23
287.284	19972.71
287.352	20020.28
287.419	20060.9
287.487	20137.53
287.555	20187.99
287.622	20212.23
287.69	20258.59
287.758	20325
287.825	20352.03
287.893	20343.84
287.96	20406.49
288.028	20470.73
288.096	20512.56
288.163	20550.15
288.231	20563.99
288.298	20595.07
288.366	20667.12
288.433	20699.61
288.501	20713.53
288.569	20759.99
288.636	20783.42
288.704	20860.14
288.771	20914.89
288.839	20928.34
288.906	20941.4
288.974	20993.12
289.041	21026.42
289.109	21039.58
289.176	21101.61
289.244	21143.69
289.311	21218.05
289.379	21288.57
289.446	21326.79
289.514	21367.86
289.581	21407.96
289.649	21452.68
289.716	21496.98
289.783	21506.57
289.851	21583.5
289.918	21631.89
289.986	21689.59
290.053	21737.88
290.121	21776.35
290.188	21815.69
290.255	21933.99
290.323	21963.87
290.39	21999.93
290.458	22062.21
290.525	22135.57
290.592	22155.82
290.66	22202.04
290.727	22231.26
290.794	22295.76
290.862	22332.26
290.929	22373.38
290.996	22404.76
291.064	22465.69
291.131	22531.07
291.198	22604.69
291.266	22637.28
291.333	22675.32
291.4	22727.24
291.468	22797.93
291.535	22820.4
291.602	22872.47
291.669	22873
291.737	22924.83
291.804	22964.66
291.871	23045.95
291.938	23097.69
292.006	23203.31
292.073	23268.55
292.14	23332.58
292.207	23350.57
292.275	23392.86
292.342	23450.34
292.409	23558.22
292.476	23659.12
292.543	23671.03
292.611	23707.21
292.678	23796.04
292.745	23909.77
292.812	23975.36
292.879	24006.48
292.946	24056.82
293.014	24126.96
293.081	24186.91
293.148	24257.32
293.215	24320.76
293.282	24337.2
293.349	24399.87
293.416	24376.85
293.484	24449.74
293.551	24511.39
293.618	24593.21
293.685	24698.72
293.752	24717.05
293.819	24746
293.886	24741.08
293.953	24797.81
294.02	24865.6
294.087	24908.98
294.154	24919.4
294.221	24988.51
294.288	25028.99
294.356	25105.37
294.423	25155.85
294.49	25188.57
294.557	25255.98
294.624	25284.16
294.691	25374.01
294.758	25418.85
294.825	25490.41
294.892	25517.1
294.959	25556.87
295.026	25606.34
295.093	25627.78
295.16	25681.05
295.226	25720.43
295.293	25831.71
295.36	25886.58
295.427	25964.99
295.494	26030.41
295.561	26096.06
295.628	26195.23
295.695	26270.1
295.762	26328.57
295.829	26398.69
295.896	26477.18
295.963	26540.64
296.03	26609.29
296.096	26666.61
296.163	26735.28
296.23	26814.14
296.297	26893.81
296.364	26935.43
296.431	26999.04
296.498	27032.89
296.564	27139.03
296.631	27205.44
296.698	27212.73
296.765	27304.98
296.832	27322.28
296.899	27340.05
296.965	27425.71
297.032	27410.39
297.099	27502.87
297.166	27563.21
297.233	27592.97
297.299	27612.63
297.366	27658.1
297.433	27705.83
297.5	27766.57
297.566	27816.25
297.633	27850.27
297.7	27897.81
297.767	27944.77
297.833	27995.8
297.9	28050.59
297.967	28053.1
298.033	28109.6
298.1	28217.25
298.167	28246.54
298.234	28297.23
298.3	28366.24
298.367	28385.58
298.434	28438.8
298.5	28454.65
298.567	28483.9
298.634	28522.28
298.7	28616.77
298.767	28669.9
298.834	28742.32
298.9	28773.75
298.967	28790.72
299.033	28852.94
299.1	28937.18
299.167	29014.24
299.233	29047.26
299.3	29131.83
299.366	29207.83
299.433	29289.43
299.5	29269.5
299.566	29321.53
299.633	29407.82
299.699	29484.19
299.766	29530.52
299.832	29587.11
299.899	29653.77
299.965	29723.76
300.032	29750.4
300.099	29801.53
300.165	29854.02
300.232	29891.08
300.298	29929.15
300.365	30023.67
300.431	30086.04
300.498	30099.83
300.564	30159.73
300.631	30224.89
300.697	30290.28
300.763	30335.46
300.83	30385.42
300.896	30471.73
300.963	30533.72
301.029	30577.53
301.096	30621.67
301.162	30689.91
301.229	30737.68
301.295	30743.29
301.361	30793.67
301.428	30842.29
301.494	30846.31
301.561	30885.42
301.627	30932.47
301.693	30983.72
301.76	31023.13
301.826	31049.75
301.892	31113.07
301.959	31170.98
302.025	31209.9
302.092	31221.52
302.158	31280.48
302.224	31310.8
302.291	31323.48
302.357	31343.77
302.423	31370.21
302.49	31385.95
302.556	31447.4
302.622	31478.59
302.688	31559.55
302.755	31639.23
302.821	31711.94
302.887	31788.97
302.954	31828.39
303.02	31874.59
303.086	31933.77
303.152	31951.01
303.219	31981.47
303.285	32036.99
303.351	32086.16
303.417	32127.04
303.483	32154.79
303.55	32170.82
303.616	32202.12
303.682	32243.04
303.748	32278.68
303.815	32349.42
303.881	32413.8
303.947	32412.83
304.013	32447.28
304.079	32455.37
304.145	32431.24
304.212	32477.31
304.278	32486.13
304.344	32516.41
304.41	32529.53
304.476	32546.15
304.542	32589.61
304.608	32638.06
304.674	32630.65
304.741	32652.16
304.807	32701.4
304.873	32756.88
304.939	32839.69
305.005	32827.14
305.071	32851.17
305.137	32887.36
305.203	32862.26
305.269	32884.79
305.335	32961.9
305.401	32999.56
305.467	33019.66
305.533	33089.45
305.599	33117.51
305.666	33174.55
305.732	33215.16
305.798	33273.71
305.864	33361.84
305.93	33404.25
305.996	33436.87
306.062	33472.68
306.128	33494.26
306.194	33495.08
306.259	33529.11
306.325	33531.29
306.391	33603.66
306.457	33675.1
306.523	33721.64
306.589	33820.97
306.655	33844.49
306.721	33824.71
306.787	33833.33
306.853	33911.97
306.919	33907.94
306.985	33930.83
307.051	33949.78
307.117	33965.49
307.183	33989.59
307.248	33957
307.314	34003.45
307.38	34039.87
307.446	34091.7
307.512	34104.36
307.578	34146.73
307.644	34160.94
307.709	34210.35
307.775	34224.46
307.841	34239.88
307.907	34269.6
307.973	34249.82
308.039	34276.87
308.104	34327.3
308.17	34371.33
308.236	34374.97
308.302	34398.48
308.368	34395.04
308.433	34436.01
308.499	34459.68
308.565	34471.51
308.631	34507.49
308.696	34470.2
308.762	34464.77
308.828	34490.77
308.894	34472.58
308.959	34448.49
309.025	34466.14
309.091	34483.21
309.156	34500.67
309.222	34536.91
309.288	34531.57
309.354	34507.76
309.419	34535.22
309.485	34525.47
309.551	34563.79
309.616	34552.29
309.682	34578.97
309.748	34598.56
309.813	34598.26
309.879	34602.34
309.945	34596.03
310.01	34617.08
310.076	34661.31
310.141	34676.69
310.207	34669.07
310.273	34719.89
310.338	34767.61
310.404	34749.56
310.469	34744.13
310.535	34746.22
310.601	34716.19
310.666	34761.55
310.732	34825.18
310.797	34826.44
310.863	34839.24
310.928	34837.4
310.994	34873.19
311.059	34899.92
311.125	34934.31
311.191	34989.71
311.256	34989.76
311.322	35035.07
311.387	35005.58
311.453	35749.3
311.518	35749.93
311.584	35768.9
311.649	35808.58
311.715	35802.62
311.78	35834.04
311.846	35839.57
311.911	35889.4
311.976	35925.88
312.042	35912.2
312.107	35894.05
312.173	35892.94
312.238	35923.93
312.304	35954.02
312.369	35966.58
312.434	35967.31
312.5	35978.37
312.565	35926.7
312.631	35976.23
312.696	35977.1
312.761	36020.66
312.827	35321.08
312.892	35425.46
312.958	35455.15
313.023	35473.84
313.088	35514.97
313.154	35517.11
313.219	35523.17
313.284	35509.92
313.35	35531.17
313.415	35542.48
313.48	35559.41
313.546	35604.48
313.611	35639.71
313.676	35635.78
313.741	35647.81
313.807	35695.42
313.872	35730.06
313.937	35777.07
314.003	35826.23
314.068	35855.93
314.133	35896.59
314.198	35890.81
314.264	35862.03
314.329	35849.56
314.394	35874.51
314.459	35888.24
314.525	35966.75
314.59	35986.2
314.655	36003.38
314.72	36039.1
314.785	36069.18
314.851	36084.66
314.916	36066.17
314.981	36050.64
315.046	36056.42
315.111	36042.4
315.176	36036.52
315.242	36061.37
315.307	36078.7
315.372	36056.9
315.437	36065.79
315.502	36073.84
315.567	36125.43
315.632	36112.67
315.698	36152.46
315.763	36152.03
315.828	36161.25
315.893	36153.53
315.958	36161.87
316.023	36155.47
316.088	36126.06
316.153	36082.39
316.218	36071.91
316.283	36036.35
316.348	36006.17
316.413	35998.31
316.479	35971.78
316.544	35880.33
316.609	35798.62
316.674	35700.58
316.739	35605.06
316.804	35512.55
316.869	35403.16
316.934	35289.04
316.999	35183.1
317.064	35032.93
317.129	34905.1
317.194	34781.47
317.259	34641.63
317.324	34472.51
317.389	34320.93
317.454	34188.39
317.518	34081.38
317.583	33987.79
317.648	33887.19
317.713	33761.48
317.778	33573.57
317.843	33461.74
317.908	33333.41
317.973	33199.2
318.038	33094.67
318.103	32958.03
318.168	32839.93
318.233	32706.35
318.297	32532.81
318.362	32398.71
318.427	32243.79
318.492	32124.84
318.557	31955.98
318.622	31831.68
318.687	31735.72
318.751	31587.3
318.816	31441.83
318.881	31285.12
318.946	31091.64
319.011	30915.49
319.075	30746.04
319.14	30599.37
319.205	30419
319.27	30286.13
319.335	30100
319.399	29926.46
319.464	29784
319.529	29569.93
319.594	29418.43
319.658	29282.59
319.723	29107.68
319.788	28973.13
319.853	28758.29
319.917	28606.38
319.982	28400.48
320.047	28222.6
320.112	28077.77
320.176	27875.05
320.241	27708.4
320.306	27548.95
320.37	27382.57
320.435	27217.27
320.5	27074.82
320.564	26895.79
320.629	26684.42
320.694	26526.96
320.758	26345.85
320.823	26146.79
320.888	26005.85
320.952	25802.22
321.017	25601.66
321.082	25420.05
321.146	25241.57
321.211	25065.11
321.275	24877.23
321.34	24679.38
321.405	24482.31
321.469	24284.42
321.534	24101.57
321.598	23894.94
321.663	23721.09
321.727	23547.89
321.792	23341.97
321.857	23135.89
321.921	22959.74
321.986	22766.37
322.05	22536.63
322.115	22347.16
322.179	22149.6
322.244	21917.15
322.308	21735.66
322.373	21530.94
322.437	21327.34
322.502	21171.58
322.566	20973.2
322.631	20790.05
322.695	20594.38
322.76	20393.26
322.824	20211.23
322.889	20007.27
322.953	19800.53
323.018	19551.94
323.082	19291.02
323.146	19066.54
323.211	18834.01
323.275	18622.98
323.34	18421.06
323.404	18239.52
323.468	18027.86
323.533	17829.11
323.597	17610.16
323.662	17378.73
323.726	17189.14
323.79	16973.51
323.855	16709.55
323.919	16493.78
323.983	16277.43
324.048	15969.43
324.112	16024.46
324.177	15368.34
324.241	14522.77
324.305	13695.05
324.37	12876.44
324.434	12089.06
324.498	11869.07
324.562	11621.29
324.627	11331.8
324.691	11048.63
324.755	10727.46
324.82	10371.3
324.884	9983.78
324.948	9612.1
325.012	9147.67
325.077	8579.58
