Data from 20250626_urea_1M_exp2_MAYP1162681_09-43-58-801.txt Node
Date: Fri Jun 27 09:43:58 BST 2025
User: adleo
Spectrometer: MAYP116268
Trigger mode: 0
Integration Time (sec): 3.000000E0
Scans to average: 1
Electric dark correction enabled: true
Nonlinearity correction enabled: true
Boxcar width: 10
XAxis mode: Wavelengths
Number of Pixels in Spectrum: 2068
>>>>>Begin Spectral Data<<<<<
179.565	3091.73
179.642	3251.68
179.718	3372.02
179.795	3492.7
179.871	3586.89
179.948	3640.67
180.024	3702.54
180.101	3765.74
180.177	3805.74
180.254	3868.02
180.33	3930.89
180.407	4145.22
180.483	4388.79
180.56	4634.12
180.636	4859.54
180.712	4835.77
180.789	4855.84
180.865	4891.25
180.942	4921.6
181.018	4950.86
181.095	4992.16
181.171	5003.66
181.248	5007.63
181.324	5049.8
181.4	5063.07
181.477	5090.04
181.553	5128.58
181.63	5183.93
181.706	5228.44
181.782	5260.95
181.859	5269.72
181.935	5287.74
182.011	5280.7
182.088	5319.04
182.164	5369.39
182.24	5403.06
182.317	5420.74
182.393	5415.08
182.469	5453.32
182.546	5490.9
182.622	5505.43
182.698	5490.66
182.775	5528.62
182.851	5564.67
182.927	5547.65
183.003	5533.71
183.08	5521.01
183.156	5542.15
183.232	5534.05
183.308	5502.89
183.385	5514.97
183.461	5555.91
183.537	5554.62
183.613	5585.69
183.69	5563.35
183.766	5534.04
183.842	5558.49
183.918	5578.48
183.995	5614.63
184.071	5624.55
184.147	5603.98
184.223	5570.73
184.299	5601.81
184.375	5567.39
184.452	5585.48
184.528	5693.98
184.604	5724.89
184.68	5756.53
184.756	5779.36
184.832	5790.49
184.908	5809.61
184.985	5810.14
185.061	5765.69
185.137	5793.8
185.213	5764.46
185.289	5771.6
185.365	5754.25
185.441	5743.94
185.517	5776.76
185.593	5765.01
185.669	5756.47
185.745	5788.89
185.822	5831.2
185.898	5805.88
185.974	5832.1
186.05	5809.31
186.126	5742.92
186.202	5720.25
186.278	5712.91
186.354	5684.7
186.43	5703.94
186.506	5693.74
186.582	5693.64
186.658	5715.25
186.734	5655.67
186.81	5660.85
186.886	5666.6
186.962	5700.3
187.038	5691.39
187.114	5668.83
187.19	5692.57
187.266	5669.18
187.341	5666.83
187.417	5646.5
187.493	5649.38
187.569	5660.55
187.645	5643.01
187.721	5606.51
187.797	5632.92
187.873	5642.13
187.949	5623.77
188.025	5604.34
188.101	5616.08
188.176	5628.21
188.252	5614.07
188.328	5641.19
188.404	5640.76
188.48	5629.49
188.556	5608.05
188.632	5611.22
188.707	5611.36
188.783	5607.48
188.859	5593.92
188.935	5567.78
189.011	5593.1
189.086	5578.38
189.162	5553.21
189.238	5552.06
189.314	5549.61
189.39	5536.62
189.465	5517.72
189.541	5565.05
189.617	5525.31
189.693	5509.74
189.768	5524.03
189.844	5590.14
189.92	5565.85
189.996	5588.96
190.071	5618.11
190.147	5618.3
190.223	5639.55
190.298	5624.68
190.374	5584.55
190.45	5619.97
190.526	5639.1
190.601	5621.94
190.677	5626.11
190.753	5706.69
190.828	5716.95
190.904	5758.91
190.98	5794.65
191.055	5817.91
191.131	5797.86
191.207	5851.51
191.282	5877.54
191.358	5847.47
191.433	5807.78
191.509	5844.53
191.585	5837.87
191.66	5846.26
191.736	5871.11
191.811	5843.82
191.887	5889.02
191.963	5954.88
192.038	5964.66
192.114	5967.35
192.189	5982.31
192.265	5972.15
192.34	5911.08
192.416	5909.55
192.491	5897.79
192.567	5907.77
192.642	5920.64
192.718	5917.85
192.793	5885.67
192.869	5872.24
192.944	5877.47
193.02	5900.64
193.095	5906.78
193.171	5919.16
193.246	5914.07
193.322	5902.85
193.397	5910.66
193.473	5870.73
193.548	5820.79
193.624	5838.68
193.699	5832.21
193.775	5873.19
193.85	5879.18
193.925	5897.22
194.001	5890.47
194.076	5867.01
194.152	5836.21
194.227	5813.27
194.302	5789.31
194.378	5801.82
194.453	5794.49
194.529	5825.13
194.604	5778.18
194.679	5766.96
194.755	5720.12
194.83	5751.04
194.905	5744.99
194.981	5766.44
195.056	5742.56
195.131	5760.5
195.207	5751.91
195.282	5723.24
195.357	5670.12
195.433	5714.29
195.508	5681.67
195.583	5707.66
195.659	5750.89
195.734	5771.86
195.809	5769.7
195.884	5794.82
195.96	5795.01
196.035	5840.81
196.11	5836.59
196.185	5871.12
196.261	5875.24
196.336	5960.09
196.411	5914.79
196.486	5926.35
196.561	5903.51
196.637	5937.32
196.712	5975.43
196.787	5983.35
196.862	6031.73
196.937	6056.19
197.013	6068.39
197.088	6092.65
197.163	6145.66
197.238	6189.14
197.313	6187.89
197.388	6230.45
197.464	6312.42
197.539	6344.52
197.614	6321.59
197.689	6346.84
197.764	6398.32
197.839	6460.09
197.914	6444.25
197.989	6512.37
198.065	6546.3
198.14	6687.65
198.215	6755.03
198.29	6789.43
198.365	6827.04
198.44	6858.2
198.515	6936.45
198.59	6979.3
198.665	7053.18
198.74	7078.17
198.815	7077.26
198.89	7134.75
198.965	7216.81
199.04	7203.69
199.115	7245.39
199.19	7366.61
199.265	7381.26
199.34	7400.39
199.415	7490.86
199.49	7550.48
199.565	7574.66
199.64	7647.39
199.715	7638.29
199.79	7652.72
199.865	7666.56
199.94	7666.03
200.015	7750.24
200.09	7766.92
200.165	7783.37
200.24	7796.78
200.315	7900.11
200.39	7950.66
200.464	7967.97
200.539	7964.79
200.614	8009.31
200.689	8073.43
200.764	8083.39
200.839	8127.95
200.914	8143.77
200.989	8107.77
201.063	8145.92
201.138	8094.99
201.213	8097.15
201.288	8046.99
201.363	8061.23
201.438	8063.53
201.512	8104.54
201.587	8053.36
201.662	8063.36
201.737	8098.05
201.812	8131.97
201.886	8041.96
201.961	8065.78
202.036	8037.75
202.111	8026.93
202.186	7946.77
202.26	7898.08
202.335	7835.27
202.41	7824.21
202.485	7774.07
202.559	7725.71
202.634	7654.35
202.709	7686.58
202.784	7627.35
202.858	7629.56
202.933	7578.56
203.008	7560.09
203.082	7507.56
203.157	7511.55
203.232	7393.51
203.306	7328.68
203.381	7232.1
203.456	7174.33
203.53	7103.66
203.605	7046.71
203.68	6987.3
203.754	6971.79
203.829	6932.53
203.904	6882.92
203.978	6846.06
204.053	6865.66
204.127	6832.04
204.202	6818.97
204.277	6771.86
204.351	6758.31
204.426	6733.95
204.5	6713.49
204.575	6619.02
204.65	6645.98
204.724	6616.27
204.799	6642.47
204.873	6633.58
204.948	6634.88
205.022	6601.85
205.097	6582.2
205.171	6619.93
205.246	6642.9
205.32	6639.25
205.395	6633.92
205.469	6612.48
205.544	6630.44
205.618	6581.5
205.693	6608.3
205.767	6582.9
205.842	6632.33
205.916	6611.78
205.991	6587.38
206.065	6601.6
206.14	6645.92
206.214	6632.41
206.289	6609.5
206.363	6637.21
206.438	6646.1
206.512	6666.18
206.586	6716.25
206.661	6741.05
206.735	6682.74
206.81	6684.62
206.884	6723.94
206.958	6687.74
207.033	6727.29
207.107	6743.39
207.181	6827.53
207.256	6817.82
207.33	6868.2
207.405	6906
207.479	6955.56
207.553	6974.87
207.628	6928.98
207.702	6961.44
207.776	6943.43
207.851	6959.28
207.925	7003.74
207.999	6990.34
208.073	6978.57
208.148	6984.52
208.222	6949.68
208.296	7037.74
208.371	7077.6
208.445	7102.97
208.519	7184.44
208.593	7219.03
208.668	7209.51
208.742	7216.1
208.816	7222.25
208.89	7255.13
208.965	7251.14
209.039	7276.81
209.113	7322.66
209.187	7382.91
209.261	7373.74
209.336	7428.39
209.41	7483.67
209.484	7482.37
209.558	7544.48
209.632	7582.78
209.707	7611.57
209.781	7675.17
209.855	7718.7
209.929	7770.78
210.003	7791.79
210.077	7790.68
210.151	7921.87
210.226	8013.67
210.3	8082.5
210.374	8142.6
210.448	8154.53
210.522	8179.93
210.596	8206.87
210.67	8231.93
210.744	8360.83
210.818	8444.74
210.892	8500.65
210.966	8482.33
211.041	8522.84
211.115	8515.14
211.189	8577.78
211.263	8624.59
211.337	8637.68
211.411	8675.56
211.485	8652.5
211.559	8684.05
211.633	8692.18
211.707	8612.88
211.781	8630.02
211.855	8539.69
211.929	8513.43
212.003	8468.14
212.077	8496.1
212.151	8529.03
212.225	8552.75
212.299	8520.1
212.373	8493.97
212.447	8479.29
212.52	8558.45
212.594	8566.54
212.668	8598.34
212.742	8561.67
212.816	8548.01
212.89	8529
212.964	8516.24
213.038	8525.44
213.112	8555.86
213.186	8595.31
213.26	8536.26
213.333	8409.54
213.407	8418.14
213.481	8427.14
213.555	8453.87
213.629	8419.07
213.703	8368.2
213.777	8359.25
213.85	8297.46
213.924	8375.29
213.998	8372.17
214.072	8348.82
214.146	8309.36
214.219	8296.17
214.293	8281.7
214.367	8281.55
214.441	8307.97
214.515	8269.9
214.588	8195.48
214.662	8090
214.736	8020.45
214.81	8030.21
214.883	8051.98
214.957	8014.96
215.031	7971.03
215.105	7897.67
215.178	7845.83
215.252	7816.21
215.326	7739.32
215.4	7676.94
215.473	7537.05
215.547	7464.33
215.621	7413.72
215.694	7407.99
215.768	7328.91
215.842	7277.92
215.915	7221.7
215.989	7127.61
216.063	7086.89
216.136	7073.48
216.21	7063.63
216.284	7078.29
216.357	7058.64
216.431	7025.68
216.504	7021.21
216.578	7065.33
216.652	7078.34
216.725	7063.97
216.799	7070.75
216.873	7054.23
216.946	7060.18
217.02	7032.05
217.093	7011.58
217.167	6931.55
217.24	6866.53
217.314	6834.85
217.387	6800.71
217.461	6762.19
217.535	6783.85
217.608	6731.8
217.682	6709.84
217.755	6716.37
217.829	6667.03
217.902	6653.63
217.976	6634.43
218.049	6594.52
218.123	6531.24
218.196	6523.75
218.27	6486.1
218.343	6428.45
218.417	6426.87
218.49	6406.42
218.563	6442.19
218.637	6448.86
218.71	6510.15
218.784	6529.84
218.857	6556.67
218.931	6569.05
219.004	6574.53
219.077	6587.74
219.151	6606.17
219.224	6599.45
219.298	6595.75
219.371	6630.63
219.444	6600
219.518	6607.3
219.591	6622.61
219.665	6711.05
219.738	6723.25
219.811	6713.84
219.885	6753.8
219.958	6781.47
220.031	6785.41
220.105	6797.37
220.178	6802.37
220.251	6776.08
220.325	6801.5
220.398	6813.89
220.471	6835.12
220.544	6869.66
220.618	6845.78
220.691	6869.74
220.764	6886.79
220.838	6909.71
220.911	6899.96
220.984	6968.64
221.057	7004.23
221.131	7022.48
221.204	6942.59
221.277	7005.69
221.35	7109.14
221.424	7103.42
221.497	7112.6
221.57	7136.22
221.643	7166.8
221.716	7201.6
221.79	7208.75
221.863	7209.09
221.936	7221.1
222.009	7230.56
222.082	7249.79
222.155	7261.47
222.229	7311.18
222.302	7332.22
222.375	7334.44
222.448	7366.06
222.521	7369.67
222.594	7363.95
222.667	7344.55
222.74	7388.95
222.814	7372.5
222.887	7356.58
222.96	7394.84
223.033	7429.71
223.106	7446.62
223.179	7468.55
223.252	7473.31
223.325	7495.13
223.398	7507.87
223.471	7530.08
223.544	7543.05
223.617	7553.15
223.69	7573.24
223.763	7540.25
223.837	7560.93
223.91	7583.57
223.983	7546.32
224.056	7518.3
224.129	7535.32
224.202	7577.02
224.275	7563.84
224.348	7543.8
224.42	7517.16
224.493	7476.31
224.566	7457.26
224.639	7473.36
224.712	7446.09
224.785	7441.47
224.858	7433.54
224.931	7412.77
225.004	7373.18
225.077	7375.1
225.15	7300.04
225.223	7293.65
225.296	7363.21
225.369	7317.74
225.442	7288.27
225.514	7299.23
225.587	7313.21
225.66	7317.1
225.733	7322.92
225.806	7331.72
225.879	7323.89
225.952	7296.69
226.025	7333.9
226.097	7371.13
226.17	7367.43
226.243	7315.29
226.316	7308.89
226.389	7312.16
226.461	7336.35
226.534	7357.29
226.607	7348.98
226.68	7416.2
226.753	7413.79
226.825	7347.55
226.898	7388.11
226.971	7395.32
227.044	7416.66
227.117	7424.35
227.189	7449.89
227.262	7481.34
227.335	7494.23
227.407	7491.82
227.48	7518.01
227.553	7522.87
227.626	7504.44
227.698	7507.42
227.771	7542.35
227.844	7528.07
227.916	7545.91
227.989	7518.12
228.062	7520.66
228.134	7593.76
228.207	7595.11
228.28	7587.51
228.352	7590.74
228.425	7601.6
228.498	7640.02
228.57	7621.28
228.643	7668.46
228.716	7662.73
228.788	7652.54
228.861	7652.54
228.934	7705.71
229.006	7710.75
229.079	7715.03
229.151	7705.94
229.224	7679.66
229.296	7700.71
229.369	7787.31
229.442	7825.45
229.514	7811.52
229.587	7845.13
229.659	7781.26
229.732	7789.77
229.804	7828.33
229.877	7895.73
229.949	7915.69
230.022	7958.81
230.094	7964
230.167	7955.05
230.239	7923.7
230.312	7904.37
230.384	7960.47
230.457	7953.21
230.529	7965.66
230.602	7963.16
230.674	7975.67
230.747	8010.7
230.819	8029.32
230.892	7929.66
230.964	7923.21
231.037	7946.51
231.109	7941.51
231.181	7974.54
231.254	7950.65
231.326	7940.98
231.399	7920.33
231.471	7899.07
231.544	7827.05
231.616	7860.75
231.688	7864.89
231.761	7849.08
231.833	7846.2
231.905	7773.36
231.978	7778.94
232.05	7765.43
232.122	7763.75
232.195	7743.45
232.267	7766.68
232.339	7746.24
232.412	7797.25
232.484	7778.92
232.556	7754.07
232.629	7813.36
232.701	7825.63
232.773	7832.79
232.846	7824.18
232.918	7826.68
232.99	7841.16
233.062	7879.16
233.135	7881.51
233.207	7853.04
233.279	7891.83
233.351	7918.18
233.424	7926.59
233.496	7905.82
233.568	7973.69
233.64	7950.27
233.713	7962.15
233.785	7964.85
233.857	7979.03
233.929	7942.97
234.001	8005.97
234.074	8066.21
234.146	8003.08
234.218	8001.3
234.29	8004.81
234.362	7992.36
234.434	7951.13
234.507	7923.67
234.579	7881.69
234.651	7870.67
234.723	7891.59
234.795	7907.08
234.867	7899.72
234.939	7940.42
235.012	7954.17
235.084	7954.65
235.156	7989.71
235.228	7973.45
235.3	7957.05
235.372	7967.1
235.444	8016.25
235.516	7942.72
235.588	7945.27
235.66	7957.63
235.732	7936.42
235.804	8088.51
235.876	8124.04
235.948	8178.74
236.02	8191.05
236.092	8211.63
236.164	8219.04
236.236	8218.32
236.308	8215.91
236.38	8244.49
236.452	8232.6
236.524	8251.17
236.596	8302.6
236.668	8329.5
236.74	8348.54
236.812	8370.43
236.884	8399.35
236.956	8408.01
237.028	8407.91
237.1	8391.13
237.172	8447.87
237.244	8513.16
237.316	8422.9
237.388	8410.1
237.46	8390.95
237.532	8446.33
237.604	8434.41
237.675	8491.82
237.747	8534.46
237.819	8524.55
237.891	8523.06
237.963	8518.59
238.035	8508.58
238.107	8421.93
238.178	8470.99
238.25	8478.69
238.322	8554.8
238.394	8517.9
238.466	8510.49
238.538	8541.47
238.609	8578.46
238.681	8537.12
238.753	8518.34
238.825	8532.35
238.897	8554.38
238.968	8626.65
239.04	8609.23
239.112	8700.61
239.184	8678.37
239.255	8672.98
239.327	8700.45
239.399	8719.7
239.471	8755.21
239.542	8788.03
239.614	8839.19
239.686	8771.31
239.758	8809.47
239.829	8782.02
239.901	8833.08
239.973	8851.56
240.044	8878.75
240.116	8882.7
240.188	8897.19
240.259	8907.15
240.331	8902.58
240.403	8933.66
240.474	8896.92
240.546	8883.64
240.618	8834.05
240.689	8827.94
240.761	8846.86
240.833	8901.16
240.904	8897.51
240.976	8895.44
241.048	8912
241.119	8944.41
241.191	8981.9
241.262	9046.24
241.334	9047.78
241.405	9050.43
241.477	9050.19
241.549	9056.5
241.62	9081.39
241.692	9119.51
241.763	9162.42
241.835	9173.06
241.906	9192.22
241.978	9163.58
242.049	9221.97
242.121	9269.05
242.192	9322.59
242.264	9289.38
242.335	9251.15
242.407	9289.95
242.478	9296.69
242.55	9309.79
242.621	9293.61
242.693	9290.81
242.764	9278.63
242.836	9281.47
242.907	9308.96
242.979	9339.78
243.05	9364.82
243.122	9385.47
243.193	9380.08
243.264	9322.5
243.336	9327.6
243.407	9353.32
243.479	9413.94
243.55	9425.64
243.622	9440.33
243.693	9443.94
243.764	9509.43
243.836	9490.61
243.907	9481.31
243.978	9484.06
244.05	9503.08
244.121	9471.4
244.192	9504.24
244.264	9462.73
244.335	9471.2
244.407	9432.34
244.478	9440.53
244.549	9426.42
244.62	9391.99
244.692	9390.21
244.763	9434.02
244.834	9420.97
244.906	9398.48
244.977	9417.17
245.048	9459.81
245.119	9442.52
245.191	9417.81
245.262	9360.94
245.333	9425.74
245.405	9441.97
245.476	9468.12
245.547	9482.13
245.618	9520.51
245.689	9533.47
245.761	9558.7
245.832	9561.11
245.903	9594.72
245.974	9621.93
246.045	9637.1
246.117	9707.32
246.188	9691.19
246.259	9680.6
246.33	9708.48
246.401	9722.64
246.473	9696.63
246.544	9689.79
246.615	9733.09
246.686	9740.12
246.757	9800.75
246.828	9781.87
246.899	9838.91
246.97	9812.76
247.042	9806.84
247.113	9840.65
247.184	9910.04
247.255	9911.1
247.326	9934.27
247.397	9947.95
247.468	9954.31
247.539	9963.79
247.61	9921.21
247.681	9957.57
247.752	10000.91
247.823	9969.76
247.894	9985.56
247.965	9965.76
248.037	9949.43
248.108	9905.55
248.179	9913.3
248.25	9908.97
248.321	9936.9
248.392	9894.89
248.463	9965.93
248.534	9961.55
248.605	9981.54
248.675	9965.49
248.746	9986.83
248.817	9997.14
248.888	10006.05
248.959	9956.06
249.03	9969.98
249.101	9981.01
249.172	9970.08
249.243	9909.21
249.314	9965.17
249.385	9968.5
249.456	9992.38
249.527	9987.76
249.598	10013.67
249.669	10015.59
249.739	10020.27
249.81	10024.51
249.881	9992.86
249.952	9982.94
250.023	9986.7
250.094	9943.48
250.165	9907.15
250.235	9895.2
250.306	9902.43
250.377	9875.99
250.448	9905.31
250.519	9856.96
250.59	9896.7
250.66	9900.61
250.731	9957.43
250.802	9958.35
250.873	9970
250.944	9983.06
251.014	9976.8
251.085	10043.48
251.156	10060.87
251.227	10104.91
251.297	10151.55
251.368	10191.04
251.439	10225.25
251.51	10266.25
251.58	10251.61
251.651	10254.7
251.722	10304.56
251.792	10263.71
251.863	10270.94
251.934	10317.96
252.005	10412.18
252.075	10423.51
252.146	10464.89
252.217	10501.89
252.287	10530.51
252.358	10535.62
252.429	10596.86
252.499	10592.53
252.57	10600
252.641	10637.82
252.711	10643.02
252.782	10606.93
252.852	10676.47
252.923	10675.5
252.994	10689.77
253.064	10734.66
253.135	10718.19
253.205	10696.02
253.276	10761.06
253.347	10814.34
253.417	10797.19
253.488	10780.03
253.558	10774.11
253.629	10763.89
253.699	10779.99
253.77	10807.27
253.841	10807.94
253.911	10817.19
253.982	10827.07
254.052	10855.6
254.123	10858.01
254.193	10861.63
254.264	10971.17
254.334	10939.8
254.405	10915.95
254.475	10878.17
254.546	10884.53
254.616	10934.49
254.687	10960.42
254.757	10967.74
254.827	10963.65
254.898	10981.48
254.968	10989.76
255.039	10969.53
255.109	11002.63
255.18	10971.16
255.25	10910.78
255.321	10936.95
255.391	10900.95
255.461	10970.24
255.532	10899.59
255.602	10901.42
255.673	10855.31
255.743	10821.32
255.813	10766.5
255.884	10805.24
255.954	10836.66
256.024	10889.09
256.095	10893.33
256.165	10862.92
256.235	10890.2
256.306	10878.4
256.376	10917.43
256.446	10945.39
256.517	10979.69
256.587	11023.21
256.657	11045.04
256.728	11060.89
256.798	11062.53
256.868	11063.83
256.938	11047.01
257.009	11091.35
257.079	11121.52
257.149	11203.34
257.219	11156.93
257.29	11181.69
257.36	11129.61
257.43	11166.62
257.5	11109.51
257.571	11102.86
257.641	11137.07
257.711	11104.54
257.781	11128.01
257.852	11146.47
257.922	11098.52
257.992	11097.22
258.062	11089.84
258.132	11126.62
258.202	11139.19
258.273	11151.82
258.343	11219.63
258.413	11200.45
258.483	11200.45
258.553	11175.87
258.623	11153.27
258.693	11179.53
258.764	11238.81
258.834	11301.31
258.904	11306.37
258.974	11300.78
259.044	11309.55
259.114	11336.59
259.184	11372.88
259.254	11387.63
259.324	11338.13
259.394	11377.55
259.464	11442.61
259.535	11446.81
259.605	11438.42
259.675	11427.82
259.745	11460.55
259.815	11429.12
259.885	11439.53
259.955	11532.8
260.025	11525.91
260.095	11536.32
260.165	11556.95
260.235	11610.65
260.305	11603.32
260.375	11591.13
260.445	11663.46
260.515	11719.81
260.585	11751.57
260.655	11749.26
260.725	11784.25
260.795	11813.65
260.865	11870.29
260.934	11843.25
261.004	11864.84
261.074	11868.12
261.144	11923.54
261.214	11945.86
261.284	11947.11
261.354	11973.47
261.424	11938.04
261.494	11988.31
261.564	11991.59
261.634	12012.75
261.703	11953.99
261.773	11968.21
261.843	11992.84
261.913	11990.91
261.983	11940.97
262.053	11961.41
262.123	11951.68
262.192	11916.11
262.262	11956.88
262.332	11920.06
262.402	11946.76
262.472	11958.81
262.541	11908.64
262.611	11942.19
262.681	11925.18
262.751	11956.89
262.821	11962.48
262.89	11933.71
262.96	11961.76
263.03	12025.58
263.1	12046.26
263.169	12058.36
263.239	12085.59
263.309	12145.8
263.379	12171.11
263.448	12188.7
263.518	12209.43
263.588	12236.08
263.657	12299.42
263.727	12327.47
263.797	12334.03
263.867	12336.63
263.936	12302.75
264.006	12356.05
264.076	12349.25
264.145	12345.83
264.215	12335.56
264.285	12371.04
264.354	12337.83
264.424	12327.66
264.494	12285.72
264.563	12282.68
264.633	12351.9
264.702	12372.53
264.772	12319.75
264.842	12316.57
264.911	12343.95
264.981	12306.35
265.05	12312.61
265.12	12306.63
265.19	12307.74
265.259	12354.31
265.329	12375.76
265.398	12394.89
265.468	12479.98
265.537	12477.37
265.607	12504.17
265.676	12545.92
265.746	12555.46
265.815	12599.52
265.885	12600.15
265.955	12591.81
266.024	12594.22
266.094	12544.9
266.163	12599.18
266.232	12653.51
266.302	12659.78
266.371	12684.41
266.441	12703.88
266.51	12740.33
266.58	12740.18
266.649	12736.62
266.719	12769.3
266.788	12797.69
266.858	12850.33
266.927	12797.4
266.996	12824.21
267.066	12852.6
267.135	12828.69
267.205	12865.71
267.274	12886.78
267.343	12933.34
267.413	12946.26
267.482	12992.44
267.552	13045.47
267.621	13001.12
267.69	12962.7
267.76	12984.97
267.829	13001.84
267.898	13019
267.968	13009.65
268.037	13050.53
268.106	13089.38
268.176	13066.68
268.245	13077.43
268.314	13077.57
268.384	13121.2
268.453	13131.08
268.522	13149.74
268.592	13204.74
268.661	13190.81
268.73	13217.76
268.799	13206.86
268.869	13276.04
268.938	13229.95
269.007	13223.4
269.076	13241.86
269.146	13289.68
269.215	13317.64
269.284	13371.78
269.353	13368.55
269.422	13369.75
269.492	13357.55
269.561	13292.43
269.63	13313.49
269.699	13311.71
269.768	13328.97
269.838	13346.9
269.907	13379.15
269.976	13364.11
270.045	13319.33
270.114	13355.24
270.183	13361.32
270.253	13390.91
270.322	13350.42
270.391	13384.94
270.46	13435.65
270.529	13478.65
270.598	13516.15
270.667	13518.03
270.736	13493.35
270.806	13519.53
270.875	13567.4
270.944	13577.62
271.013	13683.38
271.082	13717.46
271.151	13738.96
271.22	13705.41
271.289	13713.37
271.358	13724.02
271.427	13748.27
271.496	13771.17
271.565	13770.39
271.634	13779.7
271.703	13873.31
271.772	13927.21
271.841	13935.02
271.91	13912.36
271.979	13924.02
272.048	13894.52
272.117	13932.41
272.186	13937.52
272.255	13987.13
272.324	14020.29
272.393	14055
272.462	14042.18
272.531	14054.47
272.6	14068.45
272.669	14128.27
272.738	14139.41
272.807	14167.08
272.876	14155.99
272.945	14268.79
273.013	14319.26
273.082	14375.42
273.151	14305.09
273.22	14337.82
273.289	14361.16
273.358	14424.83
273.427	14437.03
273.496	14478.1
273.564	14509.82
273.633	14557.74
273.702	14533.78
273.771	14547.47
273.84	14572.01
273.909	14612.4
273.977	14648.46
274.046	14653.71
274.115	14709.48
274.184	14706.69
274.253	14722.16
274.322	14783.43
274.39	14736
274.459	14728.86
274.528	14695.31
274.597	14719.03
274.665	14734.5
274.734	14785.17
274.803	14791.05
274.872	14802.76
274.94	14800.5
275.009	14986.48
275.078	14976.16
275.147	15017.28
275.215	15032.71
275.284	15085.54
275.353	15085.92
275.421	15055.17
275.49	15134.85
275.559	15129.02
275.627	15145.89
275.696	15166.47
275.765	15201.32
275.833	15215.01
275.902	15254.92
275.971	15324.96
276.039	15394.32
276.108	15445.95
276.177	15480.51
276.245	15493.38
276.314	15517.14
276.383	15568.38
276.451	15434.69
276.52	15492.92
276.588	15554.23
276.657	15606.29
276.725	15609.47
276.794	15646.78
276.863	15715.51
276.931	15690.01
277	15750.41
277.068	15810.66
277.137	15886.38
277.205	15912.79
277.274	15996.04
277.342	16045.01
277.411	16028.23
277.48	16028.96
277.548	16030.16
277.617	16062.02
277.685	16080.29
277.754	16132.44
277.822	16151.86
277.89	16217.65
277.959	16227.43
278.027	16214.23
278.096	16221.99
278.164	16335.15
278.233	16349.99
278.301	16353.51
278.37	16404.8
278.438	16403.25
278.507	16441.86
278.575	16404.89
278.643	16434.25
278.712	16415.83
278.78	16412.6
278.849	16474.15
278.917	16536.42
278.985	16563.41
279.054	16597.73
279.122	16668.09
279.191	16694.89
279.259	16716.15
279.327	16692.44
279.396	16775.72
279.464	16800.1
279.532	16853.55
279.601	16867.09
279.669	16895.96
279.737	16974.62
279.806	17018.09
279.874	17083.05
279.942	17123.2
280.011	17156.12
280.079	17215.88
280.147	17296.6
280.215	17348.55
280.284	17373.37
280.352	17379.83
280.42	17436.22
280.488	17462.53
280.557	17485.86
280.625	17532.8
280.693	17571.4
280.761	17617.62
280.83	17597.57
280.898	17664.56
280.966	17641.71
281.034	17593.71
281.102	17590.58
281.171	17599.45
281.239	17646.19
281.307	17647.83
281.375	17652.03
281.443	17751.3
281.512	17768.65
281.58	17824.65
281.648	17817.85
281.716	17856.84
281.784	17885.32
281.852	17900.6
281.92	17924.4
281.989	17978.14
282.057	17968.79
282.125	18087.05
282.193	18114.47
282.261	18159.86
282.329	18178.37
282.397	18232.25
282.465	18278.99
282.533	18359.42
282.601	18365.21
282.67	18344.68
282.738	18365.26
282.806	18431.33
282.874	18436
282.942	18468.82
283.01	18485.97
283.078	18542.84
283.146	18567.13
283.214	18624.91
283.282	18666.4
283.35	18734.92
283.418	18751.31
283.486	18795.64
283.554	18754.3
283.622	18787.84
283.69	18817.67
283.758	18842.92
283.826	18898.48
283.894	18959.92
283.962	19043.72
284.03	19133.74
284.098	19184.87
284.165	19207.19
284.233	19245.93
284.301	19258.99
284.369	19275.23
284.437	19288.96
284.505	19316.09
284.573	19381.92
284.641	19385.82
284.709	19444.04
284.777	19433.1
284.845	19489.63
284.912	19545.34
284.98	19592.37
285.048	19614.63
285.116	19663.45
285.184	19742.24
285.252	19774.53
285.319	19767.11
285.387	19783.73
285.455	19769.47
285.523	19820.79
285.591	19846.19
285.659	19885.03
285.726	19962.96
285.794	19972.69
285.862	20006.81
285.93	20038.57
285.997	20069.22
286.065	20105.17
286.133	20119
286.201	20154.42
286.269	20149.94
286.336	20159.29
286.404	20186.08
286.472	20247.77
286.539	20224.35
286.607	20201.65
286.675	20239.43
286.743	20302.28
286.81	20324.4
286.878	20388.16
286.946	20400.4
287.013	20454.18
287.081	20486.18
287.149	20476.3
287.216	20565.7
287.284	20581.99
287.352	20626.33
287.419	20653.7
287.487	20728.07
287.555	20773.61
287.622	20804.5
287.69	20859.93
287.758	20930.54
287.825	20950.49
287.893	20957.81
287.96	21018.78
288.028	21100.13
288.096	21147.71
288.163	21185.54
288.231	21188.96
288.298	21225.79
288.366	21295.63
288.433	21326.28
288.501	21335.44
288.569	21381.32
288.636	21396.74
288.704	21468.51
288.771	21516.18
288.839	21534.69
288.906	21543.8
288.974	21604.93
289.041	21639.77
289.109	21650.28
289.176	21708.27
289.244	21760.33
289.311	21834.47
289.379	21887.58
289.446	21929.09
289.514	21953.72
289.581	21995.95
289.649	22035.28
289.716	22075.1
289.783	22087.01
289.851	22170.98
289.918	22211.71
289.986	22273.08
290.053	22326.35
290.121	22356.48
290.188	22404.11
290.255	22513.84
290.323	22535.87
290.39	22549.76
290.458	22606.07
290.525	22682.34
290.592	22700.42
290.66	22738.02
290.727	22746.22
290.794	22823.02
290.862	22847.95
290.929	22901.27
290.996	22934.16
291.064	22994.42
291.131	23061.4
291.198	23136.29
291.266	23168.45
291.333	23213.24
291.4	23267.54
291.468	23339.11
291.535	23367.75
291.602	23417.13
291.669	23435.75
291.737	23495.49
291.804	23531.99
291.871	23598.3
291.938	23648.07
292.006	23763.8
292.073	23830.69
292.14	23895.7
292.207	23915.28
292.275	23954.49
292.342	24011.16
292.409	24113.19
292.476	24222.26
292.543	24232.34
292.611	24270.11
292.678	24337.45
292.745	24427.16
292.812	24484.09
292.879	24504.07
292.946	24546.27
293.014	24611.88
293.081	24668.62
293.148	24732.58
293.215	24809.73
293.282	24833.85
293.349	24893.1
293.416	24868
293.484	24949.99
293.551	25015.22
293.618	25093.04
293.685	25200.7
293.752	25224.68
293.819	25248.48
293.886	25239.89
293.953	25301.12
294.02	25364.43
294.087	25430.55
294.154	25449.81
294.221	25523.19
294.288	25567.39
294.356	25664.78
294.423	25723.43
294.49	25739.4
294.557	25817.31
294.624	25837.58
294.691	25925.09
294.758	25965.83
294.825	26039.49
294.892	26050.6
294.959	26096.07
295.026	26156.18
295.093	26189.4
295.16	26228.83
295.226	26275.52
295.293	26394.32
295.36	26444.67
295.427	26510.25
295.494	26578.2
295.561	26651.05
295.628	26744.99
295.695	26824.61
295.762	26861.17
295.829	26929.08
295.896	27019.05
295.963	27079.72
296.03	27154.18
296.096	27213.3
296.163	27288.52
296.23	27359.43
296.297	27433.18
296.364	27470.23
296.431	27523.12
296.498	27542.35
296.564	27650.98
296.631	27698.13
296.698	27691.46
296.765	27788.13
296.832	27810.89
296.899	27812.48
296.965	27898.69
297.032	27886.94
297.099	27986.37
297.166	28057.79
297.233	28081.76
297.299	28099.97
297.366	28137.58
297.433	28171.79
297.5	28241.73
297.566	28277.26
297.633	28309.41
297.7	28360.88
297.767	28397.89
297.833	28459.43
297.9	28513.5
297.967	28511.18
298.033	28588.29
298.1	28709.7
298.167	28728.51
298.234	28781.78
298.3	28855.59
298.367	28885.62
298.434	28947.61
298.5	28950.13
298.567	28974.49
298.634	29012.2
298.7	29099.57
298.767	29154.41
298.834	29238.55
298.9	29251.56
298.967	29272.01
299.033	29339
299.1	29412.22
299.167	29496.74
299.233	29525.04
299.3	29588.24
299.366	29676.01
299.433	29750.81
299.5	29717.14
299.566	29765.94
299.633	29850.16
299.699	29919.45
299.766	29954.61
299.832	30007.55
299.899	30069.68
299.965	30135.86
300.032	30162.65
300.099	30224.01
300.165	30265.62
300.232	30289.53
300.298	30338.3
300.365	30422.82
300.431	30464.83
300.498	30494.55
300.564	30546.04
300.631	30616.79
300.697	30696.99
300.763	30727.91
300.83	30760.35
300.896	30839.62
300.963	30918.86
301.029	30968.24
301.096	31011.96
301.162	31085.19
301.229	31109.35
301.295	31124.07
301.361	31173.44
301.428	31225.51
301.494	31213.22
301.561	31269.96
301.627	31312.41
301.693	31353.46
301.76	31395.83
301.826	31417.81
301.892	31476.06
301.959	31535.58
302.025	31555.77
302.092	31575.48
302.158	31646.61
302.224	31691.46
302.291	31707.25
302.357	31721.39
302.423	31744.54
302.49	31764.69
302.556	31822.09
302.622	31859.97
302.688	31930.34
302.755	32006.64
302.821	32066.68
302.887	32147.94
302.954	32186.26
303.02	32256.69
303.086	32326.97
303.152	32354.73
303.219	32385.24
303.285	32439.51
303.351	32493.87
303.417	32533.84
303.483	32565.23
303.55	32574.24
303.616	32614.46
303.682	32648.85
303.748	32677.72
303.815	32748.96
303.881	32809.48
303.947	32819.32
304.013	32870.87
304.079	32887.01
304.145	32870.24
304.212	32908.61
304.278	32907.64
304.344	32919.52
304.41	32912.05
304.476	32900.91
304.542	32939.34
304.608	33003.54
304.674	32999.96
304.741	33022.16
304.807	33079.98
304.873	33120.98
304.939	33195.13
305.005	33181.85
305.071	33226.38
305.137	33272.23
305.203	33245.66
305.269	33272.76
305.335	33338.84
305.401	33359.97
305.467	33381.25
305.533	33444.46
305.599	33502.53
305.666	33575.28
305.732	33622.69
305.798	33697.82
305.864	33818.93
305.93	33861.06
305.996	33891.21
306.062	33929.36
306.128	33949.73
306.194	33938.48
306.259	33976.15
306.325	33993.03
306.391	34053.82
306.457	34102.69
306.523	34133.43
306.589	34231.72
306.655	34241.7
306.721	34225.56
306.787	34229.87
306.853	34313.33
306.919	34297.13
306.985	34305.96
307.051	34317.4
307.117	34345.28
307.183	34361.09
307.248	34315.6
307.314	34363.76
307.38	34397.37
307.446	34444.17
307.512	34460.8
307.578	34523.5
307.644	34540.13
307.709	34587.57
307.775	34610.17
307.841	34629.42
307.907	34663.18
307.973	34641.93
308.039	34680.97
308.104	34725.45
308.17	34768.89
308.236	34755.41
308.302	34806.42
308.368	34800.27
308.433	34829.32
308.499	34834.89
308.565	34837.32
308.631	34875.97
308.696	34842.8
308.762	34833.87
308.828	34858.47
308.894	34843.92
308.959	34811.28
309.025	34833.15
309.091	34844.85
309.156	34865.56
309.222	34912.67
309.288	34913.98
309.354	34902.09
309.419	34924.99
309.485	34907.53
309.551	34946.58
309.616	34943.57
309.682	34961.09
309.748	34984.46
309.813	35004.79
309.879	35012.89
309.945	35030.93
310.01	35049.02
310.076	35078.76
310.141	35101.41
310.207	35078.12
310.273	35111.25
310.338	35160.19
310.404	35137.05
310.469	35133.12
310.535	35119.83
310.601	35077.67
310.666	35111.97
310.732	35156.55
310.797	35146.94
310.863	35166.15
310.928	35175.42
310.994	35212.97
311.059	35239.89
311.125	35266.91
311.191	35324.37
311.256	35335.48
311.322	35373.8
311.387	35344.31
311.453	36036.84
311.518	36033.44
311.584	36069.68
311.649	36109.81
311.715	36112.47
311.78	36149
311.846	36147.16
311.911	36206.55
311.976	36245.31
312.042	36230.99
312.107	36228.47
312.173	36251.91
312.238	36275.44
312.304	36285.72
312.369	36286.01
312.434	36269.71
312.5	36282.52
312.565	36221.91
312.631	36261.02
312.696	36262.91
312.761	36313.56
312.827	35660.19
312.892	35759.38
312.958	35779.52
313.023	35797.23
313.088	35815.48
313.154	35823.34
313.219	35830.95
313.284	35811.11
313.35	35834.74
313.415	35846.87
313.48	35860.94
313.546	35884.57
313.611	35934.8
313.676	35945.62
313.741	35954.84
313.807	36012.05
313.872	36049.37
313.937	36098.67
314.003	36147.25
314.068	36179.33
314.133	36221.7
314.198	36219.42
314.264	36192.68
314.329	36198.69
314.394	36217.62
314.459	36242.23
314.525	36307.16
314.59	36325.89
314.655	36341.86
314.72	36384.81
314.785	36418.25
314.851	36421.6
314.916	36403.2
314.981	36370.88
315.046	36370.69
315.111	36372.48
315.176	36374.81
315.242	36402.92
315.307	36420.68
315.372	36387.92
315.437	36374.47
315.502	36360.74
315.567	36416.99
315.632	36397.04
315.698	36421.02
315.763	36432.96
315.828	36425.39
315.893	36430.73
315.958	36453.49
316.023	36431.56
316.088	36387.78
316.153	36350.99
316.218	36353.03
316.283	36322.47
316.348	36289.62
316.413	36289.71
316.479	36256.19
316.544	36160.8
316.609	36074.03
316.674	35976.26
316.739	35888.01
316.804	35802.05
316.869	35705.16
316.934	35586.71
316.999	35490.37
317.064	35349.53
317.129	35223.38
317.194	35116.43
317.259	34962.05
317.324	34786.25
317.389	34651.29
317.454	34516.17
317.518	34397.56
317.583	34307.63
317.648	34215.69
317.713	34110.62
317.778	33920.69
317.843	33815.67
317.908	33680.78
317.973	33541.94
318.038	33428.86
318.103	33297.78
318.168	33186.26
318.233	33062.72
318.297	32892.64
318.362	32771.4
318.427	32613.63
318.492	32501.54
318.557	32325.19
318.622	32199.23
318.687	32091.68
318.751	31951.8
318.816	31826.69
318.881	31687.04
318.946	31481.89
319.011	31306.76
319.075	31129.86
319.14	30985.77
319.205	30809.76
319.27	30668.5
319.335	30495.5
319.399	30328.41
319.464	30198.25
319.529	29990.37
319.594	29831.86
319.658	29699.23
319.723	29510.58
319.788	29366.39
319.853	29142.94
319.917	29003.04
319.982	28801.74
320.047	28644.03
320.112	28504.67
320.176	28289.77
320.241	28118.28
320.306	27959.29
320.37	27778.58
320.435	27626.48
320.5	27475.69
320.564	27302.21
320.629	27108.97
320.694	26950.12
320.758	26766.9
320.823	26572.7
320.888	26422.6
320.952	26209.2
321.017	26009.37
321.082	25824.79
321.146	25651.31
321.211	25475.93
321.275	25288.02
321.34	25088.22
321.405	24881.93
321.469	24667.45
321.534	24487.96
321.598	24267.89
321.663	24105.64
321.727	23950.9
321.792	23732.21
321.857	23526.01
321.921	23331.7
321.986	23141.78
322.05	22912.26
322.115	22734.53
322.179	22523.11
322.244	22281.92
322.308	22110
322.373	21899.92
322.437	21721.32
322.502	21583.1
322.566	21392.31
322.631	21218.89
322.695	21028.32
322.76	20827.14
322.824	20644.82
322.889	20442.88
322.953	20243.36
323.018	19979.63
323.082	19713.12
323.146	19497.02
323.211	19271.96
323.275	19058.81
323.34	18850.86
323.404	18663.54
323.468	18448.36
323.533	18244.85
323.597	18046.43
323.662	17820.6
323.726	17643.21
323.79	17409.56
323.855	17128.5
323.919	16902.7
323.983	16676.81
324.048	16370.46
324.112	16557.46
324.177	15913.67
324.241	15048.82
324.305	14204.18
324.37	13375.89
324.434	12566.44
324.498	12344.04
324.562	12098.24
324.627	11822.42
324.691	11546.07
324.755	11234.98
324.82	10876.81
324.884	10504.13
324.948	10126.91
325.012	9661.59
325.077	9092.81
