Data from 20250626_urea_1M_exp2_MAYP1162681_11-23-58-318.txt Node
Date: Fri Jun 27 11:23:58 BST 2025
User: adleo
Spectrometer: MAYP116268
Trigger mode: 0
Integration Time (sec): 3.000000E0
Scans to average: 1
Electric dark correction enabled: true
Nonlinearity correction enabled: true
Boxcar width: 10
XAxis mode: Wavelengths
Number of Pixels in Spectrum: 2068
>>>>>Begin Spectral Data<<<<<
179.565	3169.26
179.642	3331.5
179.718	3451.76
179.795	3570.5
179.871	3669.99
179.948	3724.49
180.024	3789.26
180.101	3856.1
180.177	3896.8
180.254	3958.27
180.33	4019.3
180.407	4241.88
180.483	4485.56
180.56	4732.7
180.636	4964.35
180.712	4934.3
180.789	4965.34
180.865	5002.16
180.942	5029.83
181.018	5053.21
181.095	5093.13
181.171	5106.73
181.248	5110.23
181.324	5158.3
181.4	5171.38
181.477	5196.25
181.553	5227.57
181.63	5279.28
181.706	5321.69
181.782	5348.89
181.859	5353.83
181.935	5376.88
182.011	5365.28
182.088	5411.11
182.164	5462.76
182.24	5495.62
182.317	5521.88
182.393	5509.23
182.469	5543.89
182.546	5582.62
182.622	5593.6
182.698	5581.13
182.775	5621.69
182.851	5657.94
182.927	5639.91
183.003	5628.6
183.08	5617.53
183.156	5652.14
183.232	5649.5
183.308	5621.17
183.385	5643.93
183.461	5687.52
183.537	5684.26
183.613	5721.28
183.69	5698.93
183.766	5667.17
183.842	5691.73
183.918	5707.22
183.995	5740.63
184.071	5748.55
184.147	5731.14
184.223	5700.71
184.299	5730.45
184.375	5697.13
184.452	5717.48
184.528	5821.34
184.604	5853.65
184.68	5888.7
184.756	5905.06
184.832	5911.44
184.908	5927.79
184.985	5919.73
185.061	5875.67
185.137	5901.52
185.213	5868.34
185.289	5868.19
185.365	5854.24
185.441	5848.3
185.517	5882.61
185.593	5874.7
185.669	5864.14
185.745	5894.65
185.822	5937.55
185.898	5917.35
185.974	5940.79
186.05	5918.24
186.126	5853.86
186.202	5831.47
186.278	5816.31
186.354	5790.11
186.43	5808.25
186.506	5799
186.582	5803.27
186.658	5827.52
186.734	5773.68
186.81	5780.96
186.886	5792.04
186.962	5826.47
187.038	5816.35
187.114	5792.01
187.19	5812.54
187.266	5788.76
187.341	5786.27
187.417	5767.95
187.493	5770.11
187.569	5785.8
187.645	5771.46
187.721	5739.41
187.797	5764.44
187.873	5773.02
187.949	5749.97
188.025	5734.51
188.101	5743.77
188.176	5755.85
188.252	5741.23
188.328	5762.74
188.404	5762.65
188.48	5752.15
188.556	5730.37
188.632	5728.93
188.707	5733.01
188.783	5727.93
188.859	5715.42
188.935	5684.68
189.011	5707.17
189.086	5689.04
189.162	5659.31
189.238	5649.53
189.314	5645.64
189.39	5632.36
189.465	5616.87
189.541	5665.21
189.617	5622.11
189.693	5606.24
189.768	5618.76
189.844	5682.58
189.92	5659.15
189.996	5687.25
190.071	5714.64
190.147	5715.74
190.223	5739.97
190.298	5720.25
190.374	5687.21
190.45	5718.79
190.526	5738.55
190.601	5726.27
190.677	5727.71
190.753	5808.74
190.828	5819.09
190.904	5859.49
190.98	5899.79
191.055	5924.16
191.131	5908.85
191.207	5967.12
191.282	5996.32
191.358	5964.81
191.433	5928.37
191.509	5960.67
191.585	5946.95
191.66	5953.43
191.736	5976.17
191.811	5951.51
191.887	5990.76
191.963	6054.57
192.038	6071.41
192.114	6080
192.189	6089.73
192.265	6083.5
192.34	6019.31
192.416	6018.93
192.491	6006.49
192.567	6016.53
192.642	6026.9
192.718	6023.83
192.793	5987.56
192.869	5973.65
192.944	5980.36
193.02	6002.63
193.095	6013.76
193.171	6031.13
193.246	6019.85
193.322	6008.58
193.397	6009.39
193.473	5974.5
193.548	5925.93
193.624	5940.04
193.699	5937.31
193.775	5979.55
193.85	5984.73
193.925	6007.09
194.001	6003.2
194.076	5977.11
194.152	5943.6
194.227	5923.83
194.302	5897.56
194.378	5910.89
194.453	5899.91
194.529	5934.41
194.604	5891.37
194.679	5881.39
194.755	5829.42
194.83	5870.85
194.905	5866.96
194.981	5894.26
195.056	5875.37
195.131	5888.36
195.207	5876.17
195.282	5840.5
195.357	5790.3
195.433	5828.43
195.508	5800.7
195.583	5827.99
195.659	5874.29
195.734	5892.09
195.809	5894.88
195.884	5918.32
195.96	5917.31
196.035	5964.7
196.11	5953.47
196.185	5986.28
196.261	5990.22
196.336	6076.14
196.411	6031.07
196.486	6042.58
196.561	6021.47
196.637	6051.16
196.712	6098.64
196.787	6107.47
196.862	6159.56
196.937	6183.21
197.013	6204.14
197.088	6229.09
197.163	6278.74
197.238	6320.88
197.313	6321.93
197.388	6355.06
197.464	6436.12
197.539	6470.14
197.614	6453.25
197.689	6486.76
197.764	6536.33
197.839	6596.05
197.914	6581.83
197.989	6649.34
198.065	6687.46
198.14	6831.93
198.215	6904.84
198.29	6939.16
198.365	6982.05
198.44	7006.45
198.515	7081.4
198.59	7123.92
198.665	7197.19
198.74	7225.27
198.815	7229.64
198.89	7294.12
198.965	7371.18
199.04	7360.8
199.115	7405.19
199.19	7520.43
199.265	7530.09
199.34	7554.17
199.415	7646.23
199.49	7698.52
199.565	7725.3
199.64	7794.72
199.715	7778.84
199.79	7795.14
199.865	7807.74
199.94	7804.9
200.015	7901.04
200.09	7924.13
200.165	7939.47
200.24	7957.22
200.315	8061.04
200.39	8105.49
200.464	8121.17
200.539	8130.16
200.614	8176.57
200.689	8246.09
200.764	8260.67
200.839	8308.12
200.914	8322.16
200.989	8292.08
201.063	8338.99
201.138	8288.47
201.213	8289
201.288	8237.83
201.363	8250.24
201.438	8247.54
201.512	8288.84
201.587	8230.82
201.662	8236.01
201.737	8269.21
201.812	8289.61
201.886	8197.91
201.961	8220.92
202.036	8187.16
202.111	8177.78
202.186	8090.78
202.26	8033.62
202.335	7970.65
202.41	7957.53
202.485	7907.72
202.559	7853.66
202.634	7775.08
202.709	7800.64
202.784	7740.16
202.858	7743.71
202.933	7687.8
203.008	7673.13
203.082	7620.73
203.157	7623.91
203.232	7506.95
203.306	7442.41
203.381	7352.16
203.456	7292.9
203.53	7227.99
203.605	7169.78
203.68	7102.95
203.754	7087.5
203.829	7043.81
203.904	6991.98
203.978	6956.89
204.053	6971.35
204.127	6938.3
204.202	6928.7
204.277	6881.62
204.351	6867.69
204.426	6845.97
204.5	6828.34
204.575	6729.62
204.65	6755.19
204.724	6729.04
204.799	6752.36
204.873	6741.69
204.948	6738.52
205.022	6702.95
205.097	6678.15
205.171	6720.21
205.246	6747.41
205.32	6750.82
205.395	6753.6
205.469	6735.13
205.544	6749.93
205.618	6703.24
205.693	6730.04
205.767	6694.85
205.842	6750.72
205.916	6735.26
205.991	6708.12
206.065	6723.83
206.14	6766.33
206.214	6750.85
206.289	6729.04
206.363	6766.26
206.438	6773.52
206.512	6792.06
206.586	6847.28
206.661	6869.68
206.735	6806.03
206.81	6806.13
206.884	6847.62
206.958	6809.64
207.033	6849.44
207.107	6865.64
207.181	6952.29
207.256	6940.37
207.33	6994.21
207.405	7026.14
207.479	7076.82
207.553	7097.76
207.628	7054.02
207.702	7087.12
207.776	7073.61
207.851	7090.05
207.925	7124.95
207.999	7121.44
208.073	7118.75
208.148	7127.16
208.222	7097.17
208.296	7186.34
208.371	7233.09
208.445	7259.76
208.519	7342.83
208.593	7380.75
208.668	7373.58
208.742	7375.75
208.816	7384.01
208.89	7424.02
208.965	7427.48
209.039	7453.49
209.113	7493.68
209.187	7552.6
209.261	7543.04
209.336	7600.73
209.41	7656.31
209.484	7657.81
209.558	7724.79
209.632	7763.25
209.707	7791.71
209.781	7856.72
209.855	7899.86
209.929	7942.75
210.003	7955.59
210.077	7953.76
210.151	8082.57
210.226	8180.59
210.3	8260.89
210.374	8323.4
210.448	8340.19
210.522	8361.85
210.596	8388.26
210.67	8419.19
210.744	8548.55
210.818	8638
210.892	8693.73
210.966	8673.67
211.041	8722.42
211.115	8706.35
211.189	8768.76
211.263	8815
211.337	8826.07
211.411	8865.78
211.485	8851
211.559	8880.1
211.633	8882.99
211.707	8794.15
211.781	8813.9
211.855	8714.79
211.929	8687.27
212.003	8636.63
212.077	8670.09
212.151	8699.26
212.225	8728.09
212.299	8695.68
212.373	8662.76
212.447	8647.55
212.52	8726.38
212.594	8730.38
212.668	8757.57
212.742	8716.56
212.816	8698.9
212.89	8679.36
212.964	8675.9
213.038	8681.72
213.112	8723.07
213.186	8763.1
213.26	8703.52
213.333	8569.75
213.407	8576.43
213.481	8584.8
213.555	8607.16
213.629	8567.97
213.703	8518.45
213.777	8505.84
213.85	8447.31
213.924	8539.88
213.998	8532.57
214.072	8511.48
214.146	8464.46
214.219	8452.96
214.293	8438.62
214.367	8442.62
214.441	8468.36
214.515	8430.38
214.588	8354.94
214.662	8247.85
214.736	8183.59
214.81	8198.54
214.883	8214.59
214.957	8179.87
215.031	8137.43
215.105	8064.92
215.178	8013.98
215.252	7984.31
215.326	7910.04
215.4	7841.31
215.473	7691.72
215.547	7623.61
215.621	7568.51
215.694	7568.36
215.768	7490.62
215.842	7435.01
215.915	7376.95
215.989	7280.79
216.063	7234.38
216.136	7220.68
216.21	7205.45
216.284	7217.75
216.357	7202.56
216.431	7168.64
216.504	7168.78
216.578	7211.71
216.652	7218.87
216.725	7194.93
216.799	7198.3
216.873	7175.04
216.946	7177.01
217.02	7143.69
217.093	7119.38
217.167	7034.77
217.24	6968.58
217.314	6934.92
217.387	6900.31
217.461	6861.78
217.535	6881.67
217.608	6824.65
217.682	6805.24
217.755	6813.6
217.829	6762.91
217.902	6745.99
217.976	6733.03
218.049	6688.26
218.123	6623.53
218.196	6624.58
218.27	6596.25
218.343	6543.4
218.417	6543.59
218.49	6527.5
218.563	6566.97
218.637	6574.56
218.71	6638.4
218.784	6659.83
218.857	6689.02
218.931	6712.58
219.004	6715.7
219.077	6731.9
219.151	6750.91
219.224	6741.5
219.298	6738.13
219.371	6779.36
219.444	6746.85
219.518	6753.72
219.591	6770.62
219.665	6856.67
219.738	6867.71
219.811	6856.38
219.885	6893.71
219.958	6918.02
220.031	6926.61
220.105	6936.27
220.178	6940.79
220.251	6915.08
220.325	6935.27
220.398	6945.88
220.471	6957.45
220.544	6993.44
220.618	6971.34
220.691	6991.99
220.764	7008.18
220.838	7031.44
220.911	7017.55
220.984	7083.74
221.057	7120.78
221.131	7137.64
221.204	7060.43
221.277	7119.64
221.35	7226.67
221.424	7215.86
221.497	7222.88
221.57	7243.77
221.643	7270.55
221.716	7306.27
221.79	7316.5
221.863	7322.03
221.936	7333.32
222.009	7339.14
222.082	7359.95
222.155	7370.33
222.229	7422.5
222.302	7442.73
222.375	7438.55
222.448	7465.95
222.521	7475.81
222.594	7471
222.667	7450.01
222.74	7499.23
222.814	7491.48
222.887	7474.74
222.96	7518.92
223.033	7555.47
223.106	7567.19
223.179	7596.1
223.252	7603.85
223.325	7622.21
223.398	7638.94
223.471	7661.78
223.544	7681.96
223.617	7695.33
223.69	7713.64
223.763	7683.06
223.837	7701.18
223.91	7731.57
223.983	7692.74
224.056	7661.68
224.129	7675.91
224.202	7720.41
224.275	7707.52
224.348	7684.01
224.42	7651.26
224.493	7604.49
224.566	7586.93
224.639	7605.73
224.712	7576.67
224.785	7563.35
224.858	7561.57
224.931	7541.23
225.004	7508.83
225.077	7509.51
225.15	7432.56
225.223	7436.12
225.296	7503.81
225.369	7454.73
225.442	7427.86
225.514	7441.5
225.587	7458.95
225.66	7467.31
225.733	7470.58
225.806	7477.31
225.879	7467.27
225.952	7438.3
226.025	7483.92
226.097	7521.73
226.17	7510.19
226.243	7460.79
226.316	7462.37
226.389	7462.66
226.461	7480.02
226.534	7497.47
226.607	7488.09
226.68	7547.82
226.753	7541.86
226.825	7472.54
226.898	7523.92
226.971	7523.92
227.044	7544.2
227.117	7547.28
227.189	7562.82
227.262	7587.63
227.335	7601.63
227.407	7605.62
227.48	7639.44
227.553	7645.75
227.626	7634.63
227.698	7645.74
227.771	7679.71
227.844	7668.7
227.916	7687.69
227.989	7654.9
228.062	7652.93
228.134	7728.87
228.207	7735.84
228.28	7723.64
228.352	7729.55
228.425	7735.08
228.498	7775.81
228.57	7757.35
228.643	7805.89
228.716	7804.73
228.788	7796.12
228.861	7794.1
228.934	7840.16
229.006	7840.65
229.079	7839.97
229.151	7828.52
229.224	7802.85
229.296	7824.64
229.369	7901.71
229.442	7939.19
229.514	7927.18
229.587	7970.56
229.659	7906.77
229.732	7919.04
229.804	7953.66
229.877	8023.04
229.949	8047.48
230.022	8089.74
230.094	8096.13
230.167	8084.58
230.239	8051.3
230.312	8041.35
230.384	8096.69
230.457	8100.2
230.529	8113.52
230.602	8111.4
230.674	8114.53
230.747	8141.25
230.819	8159.77
230.892	8063.66
230.964	8059.67
231.037	8087.98
231.109	8074.61
231.181	8107.3
231.254	8076.43
231.326	8068.69
231.399	8051.5
231.471	8023.74
231.544	7958.98
231.616	7986.62
231.688	7992.49
231.761	7975.77
231.833	7968.17
231.905	7897.35
231.978	7890.13
232.05	7879.94
232.122	7885.37
232.195	7867.91
232.267	7898.5
232.339	7885.42
232.412	7940.04
232.484	7916.7
232.556	7891.18
232.629	7949.03
232.701	7960.77
232.773	7966.97
232.846	7955.72
232.918	7956.53
232.99	7976.21
233.062	8011.28
233.135	8026.24
233.207	7999.16
233.279	8040.5
233.351	8067.86
233.424	8072.24
233.496	8053.19
233.568	8117.18
233.64	8082.36
233.713	8091.74
233.785	8096.74
233.857	8105.93
233.929	8064.57
234.001	8121.95
234.074	8174.4
234.146	8109.15
234.218	8106.7
234.29	8113.72
234.362	8107.32
234.434	8070.9
234.507	8041.75
234.579	7994.57
234.651	7975.13
234.723	7995.19
234.795	8010.34
234.867	8004.14
234.939	8052.15
235.012	8069.99
235.084	8069.99
235.156	8104.38
235.228	8088.46
235.3	8066.47
235.372	8068.88
235.444	8117.93
235.516	8055.99
235.588	8061.33
235.66	8078.6
235.732	8058.01
235.804	8214.69
235.876	8247.25
235.948	8300.18
236.02	8312.69
236.092	8330.43
236.164	8340.92
236.236	8344.57
236.308	8343.52
236.38	8368.05
236.452	8348.47
236.524	8358.95
236.596	8414.43
236.668	8440.41
236.74	8460.85
236.812	8486.78
236.884	8518.36
236.956	8525.72
237.028	8512.68
237.1	8497.34
237.172	8551.25
237.244	8613.08
237.316	8512.21
237.388	8500.09
237.46	8479.2
237.532	8531.94
237.604	8520.88
237.675	8587.07
237.747	8623.11
237.819	8612.96
237.891	8612.29
237.963	8603.92
238.035	8604.45
238.107	8509.08
238.178	8564.12
238.25	8573.02
238.322	8649.14
238.394	8617.09
238.466	8612.03
238.538	8649.13
238.609	8680.25
238.681	8638.04
238.753	8619.07
238.825	8638.57
238.897	8664.93
238.968	8729.74
239.04	8711.36
239.112	8801.2
239.184	8766.2
239.255	8761.73
239.327	8788.62
239.399	8809.99
239.471	8849.88
239.542	8877.46
239.614	8935.89
239.686	8863.67
239.758	8911.08
239.829	8878.09
239.901	8928.63
239.973	8949.91
240.044	8974.16
240.116	8986.63
240.188	8993.7
240.259	9008.92
240.331	9001.21
240.403	9033.46
240.474	8993.06
240.546	8983.67
240.618	8933.99
240.689	8934.37
240.761	8956.76
240.833	9010.73
240.904	9012.66
240.976	9009.72
241.048	9024.45
241.119	9051.42
241.191	9095.47
241.262	9145.7
241.334	9147.1
241.405	9149.55
241.477	9148.5
241.549	9161.01
241.62	9188.89
241.692	9234.72
241.763	9280.47
241.835	9294.2
241.906	9304.45
241.978	9281.25
242.049	9333.48
242.121	9384.37
242.192	9439.74
242.264	9404.98
242.335	9365.16
242.407	9396.17
242.478	9403.88
242.55	9418.85
242.621	9406.23
242.693	9405.27
242.764	9401.03
242.836	9406.18
242.907	9434.69
242.979	9464.21
243.05	9482.22
243.122	9503.07
243.193	9496.04
243.264	9440.76
243.336	9442.78
243.407	9474.76
243.479	9544.15
243.55	9557.44
243.622	9573.29
243.693	9571.12
243.764	9633.05
243.836	9618.27
243.907	9608.5
243.978	9610.28
244.05	9633.11
244.121	9595.84
244.192	9629.84
244.264	9586.78
244.335	9593.47
244.407	9547.58
244.478	9559.04
244.549	9550.42
244.62	9509.01
244.692	9509.73
244.763	9544.54
244.834	9538.38
244.906	9515.6
244.977	9527.5
245.048	9578.57
245.119	9565.66
245.191	9535.46
245.262	9481.96
245.333	9541.86
245.405	9559.39
245.476	9585.34
245.547	9598.73
245.618	9639.71
245.689	9640.82
245.761	9663.4
245.832	9669.76
245.903	9707.8
245.974	9729.05
246.045	9740.12
246.117	9808.85
246.188	9793.4
246.259	9779.86
246.33	9793.01
246.401	9806.45
246.473	9780.05
246.544	9770.17
246.615	9807.36
246.686	9823.25
246.757	9878.29
246.828	9858.35
246.899	9916.17
246.97	9893.68
247.042	9884.77
247.113	9925.76
247.184	10003.92
247.255	10002.57
247.326	10025.79
247.397	10031.33
247.468	10043.33
247.539	10056.33
247.61	10021.94
247.681	10061.47
247.752	10108.05
247.823	10091.15
247.894	10097.22
247.965	10071.5
248.037	10054.01
248.108	10013.5
248.179	10013.84
248.25	10007.38
248.321	10034.93
248.392	9997.63
248.463	10066.51
248.534	10067.67
248.605	10079.62
248.675	10054.03
248.746	10074.74
248.817	10089.44
248.888	10103.55
248.959	10049.22
249.03	10066.51
249.101	10066.99
249.172	10055.39
249.243	9998.7
249.314	10050.34
249.385	10062.96
249.456	10091.66
249.527	10081.69
249.598	10101.96
249.669	10108.27
249.739	10127.49
249.81	10139.68
249.881	10101.2
249.952	10088.04
250.023	10081.49
250.094	10038.71
250.165	10011.87
250.235	10001.95
250.306	9999.73
250.377	9976.13
250.448	10002.61
250.519	9950.21
250.59	10007.45
250.66	10006.87
250.731	10060.13
250.802	10057.44
250.873	10072.42
250.944	10088.41
251.014	10081.86
251.085	10153.46
251.156	10171.62
251.227	10210.56
251.297	10252.77
251.368	10293.23
251.439	10330.43
251.51	10374.8
251.58	10363.29
251.651	10361.17
251.722	10412.92
251.792	10374.57
251.863	10377.99
251.934	10430.31
252.005	10529.8
252.075	10528.5
252.146	10570.65
252.217	10611.02
252.287	10642.25
252.358	10643.93
252.429	10704.7
252.499	10702.43
252.57	10706
252.641	10737.03
252.711	10745.85
252.782	10704.84
252.852	10771.54
252.923	10765.08
252.994	10780.69
253.064	10826.02
253.135	10809.79
253.205	10790.75
253.276	10851.07
253.347	10903.2
253.417	10882.67
253.488	10867.78
253.558	10858.29
253.629	10853.76
253.699	10862.58
253.77	10883.74
253.841	10879.55
253.911	10893.52
253.982	10904.51
254.052	10939.5
254.123	10953.96
254.193	10952.56
254.264	11068.51
254.334	11039.65
254.405	11018.06
254.475	10982.4
254.546	10992.33
254.616	11038.73
254.687	11065.71
254.757	11080.07
254.827	11080.31
254.898	11097.85
254.968	11097.76
255.039	11088.36
255.109	11116.31
255.18	11091.44
255.25	11034.63
255.321	11060.27
255.391	11018.67
255.461	11097.08
255.532	11023.82
255.602	11013.94
255.673	10969.32
255.743	10934.42
255.813	10878.96
255.884	10916.5
255.954	10950.19
256.024	10993.75
256.095	11002.04
256.165	10970.58
256.235	10992.89
256.306	10975.4
256.376	11010.39
256.446	11037.43
256.517	11059.74
256.587	11100.36
256.657	11119.54
256.728	11143.3
256.798	11151.39
256.868	11153.37
256.938	11125.51
257.009	11171.92
257.079	11200.16
257.149	11277.32
257.219	11234.95
257.29	11266.8
257.36	11222.08
257.43	11251.72
257.5	11207.82
257.571	11200.1
257.641	11228.97
257.711	11203.23
257.781	11239.42
257.852	11253.35
257.922	11205.11
257.992	11212.58
258.062	11204.68
258.132	11236.92
258.202	11241.16
258.273	11252.68
258.343	11304.78
258.413	11290.03
258.483	11288.73
258.553	11265.02
258.623	11242.75
258.693	11262.9
258.764	11311.67
258.834	11369.83
258.904	11385.21
258.974	11369.16
259.044	11376.39
259.114	11403.04
259.184	11425.55
259.254	11430.27
259.324	11390.8
259.394	11432.97
259.464	11490.71
259.535	11498.23
259.605	11498.37
259.675	11491.73
259.745	11522.33
259.815	11512.16
259.885	11512.11
259.955	11601.05
260.025	11598.83
260.095	11611.65
260.165	11633.3
260.235	11691.38
260.305	11678.9
260.375	11653.83
260.445	11730.07
260.515	11791.67
260.585	11822.38
260.655	11829.56
260.725	11868.46
260.795	11902.29
260.865	11960.62
260.934	11932.51
261.004	11951.7
261.074	11951.22
261.144	12003.55
261.214	12032.14
261.284	12031.9
261.354	12064.38
261.424	12033.38
261.494	12089.24
261.564	12095.75
261.634	12117.34
261.703	12063.84
261.773	12086.06
261.843	12112.81
261.913	12105.63
261.983	12055.88
262.053	12084.9
262.123	12082.16
262.192	12051.07
262.262	12084.57
262.332	12038.58
262.402	12067.17
262.472	12079.7
262.541	12036.13
262.611	12074.31
262.681	12056.18
262.751	12088.62
262.821	12096.48
262.89	12064.76
262.96	12087.37
263.03	12147.62
263.1	12172.4
263.169	12182.86
263.239	12204.55
263.309	12258.44
263.379	12284.23
263.448	12295.51
263.518	12309.01
263.588	12323.32
263.657	12375.77
263.727	12404.84
263.797	12424.74
263.867	12427.01
263.936	12391.58
264.006	12438.81
264.076	12435.49
264.145	12434.71
264.215	12413.46
264.285	12445.41
264.354	12411.92
264.424	12401.5
264.494	12357.15
264.563	12345.44
264.633	12410.47
264.702	12432.93
264.772	12389.06
264.842	12386.27
264.911	12418.08
264.981	12387.47
265.05	12395.14
265.12	12390.94
265.19	12399.67
265.259	12432.69
265.329	12460.84
265.398	12483.98
265.468	12568.33
265.537	12557.73
265.607	12579.71
265.676	12626.95
265.746	12654.81
265.815	12708.08
265.885	12717.04
265.955	12708.51
266.024	12710.63
266.094	12652.3
266.163	12704.85
266.232	12757.34
266.302	12767.52
266.371	12783.38
266.441	12793.93
266.51	12834.86
266.58	12839.82
266.649	12831.44
266.719	12874.1
266.788	12895.02
266.858	12950.17
266.927	12892.37
266.996	12919.07
267.066	12943.66
267.135	12915.51
267.205	12949.2
267.274	12964.92
267.343	13008.16
267.413	13029.27
267.482	13072.18
267.552	13134.7
267.621	13090.11
267.69	13051.93
267.76	13074.05
267.829	13098.25
267.898	13122.6
267.968	13109.49
268.037	13145.35
268.106	13184.83
268.176	13156.54
268.245	13157.64
268.314	13158.9
268.384	13218.19
268.453	13227.88
268.522	13250.73
268.592	13305.4
268.661	13283.8
268.73	13304.58
268.799	13292.91
268.869	13359.43
268.938	13321.16
269.007	13318.84
269.076	13343.86
269.146	13390.48
269.215	13419.64
269.284	13478.07
269.353	13467.61
269.422	13472.62
269.492	13461.63
269.561	13393.23
269.63	13423.31
269.699	13431.46
269.768	13450.79
269.838	13461.29
269.907	13499.19
269.976	13481.11
270.045	13439.17
270.114	13470.94
270.183	13481.54
270.253	13508.01
270.322	13462.02
270.391	13493.79
270.46	13541.94
270.529	13574.19
270.598	13609.14
270.667	13619.07
270.736	13598.25
270.806	13625.87
270.875	13672.49
270.944	13686.56
271.013	13799.12
271.082	13824.48
271.151	13856.83
271.22	13816.77
271.289	13820.62
271.358	13825.16
271.427	13852.59
271.496	13876.93
271.565	13876.93
271.634	13890.48
271.703	13996.52
271.772	14052.68
271.841	14060.01
271.91	14032.29
271.979	14048.39
272.048	14023.62
272.117	14050.03
272.186	14049.65
272.255	14092.07
272.324	14133.48
272.393	14169.15
272.462	14154.3
272.531	14161.34
272.6	14165.24
272.669	14234.13
272.738	14243.53
272.807	14273.27
272.876	14256.26
272.945	14373.78
273.013	14420.44
273.082	14478.19
273.151	14393.02
273.22	14419.72
273.289	14440.93
273.358	14510.73
273.427	14522.35
273.496	14571.67
273.564	14600.93
273.633	14648.31
273.702	14634.86
273.771	14642.48
273.84	14665.52
273.909	14702.83
273.977	14750.31
274.046	14757.11
274.115	14797.21
274.184	14788.78
274.253	14801.45
274.322	14862.87
274.39	14807.48
274.459	14802.52
274.528	14764
274.597	14791.38
274.665	14817.41
274.734	14877.14
274.803	14878.01
274.872	14890.39
274.94	14881.62
275.009	15070.35
275.078	15069.73
275.147	15098.79
275.215	15119.09
275.284	15177.12
275.353	15186.57
275.421	15148.39
275.49	15234.58
275.559	15240.46
275.627	15263.74
275.696	15280.42
275.765	15313
275.833	15332.33
275.902	15364.77
275.971	15431.39
276.039	15507.02
276.108	15553.87
276.177	15586.11
276.245	15599.18
276.314	15629.35
276.383	15679.48
276.451	15536.06
276.52	15571.68
276.588	15644.7
276.657	15686.78
276.725	15683.22
276.794	15707.6
276.863	15780.82
276.931	15751.71
277	15810.66
277.068	15876.26
277.137	15957.67
277.205	15988.95
277.274	16069.83
277.342	16136.29
277.411	16112.92
277.48	16110.84
277.548	16118.22
277.617	16146.61
277.685	16168.49
277.754	16215.96
277.822	16228.88
277.89	16307.63
277.959	16334.48
278.027	16316.94
278.096	16326.77
278.164	16434.19
278.233	16451.69
278.301	16454.44
278.37	16503.89
278.438	16500.27
278.507	16550.16
278.575	16513.96
278.643	16537.19
278.712	16521.91
278.78	16516.56
278.849	16591.8
278.917	16660.29
278.985	16676.48
279.054	16713.74
279.122	16779.91
279.191	16802.7
279.259	16833.12
279.327	16812.78
279.396	16890.28
279.464	16917.8
279.532	16967.53
279.601	16990.23
279.669	17018.57
279.737	17091.87
279.806	17137.9
279.874	17195.87
279.942	17218.43
280.011	17245.56
280.079	17300.36
280.147	17377.57
280.215	17429.28
280.284	17446.72
280.352	17436.51
280.42	17493.33
280.488	17516.31
280.557	17530.96
280.625	17575.54
280.693	17609.23
280.761	17639.74
280.83	17627.83
280.898	17697.18
280.966	17682.58
281.034	17631.88
281.102	17627.55
281.171	17638.39
281.239	17687.11
281.307	17703.88
281.375	17713.71
281.443	17827.59
281.512	17851.44
281.58	17907.92
281.648	17902.62
281.716	17944.93
281.784	17981.22
281.852	17998.76
281.92	18013.65
281.989	18077.89
282.057	18068.64
282.125	18213.21
282.193	18249.74
282.261	18286.22
282.329	18308.15
282.397	18359.95
282.465	18404.96
282.533	18486.89
282.601	18498.26
282.67	18469.59
282.738	18485.44
282.806	18549.92
282.874	18537.34
282.942	18583.7
283.01	18600.04
283.078	18651.07
283.146	18670.25
283.214	18735.98
283.282	18783.35
283.35	18857.76
283.418	18876.26
283.486	18928.79
283.554	18863.69
283.622	18900.31
283.69	18924.07
283.758	18951.58
283.826	19011.39
283.894	19076.16
283.962	19162.32
284.03	19235.42
284.098	19285.78
284.165	19311.18
284.233	19342.21
284.301	19363.42
284.369	19378.64
284.437	19383.13
284.505	19406.26
284.573	19481.87
284.641	19481.29
284.709	19536.61
284.777	19530.11
284.845	19587.84
284.912	19650.1
284.98	19701.23
285.048	19722.77
285.116	19777.66
285.184	19843.68
285.252	19870.33
285.319	19852.26
285.387	19863.73
285.455	19862.77
285.523	19925.9
285.591	19956.88
285.659	19996.93
285.726	20072.45
285.794	20079.44
285.862	20114.9
285.93	20150.08
285.997	20174.66
286.065	20203.53
286.133	20205.65
286.201	20233.89
286.269	20226.8
286.336	20235.67
286.404	20259.67
286.472	20321.02
286.539	20304.11
286.607	20300.49
286.675	20346.32
286.743	20414.13
286.81	20428.3
286.878	20497.6
286.946	20502.37
287.013	20538.08
287.081	20575.82
287.149	20575.63
287.216	20668.3
287.284	20697.08
287.352	20749.03
287.419	20777.03
287.487	20856.12
287.555	20919.89
287.622	20955.89
287.69	21009.53
287.758	21073.73
287.825	21087.13
287.893	21095.85
287.96	21155.46
288.028	21221.21
288.096	21251.72
288.163	21293.6
288.231	21310.61
288.298	21342.67
288.366	21419.5
288.433	21447.93
288.501	21459.07
288.569	21504.52
288.636	21513.63
288.704	21579.42
288.771	21630.03
288.839	21636.2
288.906	21643.19
288.974	21694.39
289.041	21727.79
289.109	21738.4
289.176	21789.06
289.244	21845.94
289.311	21909.76
289.379	21968.28
289.446	22012.82
289.514	22051.96
289.581	22098.39
289.649	22144.61
289.716	22186.36
289.783	22196.73
289.851	22290.1
289.918	22332.52
289.986	22394.57
290.053	22447.21
290.121	22481.44
290.188	22518.86
290.255	22644.93
290.323	22677.04
290.39	22700.33
290.458	22756.3
290.525	22833.05
290.592	22863.52
290.66	22902.43
290.727	22919.21
290.794	22994.57
290.862	23032.09
290.929	23082.42
290.996	23111.02
291.064	23166.75
291.131	23220.33
291.198	23297.92
291.266	23327.86
291.333	23364.12
291.4	23412.92
291.468	23479.82
291.535	23504.99
291.602	23548.82
291.669	23561.51
291.737	23607.99
291.804	23639.29
291.871	23721.66
291.938	23774.48
292.006	23878.25
292.073	23944.75
292.14	24013.28
292.207	24027.08
292.275	24054.76
292.342	24116.41
292.409	24222.49
292.476	24322.11
292.543	24341.41
292.611	24373.29
292.678	24448.64
292.745	24553.27
292.812	24611.75
292.879	24632.3
292.946	24679.57
293.014	24756.95
293.081	24813.84
293.148	24890.93
293.215	24972.37
293.282	24990.08
293.349	25044.51
293.416	25022.45
293.484	25091.99
293.551	25165.43
293.618	25252.58
293.685	25355.95
293.752	25370.37
293.819	25399.72
293.886	25413.48
293.953	25482.58
294.02	25552.41
294.087	25601.4
294.154	25620.27
294.221	25687.62
294.288	25732.55
294.356	25828.3
294.423	25878.94
294.49	25897.86
294.557	25964.96
294.624	25977.37
294.691	26069.23
294.758	26113.21
294.825	26179.24
294.892	26200.09
294.959	26230.56
295.026	26271.5
295.093	26298.01
295.16	26329.92
295.226	26366.9
295.293	26459.24
295.36	26504.29
295.427	26568.04
295.494	26639.52
295.561	26707.65
295.628	26814.01
295.695	26905.18
295.762	26941.64
295.829	27009.56
295.896	27098.71
295.963	27157.01
296.03	27225.44
296.096	27285.83
296.163	27352.35
296.23	27435.2
296.297	27517.02
296.364	27565.32
296.431	27637.83
296.498	27668.56
296.564	27786.99
296.631	27844.48
296.698	27844.05
296.765	27937.93
296.832	27945.99
296.899	27954.64
296.965	28042.98
297.032	28024.42
297.099	28107.71
297.166	28176.33
297.233	28201.03
297.299	28218.04
297.366	28267.44
297.433	28307.35
297.5	28369.13
297.566	28424.29
297.633	28465.28
297.7	28511.25
297.767	28545.75
297.833	28596.52
297.9	28646.3
297.967	28655.58
298.033	28725.73
298.1	28841.15
298.167	28851.01
298.234	28912.98
298.3	28985.01
298.367	29012.72
298.434	29078.88
298.5	29089.42
298.567	29117.37
298.634	29159.14
298.7	29248.5
298.767	29294.39
298.834	29388.31
298.9	29397.4
298.967	29409.83
299.033	29462.55
299.1	29539.37
299.167	29624.82
299.233	29651.03
299.3	29729.53
299.366	29802.07
299.433	29875.53
299.5	29842.24
299.566	29898.25
299.633	29980.98
299.699	30049
299.766	30088.09
299.832	30133.15
299.899	30201.57
299.965	30272.21
300.032	30301.86
300.099	30367
300.165	30415.88
300.232	30443.17
300.298	30491.7
300.365	30572.12
300.431	30619.16
300.498	30640.75
300.564	30685.03
300.631	30758.07
300.697	30834.02
300.763	30871.87
300.83	30902.71
300.896	30992.14
300.963	31065.62
301.029	31122.46
301.096	31167.39
301.162	31223.59
301.229	31252.06
301.295	31263
301.361	31314.52
301.428	31365.96
301.494	31355.55
301.561	31403.39
301.627	31449.19
301.693	31494.56
301.76	31536.73
301.826	31574.6
301.892	31646.08
301.959	31706.03
302.025	31729.27
302.092	31750.44
302.158	31813.73
302.224	31857.47
302.291	31873.69
302.357	31895.58
302.423	31906.29
302.49	31921.59
302.556	31987.33
302.622	32027.05
302.688	32099.02
302.755	32167.24
302.821	32228.8
302.887	32299.65
302.954	32345.38
303.02	32399.3
303.086	32462.32
303.152	32494.44
303.219	32517.64
303.285	32566.54
303.351	32633.75
303.417	32670.38
303.483	32685.83
303.55	32703.85
303.616	32738.41
303.682	32780.84
303.748	32801.43
303.815	32886.29
303.881	32956.16
303.947	32968.76
304.013	33022.41
304.079	33033.02
304.145	33018.48
304.212	33052.84
304.278	33057.59
304.344	33076.78
304.41	33088.12
304.476	33099.31
304.542	33133.19
304.608	33191.29
304.674	33180.15
304.741	33195.95
304.807	33247.96
304.873	33308.83
304.939	33386.19
305.005	33377.56
305.071	33409.16
305.137	33463.92
305.203	33439.87
305.269	33468.04
305.335	33533.11
305.401	33548.67
305.467	33589.77
305.533	33660.89
305.599	33709.22
305.666	33791.39
305.732	33827.26
305.798	33887.47
305.864	33990.61
305.93	34040.64
305.996	34073.47
306.062	34111.04
306.128	34134.17
306.194	34143.43
306.259	34167.77
306.325	34176.5
306.391	34236.66
306.457	34299.6
306.523	34333.49
306.589	34429.75
306.655	34430.82
306.721	34411.71
306.787	34416.71
306.853	34478.78
306.919	34460.45
306.985	34482.18
307.051	34490.04
307.117	34502.06
307.183	34524.66
307.248	34482.71
307.314	34513.26
307.38	34540.13
307.446	34591.35
307.512	34592.75
307.578	34630.34
307.644	34650.17
307.709	34682.47
307.775	34703.14
307.841	34715.41
307.907	34750.18
307.973	34722.14
308.039	34767.05
308.104	34834.62
308.17	34880.64
308.236	34873.56
308.302	34905.47
308.368	34907.51
308.433	34930.11
308.499	34955.57
308.565	34960.81
308.631	35005.63
308.696	34980.94
308.762	34985.16
308.828	35022.71
308.894	35020
308.959	35000.26
309.025	35010.15
309.091	35033.15
309.156	35048.77
309.222	35102.04
309.288	35103.93
309.354	35092.53
309.419	35124.07
309.485	35100.59
309.551	35144.15
309.616	35145.12
309.682	35181.61
309.748	35198.39
309.813	35217.11
309.879	35230.89
309.945	35219.73
310.01	35228.13
310.076	35272.61
310.141	35285.46
310.207	35262.27
310.273	35300.3
310.338	35351.96
310.404	35328.87
310.469	35330.86
310.535	35336.49
310.601	35286.66
310.666	35326.11
310.732	35376.95
310.797	35371.17
310.863	35380
310.928	35386.5
310.994	35422.8
311.059	35448.27
311.125	35467.68
311.191	35527.07
311.256	35513.39
311.322	35566.08
311.387	35542.6
311.453	36528.08
311.518	36523.62
311.584	36551.38
311.649	36593.01
311.715	36598.39
311.78	36637.83
311.846	36640.21
311.911	36683.15
311.976	36730.26
312.042	36720.12
312.107	36707.84
312.173	36709.49
312.238	36726.09
312.304	36738.95
312.369	36741.33
312.434	36725.26
312.5	36742.83
312.565	36688.62
312.631	36749.46
312.696	36753
312.761	36803.85
312.827	35853.45
312.892	35958.48
312.958	35986.14
313.023	36013.47
313.088	36029.97
313.154	36023.95
313.219	36029.82
313.284	36032.93
313.35	36047
313.415	36048.7
313.48	36067.04
313.546	36113.1
313.611	36162.55
313.676	36169.64
313.741	36179.83
313.807	36237.19
313.872	36269.42
313.937	36321.44
314.003	36366.24
314.068	36401.67
314.133	36440.41
314.198	36438.22
314.264	36417.1
314.329	36414.92
314.394	36418.7
314.459	36444.23
314.525	36523.97
314.59	36549.05
314.655	36547.89
314.72	36595.31
314.785	36618.9
314.851	36631.76
314.916	36608.66
314.981	36596.52
315.046	36591.81
315.111	36600.02
315.176	36587.69
315.242	36625.21
315.307	36632.69
315.372	36620.36
315.437	36623.22
315.502	36622.54
315.567	36681.42
315.632	36653.95
315.698	36685.31
315.763	36696.96
315.828	36688.71
315.893	36700.65
315.958	36709.24
316.023	36713.7
316.088	36663.12
316.153	36631.78
316.218	36633.72
316.283	36599.22
316.348	36557.82
316.413	36557.87
316.479	36516.87
316.544	36430.11
316.609	36341.19
316.674	36245.51
316.739	36135.75
316.804	36037.59
316.869	35933.37
316.934	35821.11
316.999	35733.39
317.064	35583.47
317.129	35449.26
317.194	35334.39
317.259	35183.21
317.324	35017.09
317.389	34864.7
317.454	34749.98
317.518	34637.66
317.583	34535.99
317.648	34449.32
317.713	34330.62
317.778	34143.92
317.843	34029.44
317.908	33904.95
317.973	33771.81
318.038	33652.86
318.103	33533.34
318.168	33410.86
318.233	33283.63
318.297	33103.1
318.362	32964.83
318.427	32806.13
318.492	32689.82
318.557	32520.68
318.622	32402.65
318.687	32299.1
318.751	32149.71
318.816	32007.87
318.881	31869.22
318.946	31674.03
319.011	31485.17
319.075	31324.33
319.14	31169.15
319.205	30985.05
319.27	30828.97
319.335	30649.45
319.399	30492.75
319.464	30349.99
319.529	30157.28
319.594	29992.42
319.658	29852.81
319.723	29665.37
319.788	29530.98
319.853	29325.06
319.917	29174.22
319.982	28967.81
320.047	28801.91
320.112	28664.33
320.176	28467.81
320.241	28290.41
320.306	28126.18
320.37	27964.1
320.435	27800.57
320.5	27657.75
320.564	27487.37
320.629	27294.75
320.694	27131.15
320.758	26937.24
320.823	26735.41
320.888	26575.93
320.952	26358.75
321.017	26167.26
321.082	25991.89
321.146	25819.16
321.211	25646.16
321.275	25454.68
321.34	25246.32
321.405	25044.07
321.469	24834.6
321.534	24621.22
321.598	24415.85
321.663	24254.84
321.727	24072.83
321.792	23863.34
321.857	23666.15
321.921	23479.84
321.986	23297.38
322.05	23062.41
322.115	22886.41
322.179	22688.68
322.244	22455.53
322.308	22292.48
322.373	22083.69
322.437	21881.46
322.502	21719.95
322.566	21510.26
322.631	21345.8
322.695	21166.31
322.76	20957.09
322.824	20777.6
322.889	20587.28
322.953	20379.9
323.018	20110.96
323.082	19859.19
323.146	19631.63
323.211	19396.78
323.275	19189.79
323.34	18982.42
323.404	18799.01
323.468	18582.05
323.533	18372.8
323.597	18162.53
323.662	17925.28
323.726	17747.64
323.79	17530.96
323.855	17268.12
323.919	17050.13
323.983	16828.2
324.048	16503.67
324.112	16672.64
324.177	16016.6
324.241	15148.76
324.305	14293.09
324.37	13459.25
324.434	12640.7
324.498	12418.25
324.562	12172.93
324.627	11885.89
324.691	11598.61
324.755	11282.49
324.82	10924.71
324.884	10546.1
324.948	10169.74
325.012	9714.97
325.077	9125.52
