Data from 20250626_urea_1M_exp2_MAYP1162681_08-43-59-096.txt Node
Date: Fri Jun 27 08:43:59 BST 2025
User: adleo
Spectrometer: MAYP116268
Trigger mode: 0
Integration Time (sec): 3.000000E0
Scans to average: 1
Electric dark correction enabled: true
Nonlinearity correction enabled: true
Boxcar width: 10
XAxis mode: Wavelengths
Number of Pixels in Spectrum: 2068
>>>>>Begin Spectral Data<<<<<
179.565	3015.78
179.642	3173.1
179.718	3289.2
179.795	3397.83
179.871	3484.41
179.948	3537.87
180.024	3596.04
180.101	3657.95
180.177	3696.27
180.254	3759.71
180.33	3817.34
180.407	4024.96
180.483	4258.14
180.56	4492.64
180.636	4712.84
180.712	4686.79
180.789	4707.42
180.865	4738.09
180.942	4759.81
181.018	4789.54
181.095	4824.37
181.171	4837.39
181.248	4841.61
181.324	4880.98
181.4	4895.78
181.477	4930.84
181.553	4961.9
181.63	5015.84
181.706	5056.22
181.782	5085.08
181.859	5086.04
181.935	5107.55
182.011	5098.83
182.088	5143.91
182.164	5200.87
182.24	5231.04
182.317	5250.86
182.393	5245.64
182.469	5283.68
182.546	5322.78
182.622	5332.31
182.698	5325.51
182.775	5359.58
182.851	5392.98
182.927	5377.03
183.003	5366.15
183.08	5348.33
183.156	5373.68
183.232	5365
183.308	5340.08
183.385	5357.18
183.461	5402.34
183.537	5399.13
183.613	5432.87
183.69	5406.31
183.766	5376.86
183.842	5397.38
183.918	5411.95
183.995	5444.63
184.071	5454.6
184.147	5440.27
184.223	5414.41
184.299	5443.94
184.375	5414.56
184.452	5427.51
184.528	5533.2
184.604	5567.31
184.68	5601.15
184.756	5619.85
184.832	5633.23
184.908	5645.83
184.985	5646.31
185.061	5599.72
185.137	5625.42
185.213	5597.47
185.289	5604.61
185.365	5586.74
185.441	5580.22
185.517	5617.39
185.593	5613.37
185.669	5604.69
185.745	5630.72
185.822	5670.48
185.898	5643.3
185.974	5671.43
186.05	5653.64
186.126	5589.71
186.202	5564.46
186.278	5552.37
186.354	5529.45
186.43	5545.81
186.506	5539.25
186.582	5538.86
186.658	5558.6
186.734	5506.8
186.81	5513.41
186.886	5518.35
186.962	5545.76
187.038	5536.37
187.114	5513.82
187.19	5529.5
187.266	5505.06
187.341	5503.09
187.417	5486.75
187.493	5485.07
187.569	5490.82
187.645	5478.5
187.721	5446.81
187.797	5471.01
187.873	5480.74
187.949	5461.96
188.025	5445.7
188.101	5456.09
188.176	5466.16
188.252	5454.56
188.328	5473.24
188.404	5469.6
188.48	5459.39
188.556	5437.54
188.632	5446.21
188.707	5446.59
188.783	5447.07
188.859	5436.87
188.935	5409.64
189.011	5432.55
189.086	5420.67
189.162	5395.46
189.238	5386.26
189.314	5379.02
189.39	5366.94
189.465	5348.34
189.541	5394.27
189.617	5357.12
189.693	5343.18
189.768	5353.92
189.844	5419.05
189.92	5395.87
189.996	5418.88
190.071	5444.38
190.147	5446.54
190.223	5463.23
190.298	5442.99
190.374	5402.97
190.45	5433.87
190.526	5456.31
190.601	5442.74
190.677	5444.42
190.753	5520.03
190.828	5537.95
190.904	5576.89
190.98	5611.61
191.055	5636.63
191.131	5614.67
191.207	5667.45
191.282	5695
191.358	5668.54
191.433	5631.12
191.509	5671.35
191.585	5660.66
191.66	5668.29
191.736	5689.48
191.811	5667.61
191.887	5710.25
191.963	5774.85
192.038	5788.85
192.114	5786.55
192.189	5797.57
192.265	5791.44
192.34	5732.65
192.416	5721.77
192.491	5711.98
192.567	5723.89
192.642	5727.67
192.718	5729.45
192.793	5696.89
192.869	5684.33
192.944	5692.81
193.02	5712.19
193.095	5720.29
193.171	5744.51
193.246	5740.91
193.322	5729.98
193.397	5735.2
193.473	5698.79
193.548	5650.01
193.624	5664.88
193.699	5665.36
193.775	5703.32
193.85	5714.53
193.925	5735.3
194.001	5735.25
194.076	5715.01
194.152	5683.25
194.227	5673.18
194.302	5646.44
194.378	5650.71
194.453	5643.14
194.529	5674.79
194.604	5635.32
194.679	5622.91
194.755	5568.08
194.83	5600.61
194.905	5599.03
194.981	5616.05
195.056	5601
195.131	5617.01
195.207	5608.95
195.282	5579.05
195.357	5526.67
195.433	5564.5
195.508	5531.07
195.583	5552.6
195.659	5592.74
195.734	5614.76
195.809	5610.06
195.884	5631.48
195.96	5638.29
196.035	5678.85
196.11	5668.73
196.185	5702.2
196.261	5704.26
196.336	5785.1
196.411	5741.44
196.486	5755.54
196.561	5741.92
196.637	5765.46
196.712	5809.56
196.787	5820.69
196.862	5870.84
196.937	5896.49
197.013	5909.07
197.088	5936.49
197.163	5991.64
197.238	6034.63
197.313	6028.15
197.388	6066.44
197.464	6149.14
197.539	6183.2
197.614	6163.25
197.689	6192.9
197.764	6232.32
197.839	6294.12
197.914	6280.11
197.989	6348.26
198.065	6378.44
198.14	6511.61
198.215	6577.81
198.29	6610
198.365	6642.55
198.44	6664.3
198.515	6742.15
198.59	6786.38
198.665	6857.89
198.74	6880
198.815	6880.28
198.89	6940.88
198.965	7016.53
199.04	7002.16
199.115	7039.57
199.19	7151.83
199.265	7163.5
199.34	7189.25
199.415	7273.35
199.49	7327.62
199.565	7351.36
199.64	7422.73
199.715	7418.35
199.79	7432.91
199.865	7447.38
199.94	7439.21
200.015	7525.17
200.09	7540.51
200.165	7555.46
200.24	7569.88
200.315	7673.04
200.39	7722.62
200.464	7742.52
200.539	7752
200.614	7797.61
200.689	7862.2
200.764	7879.23
200.839	7922.53
200.914	7939.06
200.989	7909.62
201.063	7949.73
201.138	7902.93
201.213	7899.08
201.288	7839.61
201.363	7850.47
201.438	7851.19
201.512	7897.62
201.587	7858.03
201.662	7864.09
201.737	7895.5
201.812	7923.68
201.886	7836.48
201.961	7859.87
202.036	7824.3
202.111	7807.9
202.186	7730.59
202.26	7676.05
202.335	7621.52
202.41	7609.55
202.485	7564.37
202.559	7511.64
202.634	7439.05
202.709	7464.03
202.784	7414.62
202.858	7417.55
202.933	7373.39
203.008	7358.44
203.082	7309.47
203.157	7299.76
203.232	7187.47
203.306	7127.08
203.381	7035.95
203.456	6971.52
203.53	6899.57
203.605	6849.21
203.68	6788.66
203.754	6767.12
203.829	6728.2
203.904	6669.9
203.978	6634.59
204.053	6645.78
204.127	6614.14
204.202	6612.08
204.277	6559.84
204.351	6541.98
204.426	6525.55
204.5	6503.94
204.575	6404.6
204.65	6424.92
204.724	6406.22
204.799	6427.76
204.873	6416.76
204.948	6414.07
205.022	6386.67
205.097	6363.37
205.171	6400.86
205.246	6419.69
205.32	6424.77
205.395	6426.93
205.469	6406.4
205.544	6419.23
205.618	6371.26
205.693	6398.97
205.767	6362.35
205.842	6423.76
205.916	6403.55
205.991	6376
206.065	6391.45
206.14	6434.61
206.214	6419.28
206.289	6397.33
206.363	6428.97
206.438	6434.78
206.512	6456.92
206.586	6505.15
206.661	6532.88
206.735	6474.34
206.81	6481.79
206.884	6521.77
206.958	6489.91
207.033	6530.78
207.107	6545.87
207.181	6625.12
207.256	6612.21
207.33	6665.21
207.405	6699.97
207.479	6752.74
207.553	6774.77
207.628	6730.87
207.702	6760.63
207.776	6748.58
207.851	6758.33
207.925	6797.92
207.999	6787.93
208.073	6777.22
208.148	6787.55
208.222	6761.37
208.296	6846.7
208.371	6886.27
208.445	6911.4
208.519	6984.39
208.593	7016.67
208.668	7004.51
208.742	7014.37
208.816	7017.45
208.89	7050.66
208.965	7042.44
209.039	7066.32
209.113	7105.92
209.187	7167.02
209.261	7159.82
209.336	7216.42
209.41	7274.82
209.484	7275.35
209.558	7340.52
209.632	7372.61
209.707	7400.44
209.781	7453.26
209.855	7493.41
209.929	7538.98
210.003	7556.91
210.077	7553.25
210.151	7682.35
210.226	7779.9
210.3	7854.44
210.374	7914.27
210.448	7927.59
210.522	7960.98
210.596	7984.59
210.67	8012.68
210.744	8139.25
210.818	8222.56
210.892	8278.75
210.966	8256.49
211.041	8301.51
211.115	8291.27
211.189	8359.67
211.263	8401.85
211.337	8421.48
211.411	8459.63
211.485	8445.19
211.559	8469.77
211.633	8478.52
211.707	8393.8
211.781	8413.11
211.855	8317.4
211.929	8296.97
212.003	8250.72
212.077	8274.4
212.151	8305.49
212.225	8328.2
212.299	8292.42
212.373	8260.39
212.447	8242.72
212.52	8323.94
212.594	8330.53
212.668	8362.52
212.742	8325.67
212.816	8313.06
212.89	8294.54
212.964	8285.64
213.038	8292.09
213.112	8330.06
213.186	8365.21
213.26	8310.94
213.333	8185.01
213.407	8195.83
213.481	8206.84
213.555	8230.15
213.629	8192.22
213.703	8146.52
213.777	8136.22
213.85	8078.01
213.924	8158.56
213.998	8152.83
214.072	8125.59
214.146	8082.77
214.219	8070.94
214.293	8058.1
214.367	8059.25
214.441	8078.3
214.515	8044.09
214.588	7969.11
214.662	7866.48
214.736	7806.38
214.81	7819.98
214.883	7837.08
214.957	7801.37
215.031	7755.48
215.105	7683.29
215.178	7632.28
215.252	7611.17
215.326	7539.35
215.4	7479.48
215.473	7345.54
215.547	7277.55
215.621	7229.01
215.694	7224.01
215.768	7143.98
215.842	7093.24
215.915	7036.41
215.989	6945.33
216.063	6903.56
216.136	6888.66
216.21	6870.99
216.284	6879.35
216.357	6859.8
216.431	6829.2
216.504	6825.4
216.578	6868.46
216.652	6882.23
216.725	6868.06
216.799	6866.09
216.873	6845.1
216.946	6849.42
217.02	6818.08
217.093	6800.65
217.167	6722.36
217.24	6658.03
217.314	6627.65
217.387	6586.33
217.461	6550.8
217.535	6570.39
217.608	6521.55
217.682	6502.54
217.755	6509.79
217.829	6468.14
217.902	6455.37
217.976	6440.73
218.049	6404.29
218.123	6343.19
218.196	6341.41
218.27	6311.45
218.343	6257.56
218.417	6256.17
218.49	6237.55
218.563	6271.24
218.637	6272.2
218.71	6326.07
218.784	6347.82
218.857	6373.74
218.931	6393.65
219.004	6398.49
219.077	6417.52
219.151	6436.19
219.224	6431
219.298	6432.54
219.371	6465.24
219.444	6429.97
219.518	6434.05
219.591	6445.33
219.665	6530.34
219.738	6538.78
219.811	6522.38
219.885	6556.52
219.958	6582.3
220.031	6581.97
220.105	6596.71
220.178	6603.68
220.251	6579.8
220.325	6600.32
220.398	6614.48
220.471	6626.58
220.544	6658.28
220.618	6636.56
220.691	6652.41
220.764	6668.16
220.838	6689
220.911	6678.29
220.984	6744.93
221.057	6777.44
221.131	6798.66
221.204	6722.44
221.277	6780.43
221.35	6884.53
221.424	6879.48
221.497	6888.81
221.57	6913.57
221.643	6942.55
221.716	6977.39
221.79	6987.81
221.863	6994.06
221.936	6998.43
222.009	7015.09
222.082	7034.85
222.155	7045.22
222.229	7095.01
222.302	7119.13
222.375	7122.16
222.448	7151.18
222.521	7163.44
222.594	7161.76
222.667	7143.08
222.74	7186.55
222.814	7179.63
222.887	7161.6
222.96	7201.63
223.033	7237.92
223.106	7257.76
223.179	7284.21
223.252	7292.63
223.325	7317.23
223.398	7331.5
223.471	7359.04
223.544	7365.67
223.617	7376.48
223.69	7393.49
223.763	7366.04
223.837	7382.39
223.91	7410.46
223.983	7376.15
224.056	7346.22
224.129	7365.34
224.202	7403.91
224.275	7393.33
224.348	7368.78
224.42	7343.4
224.493	7301.88
224.566	7280.67
224.639	7294.85
224.712	7265.66
224.785	7262.77
224.858	7248.4
224.931	7233.93
225.004	7199.68
225.077	7205.97
225.15	7135.11
225.223	7132.8
225.296	7198.21
225.369	7148.39
225.442	7119.69
225.514	7128.96
225.587	7142.51
225.66	7148.52
225.733	7149.24
225.806	7155.63
225.879	7148.71
225.952	7119.32
226.025	7158
226.097	7198.4
226.17	7192.39
226.243	7143.15
226.316	7137.09
226.389	7141.41
226.461	7156.51
226.534	7172.55
226.607	7162.13
226.68	7223.52
226.753	7218.04
226.825	7152.25
226.898	7197.55
226.971	7199.91
227.044	7222.78
227.117	7230.52
227.189	7245.13
227.262	7274.22
227.335	7299.17
227.407	7298.64
227.48	7330.63
227.553	7334.28
227.626	7316.1
227.698	7319.32
227.771	7355.1
227.844	7338.47
227.916	7362.75
227.989	7329.97
228.062	7328.67
228.134	7403.53
228.207	7408.05
228.28	7400.51
228.352	7407.48
228.425	7420.36
228.498	7453.63
228.57	7439.21
228.643	7480.03
228.716	7478.93
228.788	7472.68
228.861	7463.35
228.934	7512.61
229.006	7519.49
229.079	7522.8
229.151	7520.45
229.224	7499.55
229.296	7517.19
229.369	7600.45
229.442	7637.34
229.514	7632.15
229.587	7672.05
229.659	7609.15
229.732	7620.98
229.804	7654.29
229.877	7720.91
229.949	7736.59
230.022	7781.24
230.094	7779.32
230.167	7774.56
230.239	7740.28
230.312	7730.57
230.384	7785.8
230.457	7788.54
230.529	7792
230.602	7790.99
230.674	7792.63
230.747	7817.57
230.819	7838.82
230.892	7735.58
230.964	7731.87
231.037	7749.55
231.109	7739.17
231.181	7773.83
231.254	7744.21
231.326	7734.6
231.399	7717.17
231.471	7702.7
231.544	7636.22
231.616	7671.89
231.688	7669.62
231.761	7662.66
231.833	7654.78
231.905	7582.05
231.978	7575.46
232.05	7563.45
232.122	7567.44
232.195	7547.92
232.267	7581.19
232.339	7561.57
232.412	7618.76
232.484	7596.97
232.556	7571.61
232.629	7626.45
232.701	7635.49
232.773	7642.94
232.846	7637.32
232.918	7639.05
232.99	7656.85
233.062	7687.04
233.135	7694.16
233.207	7671.99
233.279	7709.91
233.351	7734.82
233.424	7741.02
233.496	7720.34
233.568	7791.67
233.64	7763.35
233.713	7778.11
233.785	7776.38
233.857	7790.8
233.929	7748.12
234.001	7803.02
234.074	7863.96
234.146	7805.85
234.218	7803.45
234.29	7804.89
234.362	7792.11
234.434	7755.6
234.507	7718.28
234.579	7682.51
234.651	7667.5
234.723	7692.27
234.795	7703.81
234.867	7703.76
234.939	7750.56
235.012	7764.69
235.084	7760.79
235.156	7791.13
235.228	7775.98
235.3	7757.76
235.372	7763.1
235.444	7814.39
235.516	7755.59
235.588	7757.42
235.66	7768.91
235.732	7750.06
235.804	7909.4
235.876	7940.12
235.948	7987.7
236.02	8001.83
236.092	8015.96
236.164	8023.13
236.236	8027.55
236.308	8021.25
236.38	8038.66
236.452	8021.25
236.524	8042.6
236.596	8093.78
236.668	8118.89
236.74	8140.09
236.812	8164.43
236.884	8189.83
236.956	8198.54
237.028	8187.38
237.1	8172
237.172	8230.46
237.244	8290.06
237.316	8194.17
237.388	8189.17
237.46	8172.66
237.532	8227.27
237.604	8216.12
237.675	8276.79
237.747	8307.59
237.819	8302.44
237.891	8304.46
237.963	8291.91
238.035	8289.12
238.107	8204.56
238.178	8254.18
238.25	8251.44
238.322	8328.37
238.394	8300.75
238.466	8294.26
238.538	8324.46
238.609	8360.2
238.681	8318.57
238.753	8302.93
238.825	8313.66
238.897	8337.81
238.968	8400.53
239.04	8378.49
239.112	8470.67
239.184	8442.13
239.255	8439.44
239.327	8471.04
239.399	8481.43
239.471	8526.07
239.542	8550.71
239.614	8597.81
239.686	8536.64
239.758	8588.75
239.829	8554.99
239.901	8603.83
239.973	8624.14
240.044	8652.53
240.116	8663.17
240.188	8670.04
240.259	8681.74
240.331	8673.84
240.403	8702.96
240.474	8667.42
240.546	8665.02
240.618	8618.66
240.689	8618.86
240.761	8631.37
240.833	8675.94
240.904	8687.4
240.976	8681.33
241.048	8695
241.119	8728.66
241.191	8764.27
241.262	8811.75
241.334	8813.48
241.405	8814.4
241.477	8816.56
241.549	8827.73
241.62	8851.12
241.692	8887.03
241.763	8932.19
241.835	8952.26
241.906	8962.61
241.978	8937.44
242.049	8979.8
242.121	9023.26
242.192	9072.89
242.264	9044.06
242.335	9005.84
242.407	9039.73
242.478	9049.6
242.55	9065.49
242.621	9050.85
242.693	9048.58
242.764	9043.24
242.836	9048.39
242.907	9072.9
242.979	9099.85
243.05	9116.13
243.122	9132.07
243.193	9130.96
243.264	9084.16
243.336	9082.28
243.407	9116.37
243.479	9178.91
243.55	9198.17
243.622	9213.24
243.693	9209.82
243.764	9271.93
243.836	9262.11
243.907	9249.78
243.978	9252.14
244.05	9274.25
244.121	9242.52
244.192	9278.3
244.264	9238.28
244.335	9251.38
244.407	9210.07
244.478	9217.87
244.549	9212.86
244.62	9175.02
244.692	9174.35
244.763	9204.77
244.834	9198.61
244.906	9173.96
244.977	9192.55
245.048	9235.95
245.119	9216.93
245.191	9200.42
245.262	9147.99
245.333	9204.59
245.405	9215.38
245.476	9240.51
245.547	9248.79
245.618	9284.95
245.689	9294.1
245.761	9321.88
245.832	9325.63
245.903	9371.13
245.974	9400.03
246.045	9407.73
246.117	9478.23
246.188	9468.46
246.259	9457.58
246.33	9475.44
246.401	9486.51
246.473	9457.57
246.544	9447.64
246.615	9493.2
246.686	9503.46
246.757	9567.06
246.828	9551.89
246.899	9616.92
246.97	9591.12
247.042	9588.47
247.113	9631.38
247.184	9697.58
247.255	9695.27
247.326	9711.02
247.397	9717.33
247.468	9715.93
247.539	9727.73
247.61	9690.84
247.681	9724.97
247.752	9760.42
247.823	9742.17
247.894	9752.62
247.965	9728.45
248.037	9713.42
248.108	9674.12
248.179	9678.02
248.25	9668.58
248.321	9688.71
248.392	9650.21
248.463	9715.51
248.534	9713.01
248.605	9720.62
248.675	9693.2
248.746	9711.69
248.817	9726.53
248.888	9737.56
248.959	9691.14
249.03	9712
249.101	9715.37
249.172	9705.21
249.243	9649.74
249.314	9697.61
249.385	9711.72
249.456	9736.18
249.527	9730.74
249.598	9753.13
249.669	9744.7
249.739	9754.29
249.81	9768.69
249.881	9730.98
249.952	9723.13
250.023	9723.56
250.094	9684.84
250.165	9661.66
250.235	9655.4
250.306	9660.22
250.377	9637.34
250.448	9667.58
250.519	9615.57
250.59	9660.7
250.66	9654.15
250.731	9717.23
250.802	9720.36
250.873	9732.55
250.944	9748.11
251.014	9745.17
251.085	9816.52
251.156	9842.14
251.227	9883.24
251.297	9923.03
251.368	9969.55
251.439	10007.23
251.51	10039.46
251.58	10030.45
251.651	10039.99
251.722	10082
251.792	10045.92
251.863	10044.76
251.934	10092.12
252.005	10183.97
252.075	10193.8
252.146	10241.48
252.217	10278.68
252.287	10315.1
252.358	10319.1
252.429	10380.39
252.499	10375.71
252.57	10377.5
252.641	10416.37
252.711	10417.63
252.782	10385.49
252.852	10444.37
252.923	10443.65
252.994	10459.89
253.064	10501.21
253.135	10478.04
253.205	10463.49
253.276	10520.53
253.347	10572.84
253.417	10553.57
253.488	10538.92
253.558	10529
253.629	10525.96
253.699	10533.09
253.77	10547.07
253.841	10539.6
253.911	10548.18
253.982	10559.31
254.052	10584.66
254.123	10589.96
254.193	10588.51
254.264	10691.2
254.334	10667.59
254.405	10637.19
254.475	10615.27
254.546	10622.3
254.616	10674.81
254.687	10699.2
254.757	10721.41
254.827	10719.1
254.898	10739.67
254.968	10743
255.039	10736.59
255.109	10769.69
255.18	10747.91
255.25	10698.42
255.321	10730.22
255.391	10696.06
255.461	10770.31
255.532	10702.17
255.602	10704
255.673	10669.12
255.743	10644.15
255.813	10584.84
255.884	10622.62
255.954	10648.93
256.024	10700.01
256.095	10702.71
256.165	10675.29
256.235	10692.16
256.306	10685.56
256.376	10722.23
256.446	10757.17
256.517	10782.32
256.587	10821.84
256.657	10835.52
256.728	10851.32
256.798	10855.95
256.868	10845.78
256.938	10819.08
257.009	10859.8
257.079	10881.2
257.149	10955.65
257.219	10910.2
257.29	10942.62
257.36	10903.01
257.43	10931.11
257.5	10869.24
257.571	10860.95
257.641	10890.82
257.711	10855.11
257.781	10877.23
257.852	10886.24
257.922	10833.09
257.992	10830.29
258.062	10811.45
258.132	10850.63
258.202	10857.47
258.273	10867.69
258.343	10935.2
258.413	10922.38
258.483	10926.34
258.553	10904.99
258.623	10886.77
258.693	10909.42
258.764	10965.8
258.834	11020.44
258.904	11038.27
258.974	11035.09
259.044	11042.27
259.114	11062.47
259.184	11088.92
259.254	11094.9
259.324	11057.36
259.394	11098.41
259.464	11158.75
259.535	11176.97
259.605	11171.57
259.675	11161.79
259.745	11189.36
259.815	11174.51
259.885	11184.1
259.955	11272.65
260.025	11267.2
260.095	11276.41
260.165	11299.93
260.235	11336.22
260.305	11324.42
260.375	11299.31
260.445	11374.91
260.515	11425.18
260.585	11466.63
260.655	11474.34
260.725	11519.89
260.795	11547.21
260.865	11599.46
260.934	11572.57
261.004	11584.9
261.074	11585.15
261.144	11632.56
261.214	11657.05
261.284	11655.17
261.354	11687.55
261.424	11648.94
261.494	11704.51
261.564	11712.8
261.634	11734.82
261.703	11687.69
261.773	11706.38
261.843	11733.95
261.913	11732.89
261.983	11685.42
262.053	11698.1
262.123	11694.53
262.192	11651.01
262.262	11687.35
262.332	11656.41
262.402	11689.71
262.472	11701.62
262.541	11648.32
262.611	11682.3
262.681	11665.19
262.751	11697.58
262.821	11695.99
262.89	11677.19
262.96	11702.06
263.03	11766.85
263.1	11786.52
263.169	11808.64
263.239	11839.44
263.309	11895.06
263.379	11920.32
263.448	11944.37
263.518	11965.68
263.588	11982.35
263.657	12040.04
263.727	12067.71
263.797	12075.57
263.867	12070.94
263.936	12041.01
264.006	12099.32
264.076	12100.09
264.145	12099.9
264.215	12083.03
264.285	12112.24
264.354	12078.26
264.424	12063.12
264.494	12020.17
264.563	12005.66
264.633	12063.75
264.702	12076.91
264.772	12033.38
264.842	12032.94
264.911	12065.38
264.981	12026.34
265.05	12034.87
265.12	12040.56
265.19	12049.28
265.259	12089.92
265.329	12120.77
265.398	12144
265.468	12224.26
265.537	12218.76
265.607	12251.78
265.676	12302.92
265.746	12324.66
265.815	12367.75
265.885	12375.18
265.955	12366.74
266.024	12370.5
266.094	12322.25
266.163	12377.54
266.232	12425.7
266.302	12425.94
266.371	12439.97
266.441	12462
266.51	12501.43
266.58	12492.03
266.649	12487.93
266.719	12521.87
266.788	12541.1
266.858	12597.69
266.927	12543.65
266.996	12570.6
267.066	12594.56
267.135	12563.95
267.205	12595.09
267.274	12612.64
267.343	12658.38
267.413	12676.7
267.482	12727.22
267.552	12778.07
267.621	12736.04
267.69	12703.79
267.76	12725.33
267.829	12748.67
267.898	12769.06
267.968	12757.1
268.037	12798.08
268.106	12835.24
268.176	12812.92
268.245	12817.99
268.314	12812.92
268.384	12861.42
268.453	12873.32
268.522	12884.8
268.592	12936.76
268.661	12929.29
268.73	12949.87
268.799	12940.04
268.869	13000.35
268.938	12965.49
269.007	12956.57
269.076	12976.34
269.146	13025.27
269.215	13045.23
269.284	13096.95
269.353	13086.59
269.422	13094.01
269.492	13085.86
269.561	13021.99
269.63	13043.15
269.699	13041.42
269.768	13057.33
269.838	13073.14
269.907	13113.44
269.976	13092.85
270.045	13043.88
270.114	13067.79
270.183	13084.47
270.253	13110.02
270.322	13070.2
270.391	13092.57
270.46	13150.03
270.529	13190.23
270.598	13220.94
270.667	13229.95
270.736	13213.28
270.806	13248.37
270.875	13292.91
270.944	13307.71
271.013	13404.27
271.082	13430.06
271.151	13461.06
271.22	13431.55
271.289	13438.3
271.358	13431.84
271.427	13466.65
271.496	13498.51
271.565	13501.11
271.634	13518.32
271.703	13613.72
271.772	13665.83
271.841	13674.22
271.91	13645.06
271.979	13661.06
272.048	13633.68
272.117	13673.35
272.186	13671.67
272.255	13709.84
272.324	13742.38
272.393	13764.85
272.462	13763.31
272.531	13769.81
272.6	13783.6
272.669	13835.66
272.738	13846.8
272.807	13879.68
272.876	13866.37
272.945	13974.93
273.013	14023.14
273.082	14065.65
273.151	13989.78
273.22	14016.39
273.289	14037.02
273.358	14108.12
273.427	14117.38
273.496	14162.02
273.564	14194.94
273.633	14241.99
273.702	14231
273.771	14238.38
273.84	14269.08
273.909	14300.27
273.977	14347.75
274.046	14360.63
274.115	14414.62
274.184	14415.29
274.253	14435.3
274.322	14496.28
274.39	14446.77
274.459	14441.95
274.528	14403.67
274.597	14430.53
274.665	14455.83
274.734	14509.68
274.803	14514.74
274.872	14528
274.94	14524.24
275.009	14711.81
275.078	14704.01
275.147	14736.5
275.215	14753.17
275.284	14802.39
275.353	14813
275.421	14780.02
275.49	14851.65
275.559	14855.56
275.627	14872.77
275.696	14884.72
275.765	14921.93
275.833	14931.33
275.902	14971.34
275.971	15039.89
276.039	15107.04
276.108	15151.72
276.177	15183.1
276.245	15196.6
276.314	15225.76
276.383	15280.23
276.451	15135.55
276.52	15179.71
276.588	15247.33
276.657	15299.54
276.725	15310.04
276.794	15339.93
276.863	15409.34
276.931	15380.37
277	15429.54
277.068	15483.52
277.137	15562.48
277.205	15583.2
277.274	15672.91
277.342	15728.05
277.411	15717.63
277.48	15720.62
277.548	15729.11
277.617	15765.93
277.685	15780.83
277.754	15822.71
277.822	15833.89
277.89	15900.55
277.959	15920.65
278.027	15900.94
278.096	15909.81
278.164	16017.48
278.233	16031.84
278.301	16037.43
278.37	16092.14
278.438	16093.92
278.507	16142.02
278.575	16110.94
278.643	16147.47
278.712	16126.26
278.78	16121.44
278.849	16183.67
278.917	16246.76
278.985	16270.91
279.054	16299.68
279.122	16364.41
279.191	16398.1
279.259	16421.33
279.327	16407.88
279.396	16482.59
279.464	16509.58
279.532	16565.29
279.601	16581.2
279.669	16611.17
279.737	16680.14
279.806	16721.45
279.874	16785.31
279.942	16817.89
280.011	16839.29
280.079	16887.96
280.147	16971.29
280.215	17022.86
280.284	17044.98
280.352	17041.03
280.42	17093.32
280.488	17111.68
280.557	17132.6
280.625	17166.82
280.693	17205.95
280.761	17247.16
280.83	17238.53
280.898	17312.7
280.966	17295.35
281.034	17248.56
281.102	17244.65
281.171	17261.18
281.239	17308.27
281.307	17319.59
281.375	17323.4
281.443	17429.04
281.512	17452.46
281.58	17509.42
281.648	17500.12
281.716	17528.75
281.784	17556.75
281.852	17577.57
281.92	17616.79
281.989	17678.58
282.057	17673.66
282.125	17780.64
282.193	17816.69
282.261	17856.83
282.329	17870.67
282.397	17919
282.465	17971.19
282.533	18044.06
282.601	18049.6
282.67	18025.56
282.738	18040.93
282.806	18107.97
282.874	18104.74
282.942	18143.82
283.01	18161.02
283.078	18214.37
283.146	18249.69
283.214	18314.41
283.282	18355.28
283.35	18419.85
283.418	18431.9
283.486	18490.69
283.554	18459.66
283.622	18483.76
283.69	18517.68
283.758	18550.11
283.826	18605.1
283.894	18666.11
283.962	18759.5
284.03	18831.25
284.098	18882.48
284.165	18907.59
284.233	18940.79
284.301	18966.19
284.369	18981.51
284.437	18989.75
284.505	19012.4
284.573	19092.54
284.641	19101.21
284.709	19153.07
284.777	19139.53
284.845	19195.57
284.912	19235.57
284.98	19284.48
285.048	19303.23
285.116	19346.16
285.184	19413.78
285.252	19448.91
285.319	19433.97
285.387	19437.77
285.455	19443.22
285.523	19496.86
285.591	19528.03
285.659	19564.27
285.726	19631.07
285.794	19632.22
285.862	19666.73
285.93	19710.43
285.997	19732.22
286.065	19762.29
286.133	19769.47
286.201	19810.62
286.269	19802
286.336	19816.65
286.404	19838.72
286.472	19906.28
286.539	19891.68
286.607	19875.73
286.675	19904.16
286.743	19966.09
286.81	19993.32
286.878	20063.19
286.946	20077.89
287.013	20108.98
287.081	20141.22
287.149	20138.52
287.216	20230.52
287.284	20256.83
287.352	20285.99
287.419	20311.96
287.487	20393.27
287.555	20440.16
287.622	20455.77
287.69	20514.62
287.758	20585.08
287.825	20608.21
287.893	20611.68
287.96	20664.83
288.028	20736.3
288.096	20774.76
288.163	20822.24
288.231	20829.85
288.298	20860.17
288.366	20930
288.433	20958
288.501	20975.26
288.569	21014.3
288.636	21033.62
288.704	21097.97
288.771	21160.82
288.839	21172.19
288.906	21175.42
288.974	21239.29
289.041	21281.46
289.109	21300.45
289.176	21346.92
289.244	21403.16
289.311	21465.77
289.379	21531.9
289.446	21570.7
289.514	21610.57
289.581	21641.22
289.649	21693.71
289.716	21728.66
289.783	21755.22
289.851	21856.88
289.918	21894.33
289.986	21968.66
290.053	22013.3
290.121	22048.92
290.188	22085.99
290.255	22207.67
290.323	22231.34
290.39	22249.37
290.458	22300.41
290.525	22373.5
290.592	22402.18
290.66	22433.13
290.727	22463.74
290.794	22534.57
290.862	22576.08
290.929	22624
290.996	22654.85
291.064	22711.55
291.131	22789.76
291.198	22852.39
291.266	22874.62
291.333	22923.74
291.4	22966.32
291.468	23039.37
291.535	23067.44
291.602	23112.18
291.669	23114.59
291.737	23159.33
291.804	23196.7
291.871	23271.49
291.938	23315.23
292.006	23418.3
292.073	23487.5
292.14	23539.38
292.207	23550.91
292.275	23587.7
292.342	23649.43
292.409	23751.1
292.476	23848.15
292.543	23853.99
292.611	23885.58
292.678	23967.38
292.745	24066.88
292.812	24130.75
292.879	24157.14
292.946	24196.87
293.014	24270.58
293.081	24329.57
293.148	24406.4
293.215	24478.18
293.282	24494.39
293.349	24560.24
293.416	24540.75
293.484	24604.43
293.551	24682.11
293.618	24764.89
293.685	24868.1
293.752	24882.86
293.819	24904.48
293.886	24904.05
293.953	24955.13
294.02	25026.16
294.087	25084.12
294.154	25094.3
294.221	25169.36
294.288	25212.11
294.356	25296.6
294.423	25344.14
294.49	25359.19
294.557	25431.1
294.624	25447.17
294.691	25542.09
294.758	25578.53
294.825	25643.49
294.892	25670.22
294.959	25697.21
295.026	25751.17
295.093	25764.84
295.16	25817.68
295.226	25857.74
295.293	25948.07
295.36	25994.11
295.427	26066.39
295.494	26127.96
295.561	26191.68
295.628	26285.94
295.695	26373.57
295.762	26427.93
295.829	26492.69
295.896	26585.58
295.963	26658.12
296.03	26734.69
296.096	26786.36
296.163	26870.06
296.23	26950.62
296.297	27028.51
296.364	27069.98
296.431	27132.97
296.498	27165.95
296.564	27266.55
296.631	27338.22
296.698	27352.03
296.765	27458.15
296.832	27454.48
296.899	27457.72
296.965	27543.27
297.032	27524.04
297.099	27606.53
297.166	27654.65
297.233	27687.41
297.299	27702.96
297.366	27734.95
297.433	27780.56
297.5	27852.42
297.566	27880.31
297.633	27920.8
297.7	27964.68
297.767	28013.38
297.833	28060.16
297.9	28109.3
297.967	28106.4
298.033	28176.48
298.1	28296.13
298.167	28314.69
298.234	28382.78
298.3	28452.27
298.367	28481.23
298.434	28542.05
298.5	28539.24
298.567	28568.05
298.634	28608.02
298.7	28695.36
298.767	28734.86
298.834	28803.65
298.9	28816.18
298.967	28833.19
299.033	28892.62
299.1	28975.65
299.167	29045.17
299.233	29077.13
299.3	29154.83
299.366	29239.77
299.433	29308.37
299.5	29273.2
299.566	29312.56
299.633	29391.4
299.699	29474.36
299.766	29515.32
299.832	29571.73
299.899	29645.06
299.965	29729.79
300.032	29757.94
300.099	29826.06
300.165	29890.01
300.232	29933.21
300.298	29984.92
300.365	30070.73
300.431	30112.63
300.498	30125.02
300.564	30185.69
300.631	30263.06
300.697	30344.41
300.763	30382.05
300.83	30407.51
300.896	30482.74
300.963	30552.8
301.029	30591.66
301.096	30621.68
301.162	30687.05
301.229	30708.59
301.295	30714.74
301.361	30759.99
301.428	30810.7
301.494	30799.71
301.561	30843.86
301.627	30892.5
301.693	30944.87
301.76	30986.36
301.826	31013.32
301.892	31089.71
301.959	31153.92
302.025	31170.43
302.092	31180.06
302.158	31231.13
302.224	31275
302.291	31305.98
302.357	31334.74
302.423	31364.37
302.49	31384.56
302.556	31450.77
302.622	31486.79
302.688	31561.4
302.755	31629.46
302.821	31689.15
302.887	31756.2
302.954	31793.59
303.02	31830.44
303.086	31877.47
303.152	31903.04
303.219	31933.54
303.285	31968.18
303.351	32011.3
303.417	32047.86
303.483	32066.8
303.55	32090.67
303.616	32124.39
303.682	32161.49
303.748	32180.95
303.815	32264.24
303.881	32335.5
303.947	32334.1
304.013	32373.43
304.079	32390.39
304.145	32376.97
304.212	32419.89
304.278	32426.09
304.344	32449.63
304.41	32465.13
304.476	32482.57
304.542	32510.72
304.608	32566.29
304.674	32557.32
304.741	32567.69
304.807	32622.98
304.873	32681.51
304.939	32756.71
305.005	32741.01
305.071	32763.2
305.137	32808.5
305.203	32772.35
305.269	32789.84
305.335	32864.58
305.401	32899.42
305.467	32930.48
305.533	32982
305.599	33025.37
305.666	33088.46
305.732	33119.67
305.798	33190.18
305.864	33280.98
305.93	33333.32
305.996	33364.87
306.062	33411.98
306.128	33446.88
306.194	33453.42
306.259	33477.46
306.325	33489.34
306.391	33568.83
306.457	33624.71
306.523	33664.79
306.589	33769.07
306.655	33783.52
306.721	33765.34
306.787	33761.36
306.853	33840.88
306.919	33838.5
306.985	33859.79
307.051	33887.32
307.117	33911.66
307.183	33922.37
307.248	33878.93
307.314	33930.72
307.38	33964.71
307.446	34013.87
307.512	34020.27
307.578	34052.85
307.644	34078.06
307.709	34111.47
307.775	34120.97
307.841	34141
307.907	34172.13
307.973	34137.36
308.039	34173.04
308.104	34214.89
308.17	34260.02
308.236	34243.53
308.302	34280.81
308.368	34268.01
308.433	34305.6
308.499	34324.41
308.565	34342.25
308.631	34390.74
308.696	34352.96
308.762	34356.8
308.828	34378.52
308.894	34367.91
308.959	34345.6
309.025	34354.91
309.091	34379.46
309.156	34392.11
309.222	34438.82
309.288	34443.91
309.354	34434.6
309.419	34460.65
309.485	34457.5
309.551	34499.69
309.616	34489.46
309.682	34515.5
309.748	34548.18
309.813	34551.82
309.879	34557.11
309.945	34545.03
310.01	34559.78
310.076	34603.47
310.141	34621.76
310.207	34610.07
310.273	34654.39
310.338	34708.26
310.404	34697.5
310.469	34685.08
310.535	34700.55
310.601	34654.47
310.666	34703.42
310.732	34758.8
310.797	34763.61
310.863	34775.83
310.928	34777.14
310.994	34816.23
311.059	34853.78
311.125	34876.43
311.191	34935.62
311.256	34943.91
311.322	34992.95
311.387	34975.97
311.453	35668
311.518	35650.06
311.584	35680.81
311.649	35722.29
311.715	35716.95
311.78	35750.03
311.846	35761.38
311.911	35793.78
311.976	35839.67
312.042	35823.8
312.107	35817.3
312.173	35817.93
312.238	35839.76
312.304	35862.8
312.369	35872.89
312.434	35860.04
312.5	35857.08
312.565	35791.25
312.631	35824.76
312.696	35820.01
312.761	35849.79
312.827	35190.6
312.892	35293.27
312.958	35306.18
313.023	35317.68
313.088	35353.09
313.154	35354.49
313.219	35357.7
313.284	35357.16
313.35	35374.05
313.415	35378.46
313.48	35391.46
313.546	35424.21
313.611	35463.22
313.676	35466.18
313.741	35470.45
313.807	35516.06
313.872	35563.46
313.937	35622.4
314.003	35672.67
314.068	35706.54
314.133	35747.4
314.198	35737.45
314.264	35719.93
314.329	35724.63
314.394	35731.19
314.459	35739.19
314.525	35815.61
314.59	35849.19
314.655	35852.87
314.72	35898.3
314.785	35919.11
314.851	35938.28
314.916	35931.09
314.981	35923.28
315.046	35927.6
315.111	35928.72
315.176	35924.01
315.242	35953.22
315.307	35969.19
315.372	35953.42
315.437	35964.68
315.502	35968.27
315.567	36031.89
315.632	36018.4
315.698	36051.98
315.763	36078.58
315.828	36087.99
315.893	36089.93
315.958	36087.89
316.023	36077.66
316.088	36032.28
316.153	35994.83
316.218	35980.85
316.283	35930.55
316.348	35888.24
316.413	35884.12
316.479	35845.46
316.544	35754.64
316.609	35668.18
316.674	35575.09
316.739	35480.01
316.804	35379.45
316.869	35274.58
316.934	35155.13
316.999	35054.58
317.064	34898.11
317.129	34759.86
317.194	34637.21
317.259	34485.48
317.324	34323.88
317.389	34190.02
317.454	34067.04
317.518	33949.14
317.583	33855.41
317.648	33772.41
317.713	33653.3
317.778	33470.15
317.843	33371.35
317.908	33238.92
317.973	33105.15
318.038	32985.79
318.103	32847.57
318.168	32730.74
318.233	32608.93
318.297	32438.41
318.362	32295.49
318.427	32158.3
318.492	32046.77
318.557	31873.1
318.622	31751.32
318.687	31658.75
318.751	31509.31
318.816	31374.12
318.881	31240.99
318.946	31043.5
319.011	30867.33
319.075	30710.8
319.14	30561.72
319.205	30389.61
319.27	30245.87
319.335	30076.73
319.399	29924.08
319.464	29790.57
319.529	29586.91
319.594	29430.86
319.658	29290.57
319.723	29120.03
319.788	28981.17
319.853	28770.2
319.917	28639.47
319.982	28434.29
320.047	28256.31
320.112	28111.05
320.176	27906.11
320.241	27745.71
320.306	27592.55
320.37	27425.35
320.435	27260.08
320.5	27111.84
320.564	26927.48
320.629	26747.89
320.694	26586.99
320.758	26394.9
320.823	26203.27
320.888	26057.69
320.952	25844.95
321.017	25654.49
321.082	25472.3
321.146	25294.78
321.211	25127.92
321.275	24934.82
321.34	24738.76
321.405	24544.42
321.469	24347.21
321.534	24162.91
321.598	23947.11
321.663	23788.92
321.727	23610.42
321.792	23405.35
321.857	23211.29
321.921	23027.42
321.986	22826.9
322.05	22591.28
322.115	22417.66
322.179	22221.01
322.244	21985.43
322.308	21819.51
322.373	21621.2
322.437	21430.65
322.502	21283.09
322.566	21080.99
322.631	20903.38
322.695	20715.03
322.76	20514.83
322.824	20330.73
322.889	20132.89
322.953	19922.87
323.018	19653.07
323.082	19404.39
323.146	19180.01
323.211	18950.86
323.275	18746.19
323.34	18545.66
323.404	18369.66
323.468	18149.47
323.533	17942.97
323.597	17745.66
323.662	17517.66
323.726	17327.15
323.79	17112.01
323.855	16844.2
323.919	16627.02
323.983	16412.79
324.048	16105.13
324.112	16276.46
324.177	15631.37
324.241	14781.8
324.305	13953.35
324.37	13139.71
324.434	12340.91
324.498	12123.38
324.562	11880.77
324.627	11600.02
324.691	11323.62
324.755	11011.28
324.82	10662.02
324.884	10294.03
324.948	9916.13
325.012	9461.34
325.077	8906.65
