Data from 20250626_urea_1M_exp2_MAYP1162681_13-44-00-635.txt Node
Date: Fri Jun 27 13:44:00 BST 2025
User: adleo
Spectrometer: MAYP116268
Trigger mode: 0
Integration Time (sec): 3.000000E0
Scans to average: 1
Electric dark correction enabled: true
Nonlinearity correction enabled: true
Boxcar width: 10
XAxis mode: Wavelengths
Number of Pixels in Spectrum: 2068
>>>>>Begin Spectral Data<<<<<
179.565	3167.63
179.642	3329.58
179.718	3449.6
179.795	3572.09
179.871	3667.58
179.948	3723.87
180.024	3787.08
180.101	3854.93
180.177	3894.8
180.254	3960.19
180.33	4022.86
180.407	4246.39
180.483	4496.29
180.56	4744.87
180.636	4978.48
180.712	4948.63
180.789	4974.54
180.865	5012.02
180.942	5030.69
181.018	5057.42
181.095	5100.7
181.171	5112.29
181.248	5115.69
181.324	5163.14
181.4	5177.13
181.477	5206.46
181.553	5239.55
181.63	5297.2
181.706	5340.05
181.782	5365.72
181.859	5361.07
181.935	5378.18
182.011	5368.88
182.088	5410.11
182.164	5466.37
182.24	5496.94
182.317	5519.36
182.393	5509.44
182.469	5546.83
182.546	5586.43
182.622	5599.18
182.698	5583.64
182.775	5624.73
182.851	5660.87
182.927	5642.36
183.003	5631.49
183.08	5615.67
183.156	5641.51
183.232	5632.44
183.308	5604.44
183.385	5623.32
183.461	5672.66
183.537	5673.86
183.613	5708.96
183.69	5681.87
183.766	5649.34
183.842	5678.07
183.918	5699.65
183.995	5735.22
184.071	5743.95
184.147	5734.31
184.223	5706.51
184.299	5737.02
184.375	5702.69
184.452	5725.39
184.528	5831.46
184.604	5866.26
184.68	5902.27
184.756	5924.2
184.832	5931.64
184.908	5944.58
184.985	5946.11
185.061	5903.91
185.137	5928.28
185.213	5892.36
185.289	5897.64
185.365	5881.43
185.441	5871.5
185.517	5908.12
185.593	5900.88
185.669	5891.48
185.745	5914.22
185.822	5959.32
185.898	5939.22
185.974	5963.38
186.05	5936.9
186.126	5870.98
186.202	5847.96
186.278	5832.9
186.354	5807.85
186.43	5828.3
186.506	5820.77
186.582	5819.86
186.658	5840.66
186.734	5787.73
186.81	5796.55
186.886	5807
186.962	5836.11
187.038	5824.26
187.114	5800.07
187.19	5823.34
187.266	5801.28
187.341	5804.16
187.417	5783.16
187.493	5781.96
187.569	5791.93
187.645	5775.97
187.721	5745.93
187.797	5764.01
187.873	5782.53
187.949	5765.12
188.025	5748.47
188.101	5759.59
188.176	5773.55
188.252	5761.32
188.328	5785.9
188.404	5782.64
188.48	5767.26
188.556	5744.09
188.632	5744.43
188.707	5746.16
188.783	5738.38
188.859	5724.29
188.935	5698.34
189.011	5716.28
189.086	5702.42
189.162	5677.53
189.238	5672.16
189.314	5664.59
189.39	5653.32
189.465	5629.96
189.541	5672.26
189.617	5631.41
189.693	5613.91
189.768	5623.94
189.844	5686.12
189.92	5660.87
189.996	5688.44
190.071	5722.78
190.147	5726.28
190.223	5751.71
190.298	5728.15
190.374	5688.93
190.45	5717.21
190.526	5732.22
190.601	5724.26
190.677	5729.72
190.753	5814.5
190.828	5826.05
190.904	5867.5
190.98	5906.75
191.055	5933.9
191.131	5914.51
191.207	5973.89
191.282	6001.7
191.358	5974.55
191.433	5938.02
191.509	5975.36
191.585	5962.74
191.66	5963.61
191.736	5989.89
191.811	5965.9
191.887	6014.04
191.963	6082.12
192.038	6103.8
192.114	6106.77
192.189	6112.29
192.265	6098.92
192.34	6031.69
192.416	6029.06
192.491	6016.1
192.567	6025.22
192.642	6034.72
192.718	6038.9
192.793	6006.22
192.869	5999.46
192.944	6007.37
193.02	6022.92
193.095	6033.04
193.171	6057.41
193.246	6053.14
193.322	6033.38
193.397	6033.04
193.473	5992.58
193.548	5943.68
193.624	5957.31
193.699	5956.59
193.775	6002.57
193.85	6012.16
193.925	6035.24
194.001	6035.96
194.076	6012.07
194.152	5984.18
194.227	5964.46
194.302	5939.33
194.378	5947.29
194.453	5935.02
194.529	5968.94
194.604	5932.67
194.679	5917.37
194.755	5858.25
194.83	5898.82
194.905	5898
194.981	5923.05
195.056	5901.52
195.131	5918.16
195.207	5906.4
195.282	5877.39
195.357	5824.11
195.433	5860.9
195.508	5830.63
195.583	5849.33
195.659	5895.4
195.734	5912.2
195.809	5912.77
195.884	5932.05
195.96	5932.29
196.035	5976.9
196.11	5969.41
196.185	6007.94
196.261	6014.07
196.336	6101.14
196.411	6053.91
196.486	6068.54
196.561	6048.62
196.637	6078.02
196.712	6119.02
196.787	6131.4
196.862	6178.18
196.937	6199.62
197.013	6219.64
197.088	6249.77
197.163	6308.83
197.238	6353.57
197.313	6351.41
197.388	6381.7
197.464	6464.15
197.539	6500.73
197.614	6478.56
197.689	6504.48
197.764	6543.72
197.839	6603.98
197.914	6587.41
197.989	6655.16
198.065	6694.34
198.14	6836.73
198.215	6904.89
198.29	6940.45
198.365	6982.68
198.44	7007.41
198.515	7089.71
198.59	7128.05
198.665	7192.39
198.74	7216.62
198.815	7218.78
198.89	7280.37
198.965	7372.25
199.04	7358.5
199.115	7393.87
199.19	7514.34
199.265	7529.37
199.34	7564.52
199.415	7649.99
199.49	7708.95
199.565	7731.4
199.64	7801.26
199.715	7788.31
199.79	7810.43
199.865	7824.23
199.94	7814.57
200.015	7906.77
200.09	7923.46
200.165	7942.21
200.24	7967.03
200.315	8067.87
200.39	8112.99
200.464	8128.71
200.539	8127.46
200.614	8171.8
200.689	8240.4
200.764	8260.47
200.839	8302.97
200.914	8311.33
200.989	8290.25
201.063	8333.17
201.138	8286.69
201.213	8280.82
201.288	8229.79
201.363	8235.13
201.438	8237.05
201.512	8283.93
201.587	8231.53
201.662	8238.37
201.737	8270.26
201.812	8294.23
201.886	8209.69
201.961	8236.12
202.036	8202.17
202.111	8191.83
202.186	8112.52
202.26	8064.55
202.335	7999.12
202.41	7984.79
202.485	7938.15
202.559	7877.95
202.634	7802.49
202.709	7828.92
202.784	7780.26
202.858	7782.52
202.933	7738.48
203.008	7722.61
203.082	7666.41
203.157	7666.45
203.232	7552.33
203.306	7494.95
203.381	7400.56
203.456	7338.65
203.53	7270.32
203.605	7219.46
203.68	7153.01
203.754	7137.12
203.829	7091.32
203.904	7032.52
203.978	7000.36
204.053	7009.35
204.127	6978.51
204.202	6967.94
204.277	6916.21
204.351	6896.32
204.426	6875.89
204.5	6850.62
204.575	6746.63
204.65	6768.93
204.724	6741.38
204.799	6764.7
204.873	6752.5
204.948	6749.38
205.022	6709.05
205.097	6687.37
205.171	6724.01
205.246	6745.92
205.32	6743.19
205.395	6741.46
205.469	6721.02
205.544	6734.52
205.618	6691.34
205.693	6722.71
205.767	6690.92
205.842	6751.11
205.916	6734.36
205.991	6699.34
206.065	6712.79
206.14	6762.49
206.214	6752.3
206.289	6734.19
206.363	6759.84
206.438	6767.43
206.512	6786.4
206.586	6844.98
206.661	6864.5
206.735	6801.19
206.81	6807.1
206.884	6853.54
206.958	6817.39
207.033	6860.35
207.107	6880.49
207.181	6967.91
207.256	6948.17
207.33	7001.96
207.405	7033.65
207.479	7087.12
207.553	7117.14
207.628	7075.95
207.702	7104.62
207.776	7085.02
207.851	7098.23
207.925	7141.98
207.999	7131.74
208.073	7127.27
208.148	7133.04
208.222	7100.17
208.296	7190.87
208.371	7233.53
208.445	7255.36
208.519	7335.54
208.593	7374.36
208.668	7359.6
208.742	7359.27
208.816	7364.02
208.89	7407.01
208.965	7399.8
209.039	7423.7
209.113	7463.45
209.187	7525.06
209.261	7517.9
209.336	7576.64
209.41	7629.29
209.484	7626.98
209.558	7692.43
209.632	7725.83
209.707	7758.58
209.781	7818.38
209.855	7869.32
209.929	7912.26
210.003	7932.03
210.077	7927.89
210.151	8053.52
210.226	8151.34
210.3	8225.77
210.374	8291.78
210.448	8294.95
210.522	8327
210.596	8353.27
210.67	8382.52
210.744	8507.44
210.818	8590.88
210.892	8644.87
210.966	8632.56
211.041	8679.86
211.115	8667.93
211.189	8740.73
211.263	8785.53
211.337	8807.09
211.411	8842.04
211.485	8828.12
211.559	8858.72
211.633	8871.37
211.707	8786.91
211.781	8802.95
211.855	8709.48
211.929	8686.01
212.003	8634.55
212.077	8658.43
212.151	8688.66
212.225	8712.15
212.299	8680.31
212.373	8652.6
212.447	8636.23
212.52	8706.16
212.594	8711.89
212.668	8743.41
212.742	8698.41
212.816	8680.69
212.89	8662.26
212.964	8657.11
213.038	8665.92
213.112	8700.29
213.186	8736.19
213.26	8678.14
213.333	8548.18
213.407	8560.98
213.481	8567.38
213.555	8601.85
213.629	8565.89
213.703	8518
213.777	8513.96
213.85	8458.99
213.924	8547.19
213.998	8548.2
214.072	8532.02
214.146	8491.45
214.219	8475.33
214.293	8459.21
214.367	8461.04
214.441	8477.93
214.515	8435.19
214.588	8359.36
214.662	8254.39
214.736	8187.77
214.81	8200.79
214.883	8224.92
214.957	8183.67
215.031	8137.86
215.105	8061.07
215.178	8011.48
215.252	7977.14
215.326	7895.09
215.4	7825.34
215.473	7675.04
215.547	7603.61
215.621	7544.23
215.694	7535.86
215.768	7458.31
215.842	7400.58
215.915	7341.28
215.989	7253.48
216.063	7202.22
216.136	7186.35
216.21	7167.76
216.284	7177.13
216.357	7156.61
216.431	7120.62
216.504	7115.96
216.578	7165.23
216.652	7174.35
216.725	7159.55
216.799	7166.67
216.873	7148.6
216.946	7159.94
217.02	7132.42
217.093	7106.81
217.167	7031.91
217.24	6963.96
217.314	6934.23
217.387	6903.03
217.461	6871.22
217.535	6886.93
217.608	6837.46
217.682	6815.84
217.755	6824.73
217.829	6781.29
217.902	6764.53
217.976	6747.86
218.049	6711.84
218.123	6643.98
218.196	6641.1
218.27	6608.49
218.343	6553.04
218.417	6556.31
218.49	6531.19
218.563	6565.33
218.637	6576.53
218.71	6635.75
218.784	6666.26
218.857	6694.34
218.931	6713.93
219.004	6712.82
219.077	6729.69
219.151	6746.88
219.224	6746.49
219.298	6743.85
219.371	6778.35
219.444	6752.09
219.518	6761.59
219.591	6773.21
219.665	6864.65
219.738	6875.31
219.811	6863.26
219.885	6898.9
219.958	6918.03
220.031	6927.34
220.105	6940.41
220.178	6939.4
220.251	6914.94
220.325	6933.01
220.398	6944.2
220.471	6960.48
220.544	6991.9
220.618	6970.9
220.691	6992.28
220.764	6999.87
220.838	7019.62
220.911	7007.27
220.984	7070.91
221.057	7102.72
221.131	7121.69
221.204	7036.83
221.277	7104.51
221.35	7204.86
221.424	7198.27
221.497	7207.4
221.57	7224.89
221.643	7254.21
221.716	7292.14
221.79	7300.45
221.863	7307.57
221.936	7320.93
222.009	7329.53
222.082	7350.01
222.155	7361.01
222.229	7417.17
222.302	7448.46
222.375	7457.83
222.448	7491.67
222.521	7499.65
222.594	7497.11
222.667	7479.43
222.74	7526.43
222.814	7512.87
222.887	7499.83
222.96	7547.71
223.033	7585.22
223.106	7606.94
223.179	7632.63
223.252	7639.8
223.325	7661.57
223.398	7680.33
223.471	7698.45
223.544	7719.07
223.617	7731.05
223.69	7744.26
223.763	7714.45
223.837	7731.23
223.91	7751.23
223.983	7705.14
224.056	7670.63
224.129	7689.19
224.202	7730.03
224.275	7717.86
224.348	7690.99
224.42	7661.08
224.493	7617.13
224.566	7594.96
224.639	7612.17
224.712	7579.42
224.785	7572.06
224.858	7563.36
224.931	7538.68
225.004	7499.95
225.077	7498.84
225.15	7423.68
225.223	7423.3
225.296	7490.07
225.369	7437.53
225.442	7410.61
225.514	7426.85
225.587	7450.93
225.66	7453.91
225.733	7456.79
225.806	7465.64
225.879	7459.44
225.952	7429.98
226.025	7464.4
226.097	7509.43
226.17	7496.4
226.243	7449.5
226.316	7445.94
226.389	7451.04
226.461	7466.19
226.534	7488.67
226.607	7482.67
226.68	7553.45
226.753	7550.52
226.825	7480.47
226.898	7523.97
226.971	7528.34
227.044	7551.03
227.117	7553.1
227.189	7570.41
227.262	7596.09
227.335	7613.31
227.407	7614.94
227.48	7650.7
227.553	7656.71
227.626	7636.88
227.698	7648.95
227.771	7683.93
227.844	7666.19
227.916	7683.31
227.989	7659.12
228.062	7663.5
228.134	7730.02
228.207	7727.8
228.28	7719.73
228.352	7732.18
228.425	7739.88
228.498	7776.86
228.57	7762
228.643	7813.76
228.716	7810.49
228.788	7799.81
228.861	7793.41
228.934	7844
229.006	7844.86
229.079	7843.95
229.151	7836.4
229.224	7802.66
229.296	7819.63
229.369	7906.18
229.442	7942.7
229.514	7927.22
229.587	7955.54
229.659	7893.88
229.732	7904.27
229.804	7939.61
229.877	7998.41
229.949	8028.14
230.022	8066.35
230.094	8063.13
230.167	8055.34
230.239	8022.74
230.312	8013.41
230.384	8070.77
230.457	8064.95
230.529	8075.04
230.602	8075.48
230.674	8079.37
230.747	8113.16
230.819	8136.3
230.892	8037.88
230.964	8037.88
231.037	8057.68
231.109	8059.27
231.181	8090.62
231.254	8064.12
231.326	8055.7
231.399	8039.72
231.471	8006.58
231.544	7941.91
231.616	7980.38
231.688	7984.66
231.761	7976.39
231.833	7968.12
231.905	7896.48
231.978	7896.39
232.05	7882.92
232.122	7887.78
232.195	7869.26
232.267	7897.74
232.339	7881.96
232.412	7936.82
232.484	7909.21
232.556	7888.83
232.629	7938.73
232.701	7956.73
232.773	7958.79
232.846	7948.26
232.918	7948.84
232.99	7967.55
233.062	8004.83
233.135	8008.78
233.207	7977.84
233.279	8015.68
233.351	8047.52
233.424	8054.3
233.496	8033.66
233.568	8097.12
233.64	8063.36
233.713	8076.01
233.785	8078.41
233.857	8092.6
233.929	8043.07
234.001	8103.72
234.074	8156.99
234.146	8089.91
234.218	8088.04
234.29	8091.64
234.362	8083.71
234.434	8048.15
234.507	8021.65
234.579	7975.67
234.651	7964.85
234.723	7983.9
234.795	8004.15
234.867	7997.41
234.939	8040.76
235.012	8054.8
235.084	8060
235.156	8094.67
235.228	8081.06
235.3	8064.17
235.372	8071.05
235.444	8126.21
235.516	8059.36
235.588	8060.47
235.66	8075.86
235.732	8050.22
235.804	8214.21
235.876	8251.68
235.948	8306.29
236.02	8314.47
236.092	8329.09
236.164	8336.16
236.236	8335.58
236.308	8324.56
236.38	8351.55
236.452	8336.25
236.524	8351.74
236.596	8400.57
236.668	8429.2
236.74	8449.69
236.812	8470.04
236.884	8495.84
236.956	8508.16
237.028	8506.96
237.1	8498.87
237.172	8563.22
237.244	8630.5
237.316	8534.11
237.388	8515.64
237.46	8492.97
237.532	8550.18
237.604	8542.39
237.675	8605.54
237.747	8642.84
237.819	8635
237.891	8630.57
237.963	8620.23
238.035	8621.91
238.107	8538.48
238.178	8591.01
238.25	8592.94
238.322	8669.06
238.394	8637.92
238.466	8632.68
238.538	8661.83
238.609	8694.89
238.681	8650.5
238.753	8627.83
238.825	8643.67
238.897	8672.24
238.968	8738.79
239.04	8721.46
239.112	8818.77
239.184	8785.02
239.255	8782.04
239.327	8810.23
239.399	8833.19
239.471	8871.59
239.542	8899.74
239.614	8950.38
239.686	8885.53
239.758	8931.92
239.829	8906.54
239.901	8953.32
239.973	8963.67
240.044	8991.88
240.116	8996.84
240.188	9006.46
240.259	9019.8
240.331	9011.56
240.403	9033.7
240.474	8994.69
240.546	8986.32
240.618	8939.9
240.689	8940.39
240.761	8960.51
240.833	9016.99
240.904	9009.67
240.976	9009.91
241.048	9018.62
241.119	9046.94
241.191	9074.95
241.262	9130.1
241.334	9129
241.405	9128.08
241.477	9139.01
241.549	9150.9
241.62	9178.2
241.692	9218.74
241.763	9264.05
241.835	9275.75
241.906	9290.05
241.978	9264.11
242.049	9319.52
242.121	9360.78
242.192	9413.7
242.264	9385.29
242.335	9342.77
242.407	9383.75
242.478	9391.98
242.55	9411.72
242.621	9406.43
242.693	9409.55
242.764	9396.31
242.836	9396.55
242.907	9428.19
242.979	9454.48
243.05	9469.74
243.122	9487.95
243.193	9479.95
243.264	9425.83
243.336	9434.11
243.407	9468.69
243.479	9534.75
243.55	9544.97
243.622	9560.47
243.693	9561.15
243.764	9620.91
243.836	9606.04
243.907	9598.71
243.978	9601.84
244.05	9622.22
244.121	9577.73
244.192	9612.93
244.264	9577.14
244.335	9590.05
244.407	9548.83
244.478	9562.94
244.549	9551.77
244.62	9519.6
244.692	9518.73
244.763	9557.06
244.834	9544.15
244.906	9525.76
244.977	9541.89
245.048	9591.76
245.119	9573.46
245.191	9548.13
245.262	9490.92
245.333	9550.19
245.405	9561.51
245.476	9587.7
245.547	9597.38
245.618	9643.46
245.689	9653.43
245.761	9682.24
245.832	9688.69
245.903	9727.02
245.974	9746.48
246.045	9760.11
246.117	9831.98
246.188	9819.65
246.259	9807.03
246.33	9827.98
246.401	9834.19
246.473	9805.39
246.544	9785.58
246.615	9831.44
246.686	9852.2
246.757	9913.45
246.828	9892.12
246.899	9953.02
246.97	9928.94
247.042	9926.19
247.113	9958.56
247.184	10028.82
247.255	10026.46
247.326	10042.36
247.397	10048.09
247.468	10052.52
247.539	10059.6
247.61	10015.52
247.681	10058.77
247.752	10096.67
247.823	10073.65
247.894	10090.8
247.965	10071.73
248.037	10061.61
248.108	10016.86
248.179	10014.36
248.25	10012.72
248.321	10037.04
248.392	9992.91
248.463	10057.35
248.534	10055.57
248.605	10073.78
248.675	10053.49
248.746	10071.99
248.817	10089.58
248.888	10102.01
248.959	10053.74
249.03	10081.35
249.101	10087.61
249.172	10072.63
249.243	10011.95
249.314	10066.38
249.385	10075.77
249.456	10093.5
249.527	10086.22
249.598	10109.24
249.669	10107.12
249.739	10118.59
249.81	10130.44
249.881	10099.76
249.952	10090.22
250.023	10087.81
250.094	10038.09
250.165	10020.17
250.235	10008.65
250.306	10012.17
250.377	9990.3
250.448	10025.41
250.519	9969.29
250.59	10016.85
250.66	10015.02
250.731	10076.51
250.802	10074.97
250.873	10086.44
250.944	10109.37
251.014	10104.31
251.085	10175.05
251.156	10196.48
251.227	10232.81
251.297	10280.37
251.368	10319.14
251.439	10354.32
251.51	10401.54
251.58	10399.66
251.651	10385.97
251.722	10432.57
251.792	10393.83
251.863	10398.02
251.934	10442.93
252.005	10530.27
252.075	10535.57
252.146	10575.12
252.217	10614.15
252.287	10648.02
252.358	10658.96
252.429	10720.25
252.499	10716.35
252.57	10726.04
252.641	10767.96
252.711	10776.97
252.782	10737.75
252.852	10798.9
252.923	10796.35
252.994	10804.44
253.064	10844.91
253.135	10827.13
253.205	10807.52
253.276	10864.71
253.347	10909.37
253.417	10891.01
253.488	10880.17
253.558	10868.99
253.629	10871.73
253.699	10883.2
253.77	10907.3
253.841	10899.64
253.911	10907.5
253.982	10921.61
254.052	10949.47
254.123	10954.05
254.193	10954.97
254.264	11060.8
254.334	11040.99
254.405	11013.24
254.475	10984.28
254.546	10991.17
254.616	11049.9
254.687	11079.64
254.757	11096.5
254.827	11104.12
254.898	11121.37
254.968	11127.97
255.039	11125.32
255.109	11155.58
255.18	11131.15
255.25	11070.04
255.321	11095.44
255.391	11060.79
255.461	11135.29
255.532	11063.81
255.602	11054.76
255.673	11004.4
255.743	10978.9
255.813	10913.95
255.884	10958.38
255.954	10990.04
256.024	11041.13
256.095	11038.48
256.165	11004.89
256.235	11033.62
256.306	11018.97
256.376	11053.28
256.446	11091.94
256.517	11114.83
256.587	11145.33
256.657	11160.08
256.728	11175.88
256.798	11178.15
256.868	11171.98
256.938	11143.21
257.009	11182.72
257.079	11214.97
257.149	11302.96
257.219	11261.13
257.29	11299.19
257.36	11250.33
257.43	11280.3
257.5	11218.33
257.571	11210.18
257.641	11241.55
257.711	11204.83
257.781	11231.19
257.852	11248.68
257.922	11199.43
257.992	11202.37
258.062	11194.32
258.132	11234.42
258.202	11248.1
258.273	11263.38
258.343	11327.96
258.413	11318.04
258.483	11319.77
258.553	11297.22
258.623	11273.65
258.693	11289.98
258.764	11343.96
258.834	11399.81
258.904	11410.7
258.974	11411.62
259.044	11418.8
259.114	11453.84
259.184	11477.84
259.254	11486.95
259.324	11444.15
259.394	11478.42
259.464	11534.42
259.535	11547.44
259.605	11543.58
259.675	11536.74
259.745	11568.36
259.815	11546.71
259.885	11546.09
259.955	11641
260.025	11632.14
260.095	11640.91
260.165	11672.33
260.235	11724.01
260.305	11720.68
260.375	11698.8
260.445	11774.22
260.515	11835.2
260.585	11866
260.655	11872.46
260.725	11904.03
260.795	11932.41
260.865	11987.32
260.934	11967.6
261.004	11990.64
261.074	11988.91
261.144	12029.78
261.214	12048.53
261.284	12055.52
261.354	12088.67
261.424	12047.46
261.494	12100.38
261.564	12101.92
261.634	12123.56
261.703	12069.62
261.773	12083.99
261.843	12112.13
261.913	12099.6
261.983	12046.34
262.053	12059.69
262.123	12058.39
262.192	12026.05
262.262	12062.78
262.332	12022.34
262.402	12043.02
262.472	12058.01
262.541	12009.19
262.611	12047.89
262.681	12034.64
262.751	12058.16
262.821	12060.52
262.89	12037.72
262.96	12066.5
263.03	12133.36
263.1	12147.15
263.169	12161.27
263.239	12194.48
263.309	12253.34
263.379	12278.98
263.448	12297.35
263.518	12316.68
263.588	12329.79
263.657	12396.3
263.727	12424.46
263.797	12434.63
263.867	12437.04
263.936	12398.76
264.006	12454.38
264.076	12449.56
264.145	12446.96
264.215	12441.99
264.285	12478.58
264.354	12438.96
264.424	12423.82
264.494	12384.87
264.563	12376.24
264.633	12441.7
264.702	12452.79
264.772	12403.09
264.842	12401.93
264.911	12431.96
264.981	12393.5
265.05	12398.36
265.12	12385.98
265.19	12390.89
265.259	12429.55
265.329	12450.72
265.398	12470.38
265.468	12554.84
265.537	12551.13
265.607	12576.77
265.676	12616.2
265.746	12631.34
265.815	12682.67
265.885	12685.08
265.955	12672.69
266.024	12682
266.094	12630.18
266.163	12686.14
266.232	12747.17
266.302	12764.38
266.371	12783.47
266.441	12804.87
266.51	12846.04
266.58	12856.89
266.649	12850.14
266.719	12885.86
266.788	12919.75
266.858	12975.57
266.927	12912.18
266.996	12937.87
267.066	12970.65
267.135	12946.55
267.205	12988.73
267.274	13005.7
267.343	13046.14
267.413	13060.75
267.482	13106.55
267.552	13155.67
267.621	13122.69
267.69	13075.6
267.76	13092.76
267.829	13110.35
267.898	13125.35
267.968	13113
268.037	13140.43
268.106	13184.54
268.176	13161.89
268.245	13168.68
268.314	13169.36
268.384	13218.96
268.453	13240.9
268.522	13257.24
268.592	13305.64
268.661	13284.28
268.73	13315.18
268.799	13315.28
268.869	13386.29
268.938	13346.95
269.007	13338.71
269.076	13346.71
269.146	13397.28
269.215	13419.98
269.284	13480.87
269.353	13478.41
269.422	13480.43
269.492	13466.55
269.561	13395.25
269.63	13424.37
269.699	13416.27
269.768	13429.82
269.838	13452.33
269.907	13482.89
269.976	13460.96
270.045	13415.02
270.114	13447.75
270.183	13455.56
270.253	13475.95
270.322	13429.29
270.391	13450.74
270.46	13512.01
270.529	13549.85
270.598	13579.06
270.667	13579.93
270.736	13557.95
270.806	13588.99
270.875	13645.97
270.944	13668.68
271.013	13778.2
271.082	13798.16
271.151	13833.88
271.22	13798.4
271.289	13804.04
271.358	13802.84
271.427	13830.17
271.496	13858.27
271.565	13856.2
271.634	13866.61
271.703	13908.31
271.772	13960.62
271.841	13971.56
271.91	13940.66
271.979	13957.53
272.048	13934.05
272.117	13983.85
272.186	13979.27
272.255	14021.79
272.324	14051.48
272.393	14079.01
272.462	14061.94
272.531	14079.3
272.6	14080.65
272.669	14141.82
272.738	14152.43
272.807	14186.12
272.876	14174.75
272.945	14286.92
273.013	14345.92
273.082	14393.64
273.151	14380.15
273.22	14413.41
273.289	14432.31
273.358	14494.06
273.427	14498.93
273.496	14541.88
273.564	14567.57
273.633	14624.11
273.702	14604.64
273.771	14619.49
273.84	14649.23
273.909	14694.35
273.977	14728.67
274.046	14741.97
274.115	14786.13
274.184	14778.03
274.253	14792.44
274.322	14851.35
274.39	14802.95
274.459	14789.7
274.528	14757.93
274.597	14776.06
274.665	14790.9
274.734	14842.24
274.803	14854.15
274.872	14875.5
274.94	14877.48
275.009	14978.88
275.078	14970.06
275.147	15001.73
275.215	15013.98
275.284	15060.97
275.353	15058.95
275.421	15030.61
275.49	15104.64
275.559	15112.79
275.627	15133.95
275.696	15150.82
275.765	15182.11
275.833	15195.32
275.902	15229.88
275.971	15295.91
276.039	15364.17
276.108	15412.22
276.177	15439.22
276.245	15450.45
276.314	15474.69
276.383	15520.78
276.451	15464.05
276.52	15507.14
276.588	15571.59
276.657	15629.62
276.725	15637.47
276.794	15669.09
276.863	15740.91
276.931	15721.35
277	15771.81
277.068	15832.16
277.137	15911.45
277.205	15943.64
277.274	16026.26
277.342	16087.71
277.411	16066.02
277.48	16067.27
277.548	16067.61
277.617	16106.65
277.685	16124.87
277.754	16173.98
277.822	16185.84
277.89	16253.94
277.959	16275.24
278.027	16260.98
278.096	16258.66
278.164	16362.72
278.233	16381.47
278.301	16379.06
278.37	16423.21
278.438	16420.94
278.507	16469.76
278.575	16440.17
278.643	16458.78
278.712	16435.83
278.78	16430.73
278.849	16505.72
278.917	16576.81
278.985	16611.66
279.054	16647.56
279.122	16710.51
279.191	16737.59
279.259	16762.13
279.327	16737.5
279.396	16814.56
279.464	16853.26
279.532	16905.46
279.601	16924.06
279.669	16953.12
279.737	17033.03
279.806	17085.7
279.874	17153.71
279.942	17174.38
280.011	17188.07
280.079	17247.59
280.147	17332.94
280.215	17377.9
280.284	17389.9
280.352	17381.33
280.42	17435.16
280.488	17457.28
280.557	17470.77
280.625	17511.93
280.693	17549.47
280.761	17592.8
280.83	17580.32
280.898	17645.95
280.966	17629.71
281.034	17591.64
281.102	17584.27
281.171	17597.14
281.239	17650.96
281.307	17659.25
281.375	17667.54
281.443	17776.5
281.512	17802.53
281.58	17859.68
281.648	17855.68
281.716	17899.01
281.784	17937.56
281.852	17947.73
281.92	17975.2
281.989	18041.6
282.057	18028.83
282.125	18149.98
282.193	18175.86
282.261	18209.16
282.329	18226.8
282.397	18280.2
282.465	18319.09
282.533	18396.39
282.601	18397.74
282.67	18364.58
282.738	18375.52
282.806	18440.19
282.874	18442.17
282.942	18483.27
283.01	18494.21
283.078	18550.02
283.146	18576.81
283.214	18637.48
283.282	18683.26
283.35	18750.92
283.418	18763.6
283.486	18818.15
283.554	18775.21
283.622	18805.18
283.69	18836.22
283.758	18855.83
283.826	18903.54
283.894	18961.99
283.962	19054.28
284.03	19133.26
284.098	19180.73
284.165	19209.88
284.233	19247.33
284.301	19262.22
284.369	19270.7
284.437	19284.58
284.505	19302.26
284.573	19382.55
284.641	19386.69
284.709	19450.4
284.777	19445.49
284.845	19508.09
284.912	19563.6
284.98	19607.94
285.048	19644.22
285.116	19697.67
285.184	19774.05
285.252	19799.01
285.319	19791.88
285.387	19798.77
285.455	19785.85
285.523	19832.74
285.591	19863.68
285.659	19901.66
285.726	19977.66
285.794	19983
285.862	20009.36
285.93	20048.64
285.997	20063.68
286.065	20082.81
286.133	20086.37
286.201	20113.79
286.269	20105.31
286.336	20112.88
286.404	20144.25
286.472	20194.85
286.539	20175.87
286.607	20172.69
286.675	20221.17
286.743	20281.5
286.81	20303.05
286.878	20385.89
286.946	20403.58
287.013	20445.7
287.081	20476.49
287.149	20467.53
287.216	20566.52
287.284	20600.78
287.352	20640.25
287.419	20670.47
287.487	20754.91
287.555	20803.54
287.622	20831.59
287.69	20887.64
287.758	20945.81
287.825	20955.74
287.893	20962.01
287.96	21010.73
288.028	21072.37
288.096	21117.92
288.163	21163.37
288.231	21164.67
288.298	21192.68
288.366	21264.73
288.433	21286.81
288.501	21297.17
288.569	21343.87
288.636	21353.13
288.704	21417.42
288.771	21478.59
288.839	21498.3
288.906	21502.83
288.974	21551.47
289.041	21575.52
289.109	21582.13
289.176	21640.26
289.244	21701.67
289.311	21773.54
289.379	21840.73
289.446	21882.38
289.514	21908.07
289.581	21935.65
289.649	21986.84
289.716	22028.49
289.783	22041.89
289.851	22135.31
289.918	22181.77
289.986	22240.49
290.053	22291.2
290.121	22322.73
290.188	22348.04
290.255	22458.45
290.323	22490.37
290.39	22519.39
290.458	22591.12
290.525	22666.47
290.592	22698.34
290.66	22727.56
290.727	22741.88
290.794	22816.8
290.862	22846.22
290.929	22894.57
290.996	22938.59
291.064	23007.93
291.131	23077.61
291.198	23153.51
291.266	23179.01
291.333	23224.67
291.4	23273.33
291.468	23344.85
291.535	23375.85
291.602	23427.93
291.669	23435.65
291.737	23486.08
291.804	23522.44
291.871	23590.1
291.938	23647.16
292.006	23755.46
292.073	23826.3
292.14	23886.05
292.207	23900.47
292.275	23932.35
292.342	23990.13
292.409	24088.53
292.476	24179.57
292.543	24179.61
292.611	24202.57
292.678	24285.4
292.745	24380.95
292.812	24437.25
292.879	24458.14
292.946	24498.99
293.014	24574.25
293.081	24631.61
293.148	24704.74
293.215	24776.19
293.282	24798.38
293.349	24850.16
293.416	24825.31
293.484	24898.45
293.551	24969.28
293.618	25050.97
293.685	25158.43
293.752	25169.57
293.819	25194.77
293.886	25198.73
293.953	25250.73
294.02	25325.24
294.087	25384.85
294.154	25403.53
294.221	25473.18
294.288	25523.52
294.356	25615.21
294.423	25665.17
294.49	25668.59
294.557	25741.82
294.624	25757.07
294.691	25851.67
294.758	25902.65
294.825	25970.9
294.892	25991.85
294.959	26030.18
295.026	26081.5
295.093	26110.48
295.16	26165.78
295.226	26207.78
295.293	26311.61
295.36	26373.25
295.427	26440.23
295.494	26501.57
295.561	26569.11
295.628	26675.07
295.695	26749.87
295.762	26791.25
295.829	26852.74
295.896	26958.53
295.963	27006.15
296.03	27081
296.096	27132.68
296.163	27202.19
296.23	27272.23
296.297	27351.35
296.364	27400.32
296.431	27465.05
296.498	27492.92
296.564	27608.08
296.631	27661.31
296.698	27660.83
296.765	27758.13
296.832	27769.48
296.899	27785.43
296.965	27875.35
297.032	27857.03
297.099	27942.29
297.166	28013.47
297.233	28047.83
297.299	28067.21
297.366	28129.07
297.433	28175.89
297.5	28240.18
297.566	28274.69
297.633	28319.59
297.7	28366.57
297.767	28401.7
297.833	28444.58
297.9	28492.85
297.967	28492.27
298.033	28565.89
298.1	28695.34
298.167	28709.65
298.234	28769.24
298.3	28828.7
298.367	28841.32
298.434	28900.89
298.5	28905
298.567	28925.36
298.634	28960.6
298.7	29041.63
298.767	29077.9
298.834	29156.67
298.9	29179.84
298.967	29204.74
299.033	29261.28
299.1	29338.95
299.167	29408.97
299.233	29445.62
299.3	29523.92
299.366	29594.03
299.433	29668.79
299.5	29620.26
299.566	29673.22
299.633	29749.31
299.699	29825.51
299.766	29865.85
299.832	29929.43
299.899	30010.86
299.965	30079.45
300.032	30109.05
300.099	30172.93
300.165	30226.88
300.232	30256.34
300.298	30299.06
300.365	30372.75
300.431	30417.61
300.498	30429.08
300.564	30487.73
300.631	30557.27
300.697	30633.07
300.763	30669.55
300.83	30700.15
300.896	30795.05
300.963	30857.96
301.029	30920.8
301.096	30956.82
301.162	31030.1
301.229	31047.96
301.295	31058.71
301.361	31104.7
301.428	31150.91
301.494	31138.71
301.561	31190.66
301.627	31232.25
301.693	31268.21
301.76	31332.27
301.826	31363.89
301.892	31427.65
301.959	31490.21
302.025	31510.21
302.092	31529.05
302.158	31597.03
302.224	31639.7
302.291	31641.01
302.357	31666.82
302.423	31677.37
302.49	31683.04
302.556	31743.73
302.622	31784.08
302.688	31841.13
302.755	31922.71
302.821	31986.33
302.887	32058.14
302.954	32097.71
303.02	32160.88
303.086	32230.19
303.152	32238.28
303.219	32265.79
303.285	32329.36
303.351	32383.77
303.417	32431.1
303.483	32453.91
303.55	32471.74
303.616	32510.7
303.682	32548.23
303.748	32575.6
303.815	32651.39
303.881	32732.78
303.947	32746.3
304.013	32782.93
304.079	32799.94
304.145	32784.77
304.212	32829.87
304.278	32848.91
304.344	32852.84
304.41	32848.57
304.476	32852.5
304.542	32885.2
304.608	32933.17
304.674	32922.9
304.741	32945.92
304.807	32991.97
304.873	33034.66
304.939	33114.87
305.005	33101.06
305.071	33136.96
305.137	33182.12
305.203	33150.43
305.269	33168.17
305.335	33220.91
305.401	33241.17
305.467	33274.46
305.533	33333.89
305.599	33379.8
305.666	33437.81
305.732	33478.42
305.798	33560.78
305.864	33664.97
305.93	33709.81
305.996	33746.75
306.062	33785.96
306.128	33806.18
306.194	33801.24
306.259	33829.84
306.325	33831.92
306.391	33897.76
306.457	33958.69
306.523	33999.9
306.589	34107.83
306.655	34127.13
306.721	34111.86
306.787	34121.74
306.853	34194.82
306.919	34183.47
306.985	34199.28
307.051	34213.78
307.117	34232.3
307.183	34230.31
307.248	34187.24
307.314	34238.21
307.38	34270.07
307.446	34326.14
307.512	34330.55
307.578	34383.93
307.644	34406.97
307.709	34440.48
307.775	34450.08
307.841	34474.77
307.907	34508.42
307.973	34485.53
308.039	34517.83
308.104	34568.26
308.17	34617.14
308.236	34601.91
308.302	34641.48
308.368	34637.84
308.433	34662.18
308.499	34684.05
308.565	34692.54
308.631	34739.05
308.696	34709.07
308.762	34708.83
308.828	34712.23
308.894	34687.16
308.959	34662.82
309.025	34673.73
309.091	34691.14
309.156	34698.76
309.222	34735.53
309.288	34724.28
309.354	34709.29
309.419	34731.41
309.485	34723.55
309.551	34756.39
309.616	34759.88
309.682	34781.62
309.748	34803.58
309.813	34842.1
309.879	34858.54
309.945	34863.49
310.01	34869.16
310.076	34908.21
310.141	34935.81
310.207	34940.37
310.273	34989.74
310.338	35042.8
310.404	35033.73
310.469	35033.68
310.535	35055.99
310.601	35008.45
310.666	35053.32
310.732	35101.88
310.797	35099.89
310.863	35104.89
310.928	35114.83
310.994	35144.18
311.059	35156.89
311.125	35176.92
311.191	35232.59
311.256	35227.78
311.322	35274.55
311.387	35249.42
311.453	36048.29
311.518	36012.68
311.584	36028.4
311.649	36074.49
311.715	36064.79
311.78	36100.34
311.846	36102.24
311.911	36146.1
311.976	36196.89
312.042	36191.31
312.107	36182.29
312.173	36183.5
312.238	36203.44
312.304	36221.24
312.369	36236.38
312.434	36232.01
312.5	36245.06
312.565	36179.02
312.631	36214.38
312.696	36219.53
312.761	36263.19
312.827	35485.43
312.892	35605.81
312.958	35631.63
313.023	35640.02
313.088	35662.24
313.154	35654.48
313.219	35658.85
313.284	35650.31
313.35	35665.2
313.415	35660.01
313.48	35680.29
313.546	35727.55
313.611	35782.77
313.676	35776.71
313.741	35774.82
313.807	35823
313.872	35860.95
313.937	35911.7
314.003	35977.8
314.068	35991.34
314.133	36040.89
314.198	36043.17
314.264	36003.51
314.329	36000.55
314.394	36028.75
314.459	36041.95
314.525	36116.39
314.59	36143.46
314.655	36146.95
314.72	36179.28
314.785	36207.42
314.851	36214.46
314.916	36187.81
314.981	36164.52
315.046	36170.83
315.111	36162
315.176	36160.3
315.242	36190.2
315.307	36200.49
315.372	36165.05
315.437	36177.24
315.502	36169.28
315.567	36231.4
315.632	36238.87
315.698	36272.95
315.763	36280.03
315.828	36290.22
315.893	36282.07
315.958	36290.51
316.023	36284.11
316.088	36255.33
316.153	36217
316.218	36215.78
316.283	36187.16
316.348	36152.56
316.413	36155.77
316.479	36140.29
316.544	36058.78
316.609	35971.82
316.674	35871.88
316.739	35777.77
316.804	35688.94
316.869	35582.21
316.934	35462.7
316.999	35364.99
317.064	35198.9
317.129	35060.2
317.194	34948.64
317.259	34806.42
317.324	34643.05
317.389	34498.88
317.454	34376.66
317.518	34269.79
317.583	34182.63
317.648	34087.98
317.713	33975.64
317.778	33782.92
317.843	33663.07
317.908	33528.29
317.973	33386.65
318.038	33286.17
318.103	33166.39
318.168	33042.27
318.233	32930.71
318.297	32758.61
318.362	32623.17
318.427	32488.29
318.492	32380.19
318.557	32208.26
318.622	32096.02
318.687	31997.18
318.751	31851.5
318.816	31718.1
318.881	31577.44
318.946	31362.28
319.011	31190.89
319.075	31019.96
319.14	30891.61
319.205	30723.6
319.27	30588.06
319.335	30424.65
319.399	30248.26
319.464	30110.94
319.529	29914.35
319.594	29748.79
319.658	29616.84
319.723	29431.7
319.788	29292.05
319.853	29085.16
319.917	28933.67
319.982	28729.42
320.047	28563.69
320.112	28423.57
320.176	28207.31
320.241	28043.18
320.306	27897.48
320.37	27715.77
320.435	27568.26
320.5	27409.74
320.564	27228.98
320.629	27037.09
320.694	26878.63
320.758	26696.91
320.823	26509.53
320.888	26359.34
320.952	26143.78
321.017	25953.32
321.082	25773.95
321.146	25605.25
321.211	25434.74
321.275	25262.66
321.34	25063.83
321.405	24868.69
321.469	24667.44
321.534	24484.47
321.598	24265.61
321.663	24103.55
321.727	23940.51
321.792	23717.63
321.857	23525.62
321.921	23354.75
321.986	23157.97
322.05	22922.91
322.115	22744.94
322.179	22538.34
322.244	22314.36
322.308	22144.33
322.373	21939.55
322.437	21751.5
322.502	21608.17
322.566	21405.57
322.631	21218.65
322.695	21035.21
322.76	20824.15
322.824	20641.97
322.889	20447.8
322.953	20250.01
323.018	19984.5
323.082	19734.85
323.146	19517.7
323.211	19290.81
323.275	19075.96
323.34	18870.09
323.404	18686.05
323.468	18468.75
323.533	18255.98
323.597	18046.05
323.662	17825.47
323.726	17641.52
323.79	17417.56
323.855	17142.57
323.919	16928.49
323.983	16716.29
324.048	16400.82
324.112	16549.93
324.177	15904.2
324.241	15035.75
324.305	14187.15
324.37	13356.26
324.434	12542.75
324.498	12323
324.562	12069.42
324.627	11782.03
324.691	11504.83
324.755	11193.61
324.82	10839.48
324.884	10469.53
324.948	10086.03
325.012	9621.84
325.077	9043.52
