Data from 20250626_urea_1M_exp2_MAYP1162681_19-43-59-909.txt Node
Date: Thu Jun 26 19:43:59 BST 2025
User: adleo
Spectrometer: MAYP116268
Trigger mode: 0
Integration Time (sec): 3.000000E0
Scans to average: 1
Electric dark correction enabled: true
Nonlinearity correction enabled: true
Boxcar width: 10
XAxis mode: Wavelengths
Number of Pixels in Spectrum: 2068
>>>>>Begin Spectral Data<<<<<
179.565	3047.64
179.642	3207.11
179.718	3323.63
179.795	3439.53
179.871	3529.98
179.948	3587.9
180.024	3646.92
180.101	3712.96
180.177	3748.4
180.254	3810.2
180.33	3873.3
180.407	4086.76
180.483	4323.44
180.56	4566.08
180.636	4788.73
180.712	4758.74
180.789	4785.7
180.865	4824.84
180.942	4853.42
181.018	4881.72
181.095	4918.85
181.171	4930.05
181.248	4932.88
181.324	4979.73
181.4	4995.59
181.477	5022.41
181.553	5048.88
181.63	5109.59
181.706	5152.71
181.782	5178.27
181.859	5183.49
181.935	5196.52
182.011	5186.27
182.088	5231.94
182.164	5278.68
182.24	5311.59
182.317	5334.19
182.393	5324.8
182.469	5358.11
182.546	5387.15
182.622	5399.32
182.698	5390.31
182.775	5428.08
182.851	5462.82
182.927	5442.11
183.003	5432.82
183.08	5420.99
183.156	5452.85
183.232	5442.26
183.308	5412.73
183.385	5436.3
183.461	5477.91
183.537	5484.33
183.613	5519.95
183.69	5495.98
183.766	5467.3
183.842	5488.49
183.918	5507.76
183.995	5544.19
184.071	5554.31
184.147	5544.53
184.223	5512
184.299	5541.11
184.375	5506.46
184.452	5525.12
184.528	5637.11
184.604	5666.64
184.68	5699.81
184.756	5719.38
184.832	5730.07
184.908	5743.44
184.985	5744.59
185.061	5699.34
185.137	5720.87
185.213	5688.9
185.289	5694.36
185.365	5677.25
185.441	5670.83
185.517	5704.27
185.593	5697.74
185.669	5691.46
185.745	5720.86
185.822	5766.61
185.898	5744.6
185.974	5771.44
186.05	5750.09
186.126	5677.03
186.202	5653.78
186.278	5637.77
186.354	5607.7
186.43	5626.55
186.506	5621.71
186.582	5619.84
186.658	5638
186.734	5582.65
186.81	5589.59
186.886	5596.59
186.962	5631.78
187.038	5623.92
187.114	5601.55
187.19	5619.92
187.266	5594.42
187.341	5592.7
187.417	5571.8
187.493	5571.6
187.569	5580.91
187.645	5565.71
187.721	5537.37
187.797	5559.99
187.873	5575
187.949	5562.64
188.025	5541.57
188.101	5546.75
188.176	5556.72
188.252	5548.14
188.328	5574.01
188.404	5570.03
188.48	5556.28
188.556	5530.53
188.632	5528.56
188.707	5531.83
188.783	5523.72
188.859	5510.36
188.935	5479.28
189.011	5502.77
189.086	5486.33
189.162	5457.71
189.238	5450.81
189.314	5439.02
189.39	5425.93
189.465	5406.66
189.541	5446.65
189.617	5404.76
189.693	5394.79
189.768	5411.1
189.844	5471.97
189.92	5443.8
189.996	5469.74
190.071	5497.73
190.147	5503.72
190.223	5527.8
190.298	5507.08
190.374	5471.66
190.45	5501.99
190.526	5523.22
190.601	5509.75
190.677	5516.51
190.753	5600.63
190.828	5613.71
190.904	5660.18
190.98	5697.68
191.055	5723.14
191.131	5700.99
191.207	5754.1
191.282	5780.94
191.358	5749.73
191.433	5714.84
191.509	5751.4
191.585	5742.24
191.66	5744.73
191.736	5767.17
191.811	5745.88
191.887	5786.61
191.963	5850.58
192.038	5867.9
192.114	5873.75
192.189	5888.28
192.265	5876.54
192.34	5813.03
192.416	5810.59
192.491	5799.5
192.567	5810.45
192.642	5821.96
192.718	5827.62
192.793	5797.46
192.869	5782.54
192.944	5789.21
193.02	5808.4
193.095	5820.19
193.171	5838.56
193.246	5838.99
193.322	5825.52
193.397	5826.38
193.473	5789.48
193.548	5741.42
193.624	5753.32
193.699	5750.44
193.775	5789.36
193.85	5795.01
193.925	5817.17
194.001	5812.43
194.076	5792.67
194.152	5760.09
194.227	5741.57
194.302	5712.57
194.378	5725.09
194.453	5714.59
194.529	5751.95
194.604	5715.36
194.679	5701.46
194.755	5649.02
194.83	5679.01
194.905	5675.23
194.981	5695.51
195.056	5680.13
195.131	5699.74
195.207	5692.92
195.282	5662.77
195.357	5611.38
195.433	5655.35
195.508	5625.04
195.583	5651.46
195.659	5691.28
195.734	5710.32
195.809	5706.73
195.884	5728.48
195.96	5727.43
196.035	5774.62
196.11	5760.65
196.185	5794.7
196.261	5799.64
196.336	5883.61
196.411	5844.56
196.486	5858.13
196.561	5837.79
196.637	5867.52
196.712	5908.89
196.787	5916.76
196.862	5960.25
196.937	5982.5
197.013	5993.26
197.088	6016.71
197.163	6070.38
197.238	6113.04
197.313	6115.05
197.388	6152.62
197.464	6233.6
197.539	6266.9
197.614	6244.69
197.689	6274.3
197.764	6315.16
197.839	6376.16
197.914	6361.76
197.989	6426.47
198.065	6468.56
198.14	6608.26
198.215	6671.69
198.29	6701.77
198.365	6740.09
198.44	6772.21
198.515	6850.64
198.59	6892.43
198.665	6963.8
198.74	6987.69
198.815	6993.79
198.89	7053.74
198.965	7131.55
199.04	7126.02
199.115	7169.16
199.19	7278.63
199.265	7293.33
199.34	7318.46
199.415	7404.83
199.49	7462.48
199.565	7487.62
199.64	7549.29
199.715	7541.3
199.79	7555.96
199.865	7571.1
199.94	7563.95
200.015	7645.78
200.09	7661.46
200.165	7680.54
200.24	7696.7
200.315	7797.08
200.39	7833.68
200.464	7845.46
200.539	7851.04
200.614	7892.77
200.689	7958.57
200.764	7982.53
200.839	8029.15
200.914	8044.2
200.989	8016.87
201.063	8051.93
201.138	8004.99
201.213	8000.37
201.288	7947.62
201.363	7964.4
201.438	7965.94
201.512	8009.87
201.587	7959.41
201.662	7968.26
201.737	8000.54
201.812	8021.56
201.886	7931.7
201.961	7959.28
202.036	7929.43
202.111	7919.85
202.186	7839.41
202.26	7788.71
202.335	7731.24
202.41	7709.26
202.485	7664.18
202.559	7609.28
202.634	7538.36
202.709	7563.05
202.784	7514.93
202.858	7517.87
202.933	7469.36
203.008	7449.61
203.082	7400.97
203.157	7400.97
203.232	7288.7
203.306	7227.25
203.381	7145.92
203.456	7083.94
203.53	7020.82
203.605	6970.17
203.68	6906.82
203.754	6889.59
203.829	6844.66
203.904	6791.11
203.978	6762.18
204.053	6775.35
204.127	6744.47
204.202	6738.18
204.277	6690.06
204.351	6672.53
204.426	6650.38
204.5	6624.98
204.575	6529.9
204.65	6554.4
204.724	6538.35
204.799	6557.11
204.873	6545.82
204.948	6542.26
205.022	6516.59
205.097	6486.12
205.171	6524.53
205.246	6543.69
205.32	6545.42
205.395	6545.61
205.469	6518.7
205.544	6532.01
205.618	6483.17
205.693	6512.22
205.767	6481.6
205.842	6537.07
205.916	6520.03
205.991	6492.18
206.065	6506.39
206.14	6551.95
206.214	6536.62
206.289	6506.02
206.363	6540.26
206.438	6546.98
206.512	6565.47
206.586	6612.47
206.661	6636.88
206.735	6574.83
206.81	6582.66
206.884	6620.35
206.958	6591.64
207.033	6638.62
207.107	6649.92
207.181	6737.6
207.256	6718
207.33	6766.31
207.405	6799.15
207.479	6851.31
207.553	6873.77
207.628	6831.59
207.702	6862.46
207.776	6846.81
207.851	6861.45
207.925	6900.53
207.999	6893.03
208.073	6886.6
208.148	6892.94
208.222	6861.85
208.296	6947.11
208.371	6985.86
208.445	7015.94
208.519	7086.84
208.593	7118.02
208.668	7112.92
208.742	7115.62
208.816	7124.45
208.89	7158.97
208.965	7154.97
209.039	7179.11
209.113	7223.85
209.187	7281.83
209.261	7273.86
209.336	7330.57
209.41	7381.13
209.484	7383.63
209.558	7446.99
209.632	7483.8
209.707	7518.17
209.781	7580.07
209.855	7622.97
209.929	7672.1
210.003	7687.06
210.077	7684.75
210.151	7813.48
210.226	7904.3
210.3	7976.35
210.374	8038.55
210.448	8051.83
210.522	8078.91
210.596	8099.4
210.67	8126.29
210.744	8252.67
210.818	8335.27
210.892	8390.41
210.966	8374.06
211.041	8410.48
211.115	8400.14
211.189	8465.61
211.263	8513.53
211.337	8531.14
211.411	8567.43
211.485	8543.12
211.559	8579.39
211.633	8592.13
211.707	8507.01
211.781	8530.65
211.855	8437.06
211.929	8413.83
212.003	8365.75
212.077	8390.4
212.151	8420.86
212.225	8445.93
212.299	8413.67
212.373	8386.44
212.447	8372.91
212.52	8450.86
212.594	8463.56
212.668	8490.5
212.742	8443.3
212.816	8421.45
212.89	8405.05
212.964	8401.53
213.038	8416.79
213.112	8446.39
213.186	8483.72
213.26	8423.96
213.333	8294.27
213.407	8305.04
213.481	8311.82
213.555	8342.34
213.629	8310.53
213.703	8265.88
213.777	8256.68
213.85	8201.4
213.924	8286.98
213.998	8279.23
214.072	8264.55
214.146	8217.59
214.219	8205.75
214.293	8196.47
214.367	8197.91
214.441	8216.15
214.515	8177.41
214.588	8100.25
214.662	7998.18
214.736	7933.98
214.81	7949.55
214.883	7973.38
214.957	7937
215.031	7895.91
215.105	7823.51
215.178	7774.46
215.252	7744.26
215.326	7668.87
215.4	7603.61
215.473	7458.3
215.547	7391.31
215.621	7335.83
215.694	7334.97
215.768	7262
215.842	7210.77
215.915	7151.48
215.989	7057.08
216.063	7006.31
216.136	6996.65
216.21	6975.57
216.284	6981.19
216.357	6962.98
216.431	6928.97
216.504	6924.5
216.578	6969.24
216.652	6973.75
216.725	6956.7
216.799	6965.73
216.873	6944.31
216.946	6951.66
217.02	6925.45
217.093	6903.35
217.167	6824.19
217.24	6761.63
217.314	6731.39
217.387	6690.16
217.461	6657.21
217.535	6680.5
217.608	6635.56
217.682	6613.9
217.755	6626.14
217.829	6584.83
217.902	6569.13
217.976	6547.91
218.049	6509.59
218.123	6443.29
218.196	6440.21
218.27	6406.99
218.343	6347.28
218.417	6348.77
218.49	6331.72
218.563	6364.23
218.637	6373.88
218.71	6431.07
218.784	6455.52
218.857	6481.1
218.931	6506.19
219.004	6510.52
219.077	6525.07
219.151	6537.46
219.224	6532.99
219.298	6526.75
219.371	6565.17
219.444	6533.45
219.518	6546.6
219.591	6561.91
219.665	6648.32
219.738	6667.86
219.811	6656.11
219.885	6696.69
219.958	6722.05
220.031	6724.06
220.105	6736.75
220.178	6740.54
220.251	6717.38
220.325	6733.77
220.398	6744.19
220.471	6756.34
220.544	6786.41
220.618	6771.46
220.691	6800.28
220.764	6814.4
220.838	6836.16
220.911	6822.13
220.984	6893.05
221.057	6921.39
221.131	6941.75
221.204	6864.46
221.277	6918.43
221.35	7023.36
221.424	7013.71
221.497	7022.26
221.57	7041.75
221.643	7073.53
221.716	7104.67
221.79	7114.23
221.863	7120.14
221.936	7128.21
222.009	7137.33
222.082	7159.69
222.155	7167.13
222.229	7217.22
222.302	7238.65
222.375	7248.89
222.448	7275.66
222.521	7279.65
222.594	7285.65
222.667	7263.08
222.74	7308.97
222.814	7299.78
222.887	7279.68
222.96	7325.44
223.033	7358.52
223.106	7378.36
223.179	7396.97
223.252	7407.79
223.325	7428.93
223.398	7445.47
223.471	7471.28
223.544	7490.45
223.617	7505.31
223.69	7520.11
223.763	7489.58
223.837	7508.09
223.91	7527.32
223.983	7487.53
224.056	7464.89
224.129	7476.62
224.202	7520.24
224.275	7515.67
224.348	7495.34
224.42	7471.74
224.493	7427.51
224.566	7410.54
224.639	7430.05
224.712	7401.68
224.785	7391.87
224.858	7389.8
224.931	7369.18
225.004	7337.17
225.077	7338.95
225.15	7264.18
225.223	7267.93
225.296	7337.87
225.369	7289.53
225.442	7261.17
225.514	7280.62
225.587	7294.46
225.66	7304.13
225.733	7308.45
225.806	7307.25
225.879	7302.06
225.952	7277.85
226.025	7315.72
226.097	7356.61
226.17	7346.13
226.243	7297.12
226.316	7290.78
226.389	7290.63
226.461	7310.01
226.534	7329.47
226.607	7321.78
226.68	7387.7
226.753	7379.14
226.825	7307.47
226.898	7356.58
226.971	7364.9
227.044	7381.96
227.117	7384.56
227.189	7394.8
227.262	7423.31
227.335	7445.29
227.407	7443.99
227.48	7472.53
227.553	7476.81
227.626	7465.12
227.698	7474.78
227.771	7517.58
227.844	7510.56
227.916	7524.5
227.989	7495.57
228.062	7492.92
228.134	7568.13
228.207	7569.05
228.28	7563.38
228.352	7578.38
228.425	7589.34
228.498	7621.8
228.57	7606.85
228.643	7650.42
228.716	7657.06
228.788	7649.94
228.861	7640.18
228.934	7693.49
229.006	7698.44
229.079	7700.51
229.151	7687.72
229.224	7659.41
229.296	7673.06
229.369	7753.93
229.442	7800.3
229.514	7789.68
229.587	7824.69
229.659	7759.37
229.732	7766.49
229.804	7802.21
229.877	7868.6
229.949	7889.29
230.022	7933.51
230.094	7937.84
230.167	7929.9
230.239	7897.78
230.312	7882.44
230.384	7938.83
230.457	7932.86
230.529	7941.23
230.602	7940.65
230.674	7946.52
230.747	7978.62
230.819	8006.95
230.892	7912.68
230.964	7907.96
231.037	7930.45
231.109	7929.15
231.181	7960.83
231.254	7937.27
231.326	7924.87
231.399	7900.8
231.471	7875.16
231.544	7812.33
231.616	7846.18
231.688	7851.42
231.761	7839.65
231.833	7834.36
231.905	7768.31
231.978	7766.1
232.05	7750.23
232.122	7759.95
232.195	7740.09
232.267	7771.11
232.339	7750.57
232.412	7799.37
232.484	7777.52
232.556	7750.04
232.629	7802.54
232.701	7820.24
232.773	7832.16
232.846	7822.02
232.918	7824.95
232.99	7847.37
233.062	7882.19
233.135	7888.59
233.207	7859.01
233.279	7893.19
233.351	7919.54
233.424	7921.8
233.496	7903.57
233.568	7973.61
233.64	7940.14
233.713	7956.73
233.785	7949.18
233.857	7966.35
233.929	7928.36
234.001	7983.66
234.074	8038.07
234.146	7976.05
234.218	7972.93
234.29	7971.39
234.362	7967.54
234.434	7926.7
234.507	7892.31
234.579	7846.77
234.651	7834.99
234.723	7862.64
234.795	7877.31
234.867	7874.18
234.939	7923.44
235.012	7936.42
235.084	7932.86
235.156	7962.67
235.228	7945.5
235.3	7939.35
235.372	7941.37
235.444	7988.25
235.516	7919.73
235.588	7927.71
235.66	7937.96
235.732	7911.5
235.804	8068.98
235.876	8101.44
235.948	8160.33
236.02	8171.87
236.092	8189.95
236.164	8196.49
236.236	8194.32
236.308	8187.69
236.38	8210.3
236.452	8189.61
236.524	8209.62
236.596	8270.34
236.668	8298.05
236.74	8315.75
236.812	8334.46
236.884	8364.82
236.956	8377.09
237.028	8372.77
237.1	8361.03
237.172	8420.61
237.244	8486.19
237.316	8385.95
237.388	8376.86
237.46	8356.84
237.532	8407.94
237.604	8397.75
237.675	8453.18
237.747	8486.87
237.819	8484.18
237.891	8491.59
237.963	8486.97
238.035	8483.07
238.107	8389.49
238.178	8438.55
238.25	8449.28
238.322	8519.52
238.394	8490.3
238.466	8487.03
238.538	8520.65
238.609	8553.95
238.681	8518.23
238.753	8492.72
238.825	8511.21
238.897	8532.71
238.968	8596.36
239.04	8578.79
239.112	8667.67
239.184	8643.02
239.255	8641.43
239.327	8672.71
239.399	8679.73
239.471	8716.64
239.542	8738.58
239.614	8792.72
239.686	8731.73
239.758	8774.56
239.829	8745.19
239.901	8790.33
239.973	8807.51
240.044	8836.29
240.116	8844.04
240.188	8850.73
240.259	8875.28
240.331	8865.75
240.403	8898.38
240.474	8860.67
240.546	8847.78
240.618	8797.28
240.689	8794.83
240.761	8819.04
240.833	8872.43
240.904	8874.5
240.976	8877.3
241.048	8897.61
241.119	8929.49
241.191	8959.95
241.262	9012.54
241.334	9015.43
241.405	9017.89
241.477	9021.84
241.549	9036.76
241.62	9064.44
241.692	9102.62
241.763	9148.66
241.835	9169.41
241.906	9181.25
241.978	9160.99
242.049	9220.29
242.121	9276.61
242.192	9331.3
242.264	9301.79
242.335	9258.17
242.407	9299.24
242.478	9303.23
242.55	9325.96
242.621	9310.41
242.693	9315.36
242.764	9310.79
242.836	9320.47
242.907	9348.4
242.979	9375.17
243.05	9386.92
243.122	9402.71
243.193	9402.42
243.264	9347.67
243.336	9345.8
243.407	9375.94
243.479	9439.84
243.55	9452.41
243.622	9466.62
243.693	9460.45
243.764	9514.86
243.836	9501.05
243.907	9495.94
243.978	9507.4
244.05	9523.68
244.121	9493.2
244.192	9525.85
244.264	9480.92
244.335	9489.3
244.407	9445
244.478	9451.74
244.549	9445
244.62	9413.6
244.692	9412.88
244.763	9447.21
244.834	9443.21
244.906	9422.6
244.977	9440.13
245.048	9493.13
245.119	9476.37
245.191	9463.66
245.262	9417.14
245.333	9472.7
245.405	9478.19
245.476	9499.47
245.547	9506.79
245.618	9546.37
245.689	9560.78
245.761	9592.75
245.832	9592.08
245.903	9635.17
245.974	9662.92
246.045	9680.83
246.117	9748.94
246.188	9736.13
246.259	9724.52
246.33	9739.79
246.401	9750.14
246.473	9718.73
246.544	9700.42
246.615	9743.82
246.686	9749.8
246.757	9809.89
246.828	9792.41
246.899	9852.49
246.97	9826.73
247.042	9821.91
247.113	9856.93
247.184	9923.52
247.255	9920.83
247.326	9948.23
247.397	9946.98
247.468	9952.33
247.539	9956.28
247.61	9918.13
247.681	9960.89
247.752	10003.95
247.823	9982.09
247.894	10000.15
247.965	9977.9
248.037	9968.7
248.108	9928.77
248.179	9933.97
248.25	9924.57
248.321	9951.01
248.392	9914.83
248.463	9979.85
248.534	9980.28
248.605	9999.03
248.675	9976.04
248.746	9995.06
248.817	10007.54
248.888	10032.21
248.959	9985.39
249.03	10003.7
249.101	10005.33
249.172	9988.76
249.243	9931.17
249.314	9988.29
249.385	9992.33
249.456	10019.74
249.527	10012.65
249.598	10032.02
249.669	10028.93
249.739	10043.58
249.81	10052.97
249.881	10023.98
249.952	10017.66
250.023	10019.06
250.094	9969.49
250.165	9951.08
250.235	9940.48
250.306	9944.24
250.377	9917.99
250.448	9944.72
250.519	9899.39
250.59	9943.23
250.66	9937.93
250.731	9997.65
250.802	9988.79
250.873	10006.18
250.944	10021.31
251.014	10016.2
251.085	10084.04
251.156	10111.83
251.227	10152.07
251.297	10193.94
251.368	10232.33
251.439	10264.75
251.51	10306.77
251.58	10308.26
251.651	10303.83
251.722	10353.69
251.792	10318.38
251.863	10323.97
251.934	10372.87
252.005	10461.22
252.075	10471.92
252.146	10511.23
252.217	10548.13
252.287	10591.5
252.358	10596.37
252.429	10661.18
252.499	10654.39
252.57	10671.01
252.641	10704.21
252.711	10710.96
252.782	10677.66
252.852	10736.98
252.923	10737.9
252.994	10749.32
253.064	10792.39
253.135	10770.08
253.205	10747.68
253.276	10804.14
253.347	10848.46
253.417	10827.21
253.488	10814.54
253.558	10811.94
253.629	10816.32
253.699	10826.01
253.77	10851.41
253.841	10842.01
253.911	10841.29
253.982	10853.53
254.052	10876.04
254.123	10883.5
254.193	10885.91
254.264	10997.15
254.334	10972.08
254.405	10947.99
254.475	10915.32
254.546	10913.73
254.616	10967.31
254.687	10991.07
254.757	11012.75
254.827	11021.19
254.898	11046.1
254.968	11051.93
255.039	11035.59
255.109	11065.95
255.18	11037.33
255.25	10971.5
255.321	11003.21
255.391	10977.95
255.461	11057.47
255.532	10986.28
255.602	10985.22
255.673	10935.59
255.743	10907.25
255.813	10848.08
255.884	10890.1
255.954	10923.69
256.024	10976.51
256.095	10983.54
256.165	10960.46
256.235	10977.24
256.306	10957.48
256.376	10992.57
256.446	11026.49
256.517	11055.02
256.587	11093.14
256.657	11115.07
256.728	11137.86
256.798	11139.88
256.868	11139.3
256.938	11111.64
257.009	11155.45
257.079	11177.76
257.149	11261.23
257.219	11224.35
257.29	11256.39
257.36	11204.83
257.43	11235.53
257.5	11180.88
257.571	11175.48
257.641	11206.56
257.711	11175.43
257.781	11203.96
257.852	11209.21
257.922	11156.73
257.992	11162.75
258.062	11152.49
258.132	11182.22
258.202	11189.31
258.273	11200.39
258.343	11258.37
258.413	11245.17
258.483	11246.27
258.553	11228.78
258.623	11210.85
258.693	11221.36
258.764	11276.68
258.834	11332.24
258.904	11341.45
258.974	11333.54
259.044	11343.04
259.114	11365.45
259.184	11391.91
259.254	11393.93
259.324	11361.4
259.394	11401.54
259.464	11459.96
259.535	11469.79
259.605	11471.29
259.675	11464.06
259.745	11498.09
259.815	11482.13
259.885	11489.12
259.955	11580.18
260.025	11572.85
260.095	11575.99
260.165	11608.28
260.235	11665.88
260.305	11655.66
260.375	11637.35
260.445	11715.08
260.515	11761.5
260.585	11803.53
260.655	11802.95
260.725	11845.51
260.795	11877.13
260.865	11934.97
260.934	11909.28
261.004	11935.94
261.074	11939.26
261.144	11989.33
261.214	12015.75
261.284	12012.67
261.354	12042.79
261.424	12005.77
261.494	12054.92
261.564	12060.03
261.634	12077.1
261.703	12018.77
261.773	12040.32
261.843	12074.97
261.913	12070.59
261.983	12030.82
262.053	12043.16
262.123	12049.52
262.192	12016.27
262.262	12046.2
262.332	12001.8
262.402	12023.69
262.472	12023.3
262.541	11977.23
262.611	12009.04
262.681	11984.36
262.751	12017.28
262.821	12021.67
262.89	11992.99
262.96	12024.03
263.03	12090.65
263.1	12113.93
263.169	12130.75
263.239	12159.82
263.309	12207.88
263.379	12229.28
263.448	12243.93
263.518	12262.98
263.588	12279.03
263.657	12344.68
263.727	12376.25
263.797	12391.05
263.867	12396.79
263.936	12371.33
264.006	12422.37
264.076	12423.34
264.145	12428.98
264.215	12414.03
264.285	12446.33
264.354	12414.81
264.424	12403.24
264.494	12365.54
264.563	12351.85
264.633	12415.77
264.702	12435.15
264.772	12384.73
264.842	12386.27
264.911	12418.71
264.981	12383.13
265.05	12386.8
265.12	12374.17
265.19	12388.1
265.259	12424.64
265.329	12452.5
265.398	12475.15
265.468	12555.46
265.537	12551.66
265.607	12579.04
265.676	12627.92
265.746	12641.56
265.815	12693.66
265.885	12702.2
265.955	12691.45
266.024	12690.39
266.094	12635.67
266.163	12680.22
266.232	12738.21
266.302	12741.77
266.371	12759.71
266.441	12785.54
266.51	12824.98
266.58	12829.31
266.649	12808.2
266.719	12847.15
266.788	12879.16
266.858	12936.96
266.927	12879.98
266.996	12904.76
267.066	12928.96
267.135	12893.19
267.205	12928.19
267.274	12947.13
267.343	12987.67
267.413	13005.07
267.482	13053.52
267.552	13112.96
267.621	13079.6
267.69	13041.18
267.76	13062.92
267.829	13088.32
267.898	13101.63
267.968	13092.71
268.037	13128.05
268.106	13177.41
268.176	13157.16
268.245	13157.6
268.314	13149.59
268.384	13208.89
268.453	13232.22
268.522	13252.61
268.592	13310.26
268.661	13298.55
268.73	13320.34
268.799	13307.61
268.869	13375.58
268.938	13342.76
269.007	13336.3
269.076	13351.91
269.146	13396.46
269.215	13429.19
269.284	13480.05
269.353	13474.55
269.422	13483.52
269.492	13482.99
269.561	13414.2
269.63	13437.29
269.699	13438.11
269.768	13455.12
269.838	13468.43
269.907	13504.15
269.976	13479.85
270.045	13429.19
270.114	13464.33
270.183	13476.91
270.253	13512.92
270.322	13471.71
270.391	13497.69
270.46	13548.21
270.529	13594.92
270.598	13637.39
270.667	13640.53
270.736	13611.31
270.806	13644.77
270.875	13688.93
270.944	13696.25
271.013	13805.58
271.082	13832.97
271.151	13853.12
271.22	13822.79
271.289	13823.9
271.358	13821.93
271.427	13855.38
271.496	13893.32
271.565	13893.99
271.634	13902.53
271.703	14001.39
271.772	14055.14
271.841	14064.64
271.91	14042.51
271.979	14054.18
272.048	14024.87
272.117	14050.9
272.186	14055.77
272.255	14096.02
272.324	14133.43
272.393	14168.23
272.462	14154.88
272.531	14171.7
272.6	14185.88
272.669	14242.23
272.738	14258.38
272.807	14285.33
272.876	14277.32
272.945	14383.71
273.013	14430.86
273.082	14487.88
273.151	14409.22
273.22	14437.13
273.289	14458.67
273.358	14521.29
273.427	14528.67
273.496	14573.4
273.564	14614.33
273.633	14664.75
273.702	14651.35
273.771	14664.12
273.84	14687.36
273.909	14720.14
273.977	14753.16
274.046	14762.32
274.115	14815.44
274.184	14810.42
274.253	14821.85
274.322	14882.68
274.39	14833.76
274.459	14823.01
274.528	14784.78
274.597	14810.33
274.665	14837.71
274.734	14891.21
274.803	14905.19
274.872	14929.78
274.94	14928.91
275.009	15104.92
275.078	15107.91
275.147	15138.47
275.215	15148.3
275.284	15202.72
275.353	15211.4
275.421	15177.9
275.49	15256.8
275.559	15253.14
275.627	15272.9
275.696	15305.2
275.765	15342.22
275.833	15359.57
275.902	15401.17
275.971	15470.2
276.039	15549.68
276.108	15594.7
276.177	15628.49
276.245	15632.05
276.314	15654.71
276.383	15707.01
276.451	15583.83
276.52	15626.39
276.588	15697.82
276.657	15755.8
276.725	15754.07
276.794	15793.35
276.863	15868.98
276.931	15851.68
277	15916.26
277.068	15981.19
277.137	16044.33
277.205	16067.61
277.274	16148.39
277.342	16216.16
277.411	16195.05
277.48	16186.9
277.548	16193.7
277.617	16229.65
277.685	16252.88
277.754	16305.71
277.822	16318
277.89	16375.69
277.959	16390.34
278.027	16377.76
278.096	16380.8
278.164	16489.04
278.233	16502.25
278.301	16503.41
278.37	16548.28
278.438	16554.4
278.507	16592.43
278.575	16561.63
278.643	16586.88
278.712	16568.09
278.78	16564.57
278.849	16639.04
278.917	16703.47
278.985	16724.29
279.054	16755.19
279.122	16828.2
279.191	16849.36
279.259	16876.93
279.327	16857.51
279.396	16938.76
279.464	16969.32
279.532	17029.03
279.601	17050.81
279.669	17080.69
279.737	17156.07
279.806	17198.67
279.874	17256.12
279.942	17285.27
280.011	17315.4
280.079	17367.4
280.147	17445.47
280.215	17488.6
280.284	17503.06
280.352	17501.71
280.42	17553.18
280.488	17561.57
280.557	17568.6
280.625	17613.09
280.693	17654.73
280.761	17708.17
280.83	17704.27
280.898	17772.99
280.966	17751.64
281.034	17698.44
281.102	17694.77
281.171	17715.83
281.239	17774.24
281.307	17773.76
281.375	17780.26
281.443	17883.92
281.512	17908.12
281.58	17972.93
281.648	17967.73
281.716	18006.23
281.784	18047.63
281.852	18066.33
281.92	18107.34
281.989	18162.95
282.057	18151.82
282.125	18260.63
282.193	18287.71
282.261	18312.29
282.329	18331.13
282.397	18381.88
282.465	18433.25
282.533	18506.02
282.601	18505.1
282.67	18473.35
282.738	18495.9
282.806	18568.91
282.874	18566.35
282.942	18607.41
283.01	18611.32
283.078	18668.04
283.146	18698.4
283.214	18751.5
283.282	18795.98
283.35	18876.46
283.418	18900.07
283.486	18951.49
283.554	18920.17
283.622	18954.96
283.69	18997.46
283.758	19013.99
283.826	19061.7
283.894	19128.06
283.962	19217.11
284.03	19294.12
284.098	19341.11
284.165	19372.57
284.233	19410.26
284.301	19429.24
284.369	19454.4
284.437	19475.75
284.505	19497.29
284.573	19579.07
284.641	19583.98
284.709	19645.43
284.777	19628.22
284.845	19686.49
284.912	19736.94
284.98	19788.36
285.048	19809.85
285.116	19846.96
285.184	19923.1
285.252	19962.18
285.319	19949.99
285.387	19971.73
285.455	19971.87
285.523	20020.11
285.591	20043.34
285.659	20083.87
285.726	20158.86
285.794	20163.53
285.862	20195.38
285.93	20233.21
285.997	20250.18
286.065	20277.55
286.133	20288.35
286.201	20324.54
286.269	20327.29
286.336	20346.9
286.404	20365.94
286.472	20424.54
286.539	20414.18
286.607	20394.9
286.675	20435.77
286.743	20500.49
286.81	20515.1
286.878	20585.17
286.946	20610.52
287.013	20652.01
287.081	20677.51
287.149	20673.07
287.216	20769.08
287.284	20799.73
287.352	20830.58
287.419	20862.24
287.487	20944.03
287.555	20986.25
287.622	21012.04
287.69	21060.47
287.758	21130.89
287.825	21155.86
287.893	21162.65
287.96	21221.25
288.028	21300.73
288.096	21341.65
288.163	21383.97
288.231	21388.84
288.298	21426.63
288.366	21497.82
288.433	21533.58
288.501	21554.12
288.569	21601.45
288.636	21604.2
288.704	21679.88
288.771	21753.34
288.839	21763.17
288.906	21777.82
288.974	21832.3
289.041	21869.07
289.109	21884.06
289.176	21929.28
289.244	21972.52
289.311	22041.6
289.379	22101.71
289.446	22135.45
289.514	22175.95
289.581	22206.41
289.649	22248.06
289.716	22280.55
289.783	22296.17
289.851	22376.44
289.918	22416.98
289.986	22478.54
290.053	22535.67
290.121	22563.64
290.188	22595.7
290.255	22714.79
290.323	22738.8
290.39	22769.75
290.458	22820.37
290.525	22889.17
290.592	22917.91
290.66	22965.11
290.727	22991.53
290.794	23064.39
290.862	23106.34
290.929	23143.76
290.996	23186.87
291.064	23264.88
291.131	23337.94
291.198	23406.85
291.266	23444.22
291.333	23478.41
291.4	23528.42
291.468	23605.78
291.535	23626.86
291.602	23673.97
291.669	23685.99
291.737	23744.58
291.804	23783.16
291.871	23858.1
291.938	23920.71
292.006	24017.68
292.073	24074.59
292.14	24136.81
292.207	24156.53
292.275	24186.97
292.342	24254.5
292.409	24370.82
292.476	24466.88
292.543	24479.47
292.611	24517.97
292.678	24604.42
292.745	24713.88
292.812	24780.66
292.879	24807.1
292.946	24857.07
293.014	24923.85
293.081	24979.82
293.148	25047.26
293.215	25122.68
293.282	25147.53
293.349	25201.48
293.416	25197.09
293.484	25284.87
293.551	25350.16
293.618	25438.23
293.685	25546.96
293.752	25569.83
293.819	25583.25
293.886	25575.63
293.953	25628.37
294.02	25697.78
294.087	25744.8
294.154	25759.56
294.221	25829.24
294.288	25862.35
294.356	25949.03
294.423	26007.54
294.49	26024.58
294.557	26090.33
294.624	26098.97
294.691	26192.91
294.758	26233.8
294.825	26293.28
294.892	26304.82
294.959	26339.82
295.026	26396.13
295.093	26416.51
295.16	26456.72
295.226	26501.48
295.293	26617.44
295.36	26676.49
295.427	26739.23
295.494	26804
295.561	26868.85
295.628	26970.2
295.695	27056.21
295.762	27108.47
295.829	27179.97
295.896	27268.78
295.963	27332.45
296.03	27409.82
296.096	27467.17
296.163	27543.07
296.23	27626.21
296.297	27705.09
296.364	27749.39
296.431	27800.85
296.498	27842.83
296.564	27952.44
296.631	28002.59
296.698	27998.87
296.765	28096.82
296.832	28115.28
296.899	28131.33
296.965	28225.95
297.032	28205.84
297.099	28305.82
297.166	28361.5
297.233	28387.99
297.299	28413.21
297.366	28463.05
297.433	28513.41
297.5	28577.76
297.566	28614.21
297.633	28660.1
297.7	28703.46
297.767	28744.92
297.833	28798.78
297.9	28850.16
297.967	28846.83
298.033	28920.46
298.1	29039.24
298.167	29059.11
298.234	29122.15
298.3	29189.41
298.367	29212.81
298.434	29283.53
298.5	29284.59
298.567	29319.6
298.634	29358.43
298.7	29447.12
298.767	29486.15
298.834	29564.8
298.9	29596.53
298.967	29619.31
299.033	29679.15
299.1	29768.41
299.167	29846.32
299.233	29881.63
299.3	29967.16
299.366	30045.21
299.433	30128.6
299.5	30113.36
299.566	30168.22
299.633	30245.68
299.699	30319.04
299.766	30350.39
299.832	30400.97
299.899	30474.15
299.965	30548.87
300.032	30573.3
300.099	30629.58
300.165	30693.52
300.232	30728.03
300.298	30766.45
300.365	30851.91
300.431	30881.39
300.498	30899.21
300.564	30965.71
300.631	31035.71
300.697	31096.38
300.763	31137.66
300.83	31186.09
300.896	31262.19
300.963	31324.74
301.029	31377.14
301.096	31412.15
301.162	31489.55
301.229	31520.45
301.295	31525.24
301.361	31564.76
301.428	31626.86
301.494	31630.68
301.561	31675.53
301.627	31713.63
301.693	31750.43
301.76	31791.98
301.826	31832.22
301.892	31896.2
301.959	31957.33
302.025	31983.05
302.092	32006.74
302.158	32079.97
302.224	32107.92
302.291	32116.93
302.357	32140.42
302.423	32176.76
302.49	32199.43
302.556	32264.21
302.622	32294.44
302.688	32354.26
302.755	32438.43
302.821	32498.39
302.887	32561.65
302.954	32603.03
303.02	32677.02
303.086	32739.36
303.152	32774.68
303.219	32812.47
303.285	32865.25
303.351	32924.53
303.417	32981.03
303.483	32994.02
303.55	33011.66
303.616	33049.22
303.682	33084.92
303.748	33110.51
303.815	33165.04
303.881	33242.05
303.947	33244.91
304.013	33290.9
304.079	33315.62
304.145	33292.4
304.212	33332.62
304.278	33357.87
304.344	33380.41
304.41	33370.96
304.476	33392.86
304.542	33429.22
304.608	33477.98
304.674	33476.81
304.741	33485.11
304.807	33517.49
304.873	33575.56
304.939	33650.36
305.005	33638.19
305.071	33682.88
305.137	33730.38
305.203	33708.32
305.269	33732.32
305.335	33796.62
305.401	33827.45
305.467	33859.69
305.533	33919.03
305.599	33972.95
305.666	34034.23
305.732	34066.57
305.798	34144
305.864	34245.75
305.93	34290.94
305.996	34320.86
306.062	34352.81
306.128	34378.9
306.194	34381.33
306.259	34419.25
306.325	34427.64
306.391	34490.87
306.457	34549.01
306.523	34583.59
306.589	34692.61
306.655	34693.87
306.721	34676.85
306.787	34675.79
306.853	34751.01
306.919	34741.8
306.985	34742.82
307.051	34756.74
307.117	34772.21
307.183	34780.26
307.248	34729.28
307.314	34772.01
307.38	34811.01
307.446	34879.89
307.512	34901.77
307.578	34947.6
307.644	34962.69
307.709	34998.15
307.775	35014.5
307.841	35037.78
307.907	35070.57
307.973	35036.08
308.039	35071.19
308.104	35123.53
308.17	35172.57
308.236	35157.62
308.302	35198.75
308.368	35209.81
308.433	35234.84
308.499	35256.18
308.565	35261.81
308.631	35304.98
308.696	35270.78
308.762	35277.96
308.828	35281.55
308.894	35252.06
308.959	35231.25
309.025	35244.35
309.091	35262.69
309.156	35277.78
309.222	35303.74
309.288	35306.36
309.354	35293.65
309.419	35326.88
309.485	35317.57
309.551	35352.12
309.616	35358.03
309.682	35387.29
309.748	35398.2
309.813	35415.67
309.879	35421.1
309.945	35433.28
310.01	35458.27
310.076	35505.38
310.141	35514.79
310.207	35508.63
310.273	35557.09
310.338	35603.23
310.404	35594.88
310.469	35594.64
310.535	35597.99
310.601	35568.97
310.666	35614.78
310.732	35673.82
310.797	35676.06
310.863	35688.33
310.928	35704.35
310.994	35734.48
311.059	35768.45
311.125	35796.64
311.191	35858.91
311.256	35868.22
311.322	35896.36
311.387	35866.52
311.453	36771.82
311.518	36761.72
311.584	36792.34
311.649	36816.03
311.715	36817.68
311.78	36849.02
311.846	36861.49
311.911	36915.21
311.976	36952.82
312.042	36940.3
312.107	36931.37
312.173	36940.64
312.238	36963.1
312.304	36971.55
312.369	36975.04
312.434	36964.75
312.5	36969.94
312.565	36912.62
312.631	36959.11
312.696	36969.4
312.761	37003.27
312.827	36130.35
312.892	36237.08
312.958	36259.26
313.023	36297.37
313.088	36322.84
313.154	36317.07
313.219	36310.81
313.284	36295.57
313.35	36314.3
313.415	36320.81
313.48	36334.01
313.546	36364.49
313.611	36418.17
313.676	36417.64
313.741	36430.45
313.807	36475.64
313.872	36518.98
313.937	36568.97
314.003	36618.97
314.068	36645.13
314.133	36697.55
314.198	36695.22
314.264	36665.56
314.329	36661.77
314.394	36666.14
314.459	36685.9
314.525	36775.01
314.59	36796.71
314.655	36812.68
314.72	36859.52
314.785	36888.55
314.851	36903.84
314.916	36883.3
314.981	36859.66
315.046	36865.54
315.111	36863.69
315.176	36855.83
315.242	36886.66
315.307	36907.77
315.372	36880.64
315.437	36891.41
315.502	36890.64
315.567	36947.63
315.632	36940.88
315.698	36968.26
315.763	36985.16
315.828	36977.92
315.893	36967.1
315.958	36982.19
316.023	36974.33
316.088	36937.34
316.153	36894.77
316.218	36894.67
316.283	36851.73
316.348	36827.65
316.413	36838.38
316.479	36804.32
316.544	36721.62
316.609	36641.53
316.674	36541.65
316.739	36450.81
316.804	36344.54
316.869	36227.11
316.934	36118.68
316.999	36019.69
317.064	35869.56
317.129	35733.73
317.194	35623.07
317.259	35479.44
317.324	35322.81
317.389	35172.34
317.454	35028.75
317.518	34916.18
317.583	34810.32
317.648	34734.27
317.713	34598.03
317.778	34395.98
317.843	34279.84
317.908	34142.93
317.973	33999.89
318.038	33880.52
318.103	33742.23
318.168	33623.66
318.233	33501.57
318.297	33310.64
318.362	33163.88
318.427	33016.11
318.492	32906.23
318.557	32738.56
318.622	32610.09
318.687	32492.77
318.751	32343.94
318.816	32218.56
318.881	32067.11
318.946	31862.85
319.011	31675.56
319.075	31505.22
319.14	31361.78
319.205	31181.58
319.27	31029.12
319.335	30859.16
319.399	30686.07
319.464	30535.43
319.529	30334.15
319.594	30160.48
319.658	30014.19
319.723	29834.91
319.788	29680.72
319.853	29457.75
319.917	29297.17
319.982	29091.09
320.047	28906.14
320.112	28765.26
320.176	28558.08
320.241	28390.04
320.306	28233.34
320.37	28049.22
320.435	27894.58
320.5	27738.3
320.564	27562.05
320.629	27371.73
320.694	27198.12
320.758	27016.69
320.823	26826.79
320.888	26673.82
320.952	26473.64
321.017	26290.98
321.082	26105.88
321.146	25932.43
321.211	25766.48
321.275	25577.87
321.34	25382.86
321.405	25196.93
321.469	24986.96
321.534	24790.21
321.598	24576.63
321.663	24413.34
321.727	24250.14
321.792	24034.75
321.857	23832.54
321.921	23649.31
321.986	23448.43
322.05	23213.93
322.115	23021.57
322.179	22820.07
322.244	22585.76
322.308	22416.34
322.373	22206.72
322.437	22009.75
322.502	21858.26
322.566	21644.23
322.631	21464.24
322.695	21265.61
322.76	21056.09
322.824	20867.88
322.889	20666.85
322.953	20455.57
323.018	20181.52
323.082	19912.98
323.146	19686.42
323.211	19459.38
323.275	19244.06
323.34	19034.86
323.404	18847.2
323.468	18629.95
323.533	18419.21
323.597	18205.13
323.662	17972.89
323.726	17777.62
323.79	17556.31
323.855	17286.04
323.919	17060.16
323.983	16838.75
324.048	16516.44
324.112	16678.91
324.177	16015.74
324.241	15138.66
324.305	14283.8
324.37	13448.77
324.434	12636.32
324.498	12409.66
324.562	12152.91
324.627	11864.32
324.691	11584.63
324.755	11267.77
324.82	10908.94
324.884	10528.99
324.948	10149.29
325.012	9672.31
325.077	9097.39
