Data from 20250626_urea_1M_exp2_MAYP1162681_19-53-59-860.txt Node
Date: Thu Jun 26 19:53:59 BST 2025
User: adleo
Spectrometer: MAYP116268
Trigger mode: 0
Integration Time (sec): 3.000000E0
Scans to average: 1
Electric dark correction enabled: true
Nonlinearity correction enabled: true
Boxcar width: 10
XAxis mode: Wavelengths
Number of Pixels in Spectrum: 2068
>>>>>Begin Spectral Data<<<<<
179.565	3041.71
179.642	3203.51
179.718	3320.84
179.795	3436.13
179.871	3530.08
179.948	3586.23
180.024	3645.16
180.101	3711.79
180.177	3750.56
180.254	3808.77
180.33	3875.91
180.407	4084.82
180.483	4326.52
180.56	4563.89
180.636	4787.31
180.712	4758.57
180.789	4782.85
180.865	4816.67
180.942	4844.58
181.018	4876.47
181.095	4912.4
181.171	4922.16
181.248	4922.21
181.324	4966.62
181.4	4983.34
181.477	5009.11
181.553	5038.31
181.63	5090.48
181.706	5131.54
181.782	5157.77
181.859	5164.62
181.935	5176.32
182.011	5174.16
182.088	5215.04
182.164	5270.94
182.24	5304.71
182.317	5330.04
182.393	5323.43
182.469	5356.35
182.546	5386.83
182.622	5393.58
182.698	5383.76
182.775	5419.37
182.851	5459.29
182.927	5441.51
183.003	5428.24
183.08	5414.15
183.156	5443.48
183.232	5440.94
183.308	5411.99
183.385	5427.42
183.461	5466.82
183.537	5466.43
183.613	5499.61
183.69	5473.58
183.766	5442.02
183.842	5461.15
183.918	5474.47
183.995	5508.36
184.071	5521.02
184.147	5509.37
184.223	5483.31
184.299	5515.29
184.375	5485.96
184.452	5497.09
184.528	5604.38
184.604	5638.12
184.68	5671.14
184.756	5687.73
184.832	5699.2
184.908	5710.55
184.985	5719.75
185.061	5678.72
185.137	5704.38
185.213	5669.91
185.289	5671.97
185.365	5652.71
185.441	5647.29
185.517	5680.73
185.593	5671.04
185.669	5662.7
185.745	5688.87
185.822	5733.63
185.898	5710.46
185.974	5738.36
186.05	5716.39
186.126	5645.88
186.202	5624.55
186.278	5613.76
186.354	5590.6
186.43	5606.48
186.506	5600.11
186.582	5594.21
186.658	5617.69
186.734	5562.19
186.81	5570.58
186.886	5586.58
186.962	5617.74
187.038	5606.28
187.114	5587.38
187.19	5607.57
187.266	5581.2
187.341	5582.69
187.417	5562.61
187.493	5565.87
187.569	5569.32
187.645	5553.31
187.721	5524.68
187.797	5546.11
187.873	5553.83
187.949	5535.14
188.025	5515.08
188.101	5522.99
188.176	5533.1
188.252	5515.28
188.328	5538.56
188.404	5535.39
188.48	5518.14
188.556	5498.29
188.632	5503.85
188.707	5508.27
188.783	5503.76
188.859	5491.5
188.935	5462.44
189.011	5483.39
189.086	5466.66
189.162	5447.34
189.238	5443.46
189.314	5437.18
189.39	5417.43
189.465	5401.95
189.541	5450.08
189.617	5409.3
189.693	5399.67
189.768	5412.67
189.844	5477.75
189.92	5453.37
189.996	5475.9
190.071	5504.43
190.147	5508.5
190.223	5529.27
190.298	5507.54
190.374	5471.88
190.45	5507.29
190.526	5528.86
190.601	5515.48
190.677	5513.18
190.753	5588.33
190.828	5602.8
190.904	5644.53
190.98	5689.27
191.055	5719.34
191.131	5694.35
191.207	5752.16
191.282	5772.67
191.358	5745.68
191.433	5711.18
191.509	5746.92
191.585	5738.05
191.66	5740.64
191.736	5763.99
191.811	5739.96
191.887	5780.07
191.963	5843.76
192.038	5855.22
192.114	5861.69
192.189	5870.42
192.265	5867.07
192.34	5801.12
192.416	5797.43
192.491	5780.4
192.567	5791.34
192.642	5796.62
192.718	5802.52
192.793	5770.05
192.869	5759.12
192.944	5767.99
193.02	5789.43
193.095	5798.88
193.171	5818.25
193.246	5817.77
193.322	5807.37
193.397	5804.06
193.473	5770.67
193.548	5717.28
193.624	5734.98
193.699	5729.04
193.775	5770.35
193.85	5774.85
193.925	5801.57
194.001	5795.34
194.076	5782.25
194.152	5745.88
194.227	5725.15
194.302	5695.63
194.378	5708.48
194.453	5701.1
194.529	5728.15
194.604	5687.28
194.679	5675.82
194.755	5623.29
194.83	5656.89
194.905	5652.38
194.981	5675.4
195.056	5656.22
195.131	5678.04
195.207	5670.12
195.282	5643.42
195.357	5588.97
195.433	5631.12
195.508	5592.18
195.583	5621.57
195.659	5658.31
195.734	5679.95
195.809	5678.03
195.884	5699.4
195.96	5691.97
196.035	5734.17
196.11	5727.31
196.185	5759.39
196.261	5760.83
196.336	5850.85
196.411	5806.22
196.486	5815.67
196.561	5796.29
196.637	5819.98
196.712	5858.99
196.787	5867.39
196.862	5911.94
196.937	5937.73
197.013	5955.88
197.088	5988.1
197.163	6037.69
197.238	6083.99
197.313	6083.37
197.388	6124.68
197.464	6209.61
197.539	6247.94
197.614	6228.8
197.689	6262.21
197.764	6309.26
197.839	6365.16
197.914	6344.8
197.989	6415.61
198.065	6455.01
198.14	6600.15
198.215	6672.21
198.29	6709.3
198.365	6745.75
198.44	6772.4
198.515	6851.02
198.59	6886.42
198.665	6958.56
198.74	6980.52
198.815	6976.15
198.89	7036.66
198.965	7107.89
199.04	7093.42
199.115	7134.73
199.19	7253.24
199.265	7262.56
199.34	7281.49
199.415	7370.88
199.49	7425.93
199.565	7442.03
199.64	7504.66
199.715	7497.82
199.79	7511.62
199.865	7526.71
199.94	7521.24
200.015	7607.83
200.09	7623.36
200.165	7640.57
200.24	7658.27
200.315	7766.06
200.39	7813.85
200.464	7829.72
200.539	7836.02
200.614	7879.05
200.689	7942.39
200.764	7956.82
200.839	7994.45
200.914	8009.45
200.989	7986.36
201.063	8027.04
201.138	7978.95
201.213	7982.85
201.288	7927.11
201.363	7941.73
201.438	7942.31
201.512	7983.6
201.587	7931.79
201.662	7939.34
201.737	7977.29
201.812	8001.25
201.886	7908.89
201.961	7930.02
202.036	7896.85
202.111	7892.04
202.186	7810.12
202.26	7763.79
202.335	7709.83
202.41	7698.72
202.485	7654.7
202.559	7603.07
202.634	7528.93
202.709	7557.85
202.784	7501.79
202.858	7503.96
202.933	7449.41
203.008	7426.62
203.082	7379.9
203.157	7380.63
203.232	7268.85
203.306	7206.92
203.381	7116.5
203.456	7056.53
203.53	6990.74
203.605	6934.85
203.68	6867.95
203.754	6852.35
203.829	6806.08
203.904	6749.31
203.978	6720.62
204.053	6733.74
204.127	6698.92
204.202	6693.21
204.277	6645.96
204.351	6629.15
204.426	6605.22
204.5	6590.33
204.575	6497.42
204.65	6519.57
204.724	6495.88
204.799	6519.67
204.873	6508.04
204.948	6502
205.022	6469.8
205.097	6445.92
205.171	6488.21
205.246	6507.28
205.32	6511.79
205.395	6511.69
205.469	6488.81
205.544	6502.74
205.618	6455.34
205.693	6480.79
205.767	6447.43
205.842	6504.73
205.916	6493.3
205.991	6464.02
206.065	6472.51
206.14	6521.1
206.214	6506.39
206.289	6485.64
206.363	6515.99
206.438	6519.01
206.512	6543.17
206.586	6594.38
206.661	6622.54
206.735	6560.79
206.81	6566.17
206.884	6601.69
206.958	6569.39
207.033	6608.88
207.107	6624.16
207.181	6708.48
207.256	6698.58
207.33	6750.87
207.405	6783.66
207.479	6826.64
207.553	6853.77
207.628	6812.45
207.702	6843.47
207.776	6824.26
207.851	6836.17
207.925	6874.04
207.999	6868.28
208.073	6858.48
208.148	6866.55
208.222	6836.76
208.296	6919.66
208.371	6964.32
208.445	6994.16
208.519	7069.9
208.593	7101.46
208.668	7092.13
208.742	7096.7
208.816	7098.24
208.89	7134.25
208.965	7126.5
209.039	7154.05
209.113	7199.61
209.187	7259.85
209.261	7248.18
209.336	7305.89
209.41	7361.79
209.484	7360.88
209.558	7423.13
209.632	7459.21
209.707	7491.56
209.781	7547.41
209.855	7592.13
209.929	7641.65
210.003	7658.14
210.077	7660.16
210.151	7797.4
210.226	7891.88
210.3	7967.6
210.374	8031.52
210.448	8044.07
210.522	8074.52
210.596	8099.58
210.67	8124.69
210.744	8251.32
210.818	8333
210.892	8386.07
210.966	8369.05
211.041	8408.34
211.115	8393.05
211.189	8457.94
211.263	8506.53
211.337	8523.75
211.411	8562.06
211.485	8543.67
211.559	8575.8
211.633	8585.03
211.707	8496.93
211.781	8512.87
211.855	8414.75
211.929	8392.05
212.003	8341.09
212.077	8367.32
212.151	8401.4
212.225	8422.95
212.299	8389.01
212.373	8359.52
212.447	8343.49
212.52	8419.81
212.594	8435.93
212.668	8470.81
212.742	8436.5
212.816	8415.42
212.89	8400.03
212.964	8393.62
213.038	8395.93
213.112	8424.91
213.186	8455.98
213.26	8396.03
213.333	8270.38
213.407	8280.29
213.481	8290.77
213.555	8324.27
213.629	8288.27
213.703	8240.2
213.777	8225.91
213.85	8170.04
213.924	8254.36
213.998	8252.58
214.072	8229.62
214.146	8183.38
214.219	8176.5
214.293	8156.59
214.367	8158.52
214.441	8176.89
214.515	8141.91
214.588	8075.38
214.662	7976.64
214.736	7916.39
214.81	7929.36
214.883	7950.89
214.957	7913.69
215.031	7865.77
215.105	7792.75
215.178	7742.45
215.252	7712.11
215.326	7643.16
215.4	7581.47
215.473	7436.16
215.547	7371.58
215.621	7320.25
215.694	7319.53
215.768	7237.04
215.842	7186.68
215.915	7130.42
215.989	7045.05
216.063	6999.13
216.136	6981.16
216.21	6962.43
216.284	6968.77
216.357	6953.06
216.431	6916.26
216.504	6916.21
216.578	6963.12
216.652	6967.39
216.725	6952.49
216.799	6956.05
216.873	6935.45
216.946	6942.79
217.02	6917.79
217.093	6894.73
217.167	6818.4
217.24	6753.2
217.314	6723.87
217.387	6688.79
217.461	6656.22
217.535	6666.74
217.608	6615.84
217.682	6594.32
217.755	6603.2
217.829	6563.96
217.902	6547.92
217.976	6538.84
218.049	6500.53
218.123	6436.77
218.196	6438.64
218.27	6407.24
218.343	6346.77
218.417	6348.02
218.49	6329.96
218.563	6366.69
218.637	6369.81
218.71	6429.02
218.784	6450.73
218.857	6479.29
218.931	6498.38
219.004	6501.46
219.077	6522.12
219.151	6538.72
219.224	6531.42
219.298	6529.55
219.371	6562.41
219.444	6535.19
219.518	6541.91
219.591	6556.6
219.665	6639.93
219.738	6654.29
219.811	6641.33
219.885	6681.86
219.958	6706.07
220.031	6706.84
220.105	6722.16
220.178	6735.8
220.251	6711.15
220.325	6731.58
220.398	6742.29
220.471	6755.68
220.544	6782.15
220.618	6764.46
220.691	6788.57
220.764	6809.27
220.838	6830.02
220.911	6817.58
220.984	6883.37
221.057	6912.67
221.131	6935.19
221.204	6858.92
221.277	6913.75
221.35	7014.25
221.424	7010.03
221.497	7024.64
221.57	7045.52
221.643	7075.56
221.716	7105.22
221.79	7114.39
221.863	7122.13
221.936	7130.16
222.009	7144.13
222.082	7170.66
222.155	7179.7
222.229	7230.75
222.302	7252.51
222.375	7260.68
222.448	7292.79
222.521	7294.28
222.594	7292.45
222.667	7268.15
222.74	7320.52
222.814	7312.83
222.887	7301.82
222.96	7344.21
223.033	7374.98
223.106	7394.15
223.179	7413.25
223.252	7422.43
223.325	7444.58
223.398	7456.32
223.471	7483.52
223.544	7499.9
223.617	7507.55
223.69	7526.1
223.763	7491.82
223.837	7509.08
223.91	7532.97
223.983	7493.13
224.056	7472.9
224.129	7494.29
224.202	7543
224.275	7525.12
224.348	7501.23
224.42	7474.83
224.493	7432.82
224.566	7413.93
224.639	7430.75
224.712	7405.11
224.785	7393.67
224.858	7385.88
224.931	7372.81
225.004	7337.1
225.077	7336.24
225.15	7269.35
225.223	7270.31
225.296	7340.58
225.369	7291.47
225.442	7265.13
225.514	7280.84
225.587	7294.58
225.66	7295.06
225.733	7290.25
225.806	7300.11
225.879	7293.81
225.952	7270.17
226.025	7308.62
226.097	7349.94
226.17	7341.91
226.243	7292.76
226.316	7288.96
226.389	7294.49
226.461	7310.74
226.534	7329.53
226.607	7324.91
226.68	7384.2
226.753	7378.67
226.825	7310.81
226.898	7359.58
226.971	7358.57
227.044	7373.23
227.117	7376.45
227.189	7390.83
227.262	7419.19
227.335	7431.69
227.407	7432.46
227.48	7457.3
227.553	7460.53
227.626	7439.17
227.698	7446.52
227.771	7481.78
227.844	7470.29
227.916	7484.23
227.989	7450.83
228.062	7452.41
228.134	7522.86
228.207	7534.74
228.28	7526.57
228.352	7539.02
228.425	7546.76
228.498	7587.29
228.57	7573.07
228.643	7625.73
228.716	7629.72
228.788	7623.85
228.861	7624.96
228.934	7678.37
229.006	7683.13
229.079	7685.92
229.151	7677.46
229.224	7645.89
229.296	7668.19
229.369	7749.44
229.442	7791.24
229.514	7786.53
229.587	7821.15
229.659	7762.57
229.732	7765.89
229.804	7800.5
229.877	7862.85
229.949	7887.63
230.022	7925.79
230.094	7926.89
230.167	7910.53
230.239	7873.28
230.312	7862.79
230.384	7918.46
230.457	7909.27
230.529	7919.08
230.602	7922.69
230.674	7932.4
230.747	7967.82
230.819	7989.56
230.892	7893.37
230.964	7887.98
231.037	7907.11
231.109	7904.13
231.181	7934.66
231.254	7909.46
231.326	7890.66
231.399	7874.83
231.471	7851.4
231.544	7790.88
231.616	7830.15
231.688	7835.25
231.761	7831.02
231.833	7825.02
231.905	7753.43
231.978	7757.18
232.05	7742.62
232.122	7747.09
232.195	7726.32
232.267	7759.21
232.339	7735.41
232.412	7794.54
232.484	7772.41
232.556	7747.95
232.629	7799.82
232.701	7809.44
232.773	7811.61
232.846	7809.49
232.918	7806.41
232.99	7819.78
233.062	7850.23
233.135	7857.87
233.207	7834.69
233.279	7871.71
233.351	7894.55
233.424	7896.47
233.496	7873.87
233.568	7946.84
233.64	7917.31
233.713	7936.5
233.785	7932.07
233.857	7947.9
233.929	7900.97
234.001	7956.74
234.074	8017.03
234.146	7959.63
234.218	7958.04
234.29	7961.07
234.362	7954.14
234.434	7917.01
234.507	7889.93
234.579	7852.37
234.651	7835.64
234.723	7855.31
234.795	7868.53
234.867	7864.16
234.939	7914.23
235.012	7934.09
235.084	7927.54
235.156	7953.17
235.228	7933.21
235.3	7919.26
235.372	7930.52
235.444	7989.82
235.516	7927.11
235.588	7927.26
235.66	7935.72
235.732	7916.39
235.804	8072.66
235.876	8112.09
235.948	8173.05
236.02	8185.07
236.092	8198.77
236.164	8209.06
236.236	8209.06
236.308	8207.19
236.38	8227.68
236.452	8212.86
236.524	8228.35
236.596	8279.48
236.668	8306.67
236.74	8326.67
236.812	8346.54
236.884	8376.18
236.956	8376.13
237.028	8367.57
237.1	8354.01
237.172	8411.71
237.244	8473.49
237.316	8381.4
237.388	8366.87
237.46	8345.69
237.532	8396.31
237.604	8394.34
237.675	8454.78
237.747	8493.57
237.819	8481.16
237.891	8489.44
237.963	8475.78
238.035	8470.49
238.107	8387.31
238.178	8441.13
238.25	8453.78
238.322	8532.93
238.394	8496.98
238.466	8493.81
238.538	8531.13
238.609	8563.17
238.681	8523.03
238.753	8507.34
238.825	8528.23
238.897	8549.21
238.968	8608.43
239.04	8587.35
239.112	8672.81
239.184	8640.42
239.255	8638.78
239.327	8669.33
239.399	8678.47
239.471	8721.49
239.542	8753.97
239.614	8807.1
239.686	8743.03
239.758	8778.93
239.829	8745.36
239.901	8797.53
239.973	8811.97
240.044	8842.82
240.116	8858.51
240.188	8868.76
240.259	8880.56
240.331	8867.94
240.403	8897.35
240.474	8866.04
240.546	8860.37
240.618	8804.53
240.689	8804.91
240.761	8821.09
240.833	8871.49
240.904	8880.54
240.976	8876.64
241.048	8889.3
241.119	8917.95
241.191	8954.05
241.262	9014.88
241.334	9022.53
241.405	9021.62
241.477	9025.08
241.549	9028.21
241.62	9040.97
241.692	9081.55
241.763	9128.84
241.835	9143.48
241.906	9159.8
241.978	9133.13
242.049	9195.62
242.121	9254.54
242.192	9311.88
242.264	9285.4
242.335	9251.94
242.407	9286.99
242.478	9293.87
242.55	9310.58
242.621	9303.41
242.693	9299.56
242.764	9287.08
242.836	9284.29
242.907	9307.06
242.979	9337.83
243.05	9359.11
243.122	9379.72
243.193	9369.08
243.264	9316.01
243.336	9322.18
243.407	9347.99
243.479	9411.84
243.55	9421.76
243.622	9430.91
243.693	9426.38
243.764	9484.55
243.836	9461.21
243.907	9450.23
243.978	9456.73
244.05	9473.63
244.121	9436.27
244.192	9470.84
244.264	9428.89
244.335	9447.68
244.407	9410.94
244.478	9423.12
244.549	9413.83
244.62	9387.73
244.692	9392.59
244.763	9428.32
244.834	9418.93
244.906	9404.38
244.977	9423.22
245.048	9468.31
245.119	9451.36
245.191	9436.82
245.262	9381.39
245.333	9442.29
245.405	9450.91
245.476	9478.69
245.547	9492.56
245.618	9531.85
245.689	9541.87
245.761	9571.49
245.832	9568.12
245.903	9610.68
245.974	9636.41
246.045	9649.31
246.117	9713.56
246.188	9701.23
246.259	9682.5
246.33	9695.6
246.401	9703.6
246.473	9677.29
246.544	9669.87
246.615	9720.93
246.686	9725.51
246.757	9794.56
246.828	9777.23
246.899	9844.19
246.97	9820.64
247.042	9814.33
247.113	9852.53
247.184	9927.27
247.255	9927.89
247.326	9955.44
247.397	9957.23
247.468	9962.91
247.539	9978.66
247.61	9939.11
247.681	9975.04
247.752	10023.1
247.823	10006.59
247.894	10023.64
247.965	9992.91
248.037	9976.72
248.108	9933.76
248.179	9937.71
248.25	9923.93
248.321	9960.19
248.392	9926.18
248.463	9982.91
248.534	9985.42
248.605	10001.12
248.675	9980.3
248.746	9995
248.817	10012.1
248.888	10025.06
248.959	9976.89
249.03	9990.19
249.101	9993.37
249.172	9980.65
249.243	9920.94
249.314	9971.46
249.385	9979.6
249.456	10008.74
249.527	9999
249.598	10012.59
249.669	10014.22
249.739	10028.53
249.81	10033.97
249.881	9994.67
249.952	9993.47
250.023	9984.8
250.094	9941.58
250.165	9914.36
250.235	9906.41
250.306	9905.25
250.377	9885.36
250.448	9914.59
250.519	9871.53
250.59	9929.87
250.66	9938.92
250.731	9996.23
250.802	9994.5
250.873	10004.66
250.944	10022.44
251.014	10015.5
251.085	10093.17
251.156	10114.12
251.227	10156.38
251.297	10200.95
251.368	10247.91
251.439	10288.29
251.51	10335.65
251.58	10325.01
251.651	10325.49
251.722	10375.4
251.792	10339.56
251.863	10343.22
251.934	10388.89
252.005	10476
252.075	10479.95
252.146	10515.98
252.217	10551.11
252.287	10586.91
252.358	10593.94
252.429	10661.55
252.499	10658.13
252.57	10667.04
252.641	10707.08
252.711	10710.84
252.782	10668.77
252.852	10727.9
252.923	10722.31
252.994	10728.87
253.064	10774.15
253.135	10752.04
253.205	10735.03
253.276	10798.09
253.347	10849.93
253.417	10830.47
253.488	10812.01
253.558	10802.04
253.629	10797.22
253.699	10818.47
253.77	10840.45
253.841	10831.39
253.911	10834.04
253.982	10848.59
254.052	10869.51
254.123	10874.66
254.193	10874.47
254.264	10990.52
254.334	10964.25
254.405	10933.51
254.475	10908.21
254.546	10913.03
254.616	10965.02
254.687	10988.34
254.757	11001.31
254.827	11001.93
254.898	11021.93
254.968	11024.44
255.039	11012.68
255.109	11041.83
255.18	11011.09
255.25	10953.5
255.321	10984.82
255.391	10952.34
255.461	11027.76
255.532	10959.22
255.602	10957.01
255.673	10914.17
255.743	10879.27
255.813	10822.56
255.884	10867.33
255.954	10903.85
256.024	10952.38
256.095	10961.16
256.165	10935.09
256.235	10950.32
256.306	10936.1
256.376	10974.27
256.446	11011.38
256.517	11033.55
256.587	11071.81
256.657	11093.79
256.728	11115.32
256.798	11120.53
256.868	11116.72
256.938	11088.24
257.009	11134.26
257.079	11160.04
257.149	11241.1
257.219	11194.4
257.29	11223.02
257.36	11177
257.43	11202.78
257.5	11147.55
257.571	11140.95
257.641	11170.83
257.711	11143.6
257.781	11168.94
257.852	11185.43
257.922	11138.39
257.992	11144.03
258.062	11134.2
258.132	11162.35
258.202	11168.66
258.273	11184.32
258.343	11245.72
258.413	11233.82
258.483	11237.92
258.553	11211.89
258.623	11194.93
258.693	11223.21
258.764	11282.68
258.834	11344.41
258.904	11358.73
258.974	11351.6
259.044	11355.26
259.114	11376.9
259.184	11398.35
259.254	11411.02
259.324	11363.64
259.394	11404.13
259.464	11466.45
259.535	11475.41
259.605	11477.92
259.675	11470.5
259.745	11497.29
259.815	11478.54
259.885	11486.64
259.955	11573.31
260.025	11567.63
260.095	11574.37
260.165	11592.64
260.235	11631.68
260.305	11619.64
260.375	11600.93
260.445	11678.09
260.515	11730.72
260.585	11773.29
260.655	11781.19
260.725	11813.15
260.795	11850.06
260.865	11902.65
260.934	11886.21
261.004	11912.73
261.074	11916.68
261.144	11967.96
261.214	11994.42
261.284	11995.62
261.354	12023.38
261.424	11987.33
261.494	12048.1
261.564	12053.88
261.634	12081.75
261.703	12040.2
261.773	12058.7
261.843	12081.26
261.913	12076.3
261.983	12036.53
262.053	12052.44
262.123	12051.91
262.192	12021.01
262.262	12047.43
262.332	12009.83
262.402	12029.83
262.472	12040.1
262.541	11989.3
262.611	12027.14
262.681	12007.81
262.751	12041.89
262.821	12046.62
262.89	12016.68
262.96	12035.29
263.03	12096.7
263.1	12114.2
263.169	12133.24
263.239	12160.52
263.309	12212.48
263.379	12242.66
263.448	12256.93
263.518	12280.06
263.588	12296.12
263.657	12359.02
263.727	12391.17
263.797	12408.19
263.867	12407.08
263.936	12382.11
264.006	12434.88
264.076	12425.05
264.145	12422.54
264.215	12404.42
264.285	12436.18
264.354	12408.66
264.424	12397.86
264.494	12360.94
264.563	12349.85
264.633	12410.06
264.702	12425.92
264.772	12389.38
264.842	12379.01
264.911	12412.75
264.981	12373.9
265.05	12383.25
265.12	12379.06
265.19	12388.7
265.259	12423.55
265.329	12447.8
265.398	12461.44
265.468	12547.53
265.537	12548.74
265.607	12577.47
265.676	12623.65
265.746	12643.36
265.815	12691.9
265.885	12704.87
265.955	12698.22
266.024	12702.36
266.094	12649.15
266.163	12694.07
266.232	12748.45
266.302	12760.98
266.371	12778
266.441	12795.79
266.51	12836.33
266.58	12837.77
266.649	12828.04
266.719	12863.18
266.788	12890.37
266.858	12950.53
266.927	12896.05
266.996	12928.79
267.066	12956.7
267.135	12931.92
267.205	12972.94
267.274	12988.9
267.343	13029.87
267.413	13043.18
267.482	13101.32
267.552	13156.99
267.621	13128.45
267.69	13087.82
267.76	13111.34
267.829	13135.69
267.898	13156.32
267.968	13144.99
268.037	13171.79
268.106	13218.07
268.176	13197.53
268.245	13207.13
268.314	13204.23
268.384	13253.12
268.453	13257.36
268.522	13279.29
268.592	13332.61
268.661	13313.13
268.73	13342.73
268.799	13330
268.869	13397.01
268.938	13354.69
269.007	13347.84
269.076	13370.02
269.146	13414.61
269.215	13438.42
269.284	13491.5
269.353	13483.11
269.422	13484.31
269.492	13477.56
269.561	13408.15
269.63	13430.03
269.699	13430.32
269.768	13442.81
269.838	13451.48
269.907	13492.03
269.976	13472.41
270.045	13424.88
270.114	13455.2
270.183	13460.02
270.253	13488.36
270.322	13456.55
270.391	13479.73
270.46	13540.33
270.529	13574.12
270.598	13610.18
270.667	13623.92
270.736	13598.42
270.806	13630.14
270.875	13681.14
270.944	13699.6
271.013	13806.86
271.082	13835.4
271.151	13864.76
271.22	13837.14
271.289	13842.49
271.358	13847.69
271.427	13871.7
271.496	13905.11
271.565	13909.93
271.634	13924.92
271.703	14028.03
271.772	14069.1
271.841	14080.62
271.91	14045.72
271.979	14060.13
272.048	14038.92
272.117	14071.27
272.186	14070.98
272.255	14112.58
272.324	14149.17
272.393	14181.13
272.462	14172.11
272.531	14187.4
272.6	14195.88
272.669	14261.34
272.738	14281.88
272.807	14310.8
272.876	14300.44
272.945	14408.51
273.013	14459.13
273.082	14507.86
273.151	14433.68
273.22	14465.69
273.289	14486.9
273.358	14561.95
273.427	14572.12
273.496	14617.15
273.564	14647.52
273.633	14705.36
273.702	14699.1
273.771	14714.28
273.84	14740.6
273.909	14781.91
273.977	14820.18
274.046	14837.25
274.115	14877.59
274.184	14877.16
274.253	14888.29
274.322	14956.99
274.39	14911.58
274.459	14903.72
274.528	14871.33
274.597	14900.88
274.665	14927.87
274.734	14987.84
274.803	15002.44
274.872	15017.39
274.94	15014.06
275.009	15145.44
275.078	15134.07
275.147	15161.06
275.215	15180.63
275.284	15238.43
275.353	15243.97
275.421	15210.85
275.49	15279.93
275.559	15284.17
275.627	15302.63
275.696	15325.48
275.765	15359.27
275.833	15369.78
275.902	15402.02
275.971	15473.51
276.039	15537.23
276.108	15582.83
276.177	15611.99
276.245	15605.96
276.314	15637.73
276.383	15684.58
276.451	15602.46
276.52	15647.19
276.588	15717.37
276.657	15763.16
276.725	15760.6
276.794	15793.91
276.863	15866.64
276.931	15834.25
277	15893.73
277.068	15952.01
277.137	16037.56
277.205	16066.67
277.274	16153.86
277.342	16222.25
277.411	16202.3
277.48	16212.8
277.548	16215.31
277.617	16249.15
277.685	16272.86
277.754	16313.83
277.822	16329.54
277.89	16395.62
277.959	16418.61
278.027	16405.02
278.096	16417.64
278.164	16528.59
278.233	16546.61
278.301	16556.16
278.37	16620.69
278.438	16621.22
278.507	16661.42
278.575	16623.49
278.643	16643.01
278.712	16626.24
278.78	16615.68
278.849	16689.33
278.917	16746.05
278.985	16773.72
279.054	16813.38
279.122	16876.61
279.191	16920.95
279.259	16949.44
279.327	16923.36
279.396	16996.52
279.464	17018.98
279.532	17069.44
279.601	17090.55
279.669	17109.97
279.737	17176.24
279.806	17222.36
279.874	17281.78
279.942	17316.19
280.011	17346.46
280.079	17410.6
280.147	17490.46
280.215	17543.9
280.284	17560.87
280.352	17555.76
280.42	17609.21
280.488	17618.75
280.557	17638.65
280.625	17674.7
280.693	17715.28
280.761	17769.69
280.83	17768.43
280.898	17843.32
280.966	17826.46
281.034	17781.25
281.102	17780.05
281.171	17792.34
281.239	17840.87
281.307	17848.67
281.375	17867.08
281.443	17964.52
281.512	17987.51
281.58	18045.58
281.648	18044.66
281.716	18081.77
281.784	18114.49
281.852	18125.96
281.92	18163.99
281.989	18225.48
282.057	18209.91
282.125	18317.23
282.193	18348.31
282.261	18377.04
282.329	18392.21
282.397	18443.1
282.465	18487.39
282.533	18564.26
282.601	18578.91
282.67	18557.8
282.738	18572.98
282.806	18627.63
282.874	18623.87
282.942	18666.95
283.01	18683.09
283.078	18741.31
283.146	18769.02
283.214	18846.8
283.282	18891.81
283.35	18958.74
283.418	18981.39
283.486	19040.86
283.554	19009.97
283.622	19048.33
283.69	19091.46
283.758	19116.13
283.826	19169.33
283.894	19232.03
283.962	19321.81
284.03	19403.78
284.098	19451.2
284.165	19480.98
284.233	19514.32
284.301	19543.67
284.369	19559.09
284.437	19572.68
284.505	19583.96
284.573	19660.68
284.641	19662.75
284.709	19727.23
284.777	19721.83
284.845	19778.36
284.912	19836.58
284.98	19884.77
285.048	19907.27
285.116	19957
285.184	20037.73
285.252	20066.21
285.319	20066.64
285.387	20093.05
285.455	20087.46
285.523	20135.17
285.591	20169.67
285.659	20217.77
285.726	20286.3
285.794	20286.25
285.862	20318.93
285.93	20368.66
285.997	20390.25
286.065	20407.65
286.133	20412.76
286.201	20440.13
286.269	20436.71
286.336	20446.1
286.404	20470.06
286.472	20523.55
286.539	20511.79
286.607	20501.19
286.675	20544.61
286.743	20596.47
286.81	20603.46
286.878	20675.6
286.946	20685.82
287.013	20728.13
287.081	20757.53
287.149	20752.43
287.216	20846.79
287.284	20868.91
287.352	20897.54
287.419	20923.66
287.487	21002.32
287.555	21057.51
287.622	21084.74
287.69	21134.86
287.758	21202.1
287.825	21225.86
287.893	21229.19
287.96	21277.33
288.028	21341.44
288.096	21380.38
288.163	21431.14
288.231	21447.86
288.298	21477.36
288.366	21563.02
288.433	21591.64
288.501	21611.55
288.569	21659.32
288.636	21670.07
288.704	21749.02
288.771	21809.27
288.839	21830.63
288.906	21843.16
288.974	21906.12
289.041	21946.56
289.109	21954.9
289.176	22010.2
289.244	22062.84
289.311	22135.96
289.379	22202
289.446	22242.79
289.514	22290.18
289.581	22322.43
289.649	22366.63
289.716	22406.5
289.783	22409.83
289.851	22504.27
289.918	22546.55
289.986	22609.32
290.053	22663.51
290.121	22689.16
290.188	22732.12
290.255	22843.59
290.323	22872.66
290.39	22889.88
290.458	22945.8
290.525	23030.37
290.592	23048.89
290.66	23095.03
290.727	23128.3
290.794	23197.16
290.862	23235.54
290.929	23275.57
290.996	23309.61
291.064	23370.75
291.131	23445.65
291.198	23527.24
291.266	23552.51
291.333	23605.41
291.4	23655.81
291.468	23739.93
291.535	23765.54
291.602	23822.64
291.669	23842.71
291.737	23903.95
291.804	23938.68
291.871	24025.16
291.938	24083.23
292.006	24194.29
292.073	24261.48
292.14	24323.47
292.207	24346.48
292.275	24384.87
292.342	24444.64
292.409	24554.01
292.476	24656.88
292.543	24664.74
292.611	24705.8
292.678	24793.56
292.745	24879.24
292.812	24933.23
292.879	24951.76
292.946	25001.21
293.014	25067.51
293.081	25127.34
293.148	25199.62
293.215	25275.04
293.282	25293.13
293.349	25348.73
293.416	25335.46
293.484	25397.04
293.551	25455.67
293.618	25539.74
293.685	25643.7
293.752	25663.73
293.819	25690.81
293.886	25688.88
293.953	25744.47
294.02	25816.54
294.087	25872.5
294.154	25897.16
294.221	25978.71
294.288	26028.91
294.356	26122.36
294.423	26173.15
294.49	26191.98
294.557	26255.85
294.624	26282.12
294.691	26376.36
294.758	26413.97
294.825	26473.5
294.892	26494.79
294.959	26533.42
295.026	26592.92
295.093	26615.9
295.16	26663.74
295.226	26716.63
295.293	26819.02
295.36	26875.17
295.427	26943.43
295.494	27002.56
295.561	27070.56
295.628	27167.36
295.695	27247.4
295.762	27298.9
295.829	27375.09
295.896	27461.4
295.963	27525.85
296.03	27595.21
296.096	27640.73
296.163	27713.53
296.23	27802.49
296.297	27889.97
296.364	27933.93
296.431	27973.03
296.498	28007.62
296.564	28107.81
296.631	28163.34
296.698	28171.02
296.765	28271.21
296.832	28276.81
296.899	28294.89
296.965	28395.68
297.032	28392
297.099	28474.58
297.166	28532.92
297.233	28560.19
297.299	28586.14
297.366	28637.54
297.433	28683.6
297.5	28764.44
297.566	28812.98
297.633	28849.01
297.7	28891.07
297.767	28930.26
297.833	29001.54
297.9	29051.81
297.967	29057.8
298.033	29128.12
298.1	29246.13
298.167	29265.57
298.234	29323.25
298.3	29383.3
298.367	29394.77
298.434	29453.49
298.5	29473.28
298.567	29504.91
298.634	29537.89
298.7	29623.44
298.767	29664.13
298.834	29738.37
298.9	29751.15
298.967	29768.8
299.033	29825.94
299.1	29917
299.167	29995.98
299.233	30025.54
299.3	30101.48
299.366	30180.56
299.433	30250.12
299.5	30224.66
299.566	30281.9
299.633	30370.21
299.699	30439.75
299.766	30477.1
299.832	30517.91
299.899	30578.61
299.965	30656.76
300.032	30689.37
300.099	30748.91
300.165	30814.4
300.232	30853.32
300.298	30906.89
300.365	30995.12
300.431	31038.45
300.498	31047.07
300.564	31112.03
300.631	31179.61
300.697	31257.95
300.763	31308.34
300.83	31355.76
300.896	31440.72
300.963	31498.97
301.029	31542.65
301.096	31597.57
301.162	31668.98
301.229	31708.74
301.295	31720.8
301.361	31764.24
301.428	31820.1
301.494	31821.36
301.561	31859.48
301.627	31899.77
301.693	31936.52
301.76	31989.8
301.826	32023.66
301.892	32099.95
301.959	32163.75
302.025	32200.22
302.092	32217.76
302.158	32282.28
302.224	32317.7
302.291	32329.81
302.357	32361.05
302.423	32389.3
302.49	32402.86
302.556	32469.44
302.622	32499.19
302.688	32567.01
302.755	32631.42
302.821	32697.15
302.887	32763.95
302.954	32805.33
303.02	32872.54
303.086	32937.9
303.152	32952.34
303.219	32987.08
303.285	33040.6
303.351	33080.15
303.417	33118.19
303.483	33148.23
303.55	33155.11
303.616	33180.71
303.682	33234.54
303.748	33264.01
303.815	33352.33
303.881	33414.66
303.947	33433.33
304.013	33489.35
304.079	33509.52
304.145	33500.79
304.212	33527.98
304.278	33541.99
304.344	33565.6
304.41	33561.72
304.476	33567.82
304.542	33596.23
304.608	33647.12
304.674	33631.95
304.741	33664.15
304.807	33719.86
304.873	33775.41
304.939	33871.26
305.005	33870.49
305.071	33887.99
305.137	33925.26
305.203	33889.96
305.269	33928.76
305.335	33981.23
305.401	34013.18
305.467	34051.53
305.533	34115.73
305.599	34167.9
305.666	34235.64
305.732	34277.34
305.798	34344.59
305.864	34453.18
305.93	34517.38
305.996	34554.63
306.062	34599.24
306.128	34618.01
306.194	34613.06
306.259	34644.73
306.325	34646.14
306.391	34705.25
306.457	34769.36
306.523	34810.19
306.589	34910.12
306.655	34928.01
306.721	34917.2
306.787	34915.06
306.853	34977.93
306.919	34966.58
306.985	34985.79
307.051	35005
307.117	35022.17
307.183	35043.46
307.248	35003.29
307.314	35044.72
307.38	35082.71
307.446	35139.18
307.512	35138.69
307.578	35176.77
307.644	35200.78
307.709	35227.37
307.775	35244.15
307.841	35263.12
307.907	35296.64
307.973	35272.82
308.039	35295.33
308.104	35343.5
308.17	35382.55
308.236	35379.25
308.302	35432.8
308.368	35433.77
308.433	35455.22
308.499	35478.5
308.565	35484.32
308.631	35527.46
308.696	35496.7
308.762	35491.65
308.828	35508.05
308.894	35500.58
308.959	35480.55
309.025	35480.84
309.091	35513.98
309.156	35532.42
309.222	35577.5
309.288	35563.38
309.354	35530.44
309.419	35559.61
309.485	35552.57
309.551	35592.12
309.616	35584.69
309.682	35588.43
309.748	35608.9
309.813	35625.3
309.879	35628.41
309.945	35631.71
310.01	35632.97
310.076	35668
310.141	35686.92
310.207	35677.8
310.273	35726.65
310.338	35778.61
310.404	35782.83
310.469	35784.92
310.535	35790.11
310.601	35746.92
310.666	35805.45
310.732	35874.88
310.797	35875.51
310.863	35882.25
310.928	35893.36
310.994	35931.41
311.059	35973.24
311.125	35991.97
311.191	36053.76
311.256	36067.15
311.322	36108.69
311.387	36096.7
311.453	36915.89
311.518	36908.51
311.584	36934.18
311.649	36971.26
311.715	36973.2
311.78	36990.82
311.846	36985.72
311.911	37042.27
311.976	37088.32
312.042	37073.18
312.107	37059.44
312.173	37064.34
312.238	37082.15
312.304	37103.02
312.369	37108.99
312.434	37095.16
312.5	37110.5
312.565	37047.16
312.631	37081.81
312.696	37090.06
312.761	37131.74
312.827	36354.35
312.892	36460.13
312.958	36481.05
313.023	36501.34
313.088	36518.76
313.154	36519.34
313.219	36524
313.284	36513.22
313.35	36533.03
313.415	36544.34
313.48	36572.49
313.546	36605.01
313.611	36651.12
313.676	36651.56
313.741	36657.29
313.807	36706.02
313.872	36755.15
313.937	36811.25
314.003	36855.14
314.068	36881.35
314.133	36916.74
314.198	36903.49
314.264	36877.41
314.329	36881.59
314.394	36906.15
314.459	36928.63
314.525	37003.82
314.59	37027.5
314.655	37032.79
314.72	37069.45
314.785	37088.72
314.851	37098.72
314.916	37077.12
314.981	37062.9
315.046	37069.4
315.111	37069.79
315.176	37067.51
315.242	37082.51
315.307	37103.87
315.372	37078.96
315.437	37085.37
315.502	37100.72
315.567	37163.78
315.632	37148.58
315.698	37176.11
315.763	37175.24
315.828	37178.49
315.893	37173.49
315.958	37189.17
316.023	37181.84
316.088	37147.47
316.153	37121.25
316.218	37111.6
316.283	37084.32
316.348	37055.1
316.413	37046.75
316.479	37021.22
316.544	36921.97
316.609	36831.06
316.674	36729.19
316.739	36635.29
316.804	36551.52
316.869	36431.79
316.934	36334.85
316.999	36231.34
317.064	36072.32
317.129	35934.36
317.194	35816.07
317.259	35678.25
317.324	35506.62
317.389	35355.02
317.454	35230.37
317.518	35108.91
317.583	35011.43
317.648	34911.9
317.713	34782.59
317.778	34591.11
317.843	34468.64
317.908	34343.17
317.973	34220
318.038	34104.5
318.103	33972.36
318.168	33833.94
318.233	33713.42
318.297	33523.77
318.362	33385.04
318.427	33244.57
318.492	33143.02
318.557	32958
318.622	32824.1
318.687	32713.41
318.751	32563.35
318.816	32409.76
318.881	32274.41
318.946	32073.89
319.011	31890.33
319.075	31722.72
319.14	31575.06
319.205	31394.6
319.27	31246.03
319.335	31069.67
319.399	30897.72
319.464	30754.36
319.529	30543.67
319.594	30367.12
319.658	30215.91
319.723	30030.27
319.788	29882.68
319.853	29659.11
319.917	29520.77
319.982	29309.07
320.047	29140.57
320.112	29002.96
320.176	28796.12
320.241	28618.37
320.306	28455.32
320.37	28279.73
320.435	28114.63
320.5	27954.87
320.564	27775.08
320.629	27573.68
320.694	27400.29
320.758	27208.66
320.823	27011.97
320.888	26870.34
320.952	26666.21
321.017	26471.27
321.082	26280.37
321.146	26103.56
321.211	25923.99
321.275	25733.09
321.34	25538.08
321.405	25340.1
321.469	25119.6
321.534	24916.19
321.598	24684.36
321.663	24511.8
321.727	24335.18
321.792	24120.46
321.857	23921.96
321.921	23734.19
321.986	23544.43
322.05	23306.31
322.115	23118.58
322.179	22914.76
322.244	22672.48
322.308	22482.08
322.373	22275.3
322.437	22081.89
322.502	21927.07
322.566	21722.82
322.631	21534.2
322.695	21334.22
322.76	21121.03
322.824	20936.53
322.889	20747.56
322.953	20546.49
323.018	20278.08
323.082	20022.45
323.146	19794.06
323.211	19561.77
323.275	19344.61
323.34	19130.3
323.404	18943.51
323.468	18730.31
323.533	18510.46
323.597	18300.48
323.662	18073.98
323.726	17888.97
323.79	17671.14
323.855	17385.49
323.919	17161.34
323.983	16941.29
324.048	16621.48
324.112	16753.44
324.177	16082.91
324.241	15199.85
324.305	14337.43
324.37	13496.8
324.434	12673.81
324.498	12446.24
324.562	12191.53
324.627	11903.74
324.691	11617.22
324.755	11294
324.82	10923.63
324.884	10546.98
324.948	10155.52
325.012	9684.64
325.077	9080.03
