Data from 20250626_urea_1M_exp2_MAYP1162681_23-23-58-838.txt Node
Date: Thu Jun 26 23:23:58 BST 2025
User: adleo
Spectrometer: MAYP116268
Trigger mode: 0
Integration Time (sec): 3.000000E0
Scans to average: 1
Electric dark correction enabled: true
Nonlinearity correction enabled: true
Boxcar width: 10
XAxis mode: Wavelengths
Number of Pixels in Spectrum: 2068
>>>>>Begin Spectral Data<<<<<
179.565	2850.6
179.642	2996.26
179.718	3105.44
179.795	3212.23
179.871	3293.4
179.948	3341.26
180.024	3395.24
180.101	3454.94
180.177	3488.48
180.254	3542.68
180.33	3600.52
180.407	3795.11
180.483	4018.19
180.56	4244.74
180.636	4448.2
180.712	4417.47
180.789	4440.82
180.865	4467.84
180.942	4498.5
181.018	4525.1
181.095	4560.58
181.171	4572.3
181.248	4575.6
181.324	4616.25
181.4	4630.76
181.477	4662.16
181.553	4695.16
181.63	4749.45
181.706	4787.85
181.782	4815.6
181.859	4822.06
181.935	4837.38
182.011	4832.98
182.088	4873.63
182.164	4916.04
182.24	4949.92
182.317	4972.22
182.393	4973.52
182.469	5009.81
182.546	5040.08
182.622	5049.08
182.698	5042.38
182.775	5077.39
182.851	5113.5
182.927	5095.11
183.003	5082.86
183.08	5066.77
183.156	5091.62
183.232	5084.15
183.308	5056.08
183.385	5077.15
183.461	5118.88
183.537	5126.73
183.613	5156.39
183.69	5134.93
183.766	5112.25
183.842	5131.03
183.918	5146.46
183.995	5172.18
184.071	5180.33
184.147	5165.33
184.223	5139.34
184.299	5163.06
184.375	5132.45
184.452	5150.58
184.528	5252.08
184.604	5284.84
184.68	5313.96
184.756	5328.82
184.832	5337.83
184.908	5352.96
184.985	5350.47
185.061	5310.42
185.137	5324.75
185.213	5291.69
185.289	5296.72
185.365	5277.28
185.441	5272.44
185.517	5308.16
185.593	5301.11
185.669	5293.83
185.745	5322.58
185.822	5363.42
185.898	5344.59
185.974	5368.01
186.05	5346
186.126	5287.63
186.202	5263.73
186.278	5254.67
186.354	5232.82
186.43	5248.31
186.506	5243.04
186.582	5239.21
186.658	5258.55
186.734	5213.77
186.81	5222.43
186.886	5225.79
186.962	5257.36
187.038	5248.68
187.114	5225.33
187.19	5242.53
187.266	5218.97
187.341	5215.52
187.417	5194.87
187.493	5196.69
187.569	5201.77
187.645	5184.77
187.721	5152.51
187.797	5172.34
187.873	5184.12
187.949	5169.9
188.025	5156.96
188.101	5164.28
188.176	5175.68
188.252	5160.45
188.328	5180.08
188.404	5181.18
188.48	5169.4
188.556	5146.84
188.632	5150
188.707	5152.83
188.783	5145.16
188.859	5132.42
188.935	5102.53
189.011	5126.14
189.086	5109.9
189.162	5092.51
189.238	5090.12
189.314	5083.94
189.39	5075.08
189.465	5056.54
189.541	5098.89
189.617	5060.62
189.693	5044.29
189.768	5054.93
189.844	5117.06
189.92	5095.75
189.996	5119.76
190.071	5150.23
190.147	5154.49
190.223	5175.62
190.298	5155.4
190.374	5125.7
190.45	5159.98
190.526	5186.14
190.601	5173.21
190.677	5178.86
190.753	5250.36
190.828	5258.84
190.904	5293.87
190.98	5330.97
191.055	5355.6
191.131	5330.48
191.207	5382.47
191.282	5413.17
191.358	5388.45
191.433	5350.56
191.509	5381.4
191.585	5365.25
191.66	5367.22
191.736	5387.77
191.811	5362.66
191.887	5407.11
191.963	5464.67
192.038	5478.61
192.114	5476.75
192.189	5484.55
192.265	5474.4
192.34	5419.19
192.416	5416.27
192.491	5405.24
192.567	5408.69
192.642	5417.37
192.718	5421.49
192.793	5387.8
192.869	5375.2
192.944	5383.24
193.02	5406.45
193.095	5412.58
193.171	5434.91
193.246	5435.44
193.322	5427.49
193.397	5434.53
193.473	5396.17
193.548	5354.51
193.624	5367.31
193.699	5363.33
193.775	5407.02
193.85	5410.7
193.925	5428.2
194.001	5425.14
194.076	5407.79
194.152	5376.34
194.227	5357.35
194.302	5332.02
194.378	5345.91
194.453	5339.93
194.529	5372.66
194.604	5332.26
194.679	5323.64
194.755	5269.85
194.83	5301.6
194.905	5299.06
194.981	5316.17
195.056	5299.74
195.131	5316.37
195.207	5308.84
195.282	5285.9
195.357	5234.02
195.433	5277.58
195.508	5249.06
195.583	5267.98
195.659	5304.94
195.734	5324.11
195.809	5328.43
195.884	5352.76
195.96	5349.55
196.035	5387.64
196.11	5378.01
196.185	5407.91
196.261	5410.64
196.336	5493.4
196.411	5451.05
196.486	5460.3
196.561	5442.95
196.637	5468.59
196.712	5506.82
196.787	5513.19
196.862	5553.49
196.937	5579.47
197.013	5590.5
197.088	5615.18
197.163	5669.97
197.238	5709.38
197.313	5711.15
197.388	5739.87
197.464	5817.55
197.539	5850.06
197.614	5830.17
197.689	5857.65
197.764	5903.67
197.839	5958
197.914	5944.86
197.989	6001.84
198.065	6034.6
198.14	6162.65
198.215	6224.84
198.29	6253.41
198.365	6291.32
198.44	6318.19
198.515	6390.63
198.59	6431.24
198.665	6494.6
198.74	6516.55
198.815	6521.79
198.89	6582.7
198.965	6655.51
199.04	6641.97
199.115	6681.91
199.19	6794.78
199.265	6805.92
199.34	6825.22
199.415	6910.96
199.49	6959.64
199.565	6985.48
199.64	7049.23
199.715	7043.5
199.79	7058.11
199.865	7070.21
199.94	7061.33
200.015	7139.03
200.09	7153.21
200.165	7166.13
200.24	7184.59
200.315	7281.26
200.39	7320.77
200.464	7334.56
200.539	7338.84
200.614	7382.42
200.689	7439.43
200.764	7449.43
200.839	7486.32
200.914	7501.17
200.989	7474.47
201.063	7511.34
201.138	7465.77
201.213	7467.02
201.288	7416.75
201.363	7432.52
201.438	7435.3
201.512	7480.79
201.587	7436.71
201.662	7441.71
201.737	7472.81
201.812	7500.17
201.886	7417.38
201.961	7444.89
202.036	7415.25
202.111	7409.44
202.186	7329.38
202.26	7286.74
202.335	7239.82
202.41	7228.34
202.485	7186.21
202.559	7133.12
202.634	7069.31
202.709	7096.86
202.784	7044.79
202.858	7047.52
202.933	6993.77
203.008	6977.44
203.082	6925.13
203.157	6923.64
203.232	6816.92
203.306	6758.44
203.381	6669.61
203.456	6613.52
203.53	6546.02
203.605	6497.27
203.68	6435.73
203.754	6422.16
203.829	6377.93
203.904	6318.94
203.978	6288.3
204.053	6298.39
204.127	6267.58
204.202	6261.91
204.277	6215.46
204.351	6199.19
204.426	6179.74
204.5	6165.35
204.575	6074.45
204.65	6097.69
204.724	6074.87
204.799	6098.22
204.873	6091.02
204.948	6089.15
205.022	6059.7
205.097	6037.71
205.171	6071.05
205.246	6093.95
205.32	6093.09
205.395	6095.49
205.469	6076.26
205.544	6093.74
205.618	6046.81
205.693	6071.23
205.767	6033.34
205.842	6086.33
205.916	6071.17
205.991	6044.2
206.065	6053.27
206.14	6092.09
206.214	6077.2
206.289	6058.15
206.363	6087.03
206.438	6094.81
206.512	6115.07
206.586	6159.63
206.661	6189.02
206.735	6131.53
206.81	6131.72
206.884	6165.25
206.958	6131.82
207.033	6173.87
207.107	6190.06
207.181	6267.78
207.256	6258.66
207.33	6309.43
207.405	6341.96
207.479	6387.6
207.553	6403.48
207.628	6364.4
207.702	6397.55
207.776	6387.28
207.851	6396.93
207.925	6437.56
207.999	6429.55
208.073	6415.96
208.148	6426.19
208.222	6389.65
208.296	6474.18
208.371	6516.95
208.445	6544.84
208.519	6616.36
208.593	6644.44
208.668	6632
208.742	6641.81
208.816	6646.51
208.89	6683.93
208.965	6678.74
209.039	6707.67
209.113	6754.39
209.187	6809.94
209.261	6799.19
209.336	6847.75
209.41	6898.57
209.484	6896.79
209.558	6958.14
209.632	6998.53
209.707	7023.56
209.781	7086.82
209.855	7129.02
209.929	7171.93
210.003	7189.61
210.077	7189.03
210.151	7306.39
210.226	7395.87
210.3	7464.27
210.374	7521.2
210.448	7535.43
210.522	7559.71
210.596	7580.43
210.67	7609.8
210.744	7737.81
210.818	7821.32
210.892	7872.06
210.966	7859.71
211.041	7895.96
211.115	7882.5
211.189	7946.21
211.263	7991.31
211.337	8002.18
211.411	8032.91
211.485	8015.93
211.559	8050.59
211.633	8058.86
211.707	7983.07
211.781	8002.37
211.855	7912.39
211.929	7896.91
212.003	7846.98
212.077	7877.49
212.151	7905.19
212.225	7924.96
212.299	7887.8
212.373	7854.43
212.447	7846.4
212.52	7920.85
212.594	7935.33
212.668	7961.44
212.742	7919.69
212.816	7904.54
212.89	7892.66
212.964	7888.91
213.038	7895.69
213.112	7921.72
213.186	7956.38
213.26	7905.3
213.333	7782.89
213.407	7796.2
213.481	7801.05
213.555	7828.19
213.629	7789.47
213.703	7743.35
213.777	7733.82
213.85	7678.95
213.924	7764.96
213.998	7756.98
214.072	7733.88
214.146	7684.69
214.219	7674.16
214.293	7666.56
214.367	7666.99
214.441	7688.25
214.515	7649.19
214.588	7582.17
214.662	7489.39
214.736	7431.14
214.81	7442.81
214.883	7458.75
214.957	7426.81
215.031	7385.31
215.105	7315.36
215.178	7269.7
215.252	7246.4
215.326	7173.5
215.4	7115.29
215.473	6976.98
215.547	6913.92
215.621	6867.81
215.694	6866.65
215.768	6796.61
215.842	6742.81
215.915	6689.13
215.989	6598.62
216.063	6556.67
216.136	6539.76
216.21	6522.82
216.284	6533.24
216.357	6513.7
216.431	6487.34
216.504	6480.71
216.578	6523.46
216.652	6538.04
216.725	6521.62
216.799	6527.1
216.873	6511.79
216.946	6518.7
217.02	6490.78
217.093	6472.2
217.167	6398.65
217.24	6342.51
217.314	6315.31
217.387	6279.1
217.461	6246.94
217.535	6269.88
217.608	6224.97
217.682	6211.77
217.755	6218.63
217.829	6176.96
217.902	6161.88
217.976	6147.25
218.049	6115.72
218.123	6055.12
218.196	6049.99
218.27	6022.01
218.343	5964.41
218.417	5966.23
218.49	5948.14
218.563	5985.08
218.637	5991.13
218.71	6042.19
218.784	6063.12
218.857	6084.56
218.931	6105.28
219.004	6108.68
219.077	6120.35
219.151	6139.06
219.224	6128.55
219.298	6126.78
219.371	6158.12
219.444	6130.16
219.518	6137.79
219.591	6147.96
219.665	6233.37
219.738	6241.09
219.811	6227.62
219.885	6263.27
219.958	6285.21
220.031	6291.54
220.105	6305.27
220.178	6310.07
220.251	6294.95
220.325	6312.77
220.398	6326.68
220.471	6339.16
220.544	6370.31
220.618	6348.95
220.691	6369.97
220.764	6386.29
220.838	6403.62
220.911	6392.57
220.984	6455.29
221.057	6482.17
221.131	6499.36
221.204	6422.44
221.277	6479.59
221.35	6575.67
221.424	6576.43
221.497	6588.83
221.57	6607.4
221.643	6630.17
221.716	6660.38
221.79	6668.3
221.863	6675.41
221.936	6682.23
222.009	6694.61
222.082	6713.4
222.155	6724.06
222.229	6773.16
222.302	6796.98
222.375	6803.46
222.448	6832.42
222.521	6843.62
222.594	6845.39
222.667	6827.35
222.74	6871.14
222.814	6867.4
222.887	6853.07
222.96	6893.28
223.033	6925.39
223.106	6939.07
223.179	6963.34
223.252	6975.94
223.325	6994.81
223.398	7010.91
223.471	7031.95
223.544	7049.04
223.617	7060.96
223.69	7078.4
223.763	7042.79
223.837	7061.53
223.91	7085.07
223.983	7048.62
224.056	7019.08
224.129	7029.74
224.202	7072.86
224.275	7064.35
224.348	7039.71
224.42	7013.57
224.493	6975.14
224.566	6956.77
224.639	6972.63
224.712	6950.42
224.785	6938.64
224.858	6936.19
224.931	6921.77
225.004	6892.24
225.077	6889.45
225.15	6817.47
225.223	6818.1
225.296	6883.57
225.369	6835.49
225.442	6809.6
225.514	6820.5
225.587	6836.15
225.66	6851.14
225.733	6849.46
225.806	6853.88
225.879	6848.17
225.952	6828.77
226.025	6860.23
226.097	6893.41
226.17	6888.12
226.243	6846.43
226.316	6841.19
226.389	6839.18
226.461	6851.43
226.534	6866.75
226.607	6865.69
226.68	6932.87
226.753	6928.93
226.825	6870.56
226.898	6913.69
226.971	6920.08
227.044	6938.76
227.117	6945.44
227.189	6954.52
227.262	6984.08
227.335	6996.04
227.407	6997.91
227.48	7023.56
227.553	7035.14
227.626	7023.98
227.698	7034.07
227.771	7063.99
227.844	7050.25
227.916	7068.75
227.989	7042.04
228.062	7041.32
228.134	7107.55
228.207	7112.74
228.28	7104.82
228.352	7112.12
228.425	7123.37
228.498	7158.26
228.57	7144.76
228.643	7190.76
228.716	7192.83
228.788	7184.61
228.861	7179.61
228.934	7226.75
229.006	7233.14
229.079	7231.64
229.151	7225.25
229.224	7198.74
229.296	7210.7
229.369	7287.91
229.442	7333.07
229.514	7322.55
229.587	7361.13
229.659	7308.25
229.732	7314.69
229.804	7350.06
229.877	7407.23
229.949	7429.64
230.022	7466.53
230.094	7472.1
230.167	7461.13
230.239	7427.74
230.312	7414.52
230.384	7475.16
230.457	7475.4
230.529	7484.63
230.602	7485.69
230.674	7487.51
230.747	7510.71
230.819	7532.34
230.892	7448.6
230.964	7434.75
231.037	7454.34
231.109	7446.08
231.181	7471.11
231.254	7442.66
231.326	7433.1
231.399	7418.91
231.471	7392.99
231.544	7332.74
231.616	7367.53
231.688	7373.06
231.761	7364.56
231.833	7363.22
231.905	7296.33
231.978	7295.22
232.05	7276.25
232.122	7279.85
232.195	7261.3
232.267	7294.18
232.339	7275.24
232.412	7322.76
232.484	7302.32
232.556	7279.32
232.629	7330.63
232.701	7342.27
232.773	7350.96
232.846	7343.52
232.918	7345.34
232.99	7361.21
233.062	7393.61
233.135	7397.6
233.207	7372.46
233.279	7411.51
233.351	7433.72
233.424	7433.14
233.496	7414.54
233.568	7480.11
233.64	7448.1
233.713	7468.1
233.785	7468.77
233.857	7486.08
233.929	7449.46
234.001	7504.2
234.074	7559.36
234.146	7505.16
234.218	7502.99
234.29	7500.78
234.362	7490.21
234.434	7456.41
234.507	7427.38
234.579	7386.57
234.651	7372.29
234.723	7396.81
234.795	7403.88
234.867	7400.61
234.939	7447.67
235.012	7457.86
235.084	7457.38
235.156	7487.27
235.228	7469.25
235.3	7456.07
235.372	7461.51
235.444	7507.84
235.516	7436.9
235.588	7439.35
235.66	7456.23
235.732	7431.95
235.804	7592.02
235.876	7626.72
235.948	7671.54
236.02	7686.72
236.092	7703.44
236.164	7713.87
236.236	7712.58
236.308	7708.01
236.38	7729.89
236.452	7714.69
236.524	7727.62
236.596	7784.32
236.668	7811.44
236.74	7828.8
236.812	7845.53
236.884	7873.71
236.956	7882.66
237.028	7888.38
237.1	7874.58
237.172	7919.27
237.244	7985.73
237.316	7886.97
237.388	7869.19
237.46	7851.34
237.532	7901.94
237.604	7896.65
237.675	7947.78
237.747	7978.47
237.819	7970.06
237.891	7974.1
237.963	7965.11
238.035	7965.69
238.107	7877.25
238.178	7925.71
238.25	7929.75
238.322	7997.69
238.394	7967.06
238.466	7963.83
238.538	7995.66
238.609	8029.27
238.681	7990.21
238.753	7971.54
238.825	7990.07
238.897	8021.56
238.968	8084.94
239.04	8064.25
239.112	8143.71
239.184	8118.69
239.255	8116.62
239.327	8151.67
239.399	8163.12
239.471	8197.46
239.542	8221.7
239.614	8271.96
239.686	8211.19
239.758	8251.21
239.829	8223.1
239.901	8266.05
239.973	8277.89
240.044	8299.54
240.116	8310.12
240.188	8324.4
240.259	8329.94
240.331	8315.02
240.403	8344.12
240.474	8309.71
240.546	8304.99
240.618	8262.07
240.689	8260.39
240.761	8281.18
240.833	8327.62
240.904	8329.3
240.976	8330.6
241.048	8347.68
241.119	8376.51
241.191	8404.08
241.262	8458.72
241.334	8469.26
241.405	8474.46
241.477	8479.94
241.549	8487.83
241.62	8501.07
241.692	8533.88
241.763	8579.9
241.835	8600.11
241.906	8610.31
241.978	8585.58
242.049	8637.99
242.121	8682.59
242.192	8737.4
242.264	8705.98
242.335	8671.43
242.407	8707.91
242.478	8715.65
242.55	8729.8
242.621	8718.54
242.693	8720.99
242.764	8713.77
242.836	8712.66
242.907	8737.17
242.979	8762.05
243.05	8780.91
243.122	8804.31
243.193	8804.11
243.264	8751.51
243.336	8754.06
243.407	8780.73
243.479	8848.93
243.55	8860.1
243.622	8873.48
243.693	8871.89
243.764	8930.95
243.836	8914.5
243.907	8902.51
243.978	8903.14
244.05	8922.35
244.121	8887.7
244.192	8922.26
244.264	8883.65
244.335	8898.14
244.407	8858.62
244.478	8871.38
244.549	8865.89
244.62	8830.47
244.692	8828.64
244.763	8862.32
244.834	8849.28
244.906	8827.04
244.977	8831.85
245.048	8875.82
245.119	8866.82
245.191	8847.28
245.262	8794.57
245.333	8856.17
245.405	8872.01
245.476	8895.69
245.547	8910.04
245.618	8952.92
245.689	8956.43
245.761	8981.99
245.832	8979.97
245.903	9017.95
245.974	9034.95
246.045	9047.99
246.117	9121.75
246.188	9114.67
246.259	9105.58
246.33	9122.28
246.401	9133.25
246.473	9113.13
246.544	9097.95
246.615	9135.66
246.686	9141.62
246.757	9200.78
246.828	9180.8
246.899	9234.02
246.97	9213.04
247.042	9203.31
247.113	9233.36
247.184	9302.53
247.255	9301.62
247.326	9324.73
247.397	9327.23
247.468	9338.45
247.539	9343.36
247.61	9301.76
247.681	9334.83
247.752	9373.1
247.823	9359.77
247.894	9372.86
247.965	9348.75
248.037	9330.78
248.108	9289.81
248.179	9292.79
248.25	9284.85
248.321	9304.97
248.392	9269.37
248.463	9332.44
248.534	9326.33
248.605	9341.69
248.675	9322.81
248.746	9339.71
248.817	9351.7
248.888	9363.26
248.959	9321.51
249.03	9343.57
249.101	9350.74
249.172	9335
249.243	9287.29
249.314	9339.49
249.385	9347.33
249.456	9370.92
249.527	9372.7
249.598	9393.07
249.669	9394.7
249.739	9405.64
249.81	9417.1
249.881	9388.4
249.952	9382.52
250.023	9379.68
250.094	9338.65
250.165	9316.83
250.235	9315.62
250.306	9322.51
250.377	9307.3
250.448	9325.35
250.519	9276.82
250.59	9318.38
250.66	9321.32
250.731	9369.65
250.802	9357.22
250.873	9374.46
250.944	9388.38
251.014	9378.65
251.085	9446.09
251.156	9469.68
251.227	9511.2
251.297	9551.18
251.368	9595
251.439	9628.34
251.51	9676.64
251.58	9669.66
251.651	9664.12
251.722	9702.66
251.792	9659.65
251.863	9659.8
251.934	9703.14
252.005	9788.77
252.075	9795.08
252.146	9833.21
252.217	9872.9
252.287	9911.05
252.358	9914.14
252.429	9979.51
252.499	9972.28
252.57	9975.51
252.641	10008.22
252.711	10011.49
252.782	9977.2
252.852	10027.2
252.923	10022.77
252.994	10037.47
253.064	10079.07
253.135	10058.65
253.205	10040.4
253.276	10102.72
253.347	10156.42
253.417	10138.12
253.488	10120.24
253.558	10116
253.629	10108.97
253.699	10115.23
253.77	10135.28
253.841	10124.44
253.911	10129.26
253.982	10152.04
254.052	10182.78
254.123	10190.06
254.193	10194.3
254.264	10300.06
254.334	10277.36
254.405	10257.52
254.475	10229.05
254.546	10233.33
254.616	10291.71
254.687	10316.86
254.757	10325.53
254.827	10315.71
254.898	10341.28
254.968	10352.22
255.039	10339.07
255.109	10374.04
255.18	10357.71
255.25	10304.91
255.321	10332.41
255.391	10304.71
255.461	10368.78
255.532	10296.27
255.602	10287.35
255.673	10238.27
255.743	10207.47
255.813	10153.24
255.884	10188.21
255.954	10208.93
256.024	10258.8
256.095	10259.81
256.165	10232.64
256.235	10257.4
256.306	10252.92
256.376	10289.5
256.446	10325.49
256.517	10351.65
256.587	10386.1
256.657	10401.13
256.728	10420.69
256.798	10431.19
256.868	10422.9
256.938	10403.63
257.009	10450.32
257.079	10479.61
257.149	10559.15
257.219	10512.22
257.29	10541.11
257.36	10494.19
257.43	10534.04
257.5	10478.73
257.571	10467.22
257.641	10495.83
257.711	10467.5
257.781	10489.85
257.852	10494.48
257.922	10446.25
257.992	10445.04
258.062	10437.53
258.132	10464.51
258.202	10469.47
258.273	10479.97
258.343	10536.16
258.413	10518.52
258.483	10519.87
258.553	10496.27
258.623	10473.33
258.693	10495.83
258.764	10552.63
258.834	10614.87
258.904	10622.25
258.974	10621.04
259.044	10636.9
259.114	10659.25
259.184	10682.24
259.254	10691.05
259.324	10660.22
259.394	10697.65
259.464	10759.77
259.535	10771.77
259.605	10780.01
259.675	10774.08
259.745	10798.47
259.815	10780.73
259.885	10783.62
259.955	10869.75
260.025	10867.64
260.095	10885.08
260.165	10912.55
260.235	10955.06
260.305	10937.81
260.375	10916.55
260.445	10987.96
260.515	11032.49
260.585	11065.89
260.655	11076.35
260.725	11112.97
260.795	11143.42
260.865	11195.91
260.934	11170.46
261.004	11193.31
261.074	11194.66
261.144	11245.54
261.214	11276.29
261.284	11282.12
261.354	11314.79
261.424	11284.27
261.494	11338.77
261.564	11336.46
261.634	11362.15
261.703	11313.42
261.773	11334.24
261.843	11365.22
261.913	11356.94
261.983	11319.44
262.053	11332.17
262.123	11326.24
262.192	11287.45
262.262	11311.4
262.332	11266.05
262.402	11287.78
262.472	11290.96
262.541	11240.75
262.611	11267.5
262.681	11250.01
262.751	11279.02
262.821	11291.45
262.89	11256.46
262.96	11277.62
263.03	11343.07
263.1	11357.15
263.169	11378.26
263.239	11407.8
263.309	11456.05
263.379	11482.22
263.448	11496.19
263.518	11523.91
263.588	11538.22
263.657	11600.63
263.727	11637.17
263.797	11651
263.867	11657.75
263.936	11636.2
264.006	11688.15
264.076	11686.41
264.145	11687.62
264.215	11677.5
264.285	11703.91
264.354	11683.67
264.424	11678.32
264.494	11641.92
264.563	11638.26
264.633	11692.82
264.702	11709.69
264.772	11671.08
264.842	11667.85
264.911	11692.58
264.981	11659.37
265.05	11665.73
265.12	11661.82
265.19	11667.18
265.259	11704.53
265.329	11728.87
265.398	11739.23
265.468	11819.39
265.537	11819.05
265.607	11844.5
265.676	11884.03
265.746	11902.54
265.815	11941.62
265.885	11948.37
265.955	11939.31
266.024	11938.1
266.094	11890.1
266.163	11939.7
266.232	11995.18
266.302	11997.01
266.371	12023.62
266.441	12045.65
266.51	12087.63
266.58	12092.69
266.649	12086.57
266.719	12126.53
266.788	12155.5
266.858	12212.19
266.927	12160.08
266.996	12181.58
267.066	12205.53
267.135	12176.71
267.205	12208.04
267.274	12229.59
267.343	12267.96
267.413	12284.68
267.482	12336.84
267.552	12389.96
267.621	12354.19
267.69	12310.47
267.76	12339.63
267.829	12357.95
267.898	12371.88
267.968	12364.79
268.037	12400.37
268.106	12438.5
268.176	12411.93
268.245	12426.2
268.314	12428.08
268.384	12474.21
268.453	12495.91
268.522	12517.07
268.592	12568.36
268.661	12559.97
268.73	12584.02
268.799	12571.58
268.869	12635.79
268.938	12601.18
269.007	12592.55
269.076	12616.56
269.146	12662.88
269.215	12683.61
269.284	12737.7
269.353	12733.46
269.422	12740.64
269.492	12732.97
269.561	12672.09
269.63	12700.24
269.699	12691.47
269.768	12704.39
269.838	12720.49
269.907	12753.27
269.976	12727.19
270.045	12695.91
270.114	12724.44
270.183	12736.3
270.253	12763.73
270.322	12728.4
270.391	12744.35
270.46	12802.63
270.529	12835.22
270.598	12868.97
270.667	12878.7
270.736	12856.29
270.806	12884.87
270.875	12929.85
270.944	12941.85
271.013	13039.8
271.082	13060.44
271.151	13092.4
271.22	13064.78
271.289	13078.08
271.358	13088.11
271.427	13119.3
271.496	13138.82
271.565	13139.74
271.634	13157.96
271.703	13199.75
271.772	13249.93
271.841	13263.53
271.91	13236.82
271.979	13254.03
272.048	13239.52
272.117	13277.41
272.186	13281.37
272.255	13326.1
272.324	13358.21
272.393	13385.39
272.462	13381.44
272.531	13413.21
272.6	13422.08
272.669	13486.72
272.738	13499.07
272.807	13522.64
272.876	13512.18
272.945	13620.21
273.013	13672.7
273.082	13718.5
273.151	13708.71
273.22	13735.56
273.289	13764.54
273.358	13833.09
273.427	13843.02
273.496	13879.65
273.564	13907.13
273.633	13952.35
273.702	13938.56
273.771	13949.79
273.84	13983.01
273.909	14021.62
273.977	14040.9
274.046	14049.92
274.115	14094.17
274.184	14090.07
274.253	14107.86
274.322	14172.22
274.39	14132.45
274.459	14128.16
274.528	14095.57
274.597	14117.21
274.665	14149.46
274.734	14197.62
274.803	14207.84
274.872	14221.82
274.94	14219.41
275.009	14323.48
275.078	14327.67
275.147	14366.77
275.215	14396.46
275.284	14439.6
275.353	14450.5
275.421	14432.9
275.49	14510.08
275.559	14512.01
275.627	14536.93
275.696	14555.73
275.765	14589.04
275.833	14601.09
275.902	14637.92
275.971	14706.75
276.039	14782.87
276.108	14824.8
276.177	14855.94
276.245	14867.66
276.314	14900.63
276.383	14955.05
276.451	14907.87
276.52	14953.51
276.588	15018.59
276.657	15062.64
276.725	15075.32
276.794	15101.06
276.863	15169.32
276.931	15153.12
277	15211.21
277.068	15270.3
277.137	15346.27
277.205	15379.1
277.274	15463.26
277.342	15524.71
277.411	15511.94
277.48	15510.44
277.548	15507.89
277.617	15540.81
277.685	15558.55
277.754	15604.63
277.822	15619.77
277.89	15682.57
277.959	15701.61
278.027	15690.81
278.096	15702.72
278.164	15802.82
278.233	15818.34
278.301	15817.38
278.37	15865.53
278.438	15869.19
278.507	15908.33
278.575	15872.91
278.643	15897.44
278.712	15892.28
278.78	15886.21
278.849	15948.15
278.917	16008.78
278.985	16041.46
279.054	16087.39
279.122	16153.62
279.191	16186.2
279.259	16214.4
279.327	16199.84
279.396	16268.33
279.464	16286.69
279.532	16340.77
279.601	16372.53
279.669	16399.95
279.737	16469.94
279.806	16511.77
279.874	16573.41
279.942	16599.58
280.011	16645.08
280.079	16696.07
280.147	16760.85
280.215	16812.71
280.284	16841
280.352	16843.6
280.42	16898.21
280.488	16909.58
280.557	16927.7
280.625	16974.06
280.693	17015.95
280.761	17056.43
280.83	17053.49
280.898	17127.95
280.966	17110.27
281.034	17060.68
281.102	17063.57
281.171	17086.75
281.239	17140.77
281.307	17151.95
281.375	17163.86
281.443	17260.19
281.512	17293.21
281.58	17351.08
281.648	17341.83
281.716	17366.94
281.784	17394.7
281.852	17409.3
281.92	17446.7
281.989	17509.4
282.057	17493.64
282.125	17599.66
282.193	17632.43
282.261	17663.9
282.329	17681.97
282.397	17729.05
282.465	17781.44
282.533	17864.09
282.601	17879.37
282.67	17852.96
282.738	17869.88
282.806	17935.71
282.874	17935.75
282.942	17974.98
283.01	17998.5
283.078	18050.64
283.146	18084.86
283.214	18148.66
283.282	18201.62
283.35	18274.05
283.418	18293.72
283.486	18342.2
283.554	18306.82
283.622	18346
283.69	18383.11
283.758	18409.95
283.826	18464.89
283.894	18523.97
283.962	18613.31
284.03	18688.73
284.098	18731.09
284.165	18767.86
284.233	18800.92
284.301	18820.63
284.369	18841.16
284.437	18845.16
284.505	18873.3
284.573	18955.9
284.641	18967.9
284.709	19012.71
284.777	19001.34
284.845	19056.23
284.912	19113.33
284.98	19162.34
285.048	19187.79
285.116	19238.53
285.184	19315.11
285.252	19350.33
285.319	19341.66
285.387	19352.55
285.455	19344.36
285.523	19407.29
285.591	19438.67
285.659	19479.48
285.726	19551.58
285.794	19555
285.862	19603.04
285.93	19654.99
285.997	19670.6
286.065	19697.11
286.133	19713.78
286.201	19746.75
286.269	19745.73
286.336	19755.28
286.404	19782.41
286.472	19837.25
286.539	19830.5
286.607	19820.33
286.675	19851.37
286.743	19911.7
286.81	19938.35
286.878	20010.21
286.946	20021.82
287.013	20051.31
287.081	20080.95
287.149	20074.01
287.216	20158.59
287.284	20185.48
287.352	20213.24
287.419	20247.21
287.487	20326.54
287.555	20382.3
287.622	20411.36
287.69	20467.46
287.758	20551.85
287.825	20577.1
287.893	20576.81
287.96	20629.43
288.028	20687.65
288.096	20738.21
288.163	20784.43
288.231	20785.44
288.298	20815.42
288.366	20890.75
288.433	20925.21
288.501	20949.88
288.569	20992.1
288.636	21018.32
288.704	21083.72
288.771	21137.08
288.839	21145.75
288.906	21167.06
288.974	21211.31
289.041	21243.21
289.109	21251.84
289.176	21291.94
289.244	21338.79
289.311	21415.86
289.379	21471.05
289.446	21518.62
289.514	21555.93
289.581	21587.55
289.649	21643.46
289.716	21687.08
289.783	21704.2
289.851	21781.65
289.918	21828.84
289.986	21896.18
290.053	21932.05
290.121	21967.14
290.188	22016.21
290.255	22133.02
290.323	22152.78
290.39	22180.45
290.458	22243.26
290.525	22316.97
290.592	22343.97
290.66	22395.31
290.727	22421.15
290.794	22502
290.862	22544.71
290.929	22590.9
290.996	22627.49
291.064	22681.58
291.131	22757.28
291.198	22830.28
291.266	22863.74
291.333	22906.7
291.4	22954.29
291.468	23044.31
291.535	23080.86
291.602	23121.7
291.669	23146.1
291.737	23198.32
291.804	23246.97
291.871	23324.9
291.938	23380.65
292.006	23483.52
292.073	23541.68
292.14	23611.75
292.207	23632.1
292.275	23672.75
292.342	23732.8
292.409	23845.71
292.476	23944.78
292.543	23957.66
292.611	23997.31
292.678	24089.09
292.745	24180.88
292.812	24246.1
292.879	24261.92
292.946	24297.99
293.014	24366.92
293.081	24415.4
293.148	24487.99
293.215	24554.86
293.282	24576.51
293.349	24639.18
293.416	24628.47
293.484	24710.64
293.551	24763.56
293.618	24842.93
293.685	24930.93
293.752	24951.92
293.819	24980.73
293.886	24984.25
293.953	25039.01
294.02	25106.52
294.087	25158.21
294.154	25174.03
294.221	25236.44
294.288	25282.28
294.356	25363.2
294.423	25427.82
294.49	25457.6
294.557	25530.67
294.624	25548.48
294.691	25632.64
294.758	25677.92
294.825	25742.3
294.892	25751.81
294.959	25795.35
295.026	25848.6
295.093	25884.66
295.16	25928.19
295.226	25970.33
295.293	26073.17
295.36	26120.96
295.427	26182.86
295.494	26249.55
295.561	26317.81
295.628	26419.4
295.695	26511.91
295.762	26560.58
295.829	26619.74
295.896	26695.78
295.963	26762.87
296.03	26834.23
296.096	26895.71
296.163	26959.22
296.23	27039.25
296.297	27125.31
296.364	27168.91
296.431	27223.4
296.498	27256.14
296.564	27370.99
296.631	27421.37
296.698	27429.97
296.765	27528.17
296.832	27537.74
296.899	27549.24
296.965	27644.37
297.032	27629.29
297.099	27704.73
297.166	27780.1
297.233	27821.95
297.299	27855.09
297.366	27886.7
297.433	27940.76
297.5	28006.15
297.566	28041.53
297.633	28088.46
297.7	28138.24
297.767	28185.58
297.833	28249.44
297.9	28298.77
297.967	28289.49
298.033	28367.65
298.1	28489.25
298.167	28505.49
298.234	28582.48
298.3	28644.3
298.367	28663.44
298.434	28731.17
298.5	28744.57
298.567	28764.24
298.634	28789.86
298.7	28878.33
298.767	28927.17
298.834	29000.76
298.9	29013.18
298.967	29045.96
299.033	29105.64
299.1	29178.09
299.167	29253.52
299.233	29278.62
299.3	29365.03
299.366	29457.86
299.433	29528.2
299.5	29492.84
299.566	29553.49
299.633	29631.32
299.699	29704.8
299.766	29745.43
299.832	29802.47
299.899	29864.78
299.965	29942.9
300.032	29991.8
300.099	30042.31
300.165	30096.35
300.232	30132.64
300.298	30197.65
300.365	30273.31
300.431	30307.53
300.498	30339.22
300.564	30394.68
300.631	30464.36
300.697	30531.44
300.763	30555.97
300.83	30598.48
300.896	30683.21
300.963	30743.07
301.029	30787.76
301.096	30834.57
301.162	30903.14
301.229	30925.41
301.295	30944.38
301.361	30995.55
301.428	31038.38
301.494	31045.69
301.561	31102.33
301.627	31136.7
301.693	31181.62
301.76	31228.24
301.826	31261.4
301.892	31317.37
301.959	31382.55
302.025	31413.15
302.092	31431.21
302.158	31499.18
302.224	31540.5
302.291	31557.45
302.357	31589.16
302.423	31607.66
302.49	31628.44
302.556	31699.25
302.622	31750.78
302.688	31821.67
302.755	31885.91
302.821	31948.28
302.887	32011.47
302.954	32049.83
303.02	32121.12
303.086	32175.37
303.152	32212.67
303.219	32237.12
303.285	32295.46
303.351	32349.2
303.417	32389.84
303.483	32410.47
303.55	32437.64
303.616	32472.24
303.682	32513.61
303.748	32548.73
303.815	32635.61
303.881	32699.76
303.947	32697.34
304.013	32730.43
304.079	32747.34
304.145	32737.55
304.212	32777.91
304.278	32802.23
304.344	32835.08
304.41	32835.42
304.476	32856.26
304.542	32878.26
304.608	32935.48
304.674	32927.29
304.741	32944.25
304.807	32987.92
304.873	33035.74
304.939	33114.3
305.005	33101.36
305.071	33133.64
305.137	33173.71
305.203	33137.89
305.269	33167.46
305.335	33246.82
305.401	33276.38
305.467	33304.59
305.533	33358.58
305.599	33402.69
305.666	33451.64
305.732	33481.6
305.798	33556.83
305.864	33646.67
305.93	33710.03
305.996	33745.8
306.062	33785.4
306.128	33806.3
306.194	33815.32
306.259	33853.13
306.325	33843.38
306.391	33906.55
306.457	33949.98
306.523	33985.71
306.589	34089.57
306.655	34108.48
306.721	34083.95
306.787	34095.68
306.853	34170.89
306.919	34168.46
306.985	34190.18
307.051	34207.01
307.117	34224.42
307.183	34236.25
307.248	34194.93
307.314	34226.94
307.38	34258.12
307.446	34305.4
307.512	34312.53
307.578	34356.89
307.644	34376.92
307.709	34424.88
307.775	34447.14
307.841	34469.2
307.907	34515.23
307.973	34498.11
308.039	34520.37
308.104	34567.45
308.17	34612.65
308.236	34599.6
308.302	34637.67
308.368	34635.43
308.433	34670.64
308.499	34691.64
308.565	34698.92
308.631	34747.61
308.696	34720.45
308.762	34732.72
308.828	34761.39
308.894	34756.83
308.959	34734.09
309.025	34749.56
309.091	34763.92
309.156	34770.42
309.222	34824.12
309.288	34809.08
309.354	34776.25
309.419	34807.83
309.485	34799.68
309.551	34831.89
309.616	34834.22
309.682	34852.5
309.748	34867.92
309.813	34894.22
309.879	34901.69
309.945	34905.91
310.01	34911.78
310.076	34948.44
310.141	34969.69
310.207	34958.87
310.273	34999.8
310.338	35045.49
310.404	35028.9
310.469	35034.72
310.535	35044.47
310.601	35006.88
310.666	35042.24
310.732	35095.5
310.797	35089.48
310.863	35104.95
310.928	35109.03
310.994	35153.86
311.059	35187.28
311.125	35215.76
311.191	35264.72
311.256	35263.17
311.322	35310.03
311.387	35286.89
311.453	36279.42
311.518	36280.34
311.584	36304.06
311.649	36327.06
311.715	36330.45
311.78	36366.3
311.846	36371.64
311.911	36415.59
311.976	36461.44
312.042	36460.23
312.107	36464.88
312.173	36471.63
312.238	36493.89
312.304	36512.09
312.369	36501.76
312.434	36498.55
312.5	36508.94
312.565	36453.13
312.631	36496.45
312.696	36492.86
312.761	36537.16
312.827	35574.81
312.892	35661.63
312.958	35688.52
313.023	35721.32
313.088	35743.44
313.154	35737.28
313.219	35744.37
313.284	35752.37
313.35	35766.4
313.415	35767.61
313.48	35774.89
313.546	35816.72
313.611	35857.19
313.676	35861.6
313.741	35870.63
313.807	35913.67
313.872	35944.24
313.937	35982.96
314.003	36031.16
314.068	36073.91
314.133	36111.28
314.198	36129.48
314.264	36101.71
314.329	36091.08
314.394	36105.69
314.459	36132.72
314.525	36212.25
314.59	36235.35
314.655	36233.41
314.72	36273.6
314.785	36297.91
314.851	36314.65
314.916	36295.09
314.981	36289.07
315.046	36289.46
315.111	36284.85
315.176	36282.62
315.242	36306.21
315.307	36330.86
315.372	36302.13
315.437	36284.07
315.502	36287.52
315.567	36337.9
315.632	36317.08
315.698	36344.65
315.763	36352.9
315.828	36344.8
315.893	36340.91
315.958	36341.93
316.023	36339.94
316.088	36305.43
316.153	36279.76
316.218	36273.79
316.283	36240.66
316.348	36204.8
316.413	36213.53
316.479	36193.4
316.544	36102.81
316.609	36031.87
316.674	35934.49
316.739	35847.8
316.804	35773.62
316.869	35659.9
316.934	35545.14
316.999	35453.89
317.064	35305.07
317.129	35181.88
317.194	35074.06
317.259	34937.59
317.324	34778.68
317.389	34624.08
317.454	34489.15
317.518	34371.94
317.583	34274.11
317.648	34182.76
317.713	34056.88
317.778	33858.62
317.843	33753.46
317.908	33620.52
317.973	33482.7
318.038	33383.09
318.103	33249.05
318.168	33118.05
318.233	32995.21
318.297	32815.19
318.362	32679.86
318.427	32528.84
318.492	32403.73
318.557	32228.65
318.622	32104.43
318.687	32005.1
318.751	31851.34
318.816	31708.71
318.881	31548.06
318.946	31355.52
319.011	31173.28
319.075	31000.85
319.14	30857.5
319.205	30666.06
319.27	30515
319.335	30341.66
319.399	30157.38
319.464	30018.14
319.529	29811.84
319.594	29648.85
319.658	29503.71
319.723	29320.27
319.788	29187.69
319.853	28985.43
319.917	28841.33
319.982	28634.38
320.047	28457
320.112	28313.22
320.176	28113.27
320.241	27951.67
320.306	27783.41
320.37	27610.97
320.435	27450.58
320.5	27290.68
320.564	27118.38
320.629	26931.4
320.694	26772.02
320.758	26581.33
320.823	26385.96
320.888	26229.8
320.952	26026.26
321.017	25839.4
321.082	25644.07
321.146	25460.46
321.211	25285.27
321.275	25087.63
321.34	24880.84
321.405	24684.55
321.469	24486.12
321.534	24293.61
321.598	24079.24
321.663	23909.34
321.727	23728.61
321.792	23523.3
321.857	23329.03
321.921	23135.66
321.986	22935.52
322.05	22694.92
322.115	22518.41
322.179	22316.55
322.244	22088.63
322.308	21908.91
322.373	21693.48
322.437	21506.94
322.502	21353.26
322.566	21138.42
322.631	20962.74
322.695	20775.84
322.76	20564.98
322.824	20379.66
322.889	20175.95
322.953	19970.02
323.018	19709.43
323.082	19459.6
323.146	19234.73
323.211	19001.1
323.275	18790.79
323.34	18589.34
323.404	18401.06
323.468	18179.95
323.533	17960.87
323.597	17753.87
323.662	17524.43
323.726	17346.06
323.79	17126.73
323.855	16854.87
323.919	16637.31
323.983	16417.73
324.048	16098.84
324.112	16153.05
324.177	15496.72
324.241	14645.74
324.305	13812.18
324.37	12997.15
324.434	12196.61
324.498	11965.57
324.562	11716.76
324.627	11431.19
324.691	11144.3
324.755	10825.53
324.82	10466.21
324.884	10096.92
324.948	9706.94
325.012	9238.3
325.077	8647.55
