Data from 20250626_urea_1M_exp2_MAYP1162681_04-14-00-424.txt Node
Date: Fri Jun 27 04:14:00 BST 2025
User: adleo
Spectrometer: MAYP116268
Trigger mode: 0
Integration Time (sec): 3.000000E0
Scans to average: 1
Electric dark correction enabled: true
Nonlinearity correction enabled: true
Boxcar width: 10
XAxis mode: Wavelengths
Number of Pixels in Spectrum: 2068
>>>>>Begin Spectral Data<<<<<
179.565	2726.44
179.642	2870.79
179.718	2978.33
179.795	3077.11
179.871	3164.05
179.948	3210.14
180.024	3262.43
180.101	3317.51
180.177	3352.83
180.254	3407.07
180.33	3463.13
180.407	3647.81
180.483	3861.66
180.56	4079.98
180.636	4279.71
180.712	4250.72
180.789	4270.09
180.865	4298.38
180.942	4321.57
181.018	4347.78
181.095	4382.19
181.171	4394.58
181.248	4398.02
181.324	4438.47
181.4	4459.28
181.477	4480.87
181.553	4509.27
181.63	4563.59
181.706	4604.99
181.782	4629.23
181.859	4635.5
181.935	4652.88
182.011	4644.41
182.088	4682.03
182.164	4730.32
182.24	4758.64
182.317	4784.72
182.393	4781.03
182.469	4816.12
182.546	4848.24
182.622	4862.31
182.698	4856.32
182.775	4886.87
182.851	4918.23
182.927	4896.97
183.003	4880.65
183.08	4871.03
183.156	4898.31
183.232	4891.46
183.308	4862.93
183.385	4879.49
183.461	4918.33
183.537	4915.6
183.613	4949.88
183.69	4932.5
183.766	4902.79
183.842	4934.5
183.918	4945.61
183.995	4977.74
184.071	4987.8
184.147	4975.73
184.223	4946.97
184.299	4975.53
184.375	4953.07
184.452	4964.19
184.528	5067.38
184.604	5095.34
184.68	5126.47
184.756	5143
184.832	5147.88
184.908	5162.58
184.985	5162.1
185.061	5116.32
185.137	5138.88
185.213	5103.83
185.289	5104.07
185.365	5086.79
185.441	5070.83
185.517	5105.63
185.593	5095.71
185.669	5085.32
185.745	5110.99
185.822	5152.06
185.898	5127.86
185.974	5148.93
186.05	5131.78
186.126	5071.26
186.202	5053.93
186.278	5040.51
186.354	5016.32
186.43	5032.76
186.506	5027.3
186.582	5023.62
186.658	5045.2
186.734	4998.37
186.81	5008.57
186.886	5016.61
186.962	5041.8
187.038	5031.69
187.114	5010.84
187.19	5032.16
187.266	5007.79
187.341	5009.57
187.417	4989.17
187.493	4990.03
187.569	4996.02
187.645	4984.05
187.721	4952.09
187.797	4971
187.873	4978.43
187.949	4967.56
188.025	4953.37
188.101	4958.88
188.176	4973.67
188.252	4968.12
188.328	4988.94
188.404	4991.28
188.48	4977.11
188.556	4961.07
188.632	4961.98
188.707	4963.22
188.783	4954.98
188.859	4950.77
188.935	4921.26
189.011	4942.38
189.086	4928.02
189.162	4908.57
189.238	4902.25
189.314	4895.45
189.39	4884.54
189.465	4870.74
189.541	4912.51
189.617	4873.88
189.693	4861.81
189.768	4867.56
189.844	4921.14
189.92	4900.32
189.996	4920.39
190.071	4953.82
190.147	4953.29
190.223	4980.36
190.298	4961.2
190.374	4929.21
190.45	4954.96
190.526	4975.27
190.601	4966.31
190.677	4968.66
190.753	5040.81
190.828	5054.36
190.904	5091.77
190.98	5128.9
191.055	5156.59
191.131	5131.2
191.207	5183.78
191.282	5206.23
191.358	5187.13
191.433	5155.63
191.509	5186.26
191.585	5180.94
191.66	5181.81
191.736	5202.11
191.811	5171.22
191.887	5207.97
191.963	5264.93
192.038	5275.19
192.114	5278.4
192.189	5285.58
192.265	5279.07
192.34	5219.66
192.416	5215.83
192.491	5206
192.567	5209.69
192.642	5211.04
192.718	5213.48
192.793	5184.92
192.869	5175.44
192.944	5179.65
193.02	5197.44
193.095	5201.94
193.171	5215.79
193.246	5213.34
193.322	5204.86
193.397	5208.69
193.473	5177.88
193.548	5134.79
193.624	5151.09
193.699	5148.88
193.775	5193.42
193.85	5196.2
193.925	5218.1
194.001	5210.01
194.076	5190.22
194.152	5166.06
194.227	5149.58
194.302	5122.72
194.378	5130.39
194.453	5126.46
194.529	5156.88
194.604	5118.46
194.679	5106.53
194.755	5056.69
194.83	5084.26
194.905	5082.25
194.981	5105
195.056	5087.09
195.131	5100.36
195.207	5091.97
195.282	5065.68
195.357	5011.28
195.433	5045.91
195.508	5016.58
195.583	5039.47
195.659	5077.33
195.734	5088.78
195.809	5085.96
195.884	5109.03
195.96	5107.26
196.035	5142.23
196.11	5133.41
196.185	5162.48
196.261	5171.34
196.336	5250.25
196.411	5216.16
196.486	5225.22
196.561	5208.64
196.637	5232.06
196.712	5268.64
196.787	5281.53
196.862	5320.76
196.937	5345.91
197.013	5366.72
197.088	5392.78
197.163	5440.74
197.238	5484.02
197.313	5488.48
197.388	5522.46
197.464	5597.76
197.539	5628.62
197.614	5608.83
197.689	5635.34
197.764	5676.64
197.839	5729.57
197.914	5713.12
197.989	5771.63
198.065	5800.25
198.14	5928.02
198.215	5992.63
198.29	6025.61
198.365	6062.69
198.44	6092
198.515	6162.64
198.59	6198.53
198.665	6264.8
198.74	6291.83
198.815	6289.19
198.89	6344.66
198.965	6418.65
199.04	6409.39
199.115	6445.71
199.19	6556.67
199.265	6568.42
199.34	6589.55
199.415	6668.05
199.49	6719.26
199.565	6738.32
199.64	6810.11
199.715	6800.83
199.79	6815.43
199.865	6829.31
199.94	6822.3
200.015	6899.93
200.09	6916.08
200.165	6933.94
200.24	6945.96
200.315	7033.71
200.39	7076.32
200.464	7097.99
200.539	7099.81
200.614	7141.99
200.689	7201.91
200.764	7217.34
200.839	7257.05
200.914	7273.14
200.989	7245.64
201.063	7286.39
201.138	7244.92
201.213	7238.91
201.288	7188.75
201.363	7203.21
201.438	7200.67
201.512	7235.92
201.587	7192.56
201.662	7202.37
201.737	7233.61
201.812	7253.8
201.886	7180.27
201.961	7206.57
202.036	7166.71
202.111	7158.63
202.186	7083.35
202.26	7036.54
202.335	6981.95
202.41	6975.13
202.485	6932.88
202.559	6883.12
202.634	6812.27
202.709	6830.79
202.784	6782.86
202.858	6783.44
202.933	6738.73
203.008	6725.81
203.082	6679.42
203.157	6672.41
203.232	6561.83
203.306	6502.12
203.381	6419.28
203.456	6360.28
203.53	6292.51
203.605	6246.51
203.68	6192.73
203.754	6177.87
203.829	6143.35
203.904	6091.53
203.978	6055.67
204.053	6069.83
204.127	6045.13
204.202	6036.68
204.277	5995.96
204.351	5979.89
204.426	5959.05
204.5	5932.96
204.575	5847.51
204.65	5869.3
204.724	5846.78
204.799	5867.15
204.873	5862.02
204.948	5863.55
205.022	5834.36
205.097	5814.29
205.171	5848
205.246	5869.7
205.32	5869.98
205.395	5868.74
205.469	5847.08
205.544	5858.12
205.618	5809.47
205.693	5834.56
205.767	5810.78
205.842	5865.66
205.916	5850.56
205.991	5832.05
206.065	5849.12
206.14	5891.14
206.214	5875.64
206.289	5859.13
206.363	5886.61
206.438	5890.12
206.512	5904.8
206.586	5950.45
206.661	5976.95
206.735	5923.21
206.81	5917.36
206.884	5953.28
206.958	5919.52
207.033	5958.73
207.107	5977.26
207.181	6054.44
207.256	6039.13
207.33	6084.51
207.405	6111.75
207.479	6155.79
207.553	6168.93
207.628	6128.08
207.702	6151.59
207.776	6137.05
207.851	6152.12
207.925	6191.2
207.999	6176.47
208.073	6167.54
208.148	6177.29
208.222	6147.38
208.296	6224.68
208.371	6268.97
208.445	6291.53
208.519	6363.4
208.593	6397.67
208.668	6388.07
208.742	6398.06
208.816	6404.97
208.89	6437.2
208.965	6433.88
209.039	6460.25
209.113	6502.97
209.187	6554.43
209.261	6542.96
209.336	6596.82
209.41	6643.22
209.484	6644.47
209.558	6707.18
209.632	6751.25
209.707	6777.47
209.781	6834.48
209.855	6877.67
209.929	6912.29
210.003	6929.54
210.077	6927.76
210.151	7046.35
210.226	7135.99
210.3	7200.01
210.374	7261.91
210.448	7272.29
210.522	7296.47
210.596	7323.39
210.67	7346.69
210.744	7464.41
210.818	7550.87
210.892	7597.5
210.966	7583.81
211.041	7615.87
211.115	7607.03
211.189	7662.45
211.263	7703.4
211.337	7712.15
211.411	7746.39
211.485	7736.39
211.559	7767.82
211.633	7778.39
211.707	7700.5
211.781	7715.46
211.855	7626.56
211.929	7603.69
212.003	7560.99
212.077	7587.05
212.151	7609.85
212.225	7635.19
212.299	7609.2
212.373	7577.67
212.447	7566.51
212.52	7641.09
212.594	7656.91
212.668	7684.55
212.742	7647.38
212.816	7633.53
212.89	7621.61
212.964	7615.17
213.038	7624.5
213.112	7651.34
213.186	7683.11
213.26	7628.97
213.333	7508.03
213.407	7513.03
213.481	7521.44
213.555	7543.53
213.629	7509.29
213.703	7465.63
213.777	7457.21
213.85	7406.15
213.924	7488.49
213.998	7488.54
214.072	7463.62
214.146	7420.88
214.219	7406.79
214.293	7392.14
214.367	7396.13
214.441	7413.24
214.515	7375.5
214.588	7307.58
214.662	7213.11
214.736	7156.51
214.81	7169.95
214.883	7187.04
214.957	7160.72
215.031	7120.77
215.105	7056.32
215.178	7010.35
215.252	6987.09
215.326	6918.06
215.4	6855.89
215.473	6719.29
215.547	6651.98
215.621	6605.78
215.694	6603.62
215.768	6535.38
215.842	6489
215.915	6431.78
215.989	6349.75
216.063	6309.16
216.136	6295.14
216.21	6280.27
216.284	6285.12
216.357	6267.17
216.431	6242.93
216.504	6241.39
216.578	6278.17
216.652	6288
216.725	6273.41
216.799	6276.34
216.873	6263.29
216.946	6272.93
217.02	6243.92
217.093	6228.61
217.167	6156.24
217.24	6094.99
217.314	6071.01
217.387	6037.11
217.461	6010.24
217.535	6026.89
217.608	5982.28
217.682	5962.41
217.755	5969.85
217.829	5934.72
217.902	5920.23
217.976	5906.61
218.049	5868.81
218.123	5810.97
218.196	5812.79
218.27	5789.14
218.343	5738.56
218.417	5734.63
218.49	5711.22
218.563	5746.18
218.637	5748.05
218.71	5800.2
218.784	5824.53
218.857	5848.31
218.931	5867.49
219.004	5870.75
219.077	5887.84
219.151	5904.47
219.224	5902.99
219.298	5901.07
219.371	5932.79
219.444	5908.67
219.518	5911.83
219.591	5930.77
219.665	6013.37
219.738	6015.62
219.811	5998.99
219.885	6034.63
219.958	6053.35
220.031	6064.47
220.105	6080.98
220.178	6094.8
220.251	6080.26
220.325	6099.94
220.398	6109.35
220.471	6122.87
220.544	6150.22
220.618	6133.37
220.691	6154.96
220.764	6167.44
220.838	6190.62
220.911	6180.68
220.984	6244.11
221.057	6271.99
221.131	6287.25
221.204	6215.07
221.277	6275.03
221.35	6369.53
221.424	6361.61
221.497	6372.03
221.57	6388.39
221.643	6411.25
221.716	6437.32
221.79	6440.49
221.863	6449.38
221.936	6459.41
222.009	6468.48
222.082	6488.12
222.155	6495.03
222.229	6543.59
222.302	6566.92
222.375	6568.17
222.448	6594.34
222.521	6594.62
222.594	6598.08
222.667	6580.14
222.74	6622
222.814	6612.77
222.887	6603.21
222.96	6643.45
223.033	6679.96
223.106	6693.98
223.179	6718.53
223.252	6724.78
223.325	6747.15
223.398	6756.42
223.471	6777.79
223.544	6794.16
223.617	6802.57
223.69	6815.82
223.763	6782.72
223.837	6796.99
223.91	6822.44
223.983	6785.57
224.056	6762.48
224.129	6779.19
224.202	6821.09
224.275	6810.19
224.348	6789.78
224.42	6764.85
224.493	6722.68
224.566	6704.38
224.639	6722.96
224.712	6699.03
224.785	6691.97
224.858	6684.04
224.931	6669.49
225.004	6639.81
225.077	6647.54
225.15	6582.5
225.223	6585.14
225.296	6646.27
225.369	6604.55
225.442	6576.74
225.514	6594.79
225.587	6607.27
225.66	6614.47
225.733	6616.83
225.806	6623.84
225.879	6624.8
225.952	6599.93
226.025	6637.44
226.097	6673.72
226.17	6667.24
226.243	6622.35
226.316	6621.58
226.389	6619.76
226.461	6634.41
226.534	6650.3
226.607	6639.35
226.68	6702.04
226.753	6698.44
226.825	6634.52
226.898	6673.36
226.971	6678.64
227.044	6691.61
227.117	6697.8
227.189	6704.67
227.262	6728.79
227.335	6742.77
227.407	6735.86
227.48	6763.56
227.553	6770.86
227.626	6757.78
227.698	6761.53
227.771	6790.52
227.844	6771.79
227.916	6793.12
227.989	6767.47
228.062	6768.09
228.134	6832.77
228.207	6835.22
228.28	6825.38
228.352	6840.31
228.425	6852.95
228.498	6889.46
228.57	6876.02
228.643	6922.34
228.716	6927.34
228.788	6918.06
228.861	6915.47
228.934	6961.29
229.006	6964.99
229.079	6965.76
229.151	6954.37
229.224	6930.22
229.296	6952.89
229.369	7035.41
229.442	7070.84
229.514	7060.76
229.587	7093.91
229.659	7039.36
229.732	7048.06
229.804	7080.67
229.877	7138.89
229.949	7157.73
230.022	7196.58
230.094	7200.42
230.167	7188.4
230.239	7155.6
230.312	7144.26
230.384	7192.24
230.457	7190.36
230.529	7196.46
230.602	7195.74
230.674	7206.6
230.747	7235.41
230.819	7249.73
230.892	7159.43
230.964	7160.49
231.037	7182.19
231.109	7177.96
231.181	7208.66
231.254	7183.68
231.326	7172.39
231.399	7155.84
231.471	7137.34
231.544	7073.54
231.616	7104.96
231.688	7118.66
231.761	7114.1
231.833	7113.43
231.905	7052.58
231.978	7051.61
232.05	7042.87
232.122	7051.19
232.195	7034.27
232.267	7066.8
232.339	7054.17
232.412	7103.88
232.484	7082.15
232.556	7063.85
232.629	7110.69
232.701	7121.17
232.773	7129.19
232.846	7122.22
232.918	7125.64
232.99	7137.22
233.062	7171.2
233.135	7181.77
233.207	7146.54
233.279	7175.26
233.351	7198.9
233.424	7204.76
233.496	7189.86
233.568	7252.06
233.64	7223.52
233.713	7233.85
233.785	7228.08
233.857	7242.16
233.929	7205.27
234.001	7255.81
234.074	7302.36
234.146	7250.67
234.218	7245.82
234.29	7248.07
234.362	7246.01
234.434	7214.57
234.507	7189.39
234.579	7152.15
234.651	7130.62
234.723	7156.52
234.795	7174.26
234.867	7168.34
234.939	7210.93
235.012	7225.01
235.084	7220.97
235.156	7248.02
235.228	7231.63
235.3	7219.9
235.372	7223.75
235.444	7267.42
235.516	7201.5
235.588	7201.31
235.66	7207.75
235.732	7187.33
235.804	7329.26
235.876	7361.93
235.948	7404.1
236.02	7411.54
236.092	7419.95
236.164	7436.09
236.236	7435.61
236.308	7434.89
236.38	7453.88
236.452	7441.38
236.524	7454.98
236.596	7504.69
236.668	7534.21
236.74	7550.98
236.812	7571.64
236.884	7596.6
236.956	7606.99
237.028	7606.84
237.1	7596.32
237.172	7650.37
237.244	7712.05
237.316	7622.85
237.388	7602.09
237.46	7591.61
237.532	7637.23
237.604	7633.53
237.675	7683.16
237.747	7718.51
237.819	7700.44
237.891	7703.18
237.963	7697.84
238.035	7697.65
238.107	7623.14
238.178	7662.49
238.25	7672.25
238.322	7737.05
238.394	7709.21
238.466	7703.54
238.538	7737.04
238.609	7769.44
238.681	7731.11
238.753	7710.04
238.825	7726.69
238.897	7757.49
238.968	7813.64
239.04	7802.29
239.112	7882.88
239.184	7856.19
239.255	7846.37
239.327	7875.83
239.399	7888.29
239.471	7916.99
239.542	7936.76
239.614	7978.79
239.686	7920
239.758	7955.06
239.829	7931.91
239.901	7976.16
239.973	7990.73
240.044	8013.19
240.116	8016.46
240.188	8029.44
240.259	8040.31
240.331	8034.06
240.403	8063.39
240.474	8030.38
240.546	8026.63
240.618	7987.13
240.689	7984.87
240.761	8003.2
240.833	8049.77
240.904	8058.38
240.976	8058.81
241.048	8075.26
241.119	8104.95
241.191	8142.37
241.262	8190.69
241.334	8193.82
241.405	8193.29
241.477	8199.45
241.549	8204.64
241.62	8228.6
241.692	8258.52
241.763	8301.83
241.835	8319.59
241.906	8327.91
241.978	8299.96
242.049	8348.07
242.121	8395.31
242.192	8445.73
242.264	8420.91
242.335	8388.58
242.407	8418.85
242.478	8420.05
242.55	8431.45
242.621	8417.25
242.693	8415.33
242.764	8411.86
242.836	8409.65
242.907	8434.43
242.979	8457.62
243.05	8470.91
243.122	8489.87
243.193	8484.96
243.264	8435.3
243.336	8435.88
243.407	8459.84
243.479	8518.45
243.55	8528.46
243.622	8533.32
243.693	8532.26
243.764	8583.12
243.836	8569.22
243.907	8556.32
243.978	8564.02
244.05	8585.25
244.121	8552
244.192	8580.92
244.264	8543.24
244.335	8556.96
244.407	8518.56
244.478	8526.64
244.549	8521.35
244.62	8484.59
244.692	8486.41
244.763	8522.69
244.834	8512.15
244.906	8498.96
244.977	8514.95
245.048	8560.69
245.119	8544.81
245.191	8527.05
245.262	8478.84
245.333	8535.22
245.405	8546.92
245.476	8575.36
245.547	8585.8
245.618	8629.83
245.689	8636.76
245.761	8657.84
245.832	8658.13
245.903	8692.63
245.974	8711.26
246.045	8724.44
246.117	8792.26
246.188	8778.16
246.259	8762.23
246.33	8782.49
246.401	8786.92
246.473	8762.42
246.544	8745.71
246.615	8785.95
246.686	8792.3
246.757	8851.83
246.828	8835.08
246.899	8894.35
246.97	8864.52
247.042	8859.42
247.113	8888.54
247.184	8956.93
247.255	8964.35
247.326	8987.74
247.397	8997.32
247.468	9008.4
247.539	9018.94
247.61	8981.53
247.681	9022.68
247.752	9061.9
247.823	9036.83
247.894	9050.26
247.965	9029.18
248.037	9018.59
248.108	8979.12
248.179	8983.78
248.25	8971.17
248.321	8993.55
248.392	8953.34
248.463	9017.89
248.534	9014.18
248.605	9032.38
248.675	9003.72
248.746	9015.32
248.817	9026.11
248.888	9038.48
248.959	8994.68
249.03	9014.18
249.101	9020
249.172	9005.75
249.243	8954.74
249.314	9005.28
249.385	9011.35
249.456	9035.46
249.527	9035.51
249.598	9059.28
249.669	9065.49
249.739	9080.37
249.81	9086.24
249.881	9059.57
249.952	9049.99
250.023	9047.49
250.094	9001.36
250.165	8986.38
250.235	8975.26
250.306	8981.81
250.377	8954.27
250.448	8975.35
250.519	8934.2
250.59	8972.95
250.66	8969.87
250.731	9018.72
250.802	9018.87
250.873	9036.92
250.944	9047.9
251.014	9039.14
251.085	9101.41
251.156	9117.39
251.227	9152.26
251.297	9195.4
251.368	9233.63
251.439	9266.09
251.51	9303.02
251.58	9295.85
251.651	9292.38
251.722	9338.51
251.792	9303.51
251.863	9312.8
251.934	9357.91
252.005	9436.11
252.075	9451.14
252.146	9493.36
252.217	9532.37
252.287	9567.14
252.358	9568.58
252.429	9626.96
252.499	9621.66
252.57	9627.68
252.641	9657.92
252.711	9663.65
252.782	9626.86
252.852	9683.36
252.923	9685.72
252.994	9701.09
253.064	9742.11
253.135	9720.34
253.205	9703.63
253.276	9755.93
253.347	9799.79
253.417	9784.43
253.488	9771.13
253.558	9761.21
253.629	9759.09
253.699	9765.4
253.77	9779.71
253.841	9772.3
253.911	9776.54
253.982	9786.65
254.052	9815.46
254.123	9827.41
254.193	9828.9
254.264	9939.08
254.334	9914.27
254.405	9883.88
254.475	9858.83
254.546	9859.55
254.616	9911.03
254.687	9935.17
254.757	9947.02
254.827	9949.86
254.898	9971.53
254.968	9975.62
255.039	9959.2
255.109	9985.07
255.18	9966.67
255.25	9914.36
255.321	9941.42
255.391	9918.4
255.461	9988.63
255.532	9926.96
255.602	9921.18
255.673	9882.07
255.743	9851.13
255.813	9800.04
255.884	9843.82
255.954	9870.94
256.024	9923.11
256.095	9926.58
256.165	9899.36
256.235	9918.59
256.306	9905.58
256.376	9941.91
256.446	9970.77
256.517	9997.74
256.587	10033.39
256.657	10045.33
256.728	10066.76
256.798	10073.32
256.868	10068.84
256.938	10042.1
257.009	10075.38
257.079	10097.83
257.149	10174.86
257.219	10127.88
257.29	10153.84
257.36	10105.05
257.43	10133.04
257.5	10081.93
257.571	10077.4
257.641	10107.36
257.711	10084.13
257.781	10109.85
257.852	10112.6
257.922	10068.23
257.992	10070.88
258.062	10061.68
258.132	10100.27
258.202	10104.41
258.273	10109.81
258.343	10164.97
258.413	10153.22
258.483	10150.52
258.553	10128.6
258.623	10108.85
258.693	10138.86
258.764	10197.53
258.834	10253.98
258.904	10260.97
258.974	10253.51
259.044	10259.53
259.114	10290.8
259.184	10315.75
259.254	10325.77
259.324	10298.94
259.394	10331.89
259.464	10390.62
259.535	10402.09
259.605	10396.16
259.675	10385.37
259.745	10421.36
259.815	10407.87
259.885	10411.53
259.955	10496.59
260.025	10496.64
260.095	10504.93
260.165	10515.82
260.235	10550.95
260.305	10541.84
260.375	10529.03
260.445	10600.9
260.515	10651.59
260.585	10681.71
260.655	10683.54
260.725	10714.38
260.795	10733.03
260.865	10783.43
260.934	10761.5
261.004	10782.18
261.074	10789.74
261.144	10844.18
261.214	10869.1
261.284	10871.94
261.354	10910.77
261.424	10883.39
261.494	10935.33
261.564	10942.7
261.634	10963.76
261.703	10915.19
261.773	10927.57
261.843	10947.23
261.913	10940.53
261.983	10898.42
262.053	10915.72
262.123	10916.44
262.192	10886.28
262.262	10917.7
262.332	10885.41
262.402	10909.84
262.472	10916.78
262.541	10869.42
262.611	10905.57
262.681	10893.23
262.751	10921.95
262.821	10924.41
262.89	10899.25
262.96	10917.47
263.03	10976.6
263.1	10996.36
263.169	11021.56
263.239	11052.26
263.309	11109.76
263.379	11140.26
263.448	11159.34
263.518	11176.55
263.588	11187.68
263.657	11244.21
263.727	11276.45
263.797	11292.55
263.867	11296.4
263.936	11265.61
264.006	11307.86
264.076	11299.71
264.145	11295.14
264.215	11275.14
264.285	11303.38
264.354	11275.81
264.424	11268.29
264.494	11231.47
264.563	11224.29
264.633	11276.63
264.702	11285.26
264.772	11241.54
264.842	11234.6
264.911	11261.15
264.981	11226.64
265.05	11238.4
265.12	11244.23
265.19	11248.72
265.259	11286.65
265.329	11308.67
265.398	11330.65
265.468	11411.18
265.537	11402.61
265.607	11430.03
265.676	11477.07
265.746	11497.74
265.815	11545.36
265.885	11552.2
265.955	11540.83
266.024	11550.95
266.094	11507.14
266.163	11568.16
266.232	11620.6
266.302	11630.09
266.371	11650.38
266.441	11670.39
266.51	11713.86
266.58	11713.62
266.649	11712.08
266.719	11742.35
266.788	11772.09
266.858	11829.4
266.927	11778.59
266.996	11806.98
267.066	11826.6
267.135	11792.62
267.205	11821.11
267.274	11838.03
267.343	11880.35
267.413	11898.18
267.482	11941.9
267.552	11988.94
267.621	11946.37
267.69	11914.85
267.76	11935.43
267.829	11961.36
267.898	11978.67
267.968	11959.73
268.037	11986.96
268.106	12028.27
268.176	12007.45
268.245	12009.95
268.314	12009.47
268.384	12051.69
268.453	12061.53
268.522	12079.41
268.592	12137.87
268.661	12134.84
268.73	12157.64
268.799	12150.07
268.869	12210.85
268.938	12181.5
269.007	12180
269.076	12204.34
269.146	12245.22
269.215	12271.73
269.284	12312.56
269.353	12312.03
269.422	12324.42
269.492	12321.43
269.561	12259.83
269.63	12290.53
269.699	12295.93
269.768	12303.69
269.838	12326.44
269.907	12364.96
269.976	12347.07
270.045	12310.92
270.114	12334.4
270.183	12341.05
270.253	12356.77
270.322	12328.42
270.391	12347.99
270.46	12396.78
270.529	12433.89
270.598	12468.12
270.667	12471.69
270.736	12456.89
270.806	12478.34
270.875	12520.08
270.944	12536.09
271.013	12631.91
271.082	12650.33
271.151	12670
271.22	12650.76
271.289	12659.92
271.358	12660.21
271.427	12694.77
271.496	12725.19
271.565	12729.91
271.634	12747.65
271.703	12794.51
271.772	12836.5
271.841	12849.46
271.91	12831.29
271.979	12842.57
272.048	12821.17
272.117	12861.03
272.186	12865.66
272.255	12916.9
272.324	12952.72
272.393	12978.85
272.462	12972.68
272.531	12985.36
272.6	13002.9
272.669	13059.01
272.738	13069.62
272.807	13103.85
272.876	13091.94
272.945	13191
273.013	13229.13
273.082	13281.73
273.151	13277.68
273.22	13305.25
273.289	13322.46
273.358	13388.99
273.427	13397.9
273.496	13437.72
273.564	13471.42
273.633	13515.86
273.702	13496.39
273.771	13501.84
273.84	13523.77
273.909	13561.71
273.977	13596.27
274.046	13608.81
274.115	13653.83
274.184	13658.03
274.253	13672.39
274.322	13731.3
274.39	13692.59
274.459	13693.41
274.528	13662.56
274.597	13678.85
274.665	13709.65
274.734	13766.88
274.803	13769.38
274.872	13794.88
274.94	13796.96
275.009	13886.71
275.078	13891.53
275.147	13932.6
275.215	13971.41
275.284	14030.22
275.353	14041.07
275.421	14026.75
275.49	14093.22
275.559	14097.61
275.627	14117.52
275.696	14136.18
275.765	14170.69
275.833	14185.78
275.902	14218.51
275.971	14277.52
276.039	14349
276.108	14389.35
276.177	14417.99
276.245	14431.15
276.314	14454.28
276.383	14501.43
276.451	14449.9
276.52	14495.55
276.588	14557.59
276.657	14593.94
276.725	14596.44
276.794	14621.8
276.863	14682.63
276.931	14661.86
277	14706.93
277.068	14765.5
277.137	14845.23
277.205	14873.18
277.274	14946.5
277.342	15008.69
277.411	14999.19
277.48	15001.84
277.548	15012.16
277.617	15046.72
277.685	15068.36
277.754	15117.24
277.822	15138.4
277.89	15204.24
277.959	15220.15
278.027	15207.71
278.096	15215.86
278.164	15322.86
278.233	15337.08
278.301	15350.87
278.37	15411.89
278.438	15424.38
278.507	15461.15
278.575	15432.52
278.643	15458.46
278.712	15450.16
278.78	15455.56
278.849	15515.87
278.917	15577.03
278.985	15602.77
279.054	15646.05
279.122	15711.7
279.191	15742.12
279.259	15764.77
279.327	15745.25
279.396	15814.51
279.464	15840.2
279.532	15887.68
279.601	15899.73
279.669	15934.48
279.737	15999.74
279.806	16039.12
279.874	16093.68
279.942	16125.73
280.011	16146.17
280.079	16208.68
280.147	16282.81
280.215	16328.65
280.284	16352.84
280.352	16349.47
280.42	16402.25
280.488	16411.31
280.557	16423.65
280.625	16462.68
280.693	16505.39
280.761	16559.08
280.83	16549.73
280.898	16611.23
280.966	16602.51
281.034	16563.9
281.102	16565.78
281.171	16576.19
281.239	16625.4
281.307	16648.72
281.375	16664.05
281.443	16766.66
281.512	16785.21
281.58	16846.47
281.648	16840.73
281.716	16879.96
281.784	16916.83
281.852	16935.53
281.92	16974.52
281.989	17036.84
282.057	17033.32
282.125	17132.06
282.193	17161.27
282.261	17193.46
282.329	17221.9
282.397	17270.43
282.465	17319.25
282.533	17394.97
282.601	17410.82
282.67	17388.94
282.738	17396.36
282.806	17456.51
282.874	17459.55
282.942	17499.16
283.01	17513.62
283.078	17563.74
283.146	17585.28
283.214	17645.86
283.282	17682.87
283.35	17740.89
283.418	17760.65
283.486	17807.11
283.554	17780.89
283.622	17813.85
283.69	17857.56
283.758	17886.53
283.826	17936.94
283.894	17993.27
283.962	18074.42
284.03	18152.93
284.098	18198.47
284.165	18236.73
284.233	18282.56
284.301	18312.54
284.369	18328.29
284.437	18336.2
284.505	18358.65
284.573	18442.07
284.641	18449.83
284.709	18513.88
284.777	18516.72
284.845	18580.91
284.912	18638.64
284.98	18693.38
285.048	18715.45
285.116	18766.01
285.184	18830.39
285.252	18865.95
285.319	18870.96
285.387	18881.95
285.455	18879.01
285.523	18937.27
285.591	18963.15
285.659	18997.61
285.726	19061.27
285.794	19064.98
285.862	19100.25
285.93	19139.28
285.997	19164.63
286.065	19201.16
286.133	19207.42
286.201	19239.23
286.269	19231.52
286.336	19241.98
286.404	19257.25
286.472	19313.73
286.539	19295.08
286.607	19283.18
286.675	19318.02
286.743	19369.97
286.81	19394.74
286.878	19462.45
286.946	19479.31
287.013	19515.89
287.081	19541
287.149	19543.02
287.216	19636.08
287.284	19663.64
287.352	19708.17
287.419	19726.92
287.487	19794.91
287.555	19837.85
287.622	19871.39
287.69	19921.75
287.758	19986.67
287.825	20013.6
287.893	20024.4
287.96	20075.82
288.028	20145.94
288.096	20193.84
288.163	20237.7
288.231	20252.44
288.298	20283.48
288.366	20346.9
288.433	20383.29
288.501	20406.75
288.569	20453.74
288.636	20467.29
288.704	20543.48
288.771	20598.9
288.839	20616.73
288.906	20623.72
288.974	20692.07
289.041	20720.5
289.109	20738.77
289.176	20792.7
289.244	20839.74
289.311	20916.85
289.379	20989
289.446	21023.12
289.514	21057.87
289.581	21098.26
289.649	21135.37
289.716	21178.22
289.783	21200.68
289.851	21290.28
289.918	21333.89
289.986	21394.05
290.053	21440.75
290.121	21471.02
290.188	21507.46
290.255	21625.9
290.323	21654.19
290.39	21673.28
290.458	21721.72
290.525	21796.28
290.592	21822.27
290.66	21866.56
290.727	21884.3
290.794	21956.51
290.862	22005.63
290.929	22053.94
290.996	22083.63
291.064	22150.39
291.131	22212.97
291.198	22280.99
291.266	22302.39
291.333	22335.94
291.4	22381.98
291.468	22465.49
291.535	22488.34
291.602	22529.12
291.669	22538.19
291.737	22585.57
291.804	22623.18
291.871	22703.59
291.938	22747.04
292.006	22845.75
292.073	22911.61
292.14	22973.42
292.207	22995.69
292.275	23029.78
292.342	23083.26
292.409	23189.92
292.476	23290.72
292.543	23303.11
292.611	23343.52
292.678	23426.85
292.745	23532.55
292.812	23594.04
292.879	23614.2
292.946	23659.09
293.014	23725.98
293.081	23786.41
293.148	23868.29
293.215	23946.62
293.282	23968.56
293.349	24038.02
293.416	24033.58
293.484	24107.23
293.551	24171.63
293.618	24246.73
293.685	24346.15
293.752	24371.66
293.819	24389.22
293.886	24385.85
293.953	24449.18
294.02	24507.4
294.087	24556.71
294.154	24562.55
294.221	24626.97
294.288	24666.43
294.356	24751.43
294.423	24812.03
294.49	24827.46
294.557	24893.18
294.624	24901.38
294.691	25000.15
294.758	25040.2
294.825	25091.2
294.892	25104.76
294.959	25139.31
295.026	25192.49
295.093	25220.29
295.16	25264.34
295.226	25317.09
295.293	25412.95
295.36	25461.3
295.427	25530.32
295.494	25595.83
295.561	25667.83
295.628	25764.03
295.695	25846.08
295.762	25902.9
295.829	25978.94
295.896	26065.43
295.963	26128
296.03	26206.58
296.096	26249.84
296.163	26321.54
296.23	26405.35
296.297	26491.38
296.364	26539.17
296.431	26591.95
296.498	26623.77
296.564	26729.02
296.631	26780.97
296.698	26796.62
296.765	26896.44
296.832	26916.96
296.899	26936.67
296.965	27032.3
297.032	27014.71
297.099	27101.09
297.166	27157.84
297.233	27186.39
297.299	27208.51
297.366	27253.48
297.433	27296.9
297.5	27365.75
297.566	27398.16
297.633	27442.76
297.7	27485.12
297.767	27517.63
297.833	27571.89
297.9	27622.07
297.967	27633.62
298.033	27694.2
298.1	27810.77
298.167	27831.94
298.234	27878.17
298.3	27928.81
298.367	27955.87
298.434	28023.1
298.5	28041.47
298.567	28078
298.634	28114.82
298.7	28209.78
298.767	28257.29
298.834	28327.76
298.9	28357.1
298.967	28386.72
299.033	28442.99
299.1	28520.44
299.167	28605.59
299.233	28638.32
299.3	28711.89
299.366	28782.21
299.433	28869.59
299.5	28841.6
299.566	28886.56
299.633	28975.66
299.699	29060.04
299.766	29087.74
299.832	29134.27
299.899	29200.96
299.965	29275.96
300.032	29312.42
300.099	29370.41
300.165	29425.69
300.232	29463.22
300.298	29507.42
300.365	29577.3
300.431	29616.62
300.498	29638.82
300.564	29681.24
300.631	29739.43
300.697	29813.98
300.763	29848.65
300.83	29896.08
300.896	29960.7
300.963	30032.54
301.029	30083.45
301.096	30125.35
301.162	30193.66
301.229	30239.24
301.295	30253.03
301.361	30296.59
301.428	30347.52
301.494	30348.39
301.561	30398.09
301.627	30438.35
301.693	30479.09
301.76	30526.9
301.826	30568.42
301.892	30638.12
301.959	30712.99
302.025	30757.42
302.092	30782.01
302.158	30853.05
302.224	30875.67
302.291	30899.62
302.357	30925.47
302.423	30939.36
302.49	30958.29
302.556	31019.82
302.622	31054.54
302.688	31118.58
302.755	31187.35
302.821	31234.68
302.887	31300.61
302.954	31333.15
303.02	31398.36
303.086	31455.97
303.152	31488.12
303.219	31531.36
303.285	31582.99
303.351	31640.53
303.417	31674.04
303.483	31691.03
303.55	31700.33
303.616	31733.51
303.682	31778.48
303.748	31800.42
303.815	31881.06
303.881	31949.54
303.947	31969.26
304.013	32006.41
304.079	32021.57
304.145	32004.56
304.212	32049.21
304.278	32066.7
304.344	32083.5
304.41	32086.17
304.476	32101.52
304.542	32129.08
304.608	32159.98
304.674	32150.92
304.741	32169.53
304.807	32218.46
304.873	32272.03
304.939	32358.41
305.005	32352.4
305.071	32387.62
305.137	32427.43
305.203	32402.67
305.269	32424.53
305.335	32479.19
305.401	32506.95
305.467	32531.7
305.533	32602.79
305.599	32656.47
305.666	32705.21
305.732	32756.62
305.798	32823.82
305.864	32916.78
305.93	32970.22
305.996	33003.12
306.062	33038.3
306.128	33057.88
306.194	33060.26
306.259	33089.53
306.325	33095.68
306.391	33157.42
306.457	33206.89
306.523	33247.21
306.589	33346.19
306.655	33360.68
306.721	33344.83
306.787	33346.09
306.853	33423.88
306.919	33404.4
306.985	33415.11
307.051	33438.62
307.117	33451.66
307.183	33473.37
307.248	33440.41
307.314	33486.03
307.38	33521.51
307.446	33568.82
307.512	33573.52
307.578	33618.16
307.644	33634.01
307.709	33670.52
307.775	33695.39
307.841	33728.36
307.907	33763.16
307.973	33743.04
308.039	33777.41
308.104	33822.06
308.17	33871.5
308.236	33864.42
308.302	33902.66
308.368	33885.12
308.433	33912.36
308.499	33935.92
308.565	33944.8
308.631	33977.28
308.696	33953.81
308.762	33957.98
308.828	33981.55
308.894	33970.79
308.959	33936.52
309.025	33953
309.091	33968.18
309.156	33991.7
309.222	34023.65
309.288	34016.14
309.354	33985.69
309.419	34018.04
309.485	34013.48
309.551	34040.59
309.616	34034.77
309.682	34045.92
309.748	34076.51
309.813	34088.49
309.879	34093.09
309.945	34092.51
310.01	34108.85
310.076	34139.35
310.141	34158.94
310.207	34149
310.273	34186.28
310.338	34255.03
310.404	34240.43
310.469	34233.5
310.535	34236.12
310.601	34191.65
310.666	34239.08
310.732	34304.54
310.797	34294.16
310.863	34306.67
310.928	34315.73
310.994	34343.42
311.059	34378.68
311.125	34403.89
311.191	34458.41
311.256	34459.33
311.322	34506.81
311.387	34487.66
311.453	35135.25
311.518	35118.19
311.584	35145.93
311.649	35184
311.715	35179.83
311.78	35225.84
311.846	35246.46
311.911	35283.03
311.976	35327.5
312.042	35318.57
312.107	35307.17
312.173	35322.06
312.238	35341.46
312.304	35365.76
312.369	35379.44
312.434	35382.4
312.5	35401.7
312.565	35351.69
312.631	35400.43
312.696	35396.41
312.761	35438.45
312.827	34826.75
312.892	34934.4
312.958	34952.63
313.023	34979.75
313.088	35013.17
313.154	35005.95
313.219	35008.13
313.284	35009.92
313.35	35032.72
313.415	35040.68
313.48	35056.92
313.546	35092.53
313.611	35138.13
313.676	35137.21
313.741	35144.53
313.807	35178.83
313.872	35217.21
313.937	35255.09
314.003	35303.99
314.068	35333.93
314.133	35367.55
314.198	35365.99
314.264	35340.42
314.329	35351.29
314.394	35359.49
314.459	35364.68
314.525	35431.28
314.59	35449.14
314.655	35446.47
314.72	35476.26
314.785	35492.31
314.851	35498.62
314.916	35476.16
314.981	35454.81
315.046	35469.07
315.111	35479.79
315.176	35489.84
315.242	35524.29
315.307	35554.66
315.372	35531.86
315.437	35528.07
315.502	35532.39
315.567	35581.2
315.632	35574.51
315.698	35592.56
315.763	35604.15
315.828	35611.38
315.893	35611.29
315.958	35620.07
316.023	35618.66
316.088	35591.78
316.153	35555.16
316.218	35560.88
316.283	35516.55
316.348	35488.42
316.413	35477.65
316.479	35435.36
316.544	35335.83
316.609	35236.67
316.674	35147.42
316.739	35040.49
316.804	34949.36
316.869	34854.35
316.934	34750.15
316.999	34650.39
317.064	34500.6
317.129	34372.03
317.194	34250.04
317.259	34110.13
317.324	33959.11
317.389	33809.7
317.454	33688.3
317.518	33576.72
317.583	33470.2
317.648	33379.47
317.713	33261.36
317.778	33085.51
317.843	32975.06
317.908	32851.08
317.973	32720.11
318.038	32599.61
318.103	32467.57
318.168	32353.49
318.233	32228.64
318.297	32055.23
318.362	31915.78
318.427	31774.46
318.492	31658.46
318.557	31490.67
318.622	31363.46
318.687	31249.74
318.751	31105.81
318.816	30964.1
318.881	30830.08
318.946	30641.6
319.011	30482.7
319.075	30316.15
319.14	30165.35
319.205	29987.5
319.27	29841.37
319.335	29664.1
319.399	29502.25
319.464	29368.73
319.529	29171.98
319.594	28998.85
319.658	28854.29
319.723	28682.85
319.788	28552
319.853	28347.71
319.917	28200.86
319.982	27996.91
320.047	27823.23
320.112	27674.91
320.176	27468.8
320.241	27297.29
320.306	27143.96
320.37	26960.71
320.435	26799.01
320.5	26639.65
320.564	26465.77
320.629	26277.54
320.694	26129.23
320.758	25938.05
320.823	25752.55
320.888	25593.57
320.952	25387.65
321.017	25205.7
321.082	25017.89
321.146	24838.62
321.211	24668.98
321.275	24483.21
321.34	24300.35
321.405	24104.79
321.469	23910.7
321.534	23723
321.598	23514.71
321.663	23343.39
321.727	23179.18
321.792	22981.81
321.857	22794.53
321.921	22612.42
321.986	22427.59
322.05	22194.11
322.115	22017.86
322.179	21820.6
322.244	21596.7
322.308	21426.84
322.373	21219.72
322.437	21029.96
322.502	20878.94
322.566	20675.07
322.631	20497.76
322.695	20300.35
322.76	20102.95
322.824	19919
322.889	19723.29
322.953	19519.34
323.018	19267.72
323.082	19006.18
323.146	18781.32
323.211	18554.43
323.275	18352.12
323.34	18142.24
323.404	17963.16
323.468	17750.97
323.533	17542.48
323.597	17339.34
323.662	17119.52
323.726	16930.79
323.79	16712.08
323.855	16446.48
323.919	16226.36
323.983	16012.99
324.048	15707.44
324.112	15825.46
324.177	15179.83
324.241	14350.06
324.305	13535.79
324.37	12735.01
324.434	11961.7
324.498	11743.06
324.562	11499.86
324.627	11219.12
324.691	10944.95
324.755	10631.82
324.82	10282.88
324.884	9916.41
324.948	9544.1
325.012	9089.91
325.077	8536.48
