Data from 20250626_urea_1M_exp2_MAYP1162681_20-53-59-553.txt Node
Date: Thu Jun 26 20:53:59 BST 2025
User: adleo
Spectrometer: MAYP116268
Trigger mode: 0
Integration Time (sec): 3.000000E0
Scans to average: 1
Electric dark correction enabled: true
Nonlinearity correction enabled: true
Boxcar width: 10
XAxis mode: Wavelengths
Number of Pixels in Spectrum: 2068
>>>>>Begin Spectral Data<<<<<
179.565	2985.69
179.642	3142.12
179.718	3257.17
179.795	3375.74
179.871	3463.62
179.948	3514.02
180.024	3573.56
180.101	3637.25
180.177	3674.89
180.254	3734.84
180.33	3794.88
180.407	4002.73
180.483	4240.71
180.56	4474.39
180.636	4697.23
180.712	4666.43
180.789	4692
180.865	4729.26
180.942	4753.67
181.018	4787.08
181.095	4824.55
181.171	4841.21
181.248	4844.8
181.324	4892.85
181.4	4903.33
181.477	4933.7
181.553	4965
181.63	5021.76
181.706	5060.47
181.782	5091.15
181.859	5096.7
181.935	5112.65
182.011	5105.99
182.088	5148.74
182.164	5201.03
182.24	5229.24
182.317	5256.73
182.393	5251.56
182.469	5287.3
182.546	5323.66
182.622	5331.71
182.698	5322.85
182.775	5355.39
182.851	5392.96
182.927	5369.04
183.003	5362.29
183.08	5348.15
183.156	5377.76
183.232	5369.47
183.308	5346.66
183.385	5356.91
183.461	5396.74
183.537	5401.34
183.613	5436
183.69	5410.06
183.766	5382.01
183.842	5401.9
183.918	5417.1
183.995	5447.95
184.071	5456.73
184.147	5443.07
184.223	5409.59
184.299	5439.56
184.375	5411.24
184.452	5426.06
184.528	5536.02
184.604	5564.91
184.68	5598.46
184.756	5619.18
184.832	5629.92
184.908	5642.52
184.985	5648.6
185.061	5610.5
185.137	5633.85
185.213	5600.15
185.289	5601.98
185.365	5584.34
185.441	5579.5
185.517	5613.27
185.593	5609.2
185.669	5601.38
185.745	5625.54
185.822	5671.72
185.898	5646.45
185.974	5664.66
186.05	5646.81
186.126	5578.9
186.202	5557.29
186.278	5541.04
186.354	5513.22
186.43	5526.99
186.506	5520.43
186.582	5517.17
186.658	5533.94
186.734	5479.69
186.81	5492.05
186.886	5501.92
186.962	5533.84
187.038	5521.19
187.114	5497.68
187.19	5514.03
187.266	5489.93
187.341	5497.75
187.417	5478.67
187.493	5481.93
187.569	5494.64
187.645	5478.96
187.721	5447.17
187.797	5469.69
187.873	5483.02
187.949	5464.96
188.025	5446.83
188.101	5451.38
188.176	5466.09
188.252	5454.07
188.328	5474.52
188.404	5467.23
188.48	5450.32
188.556	5429.13
188.632	5437.85
188.707	5442.55
188.783	5436.65
188.859	5423.15
188.935	5387.67
189.011	5409.14
189.086	5393.37
189.162	5365.57
189.238	5365.81
189.314	5357.43
189.39	5341.9
189.465	5322.63
189.541	5368.65
189.617	5334.19
189.693	5323.7
189.768	5329.98
189.844	5392.95
189.92	5368.58
189.996	5389.28
190.071	5425.52
190.147	5429.26
190.223	5447.19
190.298	5426.91
190.374	5391.92
190.45	5423.78
190.526	5447.8
190.601	5435.09
190.677	5439.26
190.753	5521.54
190.828	5520.44
190.904	5568.44
190.98	5609.39
191.055	5637.29
191.131	5616.38
191.207	5666.67
191.282	5693.6
191.358	5667.04
191.433	5631.54
191.509	5667.61
191.585	5661.61
191.66	5661.42
191.736	5681.8
191.811	5659.17
191.887	5701.47
191.963	5764.14
192.038	5775.84
192.114	5777.71
192.189	5788.21
192.265	5775.9
192.34	5713.51
192.416	5714.32
192.491	5700.89
192.567	5705.98
192.642	5711.54
192.718	5712.07
192.793	5683.92
192.869	5672.75
192.944	5683.58
193.02	5706.08
193.095	5716.1
193.171	5734.66
193.246	5734.9
193.322	5726.02
193.397	5725.16
193.473	5693.35
193.548	5649.56
193.624	5667.64
193.699	5659.73
193.775	5699.98
193.85	5705.35
193.925	5728.37
194.001	5722.57
194.076	5699.56
194.152	5669.09
194.227	5654.08
194.302	5627.82
194.378	5639.57
194.453	5627.73
194.529	5654.58
194.604	5613.68
194.679	5601.74
194.755	5548.88
194.83	5577.58
194.905	5570.2
194.981	5596.81
195.056	5571.07
195.131	5582.96
195.207	5572.07
195.282	5553.04
195.357	5502.87
195.433	5543.9
195.508	5511.82
195.583	5540.49
195.659	5579.05
195.734	5598.81
195.809	5597.47
195.884	5623.49
195.96	5621.33
196.035	5666.59
196.11	5659.92
196.185	5694.35
196.261	5699.38
196.336	5778.3
196.411	5736.99
196.486	5751.66
196.561	5733.54
196.637	5764.88
196.712	5813.93
196.787	5827.94
196.862	5864.38
196.937	5886.15
197.013	5902.17
197.088	5929.36
197.163	5985.43
197.238	6030.91
197.313	6031.44
197.388	6067.09
197.464	6141.39
197.539	6174.44
197.614	6153.72
197.689	6183.9
197.764	6224.52
197.839	6283.06
197.914	6272.55
197.989	6335.28
198.065	6370.98
198.14	6506.21
198.215	6573.19
198.29	6603.55
198.365	6639.42
198.44	6672.83
198.515	6748.84
198.59	6788.51
198.665	6860.17
198.74	6875.4
198.815	6873.38
198.89	6934.23
198.965	7008.91
199.04	7000.31
199.115	7041.51
199.19	7155.49
199.265	7168.6
199.34	7192.97
199.415	7281.82
199.49	7340.76
199.565	7363.54
199.64	7431.78
199.715	7424.13
199.79	7436.77
199.865	7447.59
199.94	7439.85
200.015	7522.88
200.09	7539.28
200.165	7555.19
200.24	7566.53
200.315	7664.49
200.39	7710.51
200.464	7720.94
200.539	7724.69
200.614	7764.82
200.689	7824.94
200.764	7837.78
200.839	7881.03
200.914	7892.18
200.989	7860.67
201.063	7894.77
201.138	7853.55
201.213	7851.33
201.288	7801.18
201.363	7815.85
201.438	7814.31
201.512	7858.81
201.587	7809.66
201.662	7815.91
201.737	7853.57
201.812	7879.92
201.886	7803.6
201.961	7826.55
202.036	7800.6
202.111	7793.58
202.186	7717.72
202.26	7671.4
202.335	7618.02
202.41	7603.46
202.485	7557.76
202.559	7509.3
202.634	7437.87
202.709	7460.88
202.784	7407.77
202.858	7405.31
202.933	7357.2
203.008	7340.77
203.082	7289.68
203.157	7288.15
203.232	7181.43
203.306	7117.63
203.381	7028.52
203.456	6961.21
203.53	6898.01
203.605	6846.35
203.68	6782.29
203.754	6767.03
203.829	6723.46
203.904	6668.91
203.978	6636.72
204.053	6647.81
204.127	6613.82
204.202	6609.59
204.277	6563.74
204.351	6547.94
204.426	6522.96
204.5	6501.4
204.575	6409.26
204.65	6432.7
204.724	6407.33
204.799	6425.51
204.873	6414.12
204.948	6414.99
205.022	6384.76
205.097	6363.04
205.171	6399.28
205.246	6426.76
205.32	6422.73
205.395	6426.76
205.469	6406.14
205.544	6426.79
205.618	6378.26
205.693	6405.96
205.767	6369.73
205.842	6424.23
205.916	6404.84
205.991	6381.75
206.065	6394.33
206.14	6438.21
206.214	6425
206.289	6406.07
206.363	6436.32
206.438	6443.9
206.512	6462.58
206.586	6511.06
206.661	6533.59
206.735	6472.04
206.81	6471.41
206.884	6515.47
206.958	6470.6
207.033	6510.9
207.107	6523.69
207.181	6614.13
207.256	6600.3
207.33	6653.63
207.405	6685.08
207.479	6737.13
207.553	6757.72
207.628	6713.24
207.702	6740.6
207.776	6720.29
207.851	6731.38
207.925	6773.76
207.999	6766.03
208.073	6752.68
208.148	6759.6
208.222	6729.95
208.296	6819.13
208.371	6865.87
208.445	6889.94
208.519	6973.48
208.593	7008.26
208.668	6996.34
208.742	6999.85
208.816	7000.91
208.89	7035.18
208.965	7029.65
209.039	7050.61
209.113	7095.77
209.187	7154.71
209.261	7144.77
209.336	7200.11
209.41	7251.34
209.484	7248.75
209.558	7312.39
209.632	7352.5
209.707	7384.51
209.781	7439.73
209.855	7476.7
209.929	7519.58
210.003	7538.23
210.077	7534.43
210.151	7659.11
210.226	7753.82
210.3	7827.79
210.374	7898.82
210.448	7913.01
210.522	7944.47
210.596	7972.46
210.67	7998.72
210.744	8121.62
210.818	8205.84
210.892	8262.12
210.966	8251.64
211.041	8297.67
211.115	8282.14
211.189	8348.09
211.263	8395.99
211.337	8409.75
211.411	8446.85
211.485	8426.01
211.559	8462.9
211.633	8469.58
211.707	8391.93
211.781	8406.57
211.855	8312.36
211.929	8285.72
212.003	8239.33
212.077	8262.96
212.151	8292.74
212.225	8319.45
212.299	8293.35
212.373	8265.65
212.447	8254.96
212.52	8330.36
212.594	8336.28
212.668	8368.94
212.742	8326.93
212.816	8313.41
212.89	8302.4
212.964	8302.78
213.038	8312.65
213.112	8336.18
213.186	8373.84
213.26	8310.38
213.333	8181.39
213.407	8194.32
213.481	8194.13
213.555	8214.31
213.629	8178.27
213.703	8127.85
213.777	8116.2
213.85	8053.56
213.924	8141.82
213.998	8131.05
214.072	8109.77
214.146	8072.87
214.219	8062.48
214.293	8050.07
214.367	8046.65
214.441	8068.78
214.515	8031.49
214.588	7961.75
214.662	7859.66
214.736	7804.55
214.81	7817.28
214.883	7841.06
214.957	7804.1
215.031	7765.66
215.105	7698.86
215.178	7653.28
215.252	7628.04
215.326	7556.45
215.4	7494.33
215.473	7347.83
215.547	7286.24
215.621	7230.77
215.694	7224.09
215.768	7148.53
215.842	7096.01
215.915	7045.24
215.989	6955.5
216.063	6910.16
216.136	6896.37
216.21	6887.01
216.284	6889.6
216.357	6873.8
216.431	6840.84
216.504	6835.37
216.578	6877.36
216.652	6886.58
216.725	6868.08
216.799	6876.92
216.873	6855.12
216.946	6863.86
217.02	6837.03
217.093	6813.21
217.167	6737.9
217.24	6673.14
217.314	6640.55
217.387	6607.25
217.461	6567.15
217.535	6577.9
217.608	6526.09
217.682	6505.78
217.755	6511.15
217.829	6468.94
217.902	6458.27
217.976	6443.35
218.049	6409.64
218.123	6347.92
218.196	6348.54
218.27	6316.85
218.343	6256.82
218.417	6257.83
218.49	6238.96
218.563	6273.38
218.637	6276.98
218.71	6331.47
218.784	6354.66
218.857	6380.63
218.931	6395.45
219.004	6399.63
219.077	6420.57
219.151	6438.86
219.224	6433.05
219.298	6434.01
219.371	6471.03
219.444	6436.87
219.518	6447.66
219.591	6460.19
219.665	6546.44
219.738	6556.04
219.811	6544.58
219.885	6577.9
219.958	6603.5
220.031	6608.73
220.105	6624.39
220.178	6637.02
220.251	6621.21
220.325	6640.48
220.398	6656.52
220.471	6671.92
220.544	6706.79
220.618	6685.18
220.691	6707.51
220.764	6715.72
220.838	6734.5
220.911	6720.18
220.984	6786.15
221.057	6813.86
221.131	6831.05
221.204	6757.18
221.277	6817.15
221.35	6912.83
221.424	6915.24
221.497	6923.55
221.57	6942.51
221.643	6972.21
221.716	7003.16
221.79	7005.75
221.863	7012.68
221.936	7019.78
222.009	7031.12
222.082	7049.96
222.155	7061.05
222.229	7105.61
222.302	7135.78
222.375	7136.83
222.448	7165.76
222.521	7172.54
222.594	7174.6
222.667	7155.4
222.74	7199.84
222.814	7192.1
222.887	7177.96
222.96	7214.39
223.033	7245.16
223.106	7263.74
223.179	7280.72
223.252	7287.69
223.325	7313.4
223.398	7325.9
223.471	7346.9
223.544	7368.9
223.617	7381.21
223.69	7397.4
223.763	7375.91
223.837	7389.9
223.91	7418.35
223.983	7387.12
224.056	7366.36
224.129	7380.73
224.202	7426.22
224.275	7419.39
224.348	7397.57
224.42	7375.89
224.493	7332.55
224.566	7313.56
224.639	7330.81
224.712	7309.65
224.785	7302.77
224.858	7294.51
224.931	7281.72
225.004	7251.16
225.077	7253.04
225.15	7180.06
225.223	7180.06
225.296	7241.48
225.369	7198.38
225.442	7173.86
225.514	7182.22
225.587	7193.22
225.66	7204.76
225.733	7205.82
225.806	7206.3
225.879	7195.68
225.952	7170.65
226.025	7212.7
226.097	7255.36
226.17	7249.88
226.243	7198.28
226.316	7193.33
226.389	7198.09
226.461	7212.61
226.534	7232.21
226.607	7219.62
226.68	7282.4
226.753	7278.66
226.825	7212.72
226.898	7258.85
226.971	7261.97
227.044	7283.64
227.117	7289.75
227.189	7302.54
227.262	7331.34
227.335	7348.79
227.407	7351.33
227.48	7376.41
227.553	7384.2
227.626	7371.4
227.698	7377.79
227.771	7413.29
227.844	7399.93
227.916	7412.81
227.989	7392.19
228.062	7385.61
228.134	7459.22
228.207	7464.7
228.28	7456.44
228.352	7464.75
228.425	7475.09
228.498	7513.17
228.57	7499.23
228.643	7542.03
228.716	7540.01
228.788	7526.64
228.861	7527.6
228.934	7576.11
229.006	7582.98
229.079	7586.58
229.151	7579.66
229.224	7553.33
229.296	7570.53
229.369	7650.76
229.442	7694.48
229.514	7679.3
229.587	7720.5
229.659	7653.99
229.732	7663.95
229.804	7700.77
229.877	7767.34
229.949	7785.96
230.022	7825.65
230.094	7827.19
230.167	7820.89
230.239	7781.91
230.312	7769.84
230.384	7820.5
230.457	7819.15
230.529	7835.69
230.602	7828.91
230.674	7833.91
230.747	7866.35
230.819	7888.81
230.892	7797.67
230.964	7793.29
231.037	7810.88
231.109	7805.69
231.181	7840.97
231.254	7809.53
231.326	7794.48
231.399	7775.71
231.471	7747.29
231.544	7683.83
231.616	7720.8
231.688	7722.77
231.761	7714.89
231.833	7711.34
231.905	7642.89
231.978	7646.16
232.05	7628.38
232.122	7633.23
232.195	7612.12
232.267	7641.22
232.339	7626.45
232.412	7675.34
232.484	7652.34
232.556	7632.02
232.629	7683.07
232.701	7698.99
232.773	7704.66
232.846	7699.27
232.918	7693.55
232.99	7710.52
233.062	7741.98
233.135	7750.3
233.207	7722.5
233.279	7765.03
233.351	7791.19
233.424	7796.14
233.496	7773.2
233.568	7841.6
233.64	7814
233.713	7830.4
233.785	7827.46
233.857	7841.84
233.929	7802.52
234.001	7866.38
234.074	7919.54
234.146	7859.46
234.218	7854.84
234.29	7861.28
234.362	7855.7
234.434	7824.06
234.507	7803.62
234.579	7763.99
234.651	7745.72
234.723	7764.09
234.795	7774.91
234.867	7770.19
234.939	7817.47
235.012	7833.82
235.084	7829.97
235.156	7860.26
235.228	7845.88
235.3	7832.61
235.372	7834.58
235.444	7889.3
235.516	7810.39
235.588	7813.99
235.66	7832.17
235.732	7810.82
235.804	7965.59
235.876	7996.74
235.948	8052.26
236.02	8056.87
236.092	8066.92
236.164	8077.69
236.236	8087.84
236.308	8090.25
236.38	8115.74
236.452	8097.55
236.524	8108.95
236.596	8165.19
236.668	8196.51
236.74	8209.68
236.812	8232
236.884	8262.41
236.956	8270.25
237.028	8276.31
237.1	8260.01
237.172	8314.96
237.244	8379.43
237.316	8284.22
237.388	8273.97
237.46	8251.74
237.532	8302.11
237.604	8296.2
237.675	8356.78
237.747	8385.36
237.819	8373.63
237.891	8378.78
237.963	8370.02
238.035	8366.03
238.107	8280.16
238.178	8323.87
238.25	8337.29
238.322	8415.33
238.394	8386.65
238.466	8382.27
238.538	8413.97
238.609	8451.54
238.681	8409.48
238.753	8391.09
238.825	8407.79
238.897	8436.27
238.968	8505.83
239.04	8490.1
239.112	8581.76
239.184	8550.76
239.255	8554.7
239.327	8586.84
239.399	8595.31
239.471	8642.7
239.542	8671.13
239.614	8722
239.686	8657.31
239.758	8699.71
239.829	8663.64
239.901	8710.27
239.973	8727.4
240.044	8750.26
240.116	8761.09
240.188	8776.01
240.259	8787.65
240.331	8778.56
240.403	8808.39
240.474	8763.27
240.546	8759.14
240.618	8705.9
240.689	8704.84
240.761	8722.94
240.833	8771.95
240.904	8780.32
240.976	8771.37
241.048	8785.23
241.119	8814.6
241.191	8855.22
241.262	8912.1
241.334	8918.5
241.405	8920.33
241.477	8919.75
241.549	8929.77
241.62	8947.1
241.692	8981.42
241.763	9029.09
241.835	9047.72
241.906	9060.14
241.978	9042.19
242.049	9097.74
242.121	9151.4
242.192	9208.79
242.264	9179.33
242.335	9141.64
242.407	9175.24
242.478	9183.38
242.55	9203.55
242.621	9185.92
242.693	9180.87
242.764	9167.96
242.836	9170.08
242.907	9193.86
242.979	9221.59
243.05	9240.18
243.122	9262.23
243.193	9260.4
243.264	9201.9
243.336	9207.44
243.407	9237.78
243.479	9302.25
243.55	9308.31
243.622	9319.49
243.693	9318.33
243.764	9375.34
243.836	9355.46
243.907	9346.26
243.978	9351.51
244.05	9371.59
244.121	9339.15
244.192	9380.8
244.264	9335.72
244.335	9339.53
244.407	9301.06
244.478	9313.91
244.549	9313.58
244.62	9275.59
244.692	9272.08
244.763	9313.38
244.834	9301.29
244.906	9273.6
244.977	9285.79
245.048	9336.04
245.119	9322.46
245.191	9296.21
245.262	9243.92
245.333	9310.26
245.405	9323.31
245.476	9349.98
245.547	9361.35
245.618	9406.65
245.689	9406.65
245.761	9441.85
245.832	9451.29
245.903	9490.72
245.974	9509.65
246.045	9514.23
246.117	9587.66
246.188	9580.97
246.259	9566.58
246.33	9585.55
246.401	9597.06
246.473	9582.03
246.544	9571.09
246.615	9618.58
246.686	9626.19
246.757	9694.47
246.828	9673.57
246.899	9729.98
246.97	9708.6
247.042	9702.73
247.113	9735.14
247.184	9809.78
247.255	9804.53
247.326	9834.29
247.397	9839.21
247.468	9846.14
247.539	9857.75
247.61	9823.65
247.681	9855.09
247.752	9894.53
247.823	9879.56
247.894	9896.22
247.965	9863.47
248.037	9844.88
248.108	9795.7
248.179	9803.17
248.25	9790.16
248.321	9816.07
248.392	9782.73
248.463	9845
248.534	9847.75
248.605	9863.45
248.675	9840.61
248.746	9855.16
248.817	9860.17
248.888	9874.28
248.959	9832.38
249.03	9850.3
249.101	9856.61
249.172	9849.38
249.243	9796.46
249.314	9844.14
249.385	9858.11
249.456	9888.69
249.527	9884.84
249.598	9911.04
249.669	9913.06
249.739	9922.36
249.81	9928.04
249.881	9891.48
249.952	9886.04
250.023	9883.25
250.094	9845.72
250.165	9822.45
250.235	9822.49
250.306	9826.3
250.377	9804.87
250.448	9826.34
250.519	9780.01
250.59	9819.03
250.66	9817.73
250.731	9877.35
250.802	9873.64
250.873	9882.41
250.944	9896.33
251.014	9897.34
251.085	9966.96
251.156	9986.18
251.227	10029.64
251.297	10078.35
251.368	10120.88
251.439	10151.52
251.51	10191.65
251.58	10179.51
251.651	10181.15
251.722	10224.13
251.792	10192.33
251.863	10192.38
251.934	10243.54
252.005	10334.11
252.075	10347.41
252.146	10387.29
252.217	10420.73
252.287	10458.4
252.358	10466.64
252.429	10525.23
252.499	10517.38
252.57	10522.44
252.641	10554.19
252.711	10553.71
252.782	10514.25
252.852	10575.4
252.923	10571.74
252.994	10582.05
253.064	10621.06
253.135	10598.28
253.205	10579.05
253.276	10632.43
253.347	10688.27
253.417	10670.49
253.488	10652.27
253.558	10644.47
253.629	10640.71
253.699	10649.91
253.77	10669.77
253.841	10661.58
253.911	10674.16
253.982	10685.23
254.052	10708.18
254.123	10725.28
254.193	10728.95
254.264	10839.21
254.334	10809.28
254.405	10783.55
254.475	10756.52
254.546	10762.35
254.616	10817.42
254.687	10844.21
254.757	10857.37
254.827	10858.38
254.898	10877.84
254.968	10882.28
255.039	10867.58
255.109	10896.2
255.18	10879.24
255.25	10822.96
255.321	10852.45
255.391	10814.38
255.461	10894.08
255.532	10826.08
255.602	10823.19
255.673	10789.7
255.743	10767.48
255.813	10714.15
255.884	10753.95
255.954	10786.66
256.024	10835.29
256.095	10837.99
256.165	10807.92
256.235	10830.57
256.306	10817.61
256.376	10853.37
256.446	10892.16
256.517	10915.92
256.587	10956.83
256.657	10974.66
256.728	10996.68
256.798	11002.37
256.868	11000.3
256.938	10969.5
257.009	11016.68
257.079	11036.05
257.149	11107.08
257.219	11059.18
257.29	11090.25
257.36	11043.12
257.43	11069.82
257.5	11025.15
257.571	11021.63
257.641	11052.47
257.711	11022.06
257.781	11045
257.852	11058.83
257.922	11003.6
257.992	11005.1
258.062	10984.9
258.132	11015.94
258.202	11016.18
258.273	11024.37
258.343	11081.05
258.413	11073.58
258.483	11073.48
258.553	11059.07
258.623	11035.26
258.693	11053.19
258.764	11112.27
258.834	11172.74
258.904	11184.89
258.974	11176.55
259.044	11179.54
259.114	11215.35
259.184	11239.4
259.254	11252.32
259.324	11216.12
259.394	11257.37
259.464	11320.07
259.535	11339.59
259.605	11335.69
259.675	11330.68
259.745	11356.17
259.815	11339.64
259.885	11343.11
259.955	11431.42
260.025	11419.76
260.095	11437.45
260.165	11466.17
260.235	11511.87
260.305	11505.6
260.375	11488.73
260.445	11561.74
260.515	11613.41
260.585	11641.9
260.655	11651.01
260.725	11681.23
260.795	11706.14
260.865	11758.83
260.934	11736.22
261.004	11757.28
261.074	11761.81
261.144	11812.7
261.214	11844.81
261.284	11849.58
261.354	11877.67
261.424	11841.47
261.494	11895.5
261.564	11890.29
261.634	11908.08
261.703	11855.06
261.773	11868.65
261.843	11890.43
261.913	11884.5
261.983	11844.74
262.053	11862.58
262.123	11863.4
262.192	11837.56
262.262	11868.65
262.332	11832.84
262.402	11862.87
262.472	11871.59
262.541	11829.13
262.611	11872.03
262.681	11855.06
262.751	11886.97
262.821	11889.05
262.89	11863.88
262.96	11882.54
263.03	11958.46
263.1	11976.44
263.169	11996.49
263.239	12027.82
263.309	12078.67
263.379	12097.81
263.448	12117.33
263.518	12132.42
263.588	12143.36
263.657	12207.66
263.727	12245.31
263.797	12264.4
263.867	12263.67
263.936	12233.74
264.006	12279.09
264.076	12265.25
264.145	12261.88
264.215	12246.31
264.285	12278.41
264.354	12246.41
264.424	12244.14
264.494	12201.63
264.563	12195.55
264.633	12256.92
264.702	12273.5
264.772	12238.36
264.842	12240.24
264.911	12266.94
264.981	12236.57
265.05	12247.27
265.12	12236.23
265.19	12238.07
265.259	12265.98
265.329	12292.1
265.398	12322.18
265.468	12405.81
265.537	12404.56
265.607	12435.07
265.676	12477.78
265.746	12497.59
265.815	12543.24
265.885	12548.11
265.955	12537.12
266.024	12542.32
266.094	12492.87
266.163	12544.88
266.232	12598.1
266.302	12614.1
266.371	12634.4
266.441	12653.39
266.51	12692.87
266.58	12691.23
266.649	12687.9
266.719	12733.07
266.788	12762.82
266.858	12818.74
266.927	12760.99
266.996	12783.54
267.066	12811.5
267.135	12789.33
267.205	12826.79
267.274	12857.54
267.343	12898.61
267.413	12918.91
267.482	12964.36
267.552	13015.17
267.621	12975.84
267.69	12932.5
267.76	12944.31
267.829	12966.15
267.898	12981.57
267.968	12970.48
268.037	13007.41
268.106	13046.36
268.176	13025.01
268.245	13024.76
268.314	13017.1
268.384	13063.81
268.453	13082.08
268.522	13101.8
268.592	13157.96
268.661	13145.76
268.73	13167.5
268.799	13154.68
268.869	13220.91
268.938	13186.98
269.007	13181.43
269.076	13204.81
269.146	13256.97
269.215	13281.89
269.284	13339.02
269.353	13337.24
269.422	13343.45
269.492	13330.49
269.561	13260.01
269.63	13285.75
269.699	13287.1
269.768	13298.96
269.838	13317.42
269.907	13354.64
269.976	13335.4
270.045	13290.86
270.114	13321.52
270.183	13323.88
270.253	13354.11
270.322	13305.47
270.391	13328.99
270.46	13383.51
270.529	13420.3
270.598	13453.61
270.667	13465.95
270.736	13434.32
270.806	13465.8
270.875	13522.01
270.944	13542.69
271.013	13652.6
271.082	13671.5
271.151	13701.19
271.22	13678.2
271.289	13688.61
271.358	13695.79
271.427	13723.9
271.496	13748.48
271.565	13745.45
271.634	13771.29
271.703	13873.14
271.772	13935.04
271.841	13948.2
271.91	13925.21
271.979	13938.85
272.048	13917.11
272.117	13951.86
272.186	13960.4
272.255	13997.66
272.324	14022.77
272.393	14052.76
272.462	14044.47
272.531	14071.56
272.6	14079.95
272.669	14141.55
272.738	14150.57
272.807	14182.19
272.876	14167.01
272.945	14277.54
273.013	14329.94
273.082	14373.85
273.151	14307.33
273.22	14329.94
273.289	14352.17
273.358	14422.64
273.427	14429.63
273.496	14473.79
273.564	14508.11
273.633	14555.83
273.702	14543.88
273.771	14559.69
273.84	14591.84
273.909	14628.77
273.977	14663.38
274.046	14675.96
274.115	14712.21
274.184	14713.85
274.253	14724.88
274.322	14793.91
274.39	14747.88
274.459	14748.46
274.528	14713.85
274.597	14736.6
274.665	14759.79
274.734	14814.4
274.803	14821.05
274.872	14840.67
274.94	14835.27
275.009	15015.62
275.078	15013.69
275.147	15050.18
275.215	15068.69
275.284	15120.51
275.353	15129.04
275.421	15096.41
275.49	15175.6
275.559	15187.9
275.627	15218.07
275.696	15236.73
275.765	15272.3
275.833	15285.99
275.902	15319.06
275.971	15392.86
276.039	15457.93
276.108	15508.25
276.177	15539.63
276.245	15542.86
276.314	15574.09
276.383	15628.32
276.451	15501.09
276.52	15544.91
276.588	15611.76
276.657	15660.1
276.725	15662.76
276.794	15696.45
276.863	15768.46
276.931	15749.47
277	15799.02
277.068	15853.63
277.137	15933.69
277.205	15965.89
277.274	16054.67
277.342	16113.04
277.411	16089.18
277.48	16097.95
277.548	16104.99
277.617	16142.1
277.685	16172.8
277.754	16227.99
277.822	16246.5
277.89	16312.62
277.959	16335.18
278.027	16322.41
278.096	16332.24
278.164	16444.05
278.233	16466.08
278.301	16468.05
278.37	16515.72
278.438	16521.75
278.507	16568.06
278.575	16536.74
278.643	16560.4
278.712	16539.29
278.78	16542.57
278.849	16607.06
278.917	16663.83
278.985	16696.22
279.054	16733.62
279.122	16791.16
279.191	16812.71
279.259	16837.77
279.327	16813.29
279.396	16897.19
279.464	16924.28
279.532	16984.71
279.601	17005.82
279.669	17026.45
279.737	17099.08
279.806	17140.72
279.874	17214.69
279.942	17240.28
280.011	17271.52
280.079	17323.32
280.147	17410.07
280.215	17454.17
280.284	17484.53
280.352	17483.86
280.42	17534.17
280.488	17543.71
280.557	17568.24
280.625	17609.3
280.693	17652.72
280.761	17702.17
280.83	17682.51
280.898	17749.69
280.966	17725.3
281.034	17668.34
281.102	17670.32
281.171	17689.45
281.239	17744.43
281.307	17747.37
281.375	17752.1
281.443	17857.06
281.512	17875.51
281.58	17935.27
281.648	17933.39
281.716	17970.4
281.784	18012.47
281.852	18028.91
281.92	18075.17
281.989	18131.99
282.057	18123.5
282.125	18238.44
282.193	18270.15
282.261	18304.22
282.329	18328.6
282.397	18377.56
282.465	18436.6
282.533	18515.49
282.601	18519.2
282.67	18504.6
282.738	18516.65
282.806	18593.22
282.874	18580.84
282.942	18624.59
283.01	18636.35
283.078	18691.77
283.146	18722.9
283.214	18773.64
283.282	18814.46
283.35	18874.02
283.418	18903.32
283.486	18961.49
283.554	18919.47
283.622	18953.54
283.69	18993.97
283.758	19022.74
283.826	19084.76
283.894	19140.42
283.962	19227.02
284.03	19309.81
284.098	19349.71
284.165	19383.2
284.233	19416.84
284.301	19449.56
284.369	19469.17
284.437	19476.45
284.505	19492.2
284.573	19560.1
284.641	19575.14
284.709	19633.93
284.777	19629.21
284.845	19684.97
284.912	19733.21
284.98	19784.1
285.048	19802.74
285.116	19849.2
285.184	19922.74
285.252	19953.97
285.319	19957.2
285.387	19970.55
285.455	19964.33
285.523	20015.75
285.591	20053.58
285.659	20088.52
285.726	20161.87
285.794	20167.55
285.862	20202.06
285.93	20249.77
285.997	20277.96
286.065	20304.47
286.133	20314.68
286.201	20340.56
286.269	20330.68
286.336	20349.14
286.404	20373
286.472	20442.35
286.539	20434.35
286.607	20423.07
286.675	20468.37
286.743	20529.87
286.81	20561.58
286.878	20640.81
286.946	20658.64
287.013	20696.76
287.081	20730.64
287.149	20718.35
287.216	20813.35
287.284	20846.89
287.352	20882.46
287.419	20911.81
287.487	20996.83
287.555	21043.24
287.622	21074.67
287.69	21134.67
287.758	21207.6
287.825	21237.14
287.893	21238.97
287.96	21291.02
288.028	21364.04
288.096	21392.77
288.163	21428.92
288.231	21429.35
288.298	21460.15
288.366	21526.62
288.433	21555.59
288.501	21572.12
288.569	21625.04
288.636	21641.48
288.704	21707.57
288.771	21773.65
288.839	21794.23
288.906	21807.88
288.974	21882.55
289.041	21927.86
289.109	21936.49
289.176	21981.61
289.244	22033.77
289.311	22099.81
289.379	22170.71
289.446	22209.72
289.514	22255.71
289.581	22298.37
289.649	22348.26
289.716	22388.04
289.783	22413.54
289.851	22508.17
289.918	22556.62
289.986	22621.47
290.053	22673
290.121	22707.53
290.188	22741.76
290.255	22856.66
290.323	22884.14
290.39	22905.69
290.458	22958.97
290.525	23031.53
290.592	23065.91
290.66	23110.36
290.727	23141.99
290.794	23213.84
290.862	23245.38
290.929	23291.29
290.996	23321.81
291.064	23388.74
291.131	23456.26
291.198	23531.78
291.266	23554.49
291.333	23598.42
291.4	23646.6
291.468	23718.95
291.535	23747.98
291.602	23801.8
291.669	23802.62
291.737	23850.79
291.804	23879.01
291.871	23952.7
291.938	24004.17
292.006	24101.24
292.073	24159.94
292.14	24216.75
292.207	24225.24
292.275	24273.86
292.342	24337.59
292.409	24451.3
292.476	24545.39
292.543	24561.65
292.611	24598.41
292.678	24678.83
292.745	24775.61
292.812	24837.37
292.879	24859.28
292.946	24897.72
293.014	24964.16
293.081	25028.38
293.148	25094.96
293.215	25169.27
293.282	25194.6
293.349	25266.74
293.416	25256.66
293.484	25329.48
293.551	25408.43
293.618	25503.93
293.685	25605.39
293.752	25626.77
293.819	25649.36
293.886	25655.39
293.953	25711.18
294.02	25767.9
294.087	25816.89
294.154	25832
294.221	25904.91
294.288	25953.75
294.356	26049.08
294.423	26108.22
294.49	26138.73
294.557	26211.77
294.624	26234.17
294.691	26336.71
294.758	26373.6
294.825	26442.74
294.892	26463.84
294.959	26496.82
295.026	26538.2
295.093	26558.63
295.16	26604.1
295.226	26651.05
295.293	26757.5
295.36	26804.58
295.427	26884.95
295.494	26963.36
295.561	27044.82
295.628	27144.29
295.695	27233.35
295.762	27287.21
295.829	27353.55
295.896	27437.88
295.963	27514.51
296.03	27598.94
296.096	27641.21
296.163	27719.24
296.23	27802.5
296.297	27873.51
296.364	27921.38
296.431	27992.94
296.498	28026.52
296.564	28136
296.631	28183.11
296.698	28176.83
296.765	28282.81
296.832	28302.67
296.899	28307.12
296.965	28393.93
297.032	28386.19
297.099	28477.77
297.166	28549.6
297.233	28583.93
297.299	28610.51
297.366	28651.32
297.433	28696.37
297.5	28756.27
297.566	28796.54
297.633	28828.26
297.7	28892.8
297.767	28929.58
297.833	28995.3
297.9	29048.67
297.967	29052.24
298.033	29131.5
298.1	29263.54
298.167	29279.54
298.234	29333.79
298.3	29413.29
298.367	29433.85
298.434	29495.91
298.5	29497.31
298.567	29520.04
298.634	29553.56
298.7	29645.84
298.767	29686.71
298.834	29765.95
298.9	29801.65
298.967	29830.04
299.033	29892.06
299.1	29970.74
299.167	30052.04
299.233	30073.38
299.3	30160.27
299.366	30235.77
299.433	30304.64
299.5	30280.64
299.566	30326.99
299.633	30413.03
299.699	30472.8
299.766	30517.17
299.832	30564.02
299.899	30628.64
299.965	30700.31
300.032	30750.73
300.099	30802.04
300.165	30866.46
300.232	30898.6
300.298	30938.72
300.365	31009.05
300.431	31058.09
300.498	31080.84
300.564	31140.1
300.631	31207.19
300.697	31279.05
300.763	31328.28
300.83	31389.89
300.896	31459.99
300.963	31539.2
301.029	31582.98
301.096	31631.41
301.162	31684.76
301.229	31719.92
301.295	31743.7
301.361	31795.86
301.428	31843.06
301.494	31842.92
301.561	31883.99
301.627	31925.64
301.693	31986.17
301.76	32040.03
301.826	32068.26
301.892	32141.51
301.959	32207.39
302.025	32238.15
302.092	32257.43
302.158	32317.59
302.224	32343.86
302.291	32361.54
302.357	32386.77
302.423	32415.94
302.49	32435.27
302.556	32511.83
302.622	32552.72
302.688	32616.14
302.755	32691.06
302.821	32757.77
302.887	32829.27
302.954	32868.91
303.02	32933.75
303.086	32995.48
303.152	33025.23
303.219	33053.87
303.285	33100.31
303.351	33146.26
303.417	33194.82
303.483	33207.03
303.55	33240.08
303.616	33280.27
303.682	33325.04
303.748	33356
303.815	33433.81
303.881	33501.76
303.947	33516.02
304.013	33569
304.079	33590.13
304.145	33567.06
304.212	33603.6
304.278	33618.77
304.344	33635.11
304.41	33642.38
304.476	33651.25
304.542	33677.72
304.608	33735.59
304.674	33732.44
304.741	33752.61
304.807	33790.96
304.873	33855.39
304.939	33916.39
305.005	33900.77
305.071	33937.08
305.137	33973.1
305.203	33949.39
305.269	33981.78
305.335	34033.23
305.401	34042.74
305.467	34073.04
305.533	34139.47
305.599	34186.75
305.666	34250.12
305.732	34295.26
305.798	34360.68
305.864	34451.52
305.93	34510.92
305.996	34537.01
306.062	34580.32
306.128	34606.7
306.194	34617.56
306.259	34643.27
306.325	34649.87
306.391	34723.87
306.457	34780.66
306.523	34821.54
306.589	34914.68
306.655	34919.19
306.721	34910.51
306.787	34934.22
306.853	34999.95
306.919	34991.02
306.985	34995.1
307.051	35004.27
307.117	35028.61
307.183	35044.96
307.248	35017.12
307.314	35061.8
307.38	35100.17
307.446	35146.26
307.512	35163.14
307.578	35203.98
307.644	35235.13
307.709	35268.7
307.775	35283.74
307.841	35294.17
307.907	35323.57
307.973	35300.76
308.039	35342.09
308.104	35398.27
308.17	35432.66
308.236	35429.46
308.302	35469.77
308.368	35478.89
308.433	35519.01
308.499	35543.46
308.565	35547.64
308.631	35580.53
308.696	35551.66
308.762	35555.4
308.828	35573.84
308.894	35549.24
308.959	35525.76
309.025	35524.99
309.091	35545.56
309.156	35560.75
309.222	35608.69
309.288	35612.23
309.354	35591.81
309.419	35624.81
309.485	35617.19
309.551	35649.36
309.616	35657.95
309.682	35682.36
309.748	35700.89
309.813	35719.67
309.879	35720.88
309.945	35721.41
310.01	35744.17
310.076	35775.32
310.141	35800.17
310.207	35800.75
310.273	35841.74
310.338	35899.77
310.404	35886.53
310.469	35884.73
310.535	35880.61
310.601	35852.56
310.666	35907.49
310.732	35966.79
310.797	35966.11
310.863	35965.28
310.928	35988.14
310.994	36017.8
311.059	36043.91
311.125	36071.81
311.191	36139.77
311.256	36151.95
311.322	36199.31
311.387	36171.11
311.453	37245.09
311.518	37246.4
311.584	37272.27
311.649	37320.85
311.715	37309.3
311.78	37360.29
311.846	37383.73
311.911	37435.04
311.976	37466.14
312.042	37445.27
312.107	37437.85
312.173	37437.26
312.238	37461.38
312.304	37472.01
312.369	37477.5
312.434	37468.08
312.5	37469.44
312.565	37400.61
312.631	37430.89
312.696	37427.3
312.761	37467.58
312.827	36429.33
312.892	36530.94
312.958	36556.14
313.023	36576.23
313.088	36617.58
313.154	36595.84
313.219	36595.36
313.284	36594.48
313.35	36614.53
313.415	36625.11
313.48	36641.76
313.546	36680.98
313.611	36732.92
313.676	36735.69
313.741	36748.6
313.807	36801.56
313.872	36848.69
313.937	36894.12
314.003	36948.93
314.068	36993.06
314.133	37027.23
314.198	37022.86
314.264	36986.11
314.329	36969.79
314.394	36984.55
314.459	37002.71
314.525	37085.08
314.59	37106.29
314.655	37106.97
314.72	37148.24
314.785	37169.65
314.851	37164.41
314.916	37142.51
314.981	37134.45
315.046	37132.95
315.111	37126.3
315.176	37124.31
315.242	37151.3
315.307	37178.54
315.372	37154.9
315.437	37151.3
315.502	37157.18
315.567	37224.86
315.632	37211.89
315.698	37240.73
315.763	37247.39
315.828	37236.8
315.893	37242.97
315.958	37249.43
316.023	37246.27
316.088	37207.53
316.153	37166.41
316.218	37181.12
316.283	37150.64
316.348	37102.93
316.413	37105.21
316.479	37075.75
316.544	36978.49
316.609	36895.82
316.674	36793.94
316.739	36702.99
316.804	36619.32
316.869	36514.24
316.934	36397.45
316.999	36300.25
317.064	36149.23
317.129	36012.48
317.194	35890.16
317.259	35739.18
317.324	35575.41
317.389	35432.1
317.454	35307.31
317.518	35196.52
317.583	35089.68
317.648	34986.31
317.713	34867.04
317.778	34671.86
317.843	34554.63
317.908	34423.67
317.973	34285.7
318.038	34173.93
318.103	34034.7
318.168	33893.6
318.233	33770.12
318.297	33581.61
318.362	33434.58
318.427	33289.21
318.492	33182.96
318.557	33021.86
318.622	32887.32
318.687	32789.12
318.751	32624.48
318.816	32474.47
318.881	32318.98
318.946	32116.44
319.011	31936.26
319.075	31766.37
319.14	31624.37
319.205	31444.18
319.27	31301.12
319.335	31122.57
319.399	30939.87
319.464	30792.92
319.529	30595.23
319.594	30416.94
319.658	30278.75
319.723	30093.35
319.788	29939.09
319.853	29716.53
319.917	29558.78
319.982	29351.67
320.047	29162.17
320.112	29037.66
320.176	28832.6
320.241	28669.86
320.306	28506.72
320.37	28332.96
320.435	28164.57
320.5	28003.97
320.564	27821.13
320.629	27611.22
320.694	27431.69
320.758	27243.06
320.823	27046.13
320.888	26883.62
320.952	26680.37
321.017	26481.56
321.082	26294.04
321.146	26116.85
321.211	25945.67
321.275	25753.52
321.34	25560.14
321.405	25354.79
321.469	25121.3
321.534	24923.62
321.598	24695.94
321.663	24530.47
321.727	24349.12
321.792	24134.84
321.857	23926.25
321.921	23729.99
321.986	23550.65
322.05	23306.41
322.115	23120.55
322.179	22912.44
322.244	22684.19
322.308	22500.02
322.373	22288.27
322.437	22092.84
322.502	21936.62
322.566	21724.17
322.631	21538.54
322.695	21337.64
322.76	21131.4
322.824	20951.81
322.889	20744.09
322.953	20541.72
323.018	20272.68
323.082	20018.5
323.146	19790.98
323.211	19559.22
323.275	19350.93
323.34	19125.39
323.404	18951.27
323.468	18729.54
323.533	18514.03
323.597	18292
323.662	18061.98
323.726	17877.26
323.79	17647.09
323.855	17376.72
323.919	17150.74
323.983	16923.36
324.048	16597.1
324.112	16679.26
324.177	16009.02
324.241	15136.03
324.305	14273.95
324.37	13431.05
324.434	12605.93
324.498	12373.6
324.562	12116.22
324.627	11819.84
324.691	11531.28
324.755	11199.81
324.82	10830.63
324.884	10446.95
324.948	10052.13
325.012	9569.24
325.077	8962.66
