Data from 20250626_urea_1M_exp2_MAYP1162681_17-44-00-473.txt Node
Date: Thu Jun 26 17:44:00 BST 2025
User: adleo
Spectrometer: MAYP116268
Trigger mode: 0
Integration Time (sec): 3.000000E0
Scans to average: 1
Electric dark correction enabled: true
Nonlinearity correction enabled: true
Boxcar width: 10
XAxis mode: Wavelengths
Number of Pixels in Spectrum: 2068
>>>>>Begin Spectral Data<<<<<
179.565	3267.2
179.642	3434.42
179.718	3564.92
179.795	3693.73
179.871	3791.02
179.948	3850.19
180.024	3912.63
180.101	3982.88
180.177	4022.92
180.254	4089.34
180.33	4154.41
180.407	4384.95
180.483	4637.34
180.56	4891.24
180.636	5132.94
180.712	5100.02
180.789	5123.97
180.865	5158.98
180.942	5181.25
181.018	5214.55
181.095	5258.31
181.171	5274.22
181.248	5280.6
181.324	5327.49
181.4	5342.11
181.477	5372.26
181.553	5405.79
181.63	5465.52
181.706	5507.62
181.782	5540.91
181.859	5541.24
181.935	5561.05
182.011	5553.13
182.088	5598.06
182.164	5658.6
182.24	5692.15
182.317	5720.96
182.393	5717.79
182.469	5755.53
182.546	5795.19
182.622	5805.6
182.698	5792.5
182.775	5834.14
182.851	5872.31
182.927	5846.46
183.003	5831.55
183.08	5818.08
183.156	5846.37
183.232	5838.65
183.308	5812.22
183.385	5832.12
183.461	5881.53
183.537	5880.23
183.613	5914
183.69	5893.04
183.766	5863.33
183.842	5884.72
183.918	5902.23
183.995	5936.33
184.071	5946.79
184.147	5931.87
184.223	5901.44
184.299	5939.34
184.375	5902.36
184.452	5920.46
184.528	6033.51
184.604	6070.96
184.68	6102.62
184.756	6121.91
184.832	6136.6
184.908	6147.91
184.985	6146.52
185.061	6100.76
185.137	6128.93
185.213	6097.89
185.289	6102.54
185.365	6082.02
185.441	6076.5
185.517	6111.64
185.593	6107.32
185.669	6099.21
185.745	6127.28
185.822	6170.62
185.898	6149.41
185.974	6172.04
186.05	6149.24
186.126	6086.14
186.202	6062.63
186.278	6048.24
186.354	6023.67
186.43	6039.95
186.506	6034.1
186.582	6032.23
186.658	6049.25
186.734	5989.1
186.81	5996.35
186.886	6001.43
186.962	6037.26
187.038	6025.37
187.114	6003.47
187.19	6022.43
187.266	5996.43
187.341	5994.51
187.417	5973.46
187.493	5968.95
187.569	5979.6
187.645	5961.27
187.721	5923.07
187.797	5942.45
187.873	5955.21
187.949	5934.59
188.025	5914.72
188.101	5924.21
188.176	5933.8
188.252	5922.1
188.328	5949.86
188.404	5944.78
188.48	5936.81
188.556	5909.75
188.632	5913.93
188.707	5918.73
188.783	5908.79
188.859	5893.55
188.935	5863.61
189.011	5893.01
189.086	5879.06
189.162	5855.31
189.238	5853.34
189.314	5847.25
189.39	5833.72
189.465	5820.53
189.541	5868.65
189.617	5825.63
189.693	5813.69
189.768	5825.3
189.844	5890.62
189.92	5864.31
189.996	5889.44
190.071	5916.16
190.147	5916.93
190.223	5939.15
190.298	5915.01
190.374	5885.41
190.45	5922.19
190.526	5947.23
190.601	5936.25
190.677	5931.93
190.753	6014.76
190.828	6023.92
190.904	6068.65
190.98	6111.55
191.055	6140.01
191.131	6114.86
191.207	6168.77
191.282	6193.91
191.358	6169.01
191.433	6133.62
191.509	6168.28
191.585	6157.44
191.66	6159.89
191.736	6181.52
191.811	6156.95
191.887	6204.15
191.963	6260.49
192.038	6278.1
192.114	6278.82
192.189	6280.4
192.265	6272.49
192.34	6207.65
192.416	6203.96
192.491	6188.98
192.567	6195.85
192.642	6204.2
192.718	6203.63
192.793	6176.27
192.869	6165.67
192.944	6168.69
193.02	6191.78
193.095	6203.39
193.171	6227.29
193.246	6229.93
193.322	6225.42
193.397	6227.82
193.473	6188.55
193.548	6145.01
193.624	6152.93
193.699	6149.96
193.775	6199.03
193.85	6208.71
193.925	6234.82
194.001	6233.34
194.076	6213.86
194.152	6182.07
194.227	6158.21
194.302	6133.71
194.378	6143.79
194.453	6130.36
194.529	6170.43
194.604	6130.12
194.679	6115
194.755	6054.76
194.83	6089.05
194.905	6078.98
194.981	6101.68
195.056	6081.53
195.131	6102.21
195.207	6095.92
195.282	6064.93
195.357	6003.29
195.433	6048.73
195.508	6007.99
195.583	6030.01
195.659	6070.43
195.734	6088.23
195.809	6086.46
195.884	6111.35
195.96	6107.41
196.035	6153.62
196.11	6144.54
196.185	6174.34
196.261	6182.26
196.336	6274.77
196.411	6229.01
196.486	6246.62
196.561	6225.46
196.637	6251.51
196.712	6292
196.787	6301.98
196.862	6349.44
196.937	6377.94
197.013	6394.56
197.088	6428.63
197.163	6489.11
197.238	6539.33
197.313	6539.38
197.388	6581.58
197.464	6669.35
197.539	6707.22
197.614	6687.25
197.689	6715.93
197.764	6765.17
197.839	6821.5
197.914	6806.07
197.989	6873.7
198.065	6911.69
198.14	7063.94
198.215	7138.17
198.29	7169.8
198.365	7211.65
198.44	7235.72
198.515	7316.84
198.59	7358.99
198.665	7429.06
198.74	7452.14
198.815	7451.37
198.89	7516.2
198.965	7597.57
199.04	7587.04
199.115	7633.27
199.19	7754.06
199.265	7767.04
199.34	7790.93
199.415	7887.73
199.49	7951.23
199.565	7978.07
199.64	8051.21
199.715	8035.33
199.79	8050.38
199.865	8062.07
199.94	8053.27
200.015	8146.06
200.09	8169.15
200.165	8182.91
200.24	8204.85
200.315	8311.68
200.39	8355.02
200.464	8371.91
200.539	8373.54
200.614	8417.17
200.689	8480.64
200.764	8499.8
200.839	8543.51
200.914	8565.98
200.989	8530.36
201.063	8570.83
201.138	8520.97
201.213	8513.18
201.288	8459.2
201.363	8469.3
201.438	8474.5
201.512	8524.51
201.587	8477.4
201.662	8481.25
201.737	8514.31
201.812	8537.36
201.886	8444.48
201.961	8472.26
202.036	8439.8
202.111	8428.1
202.186	8345.16
202.26	8294.05
202.335	8236.36
202.41	8222.6
202.485	8169.46
202.559	8122.08
202.634	8037.61
202.709	8063.76
202.784	8010.23
202.858	8007.87
202.933	7955.46
203.008	7940.16
203.082	7878.27
203.157	7874.81
203.232	7753.21
203.306	7692.46
203.381	7601.07
203.456	7533.91
203.53	7464.23
203.605	7405.67
203.68	7336.81
203.754	7314.19
203.829	7274.14
203.904	7212.2
203.978	7176.76
204.053	7187.19
204.127	7150.58
204.202	7145.82
204.277	7099.07
204.351	7085.23
204.426	7063.74
204.5	7044.43
204.575	6940.64
204.65	6971.5
204.724	6943.99
204.799	6970.83
204.873	6959.19
204.948	6953.19
205.022	6923.42
205.097	6901.78
205.171	6946.74
205.246	6980.58
205.32	6982.36
205.395	6981.49
205.469	6960.32
205.544	6980.17
205.618	6927.04
205.693	6958.13
205.767	6924.65
205.842	6982.7
205.916	6960.75
205.991	6937.59
206.065	6952.15
206.14	6998.56
206.214	6983.65
206.289	6967.65
206.363	7002.86
206.438	7014.5
206.512	7039.44
206.586	7094.48
206.661	7117.32
206.735	7049.91
206.81	7049.47
206.884	7093.23
206.958	7053.36
207.033	7090.09
207.107	7103.13
207.181	7202.15
207.256	7183.99
207.33	7239.48
207.405	7275.37
207.479	7329.91
207.553	7350.95
207.628	7310.32
207.702	7341.84
207.776	7323.48
207.851	7330.69
207.925	7372.91
207.999	7363.83
208.073	7353.97
208.148	7361.14
208.222	7328.21
208.296	7418.94
208.371	7466.04
208.445	7496.81
208.519	7581.48
208.593	7619.02
208.668	7612.53
208.742	7608.29
208.816	7621.56
208.89	7659.17
208.965	7654.45
209.039	7679.9
209.113	7722.06
209.187	7782.88
209.261	7771.83
209.336	7827.84
209.41	7890.07
209.484	7889.78
209.558	7956.35
209.632	7989.72
209.707	8014.2
209.781	8076.09
209.855	8123.52
209.929	8169.79
210.003	8185.09
210.077	8178.98
210.151	8315.85
210.226	8414.32
210.3	8495.21
210.374	8556.73
210.448	8566.45
210.522	8590.51
210.596	8617.17
210.67	8649.65
210.744	8782.41
210.818	8878.42
210.892	8935.89
210.966	8916.21
211.041	8960.69
211.115	8947.35
211.189	9018.05
211.263	9071.09
211.337	9086.97
211.411	9125.54
211.485	9106.03
211.559	9144.1
211.633	9158.39
211.707	9070.16
211.781	9089.14
211.855	8991.65
211.929	8967.83
212.003	8915.69
212.077	8944.58
212.151	8974.82
212.225	8997.93
212.299	8959.39
212.373	8922.86
212.447	8911.54
212.52	8989.48
212.594	8997.47
212.668	9033.91
212.742	8994.53
212.816	8977.25
212.89	8965.79
212.964	8955.83
213.038	8964.69
213.112	8997.53
213.186	9032.23
213.26	8971.28
213.333	8835.65
213.407	8847.73
213.481	8852.92
213.555	8890.2
213.629	8848.74
213.703	8798.29
213.777	8792.28
213.85	8732.64
213.924	8831.88
213.998	8825.86
214.072	8802.5
214.146	8755.33
214.219	8737.9
214.293	8722.46
214.367	8722.17
214.441	8743.39
214.515	8706.23
214.588	8627.35
214.662	8516.53
214.736	8448.3
214.81	8461.72
214.883	8483.64
214.957	8438.72
215.031	8394.97
215.105	8314.4
215.178	8264.85
215.252	8238.3
215.326	8156.99
215.4	8090.5
215.473	7929.28
215.547	7859.57
215.621	7805.71
215.694	7803.98
215.768	7719.04
215.842	7661.73
215.915	7604.38
215.989	7504.25
216.063	7455.43
216.136	7441.44
216.21	7421.64
216.284	7432.12
216.357	7411.93
216.431	7374.53
216.504	7376.45
216.578	7420.16
216.652	7429.77
216.725	7407.8
216.799	7413.33
216.873	7392.52
216.946	7402.61
217.02	7371.01
217.093	7348.95
217.167	7262.78
217.24	7193.64
217.314	7162.66
217.387	7127.61
217.461	7090.07
217.535	7110.35
217.608	7059.52
217.682	7037.89
217.755	7049.33
217.829	7005.06
217.902	6992.28
217.976	6978.15
218.049	6933.81
218.123	6870.5
218.196	6865.89
218.27	6834.18
218.343	6774.01
218.417	6777.56
218.49	6756.57
218.563	6797.06
218.637	6806.24
218.71	6871.92
218.784	6893.35
218.857	6924.33
218.931	6944.11
219.004	6953.81
219.077	6971.31
219.151	6990.42
219.224	6984.61
219.298	6981.78
219.371	7013.78
219.444	6982.9
219.518	6992.8
219.591	7008.45
219.665	7100.64
219.738	7115.87
219.811	7106.31
219.885	7147.3
219.958	7173.54
220.031	7177.82
220.105	7191.47
220.178	7196.52
220.251	7171.66
220.325	7195.12
220.398	7207.91
220.471	7225.63
220.544	7251.59
220.618	7229.28
220.691	7249.51
220.764	7260.18
220.838	7287.58
220.911	7280.22
220.984	7351.96
221.057	7380.17
221.131	7405.26
221.204	7316.34
221.277	7382.69
221.35	7496.68
221.424	7484.75
221.497	7487.06
221.57	7511.56
221.643	7540.8
221.716	7571.24
221.79	7584.65
221.863	7591.68
221.936	7593.98
222.009	7608.06
222.082	7639.71
222.155	7653.89
222.229	7708.96
222.302	7739
222.375	7735.93
222.448	7767.04
222.521	7771.89
222.594	7774.68
222.667	7747.44
222.74	7802.72
222.814	7789.64
222.887	7766.92
222.96	7815.93
223.033	7858.4
223.106	7873.78
223.179	7900.54
223.252	7913.19
223.325	7934.4
223.398	7951.76
223.471	7984.17
223.544	7997.01
223.617	8001.91
223.69	8022.21
223.763	7987.86
223.837	8007.49
223.91	8037.02
223.983	7998.89
224.056	7968.45
224.129	7985.14
224.202	8037.82
224.275	8023.53
224.348	7996.07
224.42	7969.95
224.493	7926.33
224.566	7904.01
224.639	7927.24
224.712	7900.92
224.785	7895.77
224.858	7891.58
224.931	7869.89
225.004	7830.94
225.077	7831.9
225.15	7752.39
225.223	7752.92
225.296	7822.74
225.369	7769.66
225.442	7738.78
225.514	7754.74
225.587	7770.75
225.66	7788.46
225.733	7785.91
225.806	7794.61
225.879	7793.7
225.952	7765
226.025	7802.27
226.097	7846.98
226.17	7837.21
226.243	7781.92
226.316	7769.32
226.389	7769.99
226.461	7789.57
226.534	7808.03
226.607	7801.3
226.68	7872.63
226.753	7865.03
226.825	7798.24
226.898	7849.88
226.971	7858.49
227.044	7872.91
227.117	7878.49
227.189	7884.7
227.262	7919.19
227.335	7929.58
227.407	7927.56
227.48	7957.7
227.553	7963.96
227.626	7948.22
227.698	7950.86
227.771	7988.31
227.844	7975.71
227.916	7994.95
227.989	7967.15
228.062	7971.23
228.134	8052.89
228.207	8060.29
228.28	8051.06
228.352	8067.03
228.425	8075.21
228.498	8117.64
228.57	8102.06
228.643	8157.01
228.716	8161.68
228.788	8148.98
228.861	8150.13
228.934	8208.62
229.006	8216.56
229.079	8223.01
229.151	8211.17
229.224	8186.79
229.296	8207.71
229.369	8298.05
229.442	8335.92
229.514	8324.1
229.587	8360.9
229.659	8288.72
229.732	8291.89
229.804	8334.36
229.877	8398.19
229.949	8422.98
230.022	8460.72
230.094	8468.17
230.167	8457.39
230.239	8417.37
230.312	8407.6
230.384	8469.31
230.457	8459.44
230.529	8473.06
230.602	8475.66
230.674	8486.92
230.747	8517.5
230.819	8540.88
230.892	8441.99
230.964	8441.99
231.037	8463.58
231.109	8456.8
231.181	8493.89
231.254	8473.15
231.326	8457.76
231.399	8440.95
231.471	8416.65
231.544	8349.79
231.616	8382.74
231.688	8387.99
231.761	8380.3
231.833	8373.75
231.905	8298.38
231.978	8299.73
232.05	8276.98
232.122	8283.19
232.195	8264.76
232.267	8296.56
232.339	8281.74
232.412	8335.43
232.484	8314.1
232.556	8287.66
232.629	8343.93
232.701	8355.24
232.773	8363.42
232.846	8356.49
232.918	8356.44
232.99	8378.29
233.062	8418.23
233.135	8430.55
233.207	8397.92
233.279	8440.69
233.351	8467.58
233.424	8473.54
233.496	8454.3
233.568	8531
233.64	8496.03
233.713	8507.72
233.785	8511.81
233.857	8521.63
233.929	8475.68
234.001	8533.65
234.074	8595.27
234.146	8533.17
234.218	8532.07
234.29	8535.92
234.362	8527.4
234.434	8492.51
234.507	8462.91
234.579	8420.08
234.651	8402.38
234.723	8431.44
234.795	8441.88
234.867	8441.64
234.939	8495.11
235.012	8511.85
235.084	8516.86
235.156	8548.95
235.228	8535.24
235.3	8518.39
235.372	8533.7
235.444	8588.98
235.516	8521.63
235.588	8525.38
235.66	8543.67
235.732	8523.69
235.804	8688.85
235.876	8725.8
235.948	8780.34
236.02	8791.36
236.092	8807.62
236.164	8822.01
236.236	8823.21
236.308	8819.5
236.38	8839.43
236.452	8823.93
236.524	8838.7
236.596	8891.84
236.668	8919.37
236.74	8941.89
236.812	8969.04
236.884	8998.69
236.956	9018.38
237.028	9013.91
237.1	8997.07
237.172	9057.97
237.244	9122.62
237.316	9022.6
237.388	9013.65
237.46	8991.06
237.532	9042.43
237.604	9035.07
237.675	9098.1
237.747	9140.03
237.819	9133.58
237.891	9139.7
237.963	9134.45
238.035	9138.25
238.107	9046.03
238.178	9104.02
238.25	9110.86
238.322	9186.43
238.394	9155.42
238.466	9146.7
238.538	9183.04
238.609	9225.64
238.681	9184.66
238.753	9168.67
238.825	9184.52
238.897	9214.46
238.968	9289.5
239.04	9276.59
239.112	9367.2
239.184	9337.68
239.255	9336.77
239.327	9371.81
239.399	9391.21
239.471	9430.79
239.542	9458.66
239.614	9512.25
239.686	9445.5
239.758	9496.97
239.829	9470.53
239.901	9520.17
239.973	9543.57
240.044	9582.1
240.116	9589.42
240.188	9603.48
240.259	9616.29
240.331	9612
240.403	9640.65
240.474	9600.81
240.546	9593.97
240.618	9543.93
240.689	9536.52
240.761	9554
240.833	9606.02
240.904	9610.26
240.976	9605.88
241.048	9620.95
241.119	9658.28
241.191	9699.75
241.262	9750.62
241.334	9754.53
241.405	9757.46
241.477	9755.15
241.549	9760.6
241.62	9792.43
241.692	9829.42
241.763	9887.04
241.835	9905.63
241.906	9919.74
241.978	9897.78
242.049	9955.43
242.121	10010.63
242.192	10074.97
242.264	10045.98
242.335	10012.21
242.407	10053.3
242.478	10067.61
242.55	10088.13
242.621	10083.79
242.693	10085.53
242.764	10088.18
242.836	10094.58
242.907	10128.31
242.979	10159.95
243.05	10183.9
243.122	10200.23
243.193	10201
243.264	10140.64
243.336	10154.08
243.407	10185.44
243.479	10254.52
243.55	10275
243.622	10291.19
243.693	10286.8
243.764	10353.76
243.836	10334.45
243.907	10325.35
243.978	10327.37
244.05	10346.93
244.121	10301.6
244.192	10333.11
244.264	10284.45
244.335	10293.6
244.407	10247.11
244.478	10256.07
244.549	10243.35
244.62	10214.21
244.692	10211.37
244.763	10251.15
244.834	10229.14
244.906	10213.91
244.977	10230.49
245.048	10270.73
245.119	10258.06
245.191	10243.46
245.262	10182.14
245.333	10252.46
245.405	10266.29
245.476	10304.11
245.547	10322.18
245.618	10370.78
245.689	10381.43
245.761	10411.73
245.832	10418.77
245.903	10463.62
245.974	10491.08
246.045	10509.25
246.117	10579.54
246.188	10576.94
246.259	10562.15
246.33	10584.75
246.401	10598.38
246.473	10571.45
246.544	10560.89
246.615	10605.8
246.686	10620.11
246.757	10693.87
246.828	10672.28
246.899	10738.69
246.97	10701.31
247.042	10693.69
247.113	10736.44
247.184	10815.87
247.255	10815.38
247.326	10843.04
247.397	10847.48
247.468	10858.9
247.539	10875.33
247.61	10838.27
247.681	10884.04
247.752	10934.64
247.823	10912.96
247.894	10925.24
247.965	10904.48
248.037	10896.38
248.108	10856.68
248.179	10862.07
248.25	10850.17
248.321	10880.24
248.392	10834.64
248.463	10909.18
248.534	10910.96
248.605	10921.57
248.675	10897.8
248.746	10912.84
248.817	10923.39
248.888	10939.82
248.959	10894.29
249.03	10908.12
249.101	10916.26
249.172	10895.11
249.243	10828.33
249.314	10887.17
249.385	10899.31
249.456	10923.59
249.527	10913.04
249.598	10933.66
249.669	10934.29
249.739	10948.26
249.81	10957.23
249.881	10926.15
249.952	10920.17
250.023	10915.3
250.094	10880.51
250.165	10849.57
250.235	10851.97
250.306	10856.65
250.377	10837.66
250.448	10864.16
250.519	10816.8
250.59	10861.18
250.66	10866.1
250.731	10934.61
250.802	10931.76
250.873	10943.09
250.944	10962.56
251.014	10964.87
251.085	11040.15
251.156	11064.87
251.227	11108.2
251.297	11152.26
251.368	11198.08
251.439	11238.62
251.51	11284.45
251.58	11272.45
251.651	11278.76
251.722	11328.12
251.792	11287.88
251.863	11289.23
251.934	11340.17
252.005	11439.3
252.075	11454.68
252.146	11492.7
252.217	11539.21
252.287	11579.5
252.358	11591.5
252.429	11658.45
252.499	11653.87
252.57	11665.15
252.641	11699.28
252.711	11709.16
252.782	11674.41
252.852	11740.15
252.923	11737.69
252.994	11751.72
253.064	11794.75
253.135	11775.14
253.205	11750.56
253.276	11814.13
253.347	11876.39
253.417	11857.93
253.488	11837.4
253.558	11827.33
253.629	11832.82
253.699	11841.5
253.77	11868.2
253.841	11863.14
253.911	11872.73
253.982	11892.44
254.052	11920.31
254.123	11931.39
254.193	11927.44
254.264	12044.57
254.334	12018.5
254.405	11986.11
254.475	11958.05
254.546	11964.08
254.616	12018.98
254.687	12052.43
254.757	12071.66
254.827	12066.31
254.898	12092
254.968	12096.53
255.039	12081.83
255.109	12111.91
255.18	12082.21
255.25	12021.82
255.321	12053.97
255.391	12016.27
255.461	12083.95
255.532	12012.7
255.602	12011.45
255.673	11971.06
255.743	11942.42
255.813	11880.3
255.884	11923.29
255.954	11961.81
256.024	12019.65
256.095	12026.11
256.165	11995.16
256.235	12007.55
256.306	11989.48
256.376	12034.26
256.446	12067.57
256.517	12099.28
256.587	12134.71
256.657	12157.99
256.728	12179.35
256.798	12184.79
256.868	12184.79
256.938	12163.05
257.009	12215.02
257.079	12232.13
257.149	12318.41
257.219	12268.76
257.29	12305.77
257.36	12259.93
257.43	12289.77
257.5	12230.24
257.571	12223.83
257.641	12258.34
257.711	12235.59
257.781	12270.63
257.852	12274.49
257.922	12227.2
257.992	12227.92
258.062	12223.97
258.132	12257.71
258.202	12263.98
258.273	12272.46
258.343	12339.23
258.413	12326.16
258.483	12319.85
258.553	12305.29
258.623	12278.06
258.693	12301.19
258.764	12363.28
258.834	12432.98
258.904	12448.07
258.974	12437.66
259.044	12449.03
259.114	12472.89
259.184	12502.25
259.254	12509.24
259.324	12474.58
259.394	12519.74
259.464	12585.5
259.535	12589.64
259.605	12588.15
259.675	12575.76
259.745	12613.41
259.815	12594.95
259.885	12608.11
259.955	12708.66
260.025	12700.37
260.095	12721.53
260.165	12749.06
260.235	12793.94
260.305	12776.39
260.375	12755.09
260.445	12837.08
260.515	12889.77
260.585	12935.81
260.655	12947.09
260.725	12985.89
260.795	13016.65
260.865	13072.42
260.934	13054.44
261.004	13080.86
261.074	13084.33
261.144	13137.16
261.214	13158.47
261.284	13154.27
261.354	13178.66
261.424	13134.89
261.494	13200.26
261.564	13200.4
261.634	13226.05
261.703	13174.76
261.773	13197.32
261.843	13223.16
261.913	13222.34
261.983	13176.01
262.053	13194.33
262.123	13192.64
262.192	13159.48
262.262	13188.83
262.332	13149.64
262.402	13174.85
262.472	13186.13
262.541	13146.22
262.611	13190.52
262.681	13166.37
262.751	13207.73
262.821	13213.85
262.89	13183.05
262.96	13209.03
263.03	13277.97
263.1	13297.25
263.169	13317.26
263.239	13343.24
263.309	13402.63
263.379	13428.56
263.448	13447.56
263.518	13466.74
263.588	13480.77
263.657	13548.5
263.727	13578.53
263.797	13588.75
263.867	13585.48
263.936	13550
264.006	13595.84
264.076	13592.51
264.145	13595.07
264.215	13573.61
264.285	13602.39
264.354	13571.45
264.424	13558.48
264.494	13514.13
264.563	13504.39
264.633	13566.77
264.702	13587.35
264.772	13539.82
264.842	13533.8
264.911	13570.14
264.981	13536.59
265.05	13548.21
265.12	13541.41
265.19	13556.65
265.259	13591.5
265.329	13618.21
265.398	13639.37
265.468	13719.34
265.537	13720.45
265.607	13751.26
265.676	13795.56
265.746	13816.29
265.815	13867.39
265.885	13877.99
265.955	13870.13
266.024	13870.86
266.094	13823.08
266.163	13876.06
266.232	13935.74
266.302	13948.08
266.371	13958.64
266.441	13971.65
266.51	14008.48
266.58	14010.22
266.649	14003.13
266.719	14045.84
266.788	14081.18
266.858	14148.33
266.927	14096.55
266.996	14120.27
267.066	14148.04
267.135	14124.27
267.205	14160.19
267.274	14186.02
267.343	14224.78
267.413	14238.38
267.482	14291.79
267.552	14338.07
267.621	14291.93
267.69	14254.67
267.76	14272.27
267.829	14296.95
267.898	14315.94
267.968	14304.23
268.037	14331.9
268.106	14369.01
268.176	14344
268.245	14344.04
268.314	14329.34
268.384	14377.69
268.453	14386.32
268.522	14404.73
268.592	14459.16
268.661	14447.69
268.73	14469.28
268.799	14453.33
268.869	14526.69
268.938	14490.3
269.007	14487.5
269.076	14513.92
269.146	14553.69
269.215	14577.17
269.284	14640.89
269.353	14630.09
269.422	14636.26
269.492	14634.29
269.561	14562.7
269.63	14598.71
269.699	14598.52
269.768	14624.07
269.838	14646.96
269.907	14682.49
269.976	14661.42
270.045	14615.1
270.114	14648.41
270.183	14658.48
270.253	14690.54
270.322	14646.43
270.391	14671.4
270.46	14731.22
270.529	14768.34
270.598	14804.49
270.667	14813.94
270.736	14787.04
270.806	14820.4
270.875	14871.35
270.944	14884.9
271.013	14995.23
271.082	15014.61
271.151	15040.11
271.22	15004.78
271.289	15008.15
271.358	15018.08
271.427	15050.47
271.496	15077.04
271.565	15077.42
271.634	15090.44
271.703	15199.32
271.772	15253.84
271.841	15266.51
271.91	15229.11
271.979	15250.46
272.048	15227.76
272.117	15269.6
272.186	15272.15
272.255	15312.16
272.324	15342.72
272.393	15370.34
272.462	15364.17
272.531	15379.79
272.6	15391.11
272.669	15460.86
272.738	15470.94
272.807	15495.23
272.876	15482.02
272.945	15597.9
273.013	15642
273.082	15693.24
273.151	15607.88
273.22	15634.78
273.289	15653.19
273.358	15734.02
273.427	15734.41
273.496	15782.37
273.564	15811
273.633	15854.67
273.702	15848.06
273.771	15854.18
273.84	15887.97
273.909	15926.05
273.977	15955.55
274.046	15967.11
274.115	16012.08
274.184	16011.07
274.253	16028.33
274.322	16095.13
274.39	16038.74
274.459	16038.64
274.528	16001.58
274.597	16027.51
274.665	16055.61
274.734	16113.06
274.803	16125.26
274.872	16143.14
274.94	16131.23
275.009	16315.62
275.078	16312.77
275.147	16341.45
275.215	16370.9
275.284	16420.64
275.353	16423.48
275.421	16396.25
275.49	16475.43
275.559	16471.15
275.627	16492.64
275.696	16507.05
275.765	16541.61
275.833	16559.59
275.902	16602.05
275.971	16671.02
276.039	16746.4
276.108	16788.18
276.177	16818.35
276.245	16810.45
276.314	16838.16
276.383	16892.38
276.451	16759.43
276.52	16806.27
276.588	16870.76
276.657	16916.64
276.725	16923.87
276.794	16957.94
276.863	17036.89
276.931	17009.08
277	17071.63
277.068	17126.77
277.137	17208.31
277.205	17231.59
277.274	17314.92
277.342	17376.65
277.411	17358.77
277.48	17350.97
277.548	17351.11
277.617	17379.93
277.685	17406.2
277.754	17462.92
277.822	17479.02
277.89	17543.35
277.959	17561.9
278.027	17550.19
278.096	17557.37
278.164	17662.86
278.233	17669.47
278.301	17657.32
278.37	17703.68
278.438	17699.01
278.507	17751.92
278.575	17717.18
278.643	17747.49
278.712	17724.17
278.78	17718.86
278.849	17784.07
278.917	17859.97
278.985	17894.48
279.054	17936.02
279.122	18002.86
279.191	18022.23
279.259	18047.58
279.327	18026.71
279.396	18104.45
279.464	18133.22
279.532	18187.67
279.601	18209.65
279.669	18237.26
279.737	18316.63
279.806	18363.13
279.874	18429.44
279.942	18458.31
280.011	18487.95
280.079	18535.9
280.147	18630.74
280.215	18674.78
280.284	18692.23
280.352	18679.02
280.42	18729.33
280.488	18741.48
280.557	18749.04
280.625	18800.12
280.693	18834.68
280.761	18880.31
280.83	18865.37
280.898	18936.89
280.966	18916.26
281.034	18857.13
281.102	18853.18
281.171	18863.59
281.239	18920.55
281.307	18923.15
281.375	18924.16
281.443	19018.86
281.512	19044.69
281.58	19096.11
281.648	19080.4
281.716	19110.47
281.784	19150.42
281.852	19168.44
281.92	19194.51
281.989	19268.39
282.057	19252.77
282.125	19371.81
282.193	19403.03
282.261	19436.72
282.329	19454.6
282.397	19504.18
282.465	19560.57
282.533	19644.66
282.601	19659.65
282.67	19626.39
282.738	19644.32
282.806	19718.73
282.874	19730.34
282.942	19779.5
283.01	19799.01
283.078	19871.11
283.146	19911.83
283.214	19973.85
283.282	20015.87
283.35	20095.05
283.418	20112.6
283.486	20162.96
283.554	20114.62
283.622	20141.89
283.69	20179.24
283.758	20200.54
283.826	20247.67
283.894	20303.87
283.962	20394.18
284.03	20474.04
284.098	20538.95
284.165	20565.31
284.233	20598.42
284.301	20604.25
284.369	20615
284.437	20616.69
284.505	20620.45
284.573	20687.24
284.641	20687.58
284.709	20747.73
284.777	20732.5
284.845	20787.01
284.912	20840.03
284.98	20886.77
285.048	20904.85
285.116	20959.26
285.184	21030.45
285.252	21072.09
285.319	21070.64
285.387	21083.56
285.455	21079.8
285.523	21131.03
285.591	21164.53
285.659	21196.73
285.726	21284.78
285.794	21280.16
285.862	21316.16
285.93	21366.38
285.997	21396.65
286.065	21420.6
286.133	21424.6
286.201	21457.91
286.269	21448.65
286.336	21460.37
286.404	21490.97
286.472	21567.18
286.539	21547.95
286.607	21539.56
286.675	21583.38
286.743	21638.52
286.81	21650.38
286.878	21711.83
286.946	21718.25
287.013	21754.78
287.081	21784.76
287.149	21769.1
287.216	21874.23
287.284	21895.53
287.352	21925.32
287.419	21945.81
287.487	22026.75
287.555	22080.31
287.622	22108.55
287.69	22178.6
287.758	22246.09
287.825	22268.22
287.893	22270
287.96	22326.01
288.028	22396.15
288.096	22428.22
288.163	22457.72
288.231	22469.63
288.298	22504.29
288.366	22573.38
288.433	22603.46
288.501	22617.25
288.569	22668.25
288.636	22680.55
288.704	22758.27
288.771	22829.34
288.839	22845.92
288.906	22861.45
288.974	22920.04
289.041	22948.2
289.109	22949.35
289.176	23009.15
289.244	23060.98
289.311	23123.23
289.379	23181.86
289.446	23219.14
289.514	23245.47
289.581	23286.26
289.649	23334.67
289.716	23369.25
289.783	23380.92
289.851	23468.97
289.918	23514.48
289.986	23580.56
290.053	23621.93
290.121	23645.57
290.188	23675.52
290.255	23795.95
290.323	23827.97
290.39	23844.71
290.458	23902.19
290.525	23975.45
290.592	23986.21
290.66	24022.91
290.727	24045
290.794	24118.61
290.862	24152.13
290.929	24212.52
290.996	24261.48
291.064	24329.16
291.131	24401.13
291.198	24466.06
291.266	24501.52
291.333	24542.37
291.4	24587.34
291.468	24670.72
291.535	24702.32
291.602	24757.42
291.669	24768.18
291.737	24802.76
291.804	24839.09
291.871	24918.22
291.938	24966.81
292.006	25084.05
292.073	25153.86
292.14	25224.7
292.207	25247.72
292.275	25287.57
292.342	25339.98
292.409	25440.76
292.476	25530.88
292.543	25547.19
292.611	25592.41
292.678	25671.62
292.745	25782.48
292.812	25844.32
292.879	25863.73
292.946	25919.32
293.014	25987.83
293.081	26053.04
293.148	26138.47
293.215	26209.63
293.282	26234.97
293.349	26293.77
293.416	26279.24
293.484	26359.39
293.551	26420.47
293.618	26493.85
293.685	26599.84
293.752	26629.53
293.819	26655.66
293.886	26655.52
293.953	26717.75
294.02	26791.15
294.087	26842.84
294.154	26856.94
294.221	26933.32
294.288	26973.59
294.356	27048.97
294.423	27097.23
294.49	27107.27
294.557	27175.14
294.624	27198.28
294.691	27294.97
294.758	27335.17
294.825	27391.63
294.892	27407.57
294.959	27449.22
295.026	27505.94
295.093	27529.23
295.16	27568.35
295.226	27610.77
295.293	27726.31
295.36	27773.95
295.427	27837.69
295.494	27917.3
295.561	27974.56
295.628	28080.66
295.695	28167.07
295.762	28220.23
295.829	28292.59
295.896	28386.53
295.963	28451.69
296.03	28526.11
296.096	28578.22
296.163	28661.37
296.23	28743.94
296.297	28827.17
296.364	28867.09
296.431	28925.98
296.498	28964.17
296.564	29073.46
296.631	29132.54
296.698	29128.14
296.765	29225.51
296.832	29228.9
296.899	29225.32
296.965	29323.49
297.032	29294.99
297.099	29381.34
297.166	29441.74
297.233	29468.1
297.299	29484.93
297.366	29537.9
297.433	29584.81
297.5	29650.8
297.566	29688.38
297.633	29722.73
297.7	29767.86
297.767	29800.4
297.833	29859.72
297.9	29906.25
297.967	29913.16
298.033	29985.01
298.1	30111.51
298.167	30135.9
298.234	30206.42
298.3	30284.8
298.367	30304.4
298.434	30370.55
298.5	30383.87
298.567	30414.3
298.634	30454.66
298.7	30553.36
298.767	30592.28
298.834	30671.55
298.9	30699.58
298.967	30721.84
299.033	30791.01
299.1	30865.42
299.167	30956
299.233	30982.63
299.3	31062.49
299.366	31138.03
299.433	31214.98
299.5	31184.09
299.566	31241.56
299.633	31329.53
299.699	31391.56
299.766	31428.25
299.832	31485.69
299.899	31559.25
299.965	31633.33
300.032	31661.8
300.099	31718.65
300.165	31766.69
300.232	31800.5
300.298	31839.29
300.365	31916.91
300.431	31960.36
300.498	31983.9
300.564	32036.01
300.631	32115.2
300.697	32195.09
300.763	32230.49
300.83	32289.13
300.896	32371.81
300.963	32432.66
301.029	32492.02
301.096	32536.16
301.162	32612.98
301.229	32636.29
301.295	32636.63
301.361	32691.14
301.428	32745.58
301.494	32742.67
301.561	32801.54
301.627	32843.36
301.693	32890.35
301.76	32941.67
301.826	32969.92
301.892	33050.56
301.959	33119.67
302.025	33146.96
302.092	33168.82
302.158	33232.68
302.224	33258.58
302.291	33275.68
302.357	33304.18
302.423	33324.69
302.49	33343.3
302.556	33399.78
302.622	33436.56
302.688	33502.87
302.755	33571.23
302.821	33642.81
302.887	33715.61
302.954	33741.64
303.02	33803.4
303.086	33870.25
303.152	33904.43
303.219	33936.18
303.285	33981.33
303.351	34031.86
303.417	34071.08
303.483	34079.28
303.55	34115.1
303.616	34143.91
303.682	34181.58
303.748	34204.8
303.815	34277.6
303.881	34344.42
303.947	34353.58
304.013	34394.9
304.079	34419.33
304.145	34405.17
304.212	34444.65
304.278	34464.77
304.344	34492.36
304.41	34499.93
304.476	34501.24
304.542	34529.8
304.608	34594.64
304.674	34568.45
304.741	34588.1
304.807	34636.6
304.873	34696.64
304.939	34767.6
305.005	34753.39
305.071	34797.62
305.137	34837.53
305.203	34809.59
305.269	34837.34
305.335	34905.11
305.401	34940.28
305.467	34976.7
305.533	35035.3
305.599	35077.6
305.666	35138.96
305.732	35196.69
305.798	35269.02
305.864	35380.86
305.93	35424.04
305.996	35455.04
306.062	35515.33
306.128	35539.3
306.194	35539.84
306.259	35562.88
306.325	35572.15
306.391	35647.69
306.457	35702.66
306.523	35739.72
306.589	35835.46
306.655	35859.39
306.721	35847.5
306.787	35850.6
306.853	35925.19
306.919	35928.83
306.985	35947.56
307.051	35948.77
307.117	35943.82
307.183	35956.1
307.248	35906.45
307.314	35954.01
307.38	35979.05
307.446	36026.95
307.512	36027.83
307.578	36079.21
307.644	36110.47
307.709	36134.59
307.775	36150.16
307.841	36166.37
307.907	36210.88
307.973	36187.82
308.039	36216.26
308.104	36267.61
308.17	36314.58
308.236	36297.64
308.302	36334.18
308.368	36326.22
308.433	36366.16
308.499	36395.96
308.565	36398.87
308.631	36444.39
308.696	36415.37
308.762	36427.94
308.828	36449.54
308.894	36438.92
308.959	36413.92
309.025	36428.87
309.091	36459.11
309.156	36470.42
309.222	36505.71
309.288	36500.57
309.354	36474.99
309.419	36502.52
309.485	36498.15
309.551	36542.76
309.616	36549.51
309.682	36573.49
309.748	36601.88
309.813	36621.63
309.879	36624.59
309.945	36627.41
310.01	36640.47
310.076	36671.19
310.141	36675.46
310.207	36661.04
310.273	36713.55
310.338	36763.69
310.404	36746.56
310.469	36740.54
310.535	36746.17
310.601	36703.16
310.666	36741.12
310.732	36800.97
310.797	36803.25
310.863	36808.93
310.928	36811.21
310.994	36843.88
311.059	36869.03
311.125	36880.68
311.191	36936.08
311.256	36945.35
311.322	36987.88
311.387	36966.28
311.453	37897.5
311.518	37889.98
311.584	37926.73
311.649	37966.59
311.715	37966.4
311.78	38003.97
311.846	38018.09
311.911	38076.75
311.976	38121.07
312.042	38113.78
312.107	38104.8
312.173	38113.54
312.238	38120.82
312.304	38139.27
312.369	38139.56
312.434	38126.46
312.5	38154.66
312.565	38088.24
312.631	38124.55
312.696	38125.62
312.761	38173.83
312.827	37291.34
312.892	37397.19
312.958	37408.99
313.023	37424.34
313.088	37450.75
313.154	37451.57
313.219	37450.02
313.284	37430.6
313.35	37458.76
313.415	37467.89
313.48	37488.18
313.546	37519.94
313.611	37579.56
313.676	37582.09
313.741	37604.95
313.807	37649.87
313.872	37681.09
313.937	37726.97
314.003	37789.03
314.068	37822.25
314.133	37855.41
314.198	37851.38
314.264	37828.46
314.329	37828.31
314.394	37845.75
314.459	37863.81
314.525	37933.54
314.59	37952.91
314.655	37951.84
314.72	37987.05
314.785	38022.45
314.851	38040.03
314.916	38019.39
314.981	38001.28
315.046	38001.86
315.111	37982.73
315.176	37987.49
315.242	38018.23
315.307	38046.45
315.372	38012.74
315.437	38016.97
315.502	38021.39
315.567	38075.29
315.632	38061.94
315.698	38092.39
315.763	38110.84
315.828	38111.38
315.893	38111.04
315.958	38114.1
316.023	38113.08
316.088	38076.07
316.153	38016.93
316.218	38000.67
316.283	37960.86
316.348	37933.96
316.413	37933.28
316.479	37913.91
316.544	37825.83
316.609	37734.84
316.674	37635.27
316.739	37543.76
316.804	37454.87
316.869	37358.44
316.934	37247.11
316.999	37149.87
317.064	36999.87
317.129	36852.53
317.194	36725.94
317.259	36579.53
317.324	36417.07
317.389	36271.19
317.454	36137.1
317.518	36027.92
317.583	35929.49
317.648	35833.03
317.713	35699.59
317.778	35493.29
317.843	35364.23
317.908	35217.94
317.973	35083.51
318.038	34961.86
318.103	34815.99
318.168	34682.12
318.233	34542.82
318.297	34355.78
318.362	34206.32
318.427	34050.81
318.492	33929.92
318.557	33753.63
318.622	33627.08
318.687	33521.97
318.751	33367.09
318.816	33219.65
318.881	33077.22
318.946	32873.81
319.011	32693.46
319.075	32517.35
319.14	32376.07
319.205	32189.18
319.27	32051.01
319.335	31864.11
319.399	31693.49
319.464	31557.18
319.529	31349.35
319.594	31168.5
319.658	31009.4
319.723	30807.47
319.788	30658.23
319.853	30441.2
319.917	30285.81
319.982	30072.1
320.047	29893.71
320.112	29742.45
320.176	29530.31
320.241	29350.03
320.306	29183.14
320.37	28999.3
320.435	28837.95
320.5	28678.64
320.564	28501.39
320.629	28299.94
320.694	28136
320.758	27947.23
320.823	27743.06
320.888	27595.91
320.952	27383.5
321.017	27197.47
321.082	27027.43
321.146	26844.62
321.211	26664.69
321.275	26478.18
321.34	26262.86
321.405	26067.62
321.469	25855.94
321.534	25657.54
321.598	25436.45
321.663	25261.23
321.727	25091.21
321.792	24871.51
321.857	24671.93
321.921	24480.01
321.986	24269.95
322.05	24021.63
322.115	23817.89
322.179	23605.64
322.244	23352.85
322.308	23175.15
322.373	22960.81
322.437	22755.69
322.502	22593.81
322.566	22381.67
322.631	22187.57
322.695	21993.6
322.76	21771.8
322.824	21584.24
322.889	21380.26
322.953	21164.43
323.018	20900.43
323.082	20624.73
323.146	20393.92
323.211	20145.18
323.275	19931.24
323.34	19716.79
323.404	19528.31
323.468	19317.18
323.533	19106.67
323.597	18893.33
323.662	18651.11
323.726	18454.25
323.79	18230.15
323.855	17954.54
323.919	17722.34
323.983	17499.59
324.048	17170.02
324.112	17311.67
324.177	16631.43
324.241	15727.17
324.305	14840.32
324.37	13966.72
324.434	13121.12
324.498	12883.86
324.562	12626.67
324.627	12323.71
324.691	12030.52
324.755	11696.96
324.82	11318.79
324.884	10916.59
324.948	10511.22
325.012	10028.07
325.077	9426.91
