Data from 20250626_urea_1M_exp2_MAYP1162681_03-54-00-513.txt Node
Date: Fri Jun 27 03:54:00 BST 2025
User: adleo
Spectrometer: MAYP116268
Trigger mode: 0
Integration Time (sec): 3.000000E0
Scans to average: 1
Electric dark correction enabled: true
Nonlinearity correction enabled: true
Boxcar width: 10
XAxis mode: Wavelengths
Number of Pixels in Spectrum: 2068
>>>>>Begin Spectral Data<<<<<
179.565	2749.24
179.642	2892.13
179.718	2996.49
179.795	3099.94
179.871	3181.29
179.948	3227
180.024	3278.49
180.101	3331.96
180.177	3364.58
180.254	3423.06
180.33	3477.02
180.407	3663.81
180.483	3876.32
180.56	4092.92
180.636	4294.52
180.712	4264.47
180.789	4290.44
180.865	4321.22
180.942	4340.3
181.018	4368.33
181.095	4401.88
181.171	4414.94
181.248	4416.52
181.324	4455.86
181.4	4467.59
181.477	4491.42
181.553	4519.67
181.63	4573.18
181.706	4613.48
181.782	4642.65
181.859	4642.41
181.935	4658.11
182.011	4650.93
182.088	4693.29
182.164	4741.1
182.24	4769.18
182.317	4787.03
182.393	4780.33
182.469	4815.18
182.546	4849.31
182.622	4856.68
182.698	4846.05
182.775	4878.13
182.851	4909.53
182.927	4893.73
183.003	4884.59
183.08	4871
183.156	4901.35
183.232	4891.48
183.308	4864.87
183.385	4881.57
183.461	4923.28
183.537	4924.24
183.613	4952.92
183.69	4928.88
183.766	4900.09
183.842	4921.26
183.918	4942.32
183.995	4969.23
184.071	4980.25
184.147	4967.32
184.223	4937.94
184.299	4967.12
184.375	4939.68
184.452	4962.01
184.528	5060.51
184.604	5085.93
184.68	5116.1
184.756	5133.4
184.832	5145.42
184.908	5160.93
184.985	5159.59
185.061	5116.54
185.137	5139.48
185.213	5111.9
185.289	5116.54
185.365	5099.98
185.441	5093.32
185.517	5125.34
185.593	5119.16
185.669	5108
185.745	5134.92
185.822	5179.62
185.898	5160.41
185.974	5181.81
186.05	5156.22
186.126	5100.07
186.202	5081.97
186.278	5069.76
186.354	5042.69
186.43	5060.57
186.506	5057.5
186.582	5054.39
186.658	5078.08
186.734	5027
186.81	5035.95
186.886	5041.84
186.962	5071.62
187.038	5061.66
187.114	5041.81
187.19	5058.34
187.266	5034.31
187.341	5034.4
187.417	5016.16
187.493	5014.87
187.569	5026.46
187.645	5015.25
187.721	4981.62
187.797	5002.44
187.873	5015.71
187.949	4998.14
188.025	4979.83
188.101	4983.38
188.176	4994.39
188.252	4978.78
188.328	4999.74
188.404	4997.73
188.48	4986.57
188.556	4962.63
188.632	4964.78
188.707	4964.64
188.783	4960.9
188.859	4951.52
188.935	4928.67
189.011	4945.82
189.086	4930.4
189.162	4905.02
189.238	4901.95
189.314	4895.54
189.39	4884.09
189.465	4868.72
189.541	4910.96
189.617	4871.94
189.693	4863.27
189.768	4872.9
189.844	4935.96
189.92	4913.96
189.996	4932.44
190.071	4962.42
190.147	4966.73
190.223	4990.16
190.298	4971.28
190.374	4938.43
190.45	4970.31
190.526	4983.29
190.601	4973.9
190.677	4979.46
190.753	5053.48
190.828	5060.85
190.904	5097.69
190.98	5134.58
191.055	5155.85
191.131	5135.44
191.207	5189.8
191.282	5211.87
191.358	5188.21
191.433	5149.76
191.509	5187.43
191.585	5182.55
191.66	5184.03
191.736	5201.13
191.811	5176.7
191.887	5217.82
191.963	5280.54
192.038	5289.3
192.114	5296.4
192.189	5304.15
192.265	5295.63
192.34	5234.02
192.416	5230.38
192.491	5224.58
192.567	5229.76
192.642	5237.9
192.718	5237.09
192.793	5205.66
192.869	5195.07
192.944	5202.49
193.02	5223.97
193.095	5233.74
193.171	5251.76
193.246	5250.08
193.322	5247.64
193.397	5251.04
193.473	5219.69
193.548	5172.86
193.624	5190.21
193.699	5186.9
193.775	5226.31
193.85	5235.74
193.925	5259.7
194.001	5257.11
194.076	5230.67
194.152	5206.75
194.227	5187.48
194.302	5167.47
194.378	5177.44
194.453	5168.24
194.529	5196.32
194.604	5158.23
194.679	5141.51
194.755	5090.27
194.83	5119.62
194.905	5112.96
194.981	5130.4
195.056	5107.51
195.131	5121.02
195.207	5113.34
195.282	5089.73
195.357	5043.19
195.433	5076.49
195.508	5049.75
195.583	5072.16
195.659	5112.18
195.734	5127.23
195.809	5127.23
195.884	5148.1
195.96	5148.72
196.035	5184.74
196.11	5177.6
196.185	5206.15
196.261	5210.18
196.336	5288.65
196.411	5249.73
196.486	5261.46
196.561	5246.42
196.637	5273.29
196.712	5313.47
196.787	5322.53
196.862	5358.55
196.937	5378.19
197.013	5387.78
197.088	5408.48
197.163	5460.95
197.238	5498.67
197.313	5500.01
197.388	5534.04
197.464	5613.42
197.539	5644.91
197.614	5631.5
197.689	5655.8
197.764	5699.31
197.839	5756.65
197.914	5744.61
197.989	5807.24
198.065	5843.2
198.14	5969.44
198.215	6035.21
198.29	6062.81
198.365	6095.92
198.44	6124.79
198.515	6194.89
198.59	6232.71
198.665	6298.73
198.74	6317.41
198.815	6323.89
198.89	6378.5
198.965	6452.01
199.04	6439.48
199.115	6474.95
199.19	6584.53
199.265	6594.12
199.34	6615.15
199.415	6695.44
199.49	6748.39
199.565	6770.38
199.64	6831.47
199.715	6824.88
199.79	6836.98
199.865	6856.05
199.94	6851.64
200.015	6935.95
200.09	6947.92
200.165	6965.06
200.24	6979.67
200.315	7073.05
200.39	7107.35
200.464	7124.79
200.539	7130.46
200.614	7170.33
200.689	7230.83
200.764	7241.85
200.839	7286.02
200.914	7298.46
200.989	7272.69
201.063	7305.95
201.138	7260.34
201.213	7259.14
201.288	7211.23
201.363	7222.67
201.438	7219.11
201.512	7258.01
201.587	7206.1
201.662	7221.29
201.737	7252.91
201.812	7274.92
201.886	7192.26
201.961	7218.36
202.036	7187.91
202.111	7176.09
202.186	7098.56
202.26	7051.6
202.335	6996.58
202.41	6984.52
202.485	6944.71
202.559	6892.5
202.634	6823.56
202.709	6844.3
202.784	6794.54
202.858	6793.24
202.933	6750.64
203.008	6730.52
203.082	6683.8
203.157	6682.69
203.232	6571.69
203.306	6513.61
203.381	6431.77
203.456	6378.72
203.53	6318.21
203.605	6269.52
203.68	6213.53
203.754	6200.59
203.829	6162.04
203.904	6110.94
203.978	6079.16
204.053	6086.84
204.127	6059.69
204.202	6048.51
204.277	6006.58
204.351	5987.78
204.426	5969.3
204.5	5947.42
204.575	5861.31
204.65	5885.98
204.724	5862.21
204.799	5887.32
204.873	5877.68
204.948	5875.86
205.022	5841.72
205.097	5823.38
205.171	5856.96
205.246	5877.11
205.32	5878.12
205.395	5879.22
205.469	5858.71
205.544	5875.03
205.618	5830.8
205.693	5857.43
205.767	5837.34
205.842	5892.13
205.916	5880.14
205.991	5856.59
206.065	5871.75
206.14	5912.33
206.214	5897.4
206.289	5879.98
206.363	5905.88
206.438	5915.77
206.512	5934.57
206.586	5985.11
206.661	6006.48
206.735	5950.1
206.81	5953.66
206.884	5987.66
206.958	5955.39
207.033	5994.16
207.107	6007.18
207.181	6083.63
207.256	6066.02
207.33	6110.92
207.405	6140.33
207.479	6186.92
207.553	6204.37
207.628	6163.04
207.702	6190.86
207.776	6177.38
207.851	6188.61
207.925	6228.94
207.999	6221.55
208.073	6212.24
208.148	6216.13
208.222	6183.77
208.296	6261.51
208.371	6302.2
208.445	6326.88
208.519	6397.22
208.593	6431.78
208.668	6430.24
208.742	6436.2
208.816	6445.74
208.89	6478.98
208.965	6476.05
209.039	6494.4
209.113	6533.38
209.187	6587.09
209.261	6579.85
209.336	6626.8
209.41	6673.72
209.484	6672.52
209.558	6726.93
209.632	6764.86
209.707	6796.03
209.781	6850.62
209.855	6896.27
209.929	6933.44
210.003	6948.38
210.077	6942.95
210.151	7063.76
210.226	7142.69
210.3	7219.07
210.374	7275.55
210.448	7284.58
210.522	7311.16
210.596	7333.22
210.67	7357.54
210.744	7473.54
210.818	7550.2
210.892	7601.59
210.966	7591.36
211.041	7630.87
211.115	7618.86
211.189	7677.31
211.263	7717.59
211.337	7734.65
211.411	7764.13
211.485	7749.51
211.559	7783.59
211.633	7790.79
211.707	7709.2
211.781	7724.64
211.855	7633.75
211.929	7609.15
212.003	7565.2
212.077	7585.02
212.151	7616.75
212.225	7643.05
212.299	7614.42
212.373	7585.25
212.447	7570.96
212.52	7642.8
212.594	7650.54
212.668	7682.36
212.742	7643.03
212.816	7627.6
212.89	7615.1
212.964	7609.71
213.038	7617.84
213.112	7647.76
213.186	7681.3
213.26	7624.53
213.333	7518.09
213.407	7527.89
213.481	7538.7
213.555	7567.9
213.629	7535.83
213.703	7495.29
213.777	7482.84
213.85	7428.94
213.924	7515.51
213.998	7511.95
214.072	7488.47
214.146	7445.49
214.219	7434.73
214.293	7423.91
214.367	7428.34
214.441	7451.08
214.515	7415.16
214.588	7352.29
214.662	7254.73
214.736	7202.6
214.81	7218.06
214.883	7230.01
214.957	7195.96
215.031	7156.44
215.105	7086.47
215.178	7044.04
215.252	7017.95
215.326	6950.74
215.4	6892.94
215.473	6755.82
215.547	6699.74
215.621	6652.78
215.694	6651.67
215.768	6581.45
215.842	6532.39
215.915	6479.01
215.989	6389.72
216.063	6352.63
216.136	6338.28
216.21	6325.18
216.284	6328.01
216.357	6307.03
216.431	6275.64
216.504	6270.74
216.578	6308.96
216.652	6319.9
216.725	6299.4
216.799	6303.96
216.873	6290.38
216.946	6298.25
217.02	6273.6
217.093	6245.96
217.167	6173.69
217.24	6115.79
217.314	6083.52
217.387	6053.02
217.461	6020.68
217.535	6036.52
217.608	5987.58
217.682	5965.17
217.755	5977.12
217.829	5942.52
217.902	5934.65
217.976	5920.5
218.049	5887.59
218.123	5835.12
218.196	5834.54
218.27	5810.9
218.343	5759.45
218.417	5756.9
218.49	5739.01
218.563	5772.35
218.637	5784.58
218.71	5838.07
218.784	5860.29
218.857	5892.61
218.931	5909.87
219.004	5917.83
219.077	5933.91
219.151	5951.36
219.224	5946.85
219.298	5936.68
219.371	5967.2
219.444	5939.25
219.518	5952.24
219.591	5964.57
219.665	6044
219.738	6051.39
219.811	6040.98
219.885	6075.58
219.958	6097.79
220.031	6096.69
220.105	6109.27
220.178	6113.73
220.251	6093.47
220.325	6107.25
220.398	6113.35
220.471	6127.78
220.544	6155.71
220.618	6140.93
220.691	6160.6
220.764	6177.54
220.838	6198.03
220.911	6187.52
220.984	6248.35
221.057	6268.32
221.131	6290.39
221.204	6214.79
221.277	6269.96
221.35	6366.02
221.424	6360.36
221.497	6370.44
221.57	6392.84
221.643	6418.67
221.716	6450.03
221.79	6459.53
221.863	6472.02
221.936	6479.36
222.009	6488.43
222.082	6503.03
222.155	6510.86
222.229	6560.71
222.302	6582.27
222.375	6590.86
222.448	6620.39
222.521	6623.9
222.594	6627.12
222.667	6603.85
222.74	6648.01
222.814	6637.58
222.887	6617.93
222.96	6654.28
223.033	6685.36
223.106	6705.43
223.179	6733.2
223.252	6743.73
223.325	6766.1
223.398	6774.85
223.471	6802.27
223.544	6819.93
223.617	6838.38
223.69	6854.32
223.763	6821.7
223.837	6839.23
223.91	6864.55
223.983	6833.29
224.056	6812.41
224.129	6832.38
224.202	6878.56
224.275	6869.34
224.348	6854.64
224.42	6831.68
224.493	6798.92
224.566	6782.78
224.639	6799.59
224.712	6771.62
224.785	6758.79
224.858	6749.19
224.931	6736.84
225.004	6708.22
225.077	6709.76
225.15	6633.67
225.223	6629.68
225.296	6689.95
225.369	6646.4
225.442	6617.34
225.514	6626.98
225.587	6637.64
225.66	6640
225.733	6640.14
225.806	6646.48
225.879	6639.61
225.952	6619.4
226.025	6649.18
226.097	6687.49
226.17	6675.43
226.243	6631.5
226.316	6628.19
226.389	6630.73
226.461	6642.16
226.534	6652.58
226.607	6646.2
226.68	6713.78
226.753	6714.64
226.825	6664.13
226.898	6704.07
226.971	6706.72
227.044	6722.47
227.117	6728.85
227.189	6746.2
227.262	6774.4
227.335	6788.34
227.407	6789.01
227.48	6813.44
227.553	6823.29
227.626	6812.09
227.698	6823.57
227.771	6856.31
227.844	6846.61
227.916	6864.52
227.989	6842.14
228.062	6844.54
228.134	6910.85
228.207	6908.31
228.28	6901.87
228.352	6906.29
228.425	6917.54
228.498	6958.13
228.57	6946.47
228.643	6991.11
228.716	6987.21
228.788	6971.02
228.861	6968.42
228.934	7009.97
229.006	7015.78
229.079	7018.62
229.151	7003.48
229.224	6976.69
229.296	6982.98
229.369	7057.15
229.442	7093.15
229.514	7083.21
229.587	7116.74
229.659	7056.34
229.732	7066.28
229.804	7096.69
229.877	7153.85
229.949	7172.74
230.022	7207.22
230.094	7208.95
230.167	7199.62
230.239	7168.88
230.312	7163.11
230.384	7215.81
230.457	7211.19
230.529	7223.35
230.602	7218.35
230.674	7225.32
230.747	7254.18
230.819	7283.83
230.892	7197.8
230.964	7195.35
231.037	7212.59
231.109	7205.18
231.181	7238.38
231.254	7214.79
231.326	7205.04
231.399	7184.31
231.471	7163.45
231.544	7107.68
231.616	7139.96
231.688	7144.19
231.761	7136.56
231.833	7129.93
231.905	7065.08
231.978	7067.72
232.05	7050.57
232.122	7057.64
232.195	7042.12
232.267	7070.9
232.339	7054.03
232.412	7104.33
232.484	7087.5
232.556	7068.3
232.629	7118.78
232.701	7125.27
232.773	7133.1
232.846	7120.51
232.918	7129.99
232.99	7141.42
233.062	7168.29
233.135	7176.85
233.207	7150.27
233.279	7184.61
233.351	7206.52
233.424	7210.89
233.496	7193.11
233.568	7256.94
233.64	7222.93
233.713	7240.33
233.785	7240.23
233.857	7254.65
233.929	7218.32
234.001	7267.67
234.074	7318.54
234.146	7268.39
234.218	7269.73
234.29	7270.12
234.362	7264.4
234.434	7228.64
234.507	7211.34
234.579	7173.95
234.651	7161.65
234.723	7187.89
234.795	7200.14
234.867	7196.82
234.939	7241.86
235.012	7255.46
235.084	7253.82
235.156	7285.77
235.228	7270.25
235.3	7254.68
235.372	7256.6
235.444	7296.38
235.516	7234.16
235.588	7236.9
235.66	7247.52
235.732	7230.17
235.804	7379.23
235.876	7415.02
235.948	7460.46
236.02	7464.06
236.092	7477.18
236.164	7488.18
236.236	7484.05
236.308	7479.67
236.38	7503.23
236.452	7486.54
236.524	7500.91
236.596	7547.64
236.668	7573.89
236.74	7596.43
236.812	7614.36
236.884	7639.65
236.956	7649.65
237.028	7646.05
237.1	7633.98
237.172	7690.35
237.244	7744.63
237.316	7652.06
237.388	7637.26
237.46	7621.72
237.532	7672.11
237.604	7667.5
237.675	7720.5
237.747	7756.61
237.819	7753.63
237.891	7753.87
237.963	7746.28
238.035	7745.94
238.107	7664.79
238.178	7712.66
238.25	7711.32
238.322	7782.28
238.394	7755.26
238.466	7749.73
238.538	7785.97
238.609	7817.22
238.681	7774.75
238.753	7755.41
238.825	7774.03
238.897	7798.74
238.968	7854.55
239.04	7835.79
239.112	7917.3
239.184	7886.37
239.255	7881.56
239.327	7906.17
239.399	7916.65
239.471	7949.3
239.542	7971.52
239.614	8024.71
239.686	7965.87
239.758	8007.61
239.829	7978.06
239.901	8021.2
239.973	8041.59
240.044	8066.51
240.116	8074.68
240.188	8082.57
240.259	8100.9
240.331	8093.29
240.403	8120.56
240.474	8084.32
240.546	8085.05
240.618	8039.58
240.689	8040.59
240.761	8062.48
240.833	8107.18
240.904	8115.02
240.976	8113.96
241.048	8131.23
241.119	8154.43
241.191	8189.44
241.262	8240.75
241.334	8244.51
241.405	8238.97
241.477	8235.85
241.549	8243.79
241.62	8270.06
241.692	8311.05
241.763	8353.93
241.835	8368.03
241.906	8379.91
241.978	8359.9
242.049	8402.81
242.121	8446.35
242.192	8502.84
242.264	8475.9
242.335	8441.88
242.407	8475.86
242.478	8485.86
242.55	8498.23
242.621	8487.83
242.693	8485.14
242.764	8472.23
242.836	8471.65
242.907	8509.19
242.979	8536.42
243.05	8548.21
243.122	8561.26
243.193	8557.46
243.264	8507.21
243.336	8513.13
243.407	8542.3
243.479	8606.54
243.55	8618.72
243.622	8638.21
243.693	8622.37
243.764	8671.79
243.836	8656.98
243.907	8647.84
243.978	8645.72
244.05	8666.32
244.121	8633.27
244.192	8661.42
244.264	8621.71
244.335	8634.18
244.407	8591.3
244.478	8605.01
244.549	8591.49
244.62	8559.44
244.692	8551.17
244.763	8582.83
244.834	8567.14
244.906	8550.63
244.977	8559.97
245.048	8601.91
245.119	8584.2
245.191	8576.26
245.262	8531.84
245.333	8592.03
245.405	8601.51
245.476	8632.45
245.547	8644.2
245.618	8684.61
245.689	8689.48
245.761	8721
245.832	8725.33
245.903	8763.73
245.974	8781.93
246.045	8801.95
246.117	8866.07
246.188	8856.25
246.259	8844.51
246.33	8863.61
246.401	8867.03
246.473	8840.17
246.544	8828.56
246.615	8868.76
246.686	8872.27
246.757	8928.68
246.828	8906.06
246.899	8959.6
246.97	8932.99
247.042	8928.46
247.113	8959.28
247.184	9037.16
247.255	9031.86
247.326	9057.81
247.397	9058.78
247.468	9063.78
247.539	9069.32
247.61	9032.83
247.681	9069.45
247.752	9107.48
247.823	9091.35
247.894	9106.61
247.965	9085.25
248.037	9070.46
248.108	9029.06
248.179	9036.23
248.25	9027.28
248.321	9055.53
248.392	9026.2
248.463	9086.8
248.534	9082.18
248.605	9094.27
248.675	9069.99
248.746	9084.04
248.817	9093.24
248.888	9110.48
248.959	9067.64
249.03	9086.46
249.101	9086.17
249.172	9076.55
249.243	9024.95
249.314	9074.68
249.385	9084.31
249.456	9112.85
249.527	9112.03
249.598	9129.16
249.669	9126.28
249.739	9135.28
249.81	9143.85
249.881	9113.04
249.952	9106.4
250.023	9107.79
250.094	9070.14
250.165	9045.62
250.235	9040.57
250.306	9037.24
250.377	9018.42
250.448	9042.43
250.519	8997.28
250.59	9048.32
250.66	9045.58
250.731	9096.98
250.802	9091.97
250.873	9104.39
250.944	9114.6
251.014	9109.02
251.085	9172.15
251.156	9194.06
251.227	9235.19
251.297	9270.2
251.368	9306.79
251.439	9334.96
251.51	9370.55
251.58	9361.93
251.651	9358.61
251.722	9408.45
251.792	9381.49
251.863	9380.53
251.934	9428.54
252.005	9508.13
252.075	9511.02
252.146	9547.8
252.217	9579.97
252.287	9612.33
252.358	9617.39
252.429	9679.28
252.499	9676.97
252.57	9687.47
252.641	9718.49
252.711	9717.52
252.782	9684.87
252.852	9742.39
252.923	9738.87
252.994	9754.38
253.064	9789.96
253.135	9772.05
253.205	9752.83
253.276	9799.54
253.347	9854.48
253.417	9835.65
253.488	9820.38
253.558	9817.83
253.629	9817.25
253.699	9833.82
253.77	9857.52
253.841	9845.53
253.911	9852.76
253.982	9860.13
254.052	9880.22
254.123	9891.3
254.193	9893.42
254.264	9999.36
254.334	9968.72
254.405	9943.05
254.475	9913.48
254.546	9917.76
254.616	9965.15
254.687	9987.26
254.757	10005.71
254.827	9999.88
254.898	10019.63
254.968	10029.07
255.039	10017.71
255.109	10047.38
255.18	10023
255.25	9960.57
255.321	9991.88
255.391	9961.87
255.461	10034.17
255.532	9976.26
255.602	9975.39
255.673	9935.27
255.743	9907.61
255.813	9853.87
255.884	9897.65
255.954	9927.9
256.024	9982.53
256.095	9987.88
256.165	9960.81
256.235	9975.36
256.306	9965.15
256.376	9999.64
256.446	10028.26
256.517	10053.84
256.587	10090.4
256.657	10110.25
256.728	10134.38
256.798	10140.01
256.868	10138.09
256.938	10118.43
257.009	10157.59
257.079	10176.77
257.149	10256.16
257.219	10213.23
257.29	10251.17
257.36	10209.07
257.43	10236.68
257.5	10189.51
257.571	10183.4
257.641	10211.43
257.711	10192.54
257.781	10211.86
257.852	10220.63
257.922	10177.32
257.992	10168.65
258.062	10158.05
258.132	10188.84
258.202	10198.28
258.273	10205.07
258.343	10260.28
258.413	10237.55
258.483	10239.67
258.553	10219.34
258.623	10197.12
258.693	10213.02
258.764	10265.63
258.834	10318.37
258.904	10328.2
258.974	10321.17
259.044	10327.48
259.114	10349.84
259.184	10369.59
259.254	10382.79
259.324	10349.4
259.394	10381.68
259.464	10447.16
259.535	10453.9
259.605	10447.25
259.675	10440.46
259.745	10468.26
259.815	10451.49
259.885	10462.19
259.955	10544.17
260.025	10539.64
260.095	10554.72
260.165	10583.1
260.235	10618.43
260.305	10612.79
260.375	10591.49
260.445	10658.99
260.515	10712.28
260.585	10746.54
260.655	10752.13
260.725	10789.86
260.795	10819.3
260.865	10874.91
260.934	10843.25
261.004	10868.07
261.074	10874.33
261.144	10913.84
261.214	10940.34
261.284	10941.35
261.354	10969.06
261.424	10939.41
261.494	10994.24
261.564	10988.6
261.634	11007.26
261.703	10965.38
261.773	10983.3
261.843	11015.54
261.913	11006.48
261.983	10961.95
262.053	10980.65
262.123	10980.7
262.192	10949.62
262.262	10978.25
262.332	10938.39
262.402	10975.64
262.472	10983.26
262.541	10941.87
262.611	10984.96
262.681	10973.2
262.751	11000.86
262.821	11003.51
262.89	10970.3
262.96	10984.81
263.03	11047.12
263.1	11065.78
263.169	11083.85
263.239	11107.02
263.309	11163.32
263.379	11189.59
263.448	11205.05
263.518	11230.7
263.588	11248.43
263.657	11300.43
263.727	11332.24
263.797	11349.54
263.867	11347.61
263.936	11314.65
264.006	11362.78
264.076	11359.6
264.145	11357.09
264.215	11350.78
264.285	11383.64
264.354	11359.98
264.424	11354.49
264.494	11324.66
264.563	11316.56
264.633	11374.49
264.702	11391.65
264.772	11337.96
264.842	11336.46
264.911	11365.66
264.981	11326.67
265.05	11332.94
265.12	11331.25
265.19	11339.11
265.259	11375.59
265.329	11398.34
265.398	11421.09
265.468	11489.09
265.537	11479.31
265.607	11510.25
265.676	11546.83
265.746	11564.67
265.815	11612.28
265.885	11622.74
265.955	11608.04
266.024	11610.21
266.094	11566.1
266.163	11618.69
266.232	11674.03
266.302	11683.91
266.371	11705.45
266.441	11723.57
266.51	11766.95
266.58	11764.93
266.649	11761.02
266.719	11798.04
266.788	11829.08
266.858	11884.8
266.927	11833.76
266.996	11856.85
267.066	11879.26
267.135	11862.82
267.205	11896.61
267.274	11915.31
267.343	11958.21
267.413	11977.25
267.482	12029.16
267.552	12076.64
267.621	12035.81
267.69	12004.38
267.76	12025.35
267.829	12048.39
267.898	12068.59
267.968	12050.66
268.037	12084.44
268.106	12119.78
268.176	12097.7
268.245	12104.64
268.314	12095.53
268.384	12146.33
268.453	12167.64
268.522	12188.51
268.592	12231.94
268.661	12223.7
268.73	12249.2
268.799	12235.6
268.869	12298.07
268.938	12261.25
269.007	12256.72
269.076	12278.74
269.146	12319.57
269.215	12344.16
269.284	12389.85
269.353	12389.18
269.422	12399.3
269.492	12394.19
269.561	12338.13
269.63	12365.27
269.699	12360.02
269.768	12383.88
269.838	12401.71
269.907	12439.51
269.976	12412.51
270.045	12374.96
270.114	12404.95
270.183	12411.79
270.253	12440.91
270.322	12406.97
270.391	12434.74
270.46	12489.54
270.529	12524.78
270.598	12561.23
270.667	12567.44
270.736	12554.86
270.806	12579.06
270.875	12621.82
270.944	12635.99
271.013	12732.11
271.082	12755.49
271.151	12780.65
271.22	12752.55
271.289	12765.61
271.358	12765.42
271.427	12804.18
271.496	12834.01
271.565	12836.95
271.634	12860.05
271.703	12896.87
271.772	12950.57
271.841	12960.31
271.91	12934.76
271.979	12948.55
272.048	12927.77
272.117	12962.87
272.186	12964.46
272.255	13006.06
272.324	13040.87
272.393	13075.33
272.462	13069.64
272.531	13088.78
272.6	13102.38
272.669	13160.8
272.738	13175.12
272.807	13202.64
272.876	13192.67
272.945	13292.5
273.013	13339.55
273.082	13381.92
273.151	13368.86
273.22	13400.68
273.289	13422.03
273.358	13485.08
273.427	13497.09
273.496	13540.67
273.564	13576.82
273.633	13624.55
273.702	13616.64
273.771	13630.96
273.84	13655.49
273.909	13687.65
273.977	13714.93
274.046	13728.48
274.115	13779.14
274.184	13778.81
274.253	13792.16
274.322	13851.6
274.39	13808.98
274.459	13809.22
274.528	13777.41
274.597	13803.54
274.665	13824.8
274.734	13881.15
274.803	13892.19
274.872	13919.04
274.94	13911.28
275.009	14078.29
275.078	14077.28
275.147	14101.28
275.215	14127.51
275.284	14172.87
275.353	14185.06
275.421	14164.05
275.49	14238.09
275.559	14238.72
275.627	14261.28
275.696	14288.8
275.765	14319.22
275.833	14335.56
275.902	14362.41
275.971	14430.77
276.039	14495.6
276.108	14533.83
276.177	14559.67
276.245	14564.83
276.314	14583.72
276.383	14642
276.451	14518.96
276.52	14567.4
276.588	14639.76
276.657	14689.5
276.725	14702.08
276.794	14736.02
276.863	14805.77
276.931	14788.71
277	14849.49
277.068	14905.84
277.137	14975.45
277.205	15007.65
277.274	15086.08
277.342	15152.31
277.411	15131.67
277.48	15141.17
277.548	15151.73
277.617	15183.25
277.685	15206.44
277.754	15260.71
277.822	15273.49
277.89	15341.74
277.959	15356.39
278.027	15343.62
278.096	15344.82
278.164	15443.54
278.233	15457.9
278.301	15464.02
278.37	15516.18
278.438	15512.46
278.507	15550.69
278.575	15529.62
278.643	15554.25
278.712	15544.23
278.78	15540.9
278.849	15609.06
278.917	15664.25
278.985	15688.74
279.054	15726.57
279.122	15792.03
279.191	15812.22
279.259	15839.12
279.327	15821.63
279.396	15897.25
279.464	15925.64
279.532	15984.34
279.601	16007.19
279.669	16037.94
279.737	16110
279.806	16150
279.874	16214.2
279.942	16246.35
280.011	16267.31
280.079	16318.31
280.147	16396.73
280.215	16444.2
280.284	16470.71
280.352	16472.88
280.42	16527.73
280.488	16551.39
280.557	16570.62
280.625	16619.97
280.693	16665.62
280.761	16708.42
280.83	16698.2
280.898	16768.37
280.966	16750.78
281.034	16714.44
281.102	16713.96
281.171	16733.96
281.239	16788.28
281.307	16799.55
281.375	16806.83
281.443	16910.83
281.512	16940.67
281.58	16993.05
281.648	16989.29
281.716	17025.1
281.784	17065.06
281.852	17088
281.92	17112.57
281.989	17171.51
282.057	17159.03
282.125	17259.51
282.193	17304.14
282.261	17340.24
282.329	17355.8
282.397	17402.5
282.465	17445.54
282.533	17514.7
282.601	17520.63
282.67	17503.13
282.738	17518.12
282.806	17588.15
282.874	17585.5
282.942	17624.15
283.01	17642.94
283.078	17698.17
283.146	17730.75
283.214	17787.04
283.282	17833.06
283.35	17906.5
283.418	17919.18
283.486	17978.64
283.554	17938.16
283.622	17959.85
283.69	18000.33
283.758	18031.94
283.826	18092.14
283.894	18153
283.962	18234.2
284.03	18305.67
284.098	18348.8
284.165	18381.04
284.233	18410.29
284.301	18430.58
284.369	18457.37
284.437	18465.66
284.505	18486.14
284.573	18559.87
284.641	18572.21
284.709	18623.29
284.777	18623.58
284.845	18687.87
284.912	18728.59
284.98	18785.21
285.048	18808.73
285.116	18856.77
285.184	18926.45
285.252	18957.39
285.319	18953.15
285.387	18971.75
285.455	18976.62
285.523	19027.17
285.591	19056.71
285.659	19099.31
285.726	19167.89
285.794	19166.25
285.862	19209.18
285.93	19252.36
285.997	19272.12
286.065	19297.32
286.133	19312.6
286.201	19346.38
286.269	19356.69
286.336	19371.29
286.404	19400.84
286.472	19459.24
286.539	19442.62
286.607	19436.45
286.675	19468.25
286.743	19526.52
286.81	19550.56
286.878	19605.79
286.946	19620.87
287.013	19664.87
287.081	19699.95
287.149	19701.06
287.216	19788.62
287.284	19806.55
287.352	19840.33
287.419	19868.86
287.487	19940.47
287.555	19980.52
287.622	20005.48
287.69	20052.13
287.758	20126.88
287.825	20148.52
287.893	20167.07
287.96	20222.92
288.028	20288.95
288.096	20339.26
288.163	20390.3
288.231	20404.08
288.298	20451.5
288.366	20529.53
288.433	20557.43
288.501	20568.37
288.569	20611.7
288.636	20626.35
288.704	20702.21
288.771	20764.28
288.839	20782.84
288.906	20807.32
288.974	20864.72
289.041	20902.6
289.109	20901.06
289.176	20953.89
289.244	21001.55
289.311	21063.53
289.379	21127.1
289.446	21165.76
289.514	21203.21
289.581	21236.56
289.649	21277.1
289.716	21311.56
289.783	21329.15
289.851	21417.31
289.918	21468.49
289.986	21535.3
290.053	21589.28
290.121	21626.11
290.188	21663.22
290.255	21774.19
290.323	21801.23
290.39	21832.13
290.458	21888.96
290.525	21982.81
290.592	22013.95
290.66	22063.5
290.727	22087.31
290.794	22152.2
290.862	22197.03
290.929	22244.66
290.996	22285.93
291.064	22354.09
291.131	22426.65
291.198	22492.5
291.266	22531.02
291.333	22567.95
291.4	22614.09
291.468	22690.94
291.535	22714.52
291.602	22767.31
291.669	22780.09
291.737	22829.31
291.804	22866.14
291.871	22939.77
291.938	22981.43
292.006	23074.22
292.073	23127.59
292.14	23186.56
292.207	23212.07
292.275	23250.98
292.342	23302.33
292.409	23400.09
292.476	23492.83
292.543	23502.24
292.611	23536.19
292.678	23605.54
292.745	23701.07
292.812	23769.51
292.879	23795.36
292.946	23842.91
293.014	23904.54
293.081	23968.31
293.148	24040.5
293.215	24112.27
293.282	24125.54
293.349	24191.19
293.416	24185.35
293.484	24265.76
293.551	24338.26
293.618	24415.24
293.685	24513.13
293.752	24543.52
293.819	24586.61
293.886	24592.88
293.953	24665.77
294.02	24728.73
294.087	24785.23
294.154	24812.2
294.221	24881.84
294.288	24927.58
294.356	25009.93
294.423	25061.7
294.49	25085.54
294.557	25151.55
294.624	25176.06
294.691	25274.64
294.758	25319.04
294.825	25379.74
294.892	25397.94
294.959	25432.01
295.026	25489.49
295.093	25512.08
295.16	25551.55
295.226	25576.21
295.293	25678.17
295.36	25714.6
295.427	25789.52
295.494	25853.21
295.561	25911.7
295.628	26000.04
295.695	26068.15
295.762	26120.58
295.829	26190.39
295.896	26274.58
295.963	26341.84
296.03	26412.42
296.096	26466.12
296.163	26532.46
296.23	26610.54
296.297	26690.21
296.364	26743.51
296.431	26809.53
296.498	26847.33
296.564	26944.77
296.631	26993.54
296.698	26996.82
296.765	27098.15
296.832	27106.99
296.899	27117.66
296.965	27213.98
297.032	27216.01
297.099	27316.51
297.166	27375.19
297.233	27414.81
297.299	27443.65
297.366	27475.48
297.433	27513.26
297.5	27577.81
297.566	27619.22
297.633	27662.41
297.7	27709.71
297.767	27738.5
297.833	27786.78
297.9	27842.05
297.967	27861.95
298.033	27943.67
298.1	28059.33
298.167	28073.1
298.234	28143.79
298.3	28218.45
298.367	28242.61
298.434	28296.37
298.5	28300.67
298.567	28339.48
298.634	28363.35
298.7	28438.07
298.767	28488.39
298.834	28575.21
298.9	28604.21
298.967	28626.35
299.033	28682.77
299.1	28763.76
299.167	28845.49
299.233	28871.6
299.3	28941.51
299.366	29005.8
299.433	29083.24
299.5	29053.59
299.566	29116.54
299.633	29186.81
299.699	29252.87
299.766	29290.49
299.832	29343.22
299.899	29417.42
299.965	29488.94
300.032	29526.56
300.099	29587.02
300.165	29648.45
300.232	29671.23
300.298	29710.07
300.365	29793.06
300.431	29841.39
300.498	29865.49
300.564	29914.97
300.631	29983.91
300.697	30058.66
300.763	30110.91
300.83	30150.5
300.896	30237.77
300.963	30300.72
301.029	30346.59
301.096	30394.65
301.162	30455.13
301.229	30483.68
301.295	30496.27
301.361	30543.89
301.428	30595.79
301.494	30594.58
301.561	30639.4
301.627	30687.89
301.693	30735.12
301.76	30780.96
301.826	30817.45
301.892	30888.27
301.959	30955.27
302.025	30989.73
302.092	31007.21
302.158	31060.79
302.224	31094.01
302.291	31111.05
302.357	31147.75
302.423	31176.75
302.49	31193.21
302.556	31265.46
302.622	31302.35
302.688	31362.24
302.755	31428.93
302.821	31499.7
302.887	31575.65
302.954	31619.09
303.02	31681.6
303.086	31745.67
303.152	31782.81
303.219	31818.11
303.285	31863.11
303.351	31916.49
303.417	31953.69
303.483	31977.51
303.55	32004.73
303.616	32045.13
303.682	32089.19
303.748	32102.08
303.815	32175.61
303.881	32240.57
303.947	32235.72
304.013	32282.47
304.079	32304.41
304.145	32301.41
304.212	32349.31
304.278	32353.96
304.344	32370.19
304.41	32371.31
304.476	32373.82
304.542	32394.65
304.608	32428.03
304.674	32416.5
304.741	32431.33
304.807	32484.63
304.873	32540.54
304.939	32610.94
305.005	32596.79
305.071	32621.79
305.137	32657.29
305.203	32637.77
305.269	32658.41
305.335	32736.92
305.401	32762.89
305.467	32790.61
305.533	32832.76
305.599	32871.39
305.666	32943.54
305.732	32981.72
305.798	33055.92
305.864	33161.82
305.93	33205.53
305.996	33237.13
306.062	33283.07
306.128	33300.08
306.194	33302.6
306.259	33327.86
306.325	33337.11
306.391	33397.84
306.457	33453.04
306.523	33503.11
306.589	33594.53
306.655	33609.85
306.721	33593.37
306.787	33595.59
306.853	33667.29
306.919	33669.43
306.985	33683.97
307.051	33689.06
307.117	33709.18
307.183	33726.34
307.248	33680.76
307.314	33727.11
307.38	33780.69
307.446	33823.3
307.512	33848.27
307.578	33888.46
307.644	33903.24
307.709	33935.63
307.775	33957.01
307.841	33978.39
307.907	34003.99
307.973	33989.15
308.039	34024.16
308.104	34066.48
308.17	34113.65
308.236	34104.83
308.302	34135.17
308.368	34135.37
308.433	34183.9
308.499	34201.36
308.565	34208.83
308.631	34250.72
308.696	34224.24
308.762	34216.97
308.828	34243.69
308.894	34224.3
308.959	34204.66
309.025	34224.79
309.091	34238.22
309.156	34240.4
309.222	34280.31
309.288	34281.91
309.354	34257.53
309.419	34279.98
309.485	34276.68
309.551	34306.9
309.616	34295.6
309.682	34323.63
309.748	34338.03
309.813	34344.43
309.879	34360.14
309.945	34359.46
310.01	34371.59
310.076	34416.3
310.141	34434.29
310.207	34418.19
310.273	34463.37
310.338	34506.09
310.404	34492.76
310.469	34491.79
310.535	34507.45
310.601	34474.08
310.666	34507.26
310.732	34565.6
310.797	34568.31
310.863	34585.43
310.928	34600.52
310.994	34642.81
311.059	34661.87
311.125	34690.58
311.191	34750.93
311.256	34749.28
311.322	34786.14
311.387	34769.51
311.453	35546.34
311.518	35534.46
311.584	35569.58
311.649	35601.93
311.715	35606.53
311.78	35647.47
311.846	35664.3
311.911	35715.67
311.976	35761.99
312.042	35766.5
312.107	35763.98
312.173	35772.27
312.238	35783.52
312.304	35799.39
312.369	35805.06
312.434	35801.09
312.5	35813.6
312.565	35753.93
312.631	35799.03
312.696	35800.73
312.761	35839.44
312.827	35091.81
312.892	35192.82
312.958	35216.4
313.023	35241.19
313.088	35262.1
313.154	35264.28
313.219	35268.99
313.284	35270.35
313.35	35284.32
313.415	35280.92
313.48	35291.06
313.546	35325.65
313.611	35365.48
313.676	35370.29
313.741	35379.31
313.807	35432.97
313.872	35463.53
313.937	35502.39
314.003	35557.95
314.068	35600.84
314.133	35645.09
314.198	35654.85
314.264	35626.16
314.329	35629.41
314.394	35645.96
314.459	35666.29
314.525	35727.62
314.59	35757.84
314.655	35758.18
314.72	35795.4
314.785	35829.8
314.851	35838.34
314.916	35833.24
314.981	35823.3
315.046	35827.61
315.111	35848.33
315.176	35838.77
315.242	35866.09
315.307	35885.31
315.372	35842.07
315.437	35830.67
315.502	35826.98
315.567	35866.72
315.632	35865.75
315.698	35883.51
315.763	35889.68
315.828	35899.62
315.893	35894.62
315.958	35895.11
316.023	35882.15
316.088	35849.54
316.153	35815.29
316.218	35802.63
316.283	35762.75
316.348	35727.63
316.413	35727.05
316.479	35679.7
316.544	35602.28
316.609	35535.18
316.674	35439.92
316.739	35360.86
316.804	35276.8
316.869	35169.65
316.934	35067.82
316.999	34968.58
317.064	34820.51
317.129	34698.72
317.194	34573.89
317.259	34439.44
317.324	34280.13
317.389	34130.9
317.454	34006.57
317.518	33880.33
317.583	33797.61
317.648	33692.7
317.713	33572.63
317.778	33392.2
317.843	33268.89
317.908	33123.05
317.973	32979.15
318.038	32882.23
318.103	32744.06
318.168	32634.31
318.233	32503.85
318.297	32316.61
318.362	32175.16
318.427	32024.08
318.492	31896.82
318.557	31733.6
318.622	31603.61
318.687	31496.23
318.751	31350.05
318.816	31209.34
318.881	31074.24
318.946	30879.46
319.011	30701.01
319.075	30535.41
319.14	30384.54
319.205	30209.86
319.27	30078.91
319.335	29909.53
319.399	29740.91
319.464	29604.42
319.529	29391.86
319.594	29232.17
319.658	29096.3
319.723	28913.97
319.788	28773.5
319.853	28566.48
319.917	28417.29
319.982	28210.55
320.047	28038.97
320.112	27900.63
320.176	27697.87
320.241	27526.97
320.306	27364.3
320.37	27193.36
320.435	27034.88
320.5	26885.82
320.564	26715.17
320.629	26518.89
320.694	26343.04
320.758	26149.81
320.823	25960.65
320.888	25803.31
320.952	25599.05
321.017	25407.59
321.082	25236.13
321.146	25068.62
321.211	24899.6
321.275	24707.3
321.34	24516.18
321.405	24320.84
321.469	24123.01
321.534	23925.61
321.598	23711.75
321.663	23540.95
321.727	23377.99
321.792	23175.65
321.857	22973.34
321.921	22794.5
321.986	22605.9
322.05	22382.2
322.115	22192.69
322.179	21993.49
322.244	21771.42
322.308	21593.94
322.373	21387.64
322.437	21187.89
322.502	21026.89
322.566	20823.64
322.631	20647
322.695	20453.4
322.76	20243.9
322.824	20060.28
322.889	19866.93
322.953	19663.18
323.018	19400.52
323.082	19150.06
323.146	18923.56
323.211	18699.51
323.275	18496.53
323.34	18290.75
323.404	18105.69
323.468	17894.36
323.533	17680.05
323.597	17467.51
323.662	17248.75
323.726	17067.79
323.79	16850.38
323.855	16584.49
323.919	16369.43
323.983	16156.6
324.048	15849.56
324.112	15919.19
324.177	15264.89
324.241	14425.4
324.305	13605.82
324.37	12809.38
324.434	12017.91
324.498	11794.48
324.562	11541.61
324.627	11247.61
324.691	10965.7
324.755	10651.32
324.82	10298.48
324.884	9928.92
324.948	9553.43
325.012	9093.25
325.077	8520.97
