Data from 20250626_urea_1M_exp2_MAYP1162681_06-13-59-816.txt Node
Date: Fri Jun 27 06:13:59 BST 2025
User: adleo
Spectrometer: MAYP116268
Trigger mode: 0
Integration Time (sec): 3.000000E0
Scans to average: 1
Electric dark correction enabled: true
Nonlinearity correction enabled: true
Boxcar width: 10
XAxis mode: Wavelengths
Number of Pixels in Spectrum: 2068
>>>>>Begin Spectral Data<<<<<
179.565	2758.38
179.642	2895.14
179.718	2993.1
179.795	3097.08
179.871	3174.53
179.948	3227.63
180.024	3280.67
180.101	3339.04
180.177	3375.46
180.254	3432.09
180.33	3486.39
180.407	3671.35
180.483	3888.65
180.56	4106.73
180.636	4307.27
180.712	4279.23
180.789	4298.18
180.865	4321.93
180.942	4342.54
181.018	4366.84
181.095	4399
181.171	4412.16
181.248	4417.42
181.324	4461.93
181.4	4474.99
181.477	4506.76
181.553	4532.92
181.63	4582.17
181.706	4619.41
181.782	4639.06
181.859	4641.69
181.935	4662.57
182.011	4657.97
182.088	4694.74
182.164	4739.28
182.24	4771.77
182.317	4795.08
182.393	4789
182.469	4828.82
182.546	4864.92
182.622	4872.05
182.698	4863.76
182.775	4893.01
182.851	4928.59
182.927	4904.56
183.003	4894.7
183.08	4878.57
183.156	4904.18
183.232	4898.24
183.308	4871.24
183.385	4891.19
183.461	4928.6
183.537	4922.85
183.613	4949.33
183.69	4929.26
183.766	4901.23
183.842	4919
183.918	4933.32
183.995	4966.02
184.071	4974.5
184.147	4958.36
184.223	4934.44
184.299	4959.59
184.375	4939.09
184.452	4951.46
184.528	5058.53
184.604	5088.84
184.68	5121.59
184.756	5135.87
184.832	5150.15
184.908	5163.98
184.985	5161.78
185.061	5124.95
185.137	5148.81
185.213	5124.53
185.289	5127.5
185.365	5114.81
185.441	5104.99
185.517	5136.67
185.593	5129.82
185.669	5119.48
185.745	5147.79
185.822	5191.01
185.898	5172.47
185.974	5188.56
186.05	5171.35
186.126	5105.75
186.202	5088.37
186.278	5072.23
186.354	5051.29
186.43	5065.43
186.506	5059.26
186.582	5059.97
186.658	5075.87
186.734	5027.51
186.81	5033.4
186.886	5041.1
186.962	5066.68
187.038	5060.07
187.114	5038.74
187.19	5053.64
187.266	5035.3
187.341	5033.52
187.417	5013.03
187.493	5013.74
187.569	5025.24
187.645	5009.58
187.721	4984.96
187.797	5005.26
187.873	5020.06
187.949	5001.2
188.025	4982.13
188.101	4991.8
188.176	5003.96
188.252	4993.38
188.328	5013.72
188.404	5011.04
188.48	5000.41
188.556	4982.78
188.632	4982.35
188.707	4986.81
188.783	4982.11
188.859	4974.98
188.935	4951.03
189.011	4971.77
189.086	4950.99
189.162	4927.42
189.238	4921.58
189.314	4915.84
189.39	4898.88
189.465	4884.8
189.541	4928.53
189.617	4893.58
189.693	4883.67
189.768	4892.39
189.844	4954.78
189.92	4930.23
189.996	4953.65
190.071	4979.08
190.147	4977.89
190.223	5004.38
190.298	4984.59
190.374	4954.28
190.45	4976.68
190.526	5001.45
190.601	4986.03
190.677	4995.7
190.753	5072.07
190.828	5080.16
190.904	5120.07
190.98	5162.1
191.055	5177.76
191.131	5158.64
191.207	5210.37
191.282	5230.38
191.358	5209.31
191.433	5173.01
191.509	5210.25
191.585	5202.63
191.66	5205.7
191.736	5229.75
191.811	5204.21
191.887	5244.18
191.963	5301.24
192.038	5314.71
192.114	5311.78
192.189	5323.66
192.265	5314.66
192.34	5250.84
192.416	5248.16
192.491	5235.4
192.567	5242.07
192.642	5255.92
192.718	5256.07
192.793	5223.91
192.869	5214.34
192.944	5216.39
193.02	5232.21
193.095	5238.58
193.171	5255.64
193.246	5254.49
193.322	5247.88
193.397	5250.18
193.473	5216.57
193.548	5169.61
193.624	5186.44
193.699	5181.17
193.775	5219.95
193.85	5224.93
193.925	5249.03
194.001	5247.35
194.076	5224.17
194.152	5190.66
194.227	5169.24
194.302	5146.59
194.378	5157.46
194.453	5150.14
194.529	5182.38
194.604	5145.54
194.679	5134.09
194.755	5087.35
194.83	5116.03
194.905	5106.3
194.981	5131.6
195.056	5115.8
195.131	5136.3
195.207	5127.09
195.282	5103
195.357	5057.47
195.433	5091.95
195.508	5062.63
195.583	5085.76
195.659	5124.68
195.734	5140.92
195.809	5141.59
195.884	5160.89
195.96	5160.74
196.035	5200.55
196.11	5195.76
196.185	5225.6
196.261	5228.29
196.336	5303.46
196.411	5268.94
196.486	5283.8
196.561	5261.23
196.637	5280.81
196.712	5319.89
196.787	5330.15
196.862	5371.26
196.937	5394.35
197.013	5413.43
197.088	5439.35
197.163	5488.08
197.238	5531.51
197.313	5529.98
197.388	5562.43
197.464	5641.37
197.539	5670.04
197.614	5652.06
197.689	5676.38
197.764	5719.21
197.839	5771.32
197.914	5757.12
197.989	5815.88
198.065	5850.54
198.14	5980.96
198.215	6048.45
198.29	6073.56
198.365	6106.08
198.44	6131.99
198.515	6203.3
198.59	6237.76
198.665	6302.69
198.74	6322.52
198.815	6321.51
198.89	6378.22
198.965	6454.47
199.04	6443.38
199.115	6481.96
199.19	6586.31
199.265	6598.26
199.34	6621.26
199.415	6708.94
199.49	6761.45
199.565	6779.99
199.64	6838.81
199.715	6831.55
199.79	6844.52
199.865	6860.51
199.94	6853.41
200.015	6932.92
200.09	6944.26
200.165	6960.49
200.24	6975.96
200.315	7074.87
200.39	7112.49
200.464	7127.58
200.539	7123.97
200.614	7161.39
200.689	7222.23
200.764	7241.27
200.839	7276.71
200.914	7294.05
200.989	7262.46
201.063	7299.47
201.138	7255.73
201.213	7253.14
201.288	7201.49
201.363	7215.61
201.438	7215.66
201.512	7259.6
201.587	7215.14
201.662	7224.95
201.737	7254.02
201.812	7278.97
201.886	7198.65
201.961	7224.71
202.036	7192.54
202.111	7190.42
202.186	7113.33
202.26	7067.38
202.335	7009.23
202.41	6999.19
202.485	6949.39
202.559	6905.58
202.634	6835.59
202.709	6858.43
202.784	6810.6
202.858	6808.58
202.933	6758.78
203.008	6740.87
203.082	6690.55
203.157	6688.86
203.232	6578.19
203.306	6525.01
203.381	6434.91
203.456	6377.64
203.53	6320.82
203.605	6279.19
203.68	6219.25
203.754	6207.51
203.829	6169.97
203.904	6118.58
203.978	6089.44
204.053	6104.99
204.127	6072.41
204.202	6064.98
204.277	6022.43
204.351	6011
204.426	5993.34
204.5	5976.65
204.575	5890.34
204.65	5914.15
204.724	5891.72
204.799	5914.2
204.873	5901.86
204.948	5901.82
205.022	5867.78
205.097	5839.88
205.171	5869.04
205.246	5891.17
205.32	5886.95
205.395	5884.84
205.469	5862.94
205.544	5877.97
205.618	5829.37
205.693	5856.72
205.767	5825.45
205.842	5877.85
205.916	5859.05
205.991	5835.11
206.065	5847.68
206.14	5888.07
206.214	5875.25
206.289	5854.13
206.363	5881.71
206.438	5893.62
206.512	5914.82
206.586	5963.69
206.661	5988.84
206.735	5934.87
206.81	5930.93
206.884	5970.01
206.958	5937.74
207.033	5978.73
207.107	5989.96
207.181	6072.8
207.256	6061.43
207.33	6115.49
207.405	6145.28
207.479	6191.48
207.553	6212.54
207.628	6172.55
207.702	6201.14
207.776	6186.93
207.851	6197.35
207.925	6240.8
207.999	6231.3
208.073	6220.65
208.148	6230.2
208.222	6196.93
208.296	6280
208.371	6326.07
208.445	6347.38
208.519	6416.09
208.593	6448.96
208.668	6441.14
208.742	6444.31
208.816	6440.09
208.89	6474.43
208.965	6472.36
209.039	6490.81
209.113	6529.17
209.187	6585.47
209.261	6576.11
209.336	6625.14
209.41	6674.41
209.484	6673.88
209.558	6734.21
209.632	6770.64
209.707	6799.51
209.781	6858.19
209.855	6903.07
209.929	6946.06
210.003	6970.08
210.077	6972.48
210.151	7089.77
210.226	7173.98
210.3	7240.64
210.374	7305.71
210.448	7312.87
210.522	7337.87
210.596	7361.85
210.67	7387.6
210.744	7503.61
210.818	7582.48
210.892	7638.83
210.966	7625.81
211.041	7659.94
211.115	7642.93
211.189	7704.79
211.263	7747.72
211.337	7761.9
211.411	7791.91
211.485	7772.67
211.559	7799.3
211.633	7802.18
211.707	7730.59
211.781	7752.97
211.855	7666.51
211.929	7644.84
212.003	7600.41
212.077	7623.73
212.151	7658.98
212.225	7678.98
212.299	7649.92
212.373	7622.86
212.447	7599.72
212.52	7672.42
212.594	7685.98
212.668	7714.2
212.742	7674.91
212.816	7661.98
212.89	7650.68
212.964	7643.13
213.038	7656.36
213.112	7687.43
213.186	7725.69
213.26	7666.69
213.333	7549.97
213.407	7558.38
213.481	7564.58
213.555	7589.02
213.629	7556.61
213.703	7515.2
213.777	7506.26
213.85	7451.59
213.924	7529.7
213.998	7534.46
214.072	7511.08
214.146	7468.29
214.219	7457.23
214.293	7442.33
214.367	7437.43
214.441	7453
214.515	7418.05
214.588	7348.3
214.662	7253.14
214.736	7192.22
214.81	7206.57
214.883	7224.19
214.957	7195.76
215.031	7156.77
215.105	7093.32
215.178	7049.65
215.252	7020.05
215.326	6956.44
215.4	6899.26
215.473	6765.89
215.547	6699.53
215.621	6653.39
215.694	6652.19
215.768	6582.31
215.842	6538.28
215.915	6491.58
215.989	6407.34
216.063	6369.43
216.136	6354.02
216.21	6343.18
216.284	6351.67
216.357	6332.23
216.431	6299.54
216.504	6295.94
216.578	6338.97
216.652	6347.22
216.725	6330.99
216.799	6336.7
216.873	6317.46
216.946	6319.72
217.02	6297.66
217.093	6277.17
217.167	6208.63
217.24	6148.86
217.314	6121.77
217.387	6089.69
217.461	6051.01
217.535	6071.02
217.608	6018.96
217.682	6000.49
217.755	6003.56
217.829	5966.36
217.902	5956.77
217.976	5944.44
218.049	5910.09
218.123	5850.18
218.196	5849.94
218.27	5820.2
218.343	5769.75
218.417	5770.62
218.49	5756.99
218.563	5785.82
218.637	5794.36
218.71	5846.42
218.784	5862.59
218.857	5892.65
218.931	5906.56
219.004	5912.84
219.077	5926.67
219.151	5942.34
219.224	5937.45
219.298	5934.38
219.371	5963.84
219.444	5934.21
219.518	5939.39
219.591	5945.72
219.665	6028.84
219.738	6038.44
219.811	6028.51
219.885	6063.4
219.958	6088.74
220.031	6092.24
220.105	6106.78
220.178	6113.98
220.251	6095.59
220.325	6119.79
220.398	6130.3
220.471	6143.92
220.544	6172.86
220.618	6155.67
220.691	6175.53
220.764	6191.03
220.838	6212.63
220.911	6205.14
220.984	6265.06
221.057	6294.24
221.131	6314.44
221.204	6239.46
221.277	6291.94
221.35	6382.95
221.424	6375.75
221.497	6382.33
221.57	6403.2
221.643	6432.21
221.716	6465.58
221.79	6472.4
221.863	6474.32
221.936	6479.65
222.009	6491.98
222.082	6515.47
222.155	6523.82
222.229	6573.96
222.302	6593.45
222.375	6599.11
222.448	6627.25
222.521	6634.22
222.594	6634.6
222.667	6621.55
222.74	6667.11
222.814	6661.87
222.887	6653.13
222.96	6691.6
223.033	6730.13
223.106	6746.4
223.179	6767.55
223.252	6772.16
223.325	6787.52
223.398	6807.85
223.471	6825.66
223.544	6838.67
223.617	6849.1
223.69	6865.57
223.763	6841.88
223.837	6864.89
223.91	6886.26
223.983	6851.74
224.056	6829.03
224.129	6845.93
224.202	6883.32
224.275	6872.52
224.348	6850.28
224.42	6828.23
224.493	6786.49
224.566	6764.1
224.639	6777.69
224.712	6753.47
224.785	6741.65
224.858	6740.11
224.931	6719.98
225.004	6691.66
225.077	6697.18
225.15	6626.46
225.223	6626.22
225.296	6684.72
225.369	6631.86
225.442	6608.37
225.514	6619.84
225.587	6632.8
225.66	6637.27
225.733	6636.55
225.806	6638.28
225.879	6630.88
225.952	6598.48
226.025	6638.05
226.097	6668.48
226.17	6663.77
226.243	6618.5
226.316	6616.43
226.389	6617.92
226.461	6636.03
226.534	6659.51
226.607	6651.1
226.68	6710.19
226.753	6703.81
226.825	6641.47
226.898	6686.93
226.971	6690.2
227.044	6710.85
227.117	6716.85
227.189	6732.66
227.262	6762.06
227.335	6781.76
227.407	6783.34
227.48	6807.87
227.553	6811.71
227.626	6802.96
227.698	6807.28
227.771	6838.92
227.844	6828.06
227.916	6844.3
227.989	6817.88
228.062	6814.23
228.134	6880.2
228.207	6884.86
228.28	6882.17
228.352	6894.13
228.425	6902.2
228.498	6937.76
228.57	6928.92
228.643	6969.81
228.716	6968.37
228.788	6962.89
228.861	6955.45
228.934	7005.6
229.006	7016.84
229.079	7025.34
229.151	7017.99
229.224	6994.7
229.296	7007.72
229.369	7080.49
229.442	7117.94
229.514	7107.13
229.587	7142.25
229.659	7083.72
229.732	7090.93
229.804	7123.26
229.877	7185.52
229.949	7207.15
230.022	7246.97
230.094	7243.61
230.167	7240.19
230.239	7214.39
230.312	7203.44
230.384	7260.17
230.457	7254.36
230.529	7265.12
230.602	7264.49
230.674	7269.97
230.747	7301.04
230.819	7329.25
230.892	7243.9
230.964	7245.1
231.037	7264.12
231.109	7255.56
231.181	7289.67
231.254	7268.72
231.326	7257.62
231.399	7240.93
231.471	7219.01
231.544	7159.4
231.616	7191.34
231.688	7195.81
231.761	7182.85
231.833	7172.33
231.905	7105.84
231.978	7107.72
232.05	7093.84
232.122	7092.54
232.195	7076.78
232.267	7101.72
232.339	7084.75
232.412	7142.93
232.484	7120.48
232.556	7099.4
232.629	7153.16
232.701	7166.86
232.773	7175.65
232.846	7162.68
232.918	7164.31
232.99	7180.89
233.062	7206.89
233.135	7214.78
233.207	7184.4
233.279	7219.56
233.351	7244.59
233.424	7254.58
233.496	7235.55
233.568	7294.48
233.64	7267.14
233.713	7275.6
233.785	7281.37
233.857	7292.85
233.929	7245.76
234.001	7291.79
234.074	7345.97
234.146	7290.73
234.218	7287.02
234.29	7285.01
234.362	7286.01
234.434	7249.38
234.507	7221.12
234.579	7185.42
234.651	7175.33
234.723	7199.93
234.795	7212.81
234.867	7211.18
234.939	7247.86
235.012	7259.58
235.084	7261.6
235.156	7287.3
235.228	7276.93
235.3	7258.28
235.372	7262.41
235.444	7310.84
235.516	7254.01
235.588	7258.24
235.66	7269.48
235.732	7252.47
235.804	7396.04
235.876	7427.27
235.948	7469.15
236.02	7482.74
236.092	7494.08
236.164	7502.93
236.236	7502.49
236.308	7504.85
236.38	7527.3
236.452	7512.54
236.524	7527.63
236.596	7575.03
236.668	7605.17
236.74	7625.4
236.812	7645.35
236.884	7675.6
236.956	7683.49
237.028	7680.7
237.1	7668.83
237.172	7724.33
237.244	7776.35
237.316	7690.23
237.388	7677.4
237.46	7664.51
237.532	7710.04
237.604	7701.44
237.675	7752.62
237.747	7781.95
237.819	7766.38
237.891	7766.86
237.963	7765.75
238.035	7760.71
238.107	7682.39
238.178	7732.72
238.25	7738.68
238.322	7808.74
238.394	7774.64
238.466	7771.33
238.538	7799.88
238.609	7824.25
238.681	7776.2
238.753	7764.22
238.825	7779.72
238.897	7805.24
238.968	7868.61
239.04	7860.24
239.112	7949.2
239.184	7917.88
239.255	7919.37
239.327	7948.51
239.399	7965.05
239.471	7997.89
239.542	8032.28
239.614	8077.29
239.686	8013.73
239.758	8054.18
239.829	8024.05
239.901	8072.1
239.973	8083.64
240.044	8114.66
240.116	8126.64
240.188	8142.22
240.259	8149.72
240.331	8144.81
240.403	8170.35
240.474	8133.73
240.546	8119.44
240.618	8079.22
240.689	8079.65
240.761	8099.24
240.833	8151.68
240.904	8148.07
240.976	8148.55
241.048	8153.94
241.119	8185.22
241.191	8222.45
241.262	8266.69
241.334	8270.1
241.405	8276.41
241.477	8285.12
241.549	8286.51
241.62	8303.01
241.692	8338.42
241.763	8382.17
241.835	8395.16
241.906	8408.25
241.978	8381.69
242.049	8441.16
242.121	8484.22
242.192	8533.3
242.264	8500.87
242.335	8458.91
242.407	8498.46
242.478	8502.41
242.55	8517.57
242.621	8507.79
242.693	8506.64
242.764	8504.62
242.836	8511.11
242.907	8529.36
242.979	8552.98
243.05	8574.06
243.122	8594.22
243.193	8590.23
243.264	8544.95
243.336	8548.7
243.407	8575.22
243.479	8641.62
243.55	8653.8
243.622	8661.99
243.693	8666.85
243.764	8725.36
243.836	8712.33
243.907	8708.29
243.978	8707.47
244.05	8722.63
244.121	8689.53
244.192	8720.91
244.264	8682.01
244.335	8690.87
244.407	8657.18
244.478	8664.4
244.549	8661.32
244.62	8628.89
244.692	8628.26
244.763	8656.84
244.834	8655.16
244.906	8638.07
244.977	8650.59
245.048	8688.01
245.119	8669.91
245.191	8648.83
245.262	8605.28
245.333	8664.94
245.405	8677.4
245.476	8707.72
245.547	8721.87
245.618	8766.82
245.689	8768.36
245.761	8794.4
245.832	8796.32
245.903	8831.41
245.974	8851.63
246.045	8858.61
246.117	8930.23
246.188	8919.17
246.259	8913.63
246.33	8919.99
246.401	8933.85
246.473	8913.53
246.544	8897.2
246.615	8945.2
246.686	8956.08
246.757	9010.37
246.828	8992.17
246.899	9045.44
246.97	9020.27
247.042	9020.27
247.113	9042.99
247.184	9115.48
247.255	9115.77
247.326	9138.93
247.397	9140.71
247.468	9145.72
247.539	9153.76
247.61	9112.59
247.681	9152.54
247.752	9190.08
247.823	9176.46
247.894	9180.89
247.965	9154.86
248.037	9148.74
248.108	9110.7
248.179	9111.96
248.25	9103.63
248.321	9126.39
248.392	9088.44
248.463	9150.4
248.534	9149.96
248.605	9170.09
248.675	9149.33
248.746	9166.71
248.817	9178.75
248.888	9196.27
248.959	9160.03
249.03	9179.09
249.101	9184.05
249.172	9166.72
249.243	9112.57
249.314	9157.73
249.385	9164.61
249.456	9185.65
249.527	9182.52
249.598	9197.39
249.669	9197.82
249.739	9205.72
249.81	9216.55
249.881	9185.17
249.952	9177.32
250.023	9177.03
250.094	9137.73
250.165	9117.64
250.235	9109.8
250.306	9115.05
250.377	9095.02
250.448	9118.12
250.519	9074.36
250.59	9119.1
250.66	9124.63
250.731	9175.41
250.802	9177.53
250.873	9196.45
250.944	9215.66
251.014	9206.27
251.085	9280.21
251.156	9302.5
251.227	9339.63
251.297	9378.45
251.368	9417.11
251.439	9445.91
251.51	9483.86
251.58	9474.18
251.651	9466.09
251.722	9507.36
251.792	9474.81
251.863	9463.55
251.934	9509.78
252.005	9594.09
252.075	9602.48
252.146	9635.84
252.217	9676.83
252.287	9703.03
252.358	9713.72
252.429	9768.97
252.499	9765.07
252.57	9768.73
252.641	9803.26
252.711	9814.01
252.782	9783.23
252.852	9845.03
252.923	9844.65
252.994	9856.79
253.064	9893.09
253.135	9880.91
253.205	9863.91
253.276	9912.45
253.347	9975.05
253.417	9952.99
253.488	9936.66
253.558	9930.49
253.629	9928.37
253.699	9933.24
253.77	9962.48
253.841	9948.37
253.911	9951.94
253.982	9962.43
254.052	9986.33
254.123	9985.27
254.193	9978.14
254.264	10076.43
254.334	10048.2
254.405	10023.82
254.475	9994.3
254.546	10003.3
254.616	10047.38
254.687	10071.8
254.757	10089.57
254.827	10092.51
254.898	10113.9
254.968	10122.04
255.039	10105.23
255.109	10135.33
255.18	10123.05
255.25	10072.52
255.321	10103.44
255.391	10074.87
255.461	10146.93
255.532	10083.19
255.602	10086.85
255.673	10053.14
255.743	10024.75
255.813	9967.25
255.884	10011.76
255.954	10045.62
256.024	10089.7
256.095	10094.86
256.165	10072.99
256.235	10091.54
256.306	10080.61
256.376	10120.35
256.446	10154.71
256.517	10184.81
256.587	10218.01
256.657	10236.75
256.728	10249.66
256.798	10250.33
256.868	10248.02
256.938	10222.91
257.009	10262.13
257.079	10285.01
257.149	10355.64
257.219	10321.43
257.29	10359.18
257.36	10315.01
257.43	10339.87
257.5	10297.76
257.571	10291.79
257.641	10316.74
257.711	10290.92
257.781	10313.12
257.852	10323.72
257.922	10276.8
257.992	10278.15
258.062	10274.82
258.132	10300.84
258.202	10305.27
258.273	10315.73
258.343	10376.15
258.413	10366.85
258.483	10366.22
258.553	10347.53
258.623	10335.58
258.693	10353.94
258.764	10406.83
258.834	10464.79
258.904	10477.85
258.974	10468.89
259.044	10478.09
259.114	10504.3
259.184	10525.74
259.254	10535.86
259.324	10499.38
259.394	10537.25
259.464	10595.22
259.535	10600.86
259.605	10594.83
259.675	10592.57
259.745	10626.64
259.815	10603.99
259.885	10603.07
259.955	10689.01
260.025	10686.65
260.095	10692.53
260.165	10717.44
260.235	10759.99
260.305	10748.86
260.375	10726.5
260.445	10797.04
260.515	10841.47
260.585	10878.72
260.655	10889.85
260.725	10921.7
260.795	10952.06
260.865	11001.41
260.934	10983.48
261.004	11007.62
261.074	11012.15
261.144	11054.41
261.214	11073.3
261.284	11077.35
261.354	11104.09
261.424	11075.94
261.494	11126.72
261.564	11134.38
261.634	11157.03
261.703	11109.52
261.773	11128.55
261.843	11156.35
261.913	11148.55
261.983	11111.39
262.053	11119.92
262.123	11120.79
262.192	11086.96
262.262	11109.61
262.332	11079.44
262.402	11102.19
262.472	11107.11
262.541	11066.63
262.611	11104.85
262.681	11090.06
262.751	11127.69
262.821	11138.82
262.89	11105.47
262.96	11131.69
263.03	11188.61
263.1	11201.14
263.169	11217.14
263.239	11242.97
263.309	11300.91
263.379	11324.67
263.448	11338.55
263.518	11364.91
263.588	11376.14
263.657	11445.35
263.727	11487.71
263.797	11494.03
263.867	11496
263.936	11470.85
264.006	11514.31
264.076	11510.4
264.145	11512.18
264.215	11494.59
264.285	11525.87
264.354	11498.88
264.424	11484.43
264.494	11448.32
264.563	11447.7
264.633	11503.37
264.702	11517.63
264.772	11469.67
264.842	11470.97
264.911	11497.87
264.981	11460.75
265.05	11470.1
265.12	11458.44
265.19	11453.57
265.259	11488.56
265.329	11511.98
265.398	11529.09
265.468	11610.65
265.537	11604.62
265.607	11637.01
265.676	11683.96
265.746	11702.66
265.815	11753.16
265.885	11758.99
265.955	11754.46
266.024	11752.78
266.094	11706.7
266.163	11753.31
266.232	11805.85
266.302	11820.6
266.371	11842.48
266.441	11863.21
266.51	11902.92
266.58	11907.02
266.649	11903.69
266.719	11947.37
266.788	11974.79
266.858	12032.15
266.927	11982.5
266.996	12009.3
267.066	12024.87
267.135	11992.63
267.205	12024.68
267.274	12047.67
267.343	12089.94
267.413	12104.5
267.482	12154.05
267.552	12205.82
267.621	12172.99
267.69	12142.24
267.76	12154.72
267.829	12180.85
267.898	12199.84
267.968	12186.63
268.037	12210.44
268.106	12249.78
268.176	12224.95
268.245	12230.55
268.314	12229.29
268.384	12271.76
268.453	12289.01
268.522	12317.46
268.592	12369.99
268.661	12362.43
268.73	12383.88
268.799	12379.83
268.869	12443.65
268.938	12408.94
269.007	12403.4
269.076	12419.11
269.146	12463.89
269.215	12493.06
269.284	12543.77
269.353	12541.07
269.422	12548.78
269.492	12551.29
269.561	12493.59
269.63	12516.44
269.699	12515.14
269.768	12527.86
269.838	12540.78
269.907	12577.85
269.976	12549.94
270.045	12511.96
270.114	12541.94
270.183	12546.57
270.253	12571.68
270.322	12533.27
270.391	12553.17
270.46	12610.15
270.529	12652.04
270.598	12689.74
270.667	12693.45
270.736	12670.26
270.806	12695.04
270.875	12734.33
270.944	12749.27
271.013	12841.25
271.082	12868
271.151	12893.98
271.22	12867.04
271.289	12873.21
271.358	12876.34
271.427	12907.1
271.496	12935.58
271.565	12934.38
271.634	12954.14
271.703	13050.7
271.772	13098.76
271.841	13110.43
271.91	13085.5
271.979	13094.08
272.048	13064.1
272.117	13100.74
272.186	13108.11
272.255	13154.73
272.324	13194.35
272.393	13216.82
272.462	13214.45
272.531	13231.86
272.6	13243.23
272.669	13305.13
272.738	13323.35
272.807	13349.14
272.876	13337.67
272.945	13440.11
273.013	13486
273.082	13536.09
273.151	13464.11
273.22	13493.57
273.289	13519.12
273.358	13587.96
273.427	13603.38
273.496	13647.59
273.564	13680.85
273.633	13729.06
273.702	13715.46
273.771	13728.04
273.84	13758.56
273.909	13793.89
273.977	13824.46
274.046	13842
274.115	13889.58
274.184	13890.11
274.253	13908.29
274.322	13982
274.39	13945.41
274.459	13949.17
274.528	13913.06
274.597	13935.33
274.665	13964.93
274.734	14015.11
274.803	14023.16
274.872	14042.06
274.94	14039.84
275.009	14204.15
275.078	14206.28
275.147	14239.49
275.215	14255.83
275.284	14303.27
275.353	14323.66
275.421	14295.6
275.49	14367.23
275.559	14372.05
275.627	14396.98
275.696	14419.15
275.765	14445.95
275.833	14455.79
275.902	14486.16
275.971	14554.46
276.039	14622.82
276.108	14671.17
276.177	14697.77
276.245	14699.8
276.314	14716.96
276.383	14768.59
276.451	14644.53
276.52	14681.36
276.588	14753.32
276.657	14802.2
276.725	14813.29
276.794	14841.25
276.863	14911.43
276.931	14895.29
277	14944.55
277.068	15000.51
277.137	15064.05
277.205	15092.68
277.274	15171.64
277.342	15233.67
277.411	15214.24
277.48	15220.85
277.548	15223.64
277.617	15263.17
277.685	15288.48
277.754	15342.46
277.822	15362.18
277.89	15432.55
277.959	15443.83
278.027	15421.66
278.096	15435.92
278.164	15533.38
278.233	15538.64
278.301	15538.25
278.37	15575.61
278.438	15579.08
278.507	15618.17
278.575	15597.39
278.643	15622.46
278.712	15616.87
278.78	15618.17
278.849	15683.53
278.917	15743.4
278.985	15771.06
279.054	15805.48
279.122	15862.54
279.191	15893.68
279.259	15908.62
279.327	15897.39
279.396	15983.28
279.464	16010.42
279.532	16062.28
279.601	16079.87
279.669	16113.61
279.737	16191.26
279.806	16237.14
279.874	16295.85
279.942	16330.31
280.011	16355.32
280.079	16409.26
280.147	16485.55
280.215	16531.29
280.284	16557.8
280.352	16560.84
280.42	16606.24
280.488	16623.44
280.557	16649.71
280.625	16691.59
280.693	16741.62
280.761	16774.06
280.83	16763.31
280.898	16841.68
280.966	16829.34
281.034	16797.19
281.102	16800.57
281.171	16810.93
281.239	16869.34
281.307	16886.11
281.375	16897.49
281.443	16996.14
281.512	17017.92
281.58	17071.85
281.648	17064.67
281.716	17109.39
281.784	17143.23
281.852	17167.13
281.92	17203.18
281.989	17257.97
282.057	17246.46
282.125	17350.31
282.193	17390.89
282.261	17422.26
282.329	17438.21
282.397	17480.48
282.465	17524.63
282.533	17599.28
282.601	17610.56
282.67	17588.29
282.738	17598.41
282.806	17662.51
282.874	17667.52
282.942	17718.22
283.01	17732.82
283.078	17793.54
283.146	17809.69
283.214	17862.55
283.282	17911.47
283.35	17974.11
283.418	18001.58
283.486	18055.61
283.554	18026.84
283.622	18058.93
283.69	18101.15
283.758	18126.21
283.826	18183.65
283.894	18245
283.962	18322.87
284.03	18395.78
284.098	18434.1
284.165	18470.43
284.233	18500.36
284.301	18520.74
284.369	18531.15
284.437	18543.01
284.505	18559.58
284.573	18637.46
284.641	18644.3
284.709	18693.65
284.777	18695.77
284.845	18750.18
284.912	18798.8
284.98	18840.34
285.048	18866.31
285.116	18922.98
285.184	18986.11
285.252	19015.41
285.319	19010.59
285.387	19026.79
285.455	19026.35
285.523	19081.77
285.591	19111.26
285.659	19150.49
285.726	19220.08
285.794	19233.38
285.862	19281.61
285.93	19319.83
285.997	19341.42
286.065	19375.68
286.133	19385.56
286.201	19412.11
286.269	19415.58
286.336	19435.97
286.404	19458.86
286.472	19522.9
286.539	19498.32
286.607	19490.42
286.675	19535.48
286.743	19589.6
286.81	19614.66
286.878	19690.8
286.946	19713.25
287.013	19753.49
287.081	19791.85
287.149	19788.19
287.216	19872.38
287.284	19884.91
287.352	19927.46
287.419	19954.35
287.487	20033.68
287.555	20083.03
287.622	20110.16
287.69	20153.87
287.758	20217.05
287.825	20250.06
287.893	20250.35
287.96	20306.2
288.028	20386.49
288.096	20422.97
288.163	20476.08
288.231	20487.99
288.298	20526.93
288.366	20596.33
288.433	20628.23
288.501	20638.01
288.569	20680.62
288.636	20697.97
288.704	20762.98
288.771	20815.8
288.839	20841.49
288.906	20850.74
288.974	20900.48
289.041	20937.45
289.109	20950.99
289.176	21007.53
289.244	21059.44
289.311	21124.55
289.379	21181.71
289.446	21213.86
289.514	21243.64
289.581	21276.81
289.649	21320.62
289.716	21363.71
289.783	21382.8
289.851	21468.83
289.918	21509.46
289.986	21583.64
290.053	21631.17
290.121	21663.95
290.188	21707.33
290.255	21817.38
290.323	21853
290.39	21877.44
290.458	21941.21
290.525	22017.85
290.592	22043.16
290.66	22081.29
290.727	22117.97
290.794	22189.95
290.862	22227.84
290.929	22284.72
290.996	22331.34
291.064	22387.16
291.131	22442.8
291.198	22508.7
291.266	22536.08
291.333	22585.88
291.4	22629.42
291.468	22707.62
291.535	22732.98
291.602	22776.08
291.669	22785.01
291.737	22823.57
291.804	22866.92
291.871	22938.95
291.938	22983.55
292.006	23085.79
292.073	23149.53
292.14	23208.94
292.207	23225.91
292.275	23261.98
292.342	23311.84
292.409	23397.83
292.476	23498.09
292.543	23516.61
292.611	23551.87
292.678	23628.11
292.745	23724.61
292.812	23781.57
292.879	23801.34
292.946	23856.22
293.014	23922.1
293.081	23974
293.148	24046.09
293.215	24117.14
293.282	24136.58
293.349	24200.1
293.416	24188.77
293.484	24254.03
293.551	24303.14
293.618	24380.17
293.685	24493.59
293.752	24519.2
293.819	24550.76
293.886	24551.1
293.953	24604.78
294.02	24679.18
294.087	24732.21
294.154	24743.16
294.221	24820.81
294.288	24857.57
294.356	24934.76
294.423	24999.42
294.49	25033.19
294.557	25106.3
294.624	25129.26
294.691	25217.23
294.758	25255.88
294.825	25314.08
294.892	25326.38
294.959	25382.07
295.026	25449.74
295.093	25461.32
295.16	25512.76
295.226	25553.3
295.293	25666.21
295.36	25719.97
295.427	25786.16
295.494	25853.12
295.561	25931.8
295.628	26028.4
295.695	26115.53
295.762	26167.09
295.829	26227.83
295.896	26311.44
295.963	26370.83
296.03	26443
296.096	26497.13
296.163	26577.33
296.23	26662.32
296.297	26752.5
296.364	26791.61
296.431	26847.82
296.498	26884.04
296.564	26981.81
296.631	27037.4
296.698	27033.97
296.765	27120.22
296.832	27123.51
296.899	27142.2
296.965	27227.31
297.032	27208.27
297.099	27304.62
297.166	27372.73
297.233	27415.1
297.299	27430.85
297.366	27474.96
297.433	27524.33
297.5	27592.36
297.566	27633.91
297.633	27668.7
297.7	27727.46
297.767	27762.33
297.833	27807.42
297.9	27861.33
297.967	27868.33
298.033	27931.25
298.1	28048.4
298.167	28074.69
298.234	28143.64
298.3	28209.36
298.367	28230.29
298.434	28280.27
298.5	28280.41
298.567	28307.23
298.634	28337.68
298.7	28426.9
298.767	28475.67
298.834	28539.14
298.9	28564.37
298.967	28587.53
299.033	28654.78
299.1	28716.96
299.167	28799.03
299.233	28836.55
299.3	28909.94
299.366	28986.6
299.433	29066.4
299.5	29041.01
299.566	29090.71
299.633	29166.1
299.699	29234.73
299.766	29264.75
299.832	29322.21
299.899	29384.75
299.965	29464.49
300.032	29498.97
300.099	29551.21
300.165	29606.54
300.232	29648.38
300.298	29692.78
300.365	29762.13
300.431	29804.08
300.498	29840.07
300.564	29897.35
300.631	29966.19
300.697	30034.47
300.763	30077.52
300.83	30127.56
300.896	30205.98
300.963	30278.65
301.029	30326.17
301.096	30370.26
301.162	30443.46
301.229	30481.25
301.295	30498.53
301.361	30540.83
301.428	30585.19
301.494	30578.13
301.561	30616.65
301.627	30668
301.693	30716.53
301.76	30773.94
301.826	30804.14
301.892	30869.4
301.959	30923.42
302.025	30949.85
302.092	30990.86
302.158	31049.62
302.224	31076.3
302.291	31086.66
302.357	31107.04
302.423	31133.62
302.49	31151.43
302.556	31210.02
302.622	31251.51
302.688	31317.55
302.755	31376.44
302.821	31445.32
302.887	31526.69
302.954	31572.79
303.02	31626.68
303.086	31680.96
303.152	31706.63
303.219	31742.9
303.285	31786.25
303.351	31839.29
303.417	31879.87
303.483	31888.54
303.55	31915.03
303.616	31959.6
303.682	32008.26
303.748	32034.89
303.815	32099.66
303.881	32169.41
303.947	32189.61
304.013	32229.33
304.079	32242.6
304.145	32241.29
304.212	32275.2
304.278	32298.64
304.344	32330.71
304.41	32338.36
304.476	32347.9
304.542	32380.84
304.608	32429.58
304.674	32427.4
304.741	32456.04
304.807	32504.3
304.873	32559.29
304.939	32621.21
305.005	32599.84
305.071	32629.92
305.137	32671.1
305.203	32654.96
305.269	32679.24
305.335	32747
305.401	32766.23
305.467	32805.96
305.533	32862.51
305.599	32906.8
305.666	32961.12
305.732	32983.32
305.798	33053.59
305.864	33148.92
305.93	33193.56
305.996	33218.71
306.062	33248.66
306.128	33268.53
306.194	33274.35
306.259	33297.23
306.325	33308.71
306.391	33387.03
306.457	33437.43
306.523	33479.74
306.589	33565.2
306.655	33570.58
306.721	33551.09
306.787	33564.23
306.853	33631.71
306.919	33622.26
306.985	33649.26
307.051	33667.58
307.117	33693.47
307.183	33707.87
307.248	33674.31
307.314	33714.02
307.38	33758.77
307.446	33811.91
307.512	33822.43
307.578	33866.01
307.644	33892.87
307.709	33935.39
307.775	33943.39
307.841	33976.31
307.907	33999.19
307.973	33990.56
308.039	34025.27
308.104	34080.01
308.17	34114.09
308.236	34105.85
308.302	34139.44
308.368	34133.48
308.433	34161.5
308.499	34183.76
308.565	34185.89
308.631	34218.95
308.696	34189.86
308.762	34188.46
308.828	34200.43
308.894	34181.82
308.959	34150.45
309.025	34149.82
309.091	34171.02
309.156	34191.63
309.222	34229.12
309.288	34231.64
309.354	34204.1
309.419	34231.26
309.485	34213.94
309.551	34261.91
309.616	34249.54
309.682	34277.28
309.748	34297.55
309.813	34311.8
309.879	34323.73
309.945	34330.18
310.01	34352.34
310.076	34384.98
310.141	34405.49
310.207	34408.06
310.273	34458.05
310.338	34516.87
310.404	34518.9
310.469	34508.14
310.535	34503.77
310.601	34459.98
310.666	34501.01
310.732	34567.78
310.797	34568.46
310.863	34573.89
310.928	34584.51
310.994	34629.37
311.059	34655.66
311.125	34678.07
311.191	34732.79
311.256	34741.37
311.322	34780.03
311.387	34760.14
311.453	35464.09
311.518	35444.3
311.584	35477.19
311.649	35510.56
311.715	35512.74
311.78	35551.83
311.846	35561.24
311.911	35615.28
311.976	35668.1
312.042	35657.76
312.107	35650.63
312.173	35661.69
312.238	35685.26
312.304	35698.56
312.369	35709.42
312.434	35705.64
312.5	35722.86
312.565	35677.93
312.631	35703.4
312.696	35706.31
312.761	35741.13
312.827	35087.1
312.892	35174.72
312.958	35197.43
313.023	35205.33
313.088	35227.11
313.154	35210.19
313.219	35214.75
313.284	35215.52
313.35	35223.87
313.415	35232.45
313.48	35247.63
313.546	35280.72
313.611	35320.41
313.676	35323.56
313.741	35326.66
313.807	35368.24
313.872	35400.41
313.937	35430.49
314.003	35482.16
314.068	35510.83
314.133	35553
314.198	35550.67
314.264	35537.03
314.329	35517.82
314.394	35541.59
314.459	35558.82
314.525	35631.83
314.59	35653.37
314.655	35644.06
314.72	35676.66
314.785	35707.08
314.851	35698.74
314.916	35672.78
314.981	35661.19
315.046	35666.33
315.111	35667.25
315.176	35665.5
315.242	35686.76
315.307	35708.01
315.372	35679.53
315.437	35689.38
315.502	35680.45
315.567	35727.13
315.632	35702.43
315.698	35743.44
315.763	35762.02
315.828	35766.25
315.893	35764.74
315.958	35773.23
316.023	35776.82
316.088	35753.14
316.153	35711.66
316.218	35724.42
316.283	35700.46
316.348	35666.21
316.413	35652.29
316.479	35614.94
316.544	35529.96
316.609	35450.93
316.674	35358.52
316.739	35271.9
316.804	35175.37
316.869	35081.66
316.934	34968.68
316.999	34883.96
317.064	34725.95
317.129	34588.83
317.194	34471.91
317.259	34322.39
317.324	34168.55
317.389	34024.41
317.454	33894.55
317.518	33769.59
317.583	33667.23
317.648	33555.89
317.713	33433.74
317.778	33254.98
317.843	33148.4
317.908	33014.04
317.973	32879.7
318.038	32765.73
318.103	32634.84
318.168	32508.48
318.233	32379.27
318.297	32204.4
318.362	32068.48
318.427	31929.37
318.492	31822.55
318.557	31653.18
318.622	31528.62
318.687	31416.51
318.751	31266.84
318.816	31123.33
318.881	31002.17
318.946	30802.73
319.011	30641.09
319.075	30487.38
319.14	30349.35
319.205	30173.06
319.27	30022.87
319.335	29853.78
319.399	29695.11
319.464	29552.62
319.529	29349.86
319.594	29195.72
319.658	29051.01
319.723	28874.82
319.788	28735.26
319.853	28518.07
319.917	28365.94
319.982	28165.69
320.047	27992.05
320.112	27852.59
320.176	27654.15
320.241	27480.63
320.306	27327.94
320.37	27155.4
320.435	26982.86
320.5	26815.52
320.564	26637.61
320.629	26457
320.694	26287.04
320.758	26095.55
320.823	25906.84
320.888	25763.31
320.952	25547.99
321.017	25370.23
321.082	25187.87
321.146	25021.76
321.211	24848.83
321.275	24660.44
321.34	24472.69
321.405	24290.1
321.469	24082.38
321.534	23895.4
321.598	23679.61
321.663	23518.17
321.727	23347.98
321.792	23155.52
321.857	22964.81
321.921	22781.78
321.986	22598.62
322.05	22377.38
322.115	22196.25
322.179	21993.02
322.244	21761.73
322.308	21594.57
322.373	21383.49
322.437	21192.18
322.502	21023.95
322.566	20824.98
322.631	20653.79
322.695	20471.09
322.76	20265.97
322.824	20089.97
322.889	19877.48
322.953	19674.79
323.018	19411.65
323.082	19154.06
323.146	18920.71
323.211	18702.74
323.275	18490.36
323.34	18273.3
323.404	18079.51
323.468	17870.65
323.533	17658.74
323.597	17454.93
323.662	17231.79
323.726	17045.47
323.79	16829.22
323.855	16561.88
323.919	16340.37
323.983	16119.96
324.048	15801.74
324.112	15911.52
324.177	15255.88
324.241	14431.12
324.305	13612.27
324.37	12811.15
324.434	12032.31
324.498	11814.25
324.562	11563.5
324.627	11288.08
324.691	11015.34
324.755	10708.56
324.82	10351.43
324.884	9994.84
324.948	9614.68
325.012	9152.19
325.077	8594.75
