Data from 20250626_urea_1M_exp2_MAYP1162681_05-53-59-918.txt Node
Date: Fri Jun 27 05:53:59 BST 2025
User: adleo
Spectrometer: MAYP116268
Trigger mode: 0
Integration Time (sec): 3.000000E0
Scans to average: 1
Electric dark correction enabled: true
Nonlinearity correction enabled: true
Boxcar width: 10
XAxis mode: Wavelengths
Number of Pixels in Spectrum: 2068
>>>>>Begin Spectral Data<<<<<
179.565	2704.39
179.642	2843.52
179.718	2949.04
179.795	3051.18
179.871	3131.86
179.948	3182.83
180.024	3235.29
180.101	3290.07
180.177	3322.28
180.254	3377.02
180.33	3430.62
180.407	3615.87
180.483	3828.67
180.56	4038.42
180.636	4235.38
180.712	4205.9
180.789	4224.75
180.865	4253.62
180.942	4271.93
181.018	4296.84
181.095	4333.93
181.171	4345.7
181.248	4349.09
181.324	4392.69
181.4	4405.23
181.477	4430.68
181.553	4458.51
181.63	4506.65
181.706	4545.42
181.782	4568.79
181.859	4573
181.935	4589.85
182.011	4582.1
182.088	4618.28
182.164	4666.17
182.24	4697.26
182.317	4719.6
182.393	4717.45
182.469	4751.43
182.546	4786.76
182.622	4799.15
182.698	4785.41
182.775	4816.24
182.851	4850.32
182.927	4827.15
183.003	4816.57
183.08	4803.46
183.156	4827.01
183.232	4820.55
183.308	4796.8
183.385	4816.28
183.461	4855.35
183.537	4858.13
183.613	4882.45
183.69	4865.6
183.766	4840.4
183.842	4859.46
183.918	4878.47
183.995	4907.04
184.071	4912.94
184.147	4901.01
184.223	4872.4
184.299	4904.21
184.375	4875.63
184.452	4892.21
184.528	4992.13
184.604	5021.96
184.68	5057
184.756	5072.82
184.832	5082.25
184.908	5090.24
184.985	5093.69
185.061	5053.09
185.137	5074.36
185.213	5055.15
185.289	5054.1
185.365	5038.07
185.441	5031.55
185.517	5061.07
185.593	5054.42
185.669	5051.16
185.745	5075.83
185.822	5116.41
185.898	5093.75
185.974	5116.87
186.05	5094.63
186.126	5038.2
186.202	5015.17
186.278	4999.99
186.354	4976.85
186.43	4992.91
186.506	4989.8
186.582	4985.1
186.658	5003.86
186.734	4952.02
186.81	4952.69
186.886	4963.27
186.962	4987.64
187.038	4978.92
187.114	4960.85
187.19	4977.04
187.266	4950.42
187.341	4950.04
187.417	4933.81
187.493	4938.17
187.569	4948.42
187.645	4934.91
187.721	4904.25
187.797	4929.91
187.873	4938.63
187.949	4922.16
188.025	4906.83
188.101	4913.82
188.176	4926.89
188.252	4914.59
188.328	4938.75
188.404	4936.31
188.48	4924.2
188.556	4907.92
188.632	4911.12
188.707	4913.38
188.783	4911.46
188.859	4905.1
188.935	4880.91
189.011	4900.78
189.086	4882.49
189.162	4862.04
189.238	4860.99
189.314	4855.96
189.39	4838.29
189.465	4822.25
189.541	4865.3
189.617	4828.78
189.693	4816.76
189.768	4825.29
189.844	4888.54
189.92	4863.71
189.996	4887.41
190.071	4910.01
190.147	4914.37
190.223	4932.81
190.298	4912.21
190.374	4876.64
190.45	4903.29
190.526	4919.39
190.601	4908.8
190.677	4911.29
190.753	4982.38
190.828	4989.75
190.904	5025.49
190.98	5065.06
191.055	5087
191.131	5065.29
191.207	5119.88
191.282	5142.14
191.358	5115.23
191.433	5074.39
191.509	5107.7
191.585	5097.59
191.66	5108.32
191.736	5126.19
191.811	5105.69
191.887	5143.64
191.963	5206.11
192.038	5217.65
192.114	5220.14
192.189	5226.99
192.265	5220.82
192.34	5162.51
192.416	5156.34
192.491	5142.63
192.567	5150.35
192.642	5159.89
192.718	5163.14
192.793	5128.84
192.869	5121.03
192.944	5127.64
193.02	5146.18
193.095	5152.03
193.171	5170.18
193.246	5161.37
193.322	5151.88
193.397	5155.33
193.473	5121.35
193.548	5074.39
193.624	5091.16
193.699	5087.71
193.775	5127.64
193.85	5133.91
193.925	5151.45
194.001	5151.26
194.076	5129.27
194.152	5101.09
194.227	5080.87
194.302	5058.37
194.378	5069.91
194.453	5063.45
194.529	5096.69
194.604	5060.96
194.679	5050.95
194.755	5003.55
194.83	5037.4
194.905	5033.57
194.981	5053.4
195.056	5037.46
195.131	5056.09
195.207	5048.47
195.282	5025.53
195.357	4975.21
195.433	5010.08
195.508	4986.66
195.583	5008.73
195.659	5048.64
195.734	5061.39
195.809	5060.14
195.884	5079.01
195.96	5077.09
196.035	5114.07
196.11	5103.67
196.185	5138.83
196.261	5144.19
196.336	5219.3
196.411	5180.38
196.486	5192.78
196.561	5172.66
196.637	5197.18
196.712	5232.46
196.787	5241.28
196.862	5281.42
196.937	5306.19
197.013	5322.54
197.088	5344.38
197.163	5395.84
197.238	5435.18
197.313	5438.54
197.388	5473.09
197.464	5545.55
197.539	5575.07
197.614	5563.33
197.689	5591.04
197.764	5628.55
197.839	5681.81
197.914	5668.47
197.989	5726.11
198.065	5763.12
198.14	5890.01
198.215	5950.25
198.29	5978.57
198.365	6012.87
198.44	6038.67
198.515	6107.81
198.59	6143.03
198.665	6208.33
198.74	6229.45
198.815	6232.67
198.89	6288.47
198.965	6360.87
199.04	6352.28
199.115	6394.21
199.19	6493.18
199.265	6505.41
199.34	6530.28
199.415	6609.93
199.49	6661.66
199.565	6680.29
199.64	6738.63
199.715	6727.77
199.79	6743.66
199.865	6757.49
199.94	6751.88
200.015	6829.45
200.09	6842.81
200.165	6857.17
200.24	6876.53
200.315	6966.01
200.39	7007.47
200.464	7021.88
200.539	7031.44
200.614	7071.36
200.689	7122.43
200.764	7138.05
200.839	7176.61
200.914	7186.75
200.989	7161.6
201.063	7198.89
201.138	7159.49
201.213	7153.1
201.288	7104.82
201.363	7117.74
201.438	7118.99
201.512	7151.25
201.587	7104.16
201.662	7116.61
201.737	7147.65
201.812	7165.14
201.886	7086.76
201.961	7106.52
202.036	7076.8
202.111	7064.4
202.186	6989.51
202.26	6944.87
202.335	6889.19
202.41	6876.94
202.485	6834.88
202.559	6780.95
202.634	6709.29
202.709	6732.27
202.784	6687.47
202.858	6693.09
202.933	6644.79
203.008	6630.95
203.082	6593.84
203.157	6598.45
203.232	6491.25
203.306	6434.23
203.381	6354.37
203.456	6296
203.53	6239.86
203.605	6192.09
203.68	6135.1
203.754	6124.5
203.829	6091.82
203.904	6040.34
203.978	6007.66
204.053	6015.1
204.127	5988.52
204.202	5985.21
204.277	5939.12
204.351	5926.89
204.426	5909.85
204.5	5892
204.575	5803.45
204.65	5822.79
204.724	5799.7
204.799	5819.58
204.873	5813.01
204.948	5811.52
205.022	5785.49
205.097	5761.39
205.171	5791.7
205.246	5808.73
205.32	5804.23
205.395	5801.73
205.469	5785.92
205.544	5801.61
205.618	5760.66
205.693	5789.48
205.767	5757.5
205.842	5813.82
205.916	5795.03
205.991	5767.21
206.065	5779.44
206.14	5817.42
206.214	5803.89
206.289	5786.95
206.363	5814.96
206.438	5820.52
206.512	5835.73
206.586	5875.57
206.661	5900.97
206.735	5847.2
206.81	5850.51
206.884	5884.79
206.958	5851.61
207.033	5893.37
207.107	5911.03
207.181	5993.15
207.256	5976.94
207.33	6027.29
207.405	6055.92
207.479	6098.37
207.553	6118.95
207.628	6085.82
207.702	6117.24
207.776	6102.41
207.851	6106.49
207.925	6144.03
207.999	6131.6
208.073	6126.76
208.148	6145.28
208.222	6112.84
208.296	6196.99
208.371	6236.23
208.445	6262.01
208.519	6333.49
208.593	6363.43
208.668	6353.16
208.742	6358.06
208.816	6364.25
208.89	6395.51
208.965	6394.41
209.039	6422.64
209.113	6460.66
209.187	6507.8
209.261	6497.53
209.336	6551.64
209.41	6601.86
209.484	6603.88
209.558	6661.55
209.632	6692.94
209.707	6712.15
209.781	6770.64
209.855	6804.94
209.929	6846.72
210.003	6865.79
210.077	6864.88
210.151	6980.57
210.226	7060.64
210.3	7123.45
210.374	7181.93
210.448	7195.53
210.522	7218.84
210.596	7244.46
210.67	7274.73
210.744	7392.88
210.818	7473
210.892	7517.13
210.966	7506.75
211.041	7540.2
211.115	7537.89
211.189	7593.69
211.263	7633.77
211.337	7645.65
211.411	7685.32
211.485	7671.56
211.559	7700.44
211.633	7706.64
211.707	7628.8
211.781	7649.4
211.855	7567.03
211.929	7545.22
212.003	7500.07
212.077	7523.88
212.151	7546.19
212.225	7562.3
212.299	7534.97
212.373	7506.51
212.447	7496.41
212.52	7564.4
212.594	7571.85
212.668	7595.69
212.742	7563.43
212.816	7545.79
212.89	7529.54
212.964	7520.26
213.038	7528.48
213.112	7558.21
213.186	7595.26
213.26	7542.47
213.333	7425.77
213.407	7432.98
213.481	7438.89
213.555	7462.03
213.629	7431.25
213.703	7388.66
213.777	7375.44
213.85	7322.02
213.924	7400.03
213.998	7396.95
214.072	7376.56
214.146	7341.75
214.219	7331.27
214.293	7321.71
214.367	7329.5
214.441	7346.03
214.515	7307.67
214.588	7240.53
214.662	7147.78
214.736	7089.07
214.81	7098.67
214.883	7115.04
214.957	7076.92
215.031	7041.48
215.105	6979.53
215.178	6931.78
215.252	6909.78
215.326	6847.67
215.4	6789.45
215.473	6660.84
215.547	6596.7
215.621	6545.46
215.694	6539.6
215.768	6464.79
215.842	6414.14
215.915	6364.13
215.989	6287
216.063	6253.19
216.136	6237.64
216.21	6222.14
216.284	6231.31
216.357	6212.11
216.431	6183.17
216.504	6185.48
216.578	6223.84
216.652	6236.4
216.725	6219.31
216.799	6223.16
216.873	6208.47
216.946	6210.34
217.02	6178.03
217.093	6158.16
217.167	6089.46
217.24	6029.41
217.314	6004.86
217.387	5974.52
217.461	5940.07
217.535	5953.55
217.608	5904.95
217.682	5890.94
217.755	5895.93
217.829	5855.48
217.902	5843.15
217.976	5829.58
218.049	5796.24
218.123	5737.73
218.196	5735.96
218.27	5709.1
218.343	5655.02
218.417	5652.48
218.49	5637.28
218.563	5674.25
218.637	5678.47
218.71	5734.31
218.784	5756.14
218.857	5782.99
218.931	5796.36
219.004	5801.44
219.077	5817.33
219.151	5832.33
219.224	5827.59
219.298	5828.3
219.371	5861.22
219.444	5835.53
219.518	5843.82
219.591	5855.38
219.665	5935.75
219.738	5940.64
219.811	5931.73
219.885	5969.19
219.958	5990.45
220.031	5995.24
220.105	6011.37
220.178	6019.67
220.251	5999.65
220.325	6020.1
220.398	6025.76
220.471	6042.02
220.544	6072.25
220.618	6052.42
220.691	6077.13
220.764	6089.65
220.838	6111.87
220.911	6100.21
220.984	6163.87
221.057	6190.35
221.131	6207.76
221.204	6136.31
221.277	6185.22
221.35	6277.19
221.424	6270.27
221.497	6280.31
221.57	6298.2
221.643	6315.87
221.716	6350.82
221.79	6359.17
221.863	6370.07
221.936	6380.73
222.009	6391.04
222.082	6408.81
222.155	6424.55
222.229	6472.96
222.302	6492.74
222.375	6495.57
222.448	6523.9
222.521	6528.32
222.594	6532.35
222.667	6514.74
222.74	6560.78
222.814	6557.65
222.887	6544.3
222.96	6583.38
223.033	6615.23
223.106	6633.85
223.179	6658.35
223.252	6662.53
223.325	6684.09
223.398	6687.5
223.471	6708.77
223.544	6723.65
223.617	6736.95
223.69	6747.95
223.763	6714.99
223.837	6726.66
223.91	6747.03
223.983	6712.75
224.056	6688.8
224.129	6701.28
224.202	6741.83
224.275	6727.13
224.348	6706.01
224.42	6684.68
224.493	6648.28
224.566	6630.55
224.639	6651.3
224.712	6628.67
224.785	6617.43
224.858	6612.58
224.931	6601.05
225.004	6574.74
225.077	6573.16
225.15	6502.84
225.223	6499.14
225.296	6558.44
225.369	6523.78
225.442	6503.8
225.514	6513.92
225.587	6525.73
225.66	6531.93
225.733	6531.3
225.806	6537.5
225.879	6533.9
225.952	6512.15
226.025	6543.61
226.097	6582.58
226.17	6572.49
226.243	6530.01
226.316	6528.71
226.389	6530.44
226.461	6550.14
226.534	6567.7
226.607	6564.15
226.68	6626.93
226.753	6626.59
226.825	6566.19
226.898	6603.44
226.971	6599.99
227.044	6615.59
227.117	6625.24
227.189	6635.28
227.262	6662.95
227.335	6673.61
227.407	6673.13
227.48	6693.48
227.553	6701.75
227.626	6688.34
227.698	6692.32
227.771	6717.18
227.844	6699.51
227.916	6713.58
227.989	6683.86
228.062	6686.59
228.134	6750.54
228.207	6754.29
228.28	6754.05
228.352	6761.82
228.425	6770.23
228.498	6803.66
228.57	6792.28
228.643	6836.68
228.716	6844.13
228.788	6833.27
228.861	6837.64
228.934	6882.5
229.006	6888.55
229.079	6884.95
229.151	6873.85
229.224	6851.76
229.296	6873.66
229.369	6956.75
229.442	6992.08
229.514	6984.16
229.587	7010.43
229.659	6955.61
229.732	6962.67
229.804	6980.83
229.877	7038.98
229.949	7063.69
230.022	7101.96
230.094	7102.63
230.167	7094.74
230.239	7061.27
230.312	7054.83
230.384	7105.02
230.457	7103.91
230.529	7116.26
230.602	7123.27
230.674	7131.25
230.747	7164.52
230.819	7180.72
230.892	7093.31
230.964	7089.99
231.037	7108.14
231.109	7102.95
231.181	7131.57
231.254	7105.68
231.326	7101.45
231.399	7090.92
231.471	7068.62
231.544	7009.45
231.616	7047.3
231.688	7047.35
231.761	7039.62
231.833	7033.04
231.905	6970.12
231.978	6968.39
232.05	6949.9
232.122	6949.85
232.195	6931.4
232.267	6946.73
232.339	6935.54
232.412	6982.51
232.484	6958.33
232.556	6937.06
232.629	6986.68
232.701	7000.42
232.773	7008.83
232.846	7006.47
232.918	7004.31
232.99	7017.14
233.062	7052.31
233.135	7055.63
233.207	7029.59
233.279	7059.69
233.351	7079.44
233.424	7080.97
233.496	7067.43
233.568	7126.87
233.64	7104.53
233.713	7119.81
233.785	7125.96
233.857	7129.8
233.929	7096.18
234.001	7153.35
234.074	7204.98
234.146	7153.68
234.218	7144.26
234.29	7145.46
234.362	7138.5
234.434	7101.59
234.507	7074.78
234.579	7033.5
234.651	7022.69
234.723	7044.51
234.795	7063.3
234.867	7063.87
234.939	7110.25
235.012	7122.21
235.084	7131.69
235.156	7154.26
235.228	7143.02
235.3	7130
235.372	7144.13
235.444	7186.02
235.516	7121.35
235.588	7124.04
235.66	7129.14
235.732	7111.07
235.804	7254.82
235.876	7283.98
235.948	7332.53
236.02	7338.92
236.092	7352.61
236.164	7360.11
236.236	7360.3
236.308	7352.85
236.38	7371.11
236.452	7356.64
236.524	7368.46
236.596	7412.73
236.668	7438.4
236.74	7448.06
236.812	7465.75
236.884	7488.97
236.956	7495.12
237.028	7487.05
237.1	7471.15
237.172	7528.61
237.244	7588.26
237.316	7497.48
237.388	7482.53
237.46	7467.44
237.532	7515.07
237.604	7511.8
237.675	7565.56
237.747	7599.61
237.819	7595.14
237.891	7597.4
237.963	7589.95
238.035	7585.86
238.107	7510.29
238.178	7557.53
238.25	7564.79
238.322	7636.23
238.394	7607.1
238.466	7607.72
238.538	7647.18
238.609	7678.61
238.681	7639.46
238.753	7621.14
238.825	7635.57
238.897	7656.95
238.968	7716.8
239.04	7705.74
239.112	7786.95
239.184	7759.92
239.255	7756.31
239.327	7784.81
239.399	7803.33
239.471	7840.11
239.542	7868.86
239.614	7915.65
239.686	7852.35
239.758	7892.07
239.829	7857.9
239.901	7903.39
239.973	7916.95
240.044	7939.89
240.116	7955.18
240.188	7966.82
240.259	7981.15
240.331	7971.96
240.403	8000.28
240.474	7965.58
240.546	7954.86
240.618	7909.41
240.689	7903.3
240.761	7917.88
240.833	7962.81
240.904	7958.53
240.976	7953.14
241.048	7966.22
241.119	7990.38
241.191	8026.25
241.262	8076.84
241.334	8090.84
241.405	8091.46
241.477	8089.49
241.549	8095.17
241.62	8112.01
241.692	8144.91
241.763	8192.31
241.835	8211.02
241.906	8224.88
241.978	8199.68
242.049	8249.31
242.121	8295.44
242.192	8352.64
242.264	8326.38
242.335	8287.89
242.407	8319.11
242.478	8322
242.55	8333.06
242.621	8322.19
242.693	8316.8
242.764	8304.28
242.836	8300.48
242.907	8319.73
242.979	8347.58
243.05	8366.54
243.122	8378.19
243.193	8374.86
243.264	8322.94
243.336	8321.65
243.407	8348.69
243.479	8413.06
243.55	8427.5
243.622	8437.22
243.693	8432.94
243.764	8491.73
243.836	8478.18
243.907	8472.21
243.978	8475.67
244.05	8496.37
244.121	8461.25
244.192	8492.86
244.264	8457.87
244.335	8463.6
244.407	8431.7
244.478	8442.62
244.549	8435.31
244.62	8412.02
244.692	8409.95
244.763	8441.42
244.834	8435.06
244.906	8417.5
244.977	8427.66
245.048	8470.89
245.119	8454.53
245.191	8434.27
245.262	8380.91
245.333	8432.09
245.405	8443.64
245.476	8473.47
245.547	8485.36
245.618	8520.87
245.689	8529.29
245.761	8559.61
245.832	8563.6
245.903	8599.4
245.974	8620.34
246.045	8629.1
246.117	8687.67
246.188	8680.74
246.259	8662.02
246.33	8682.33
246.401	8686.09
246.473	8663.51
246.544	8646.03
246.615	8689.35
246.686	8705.13
246.757	8771.01
246.828	8760.33
246.899	8814.3
246.97	8779.9
247.042	8770.56
247.113	8808.2
247.184	8873.65
247.255	8874.61
247.326	8899.74
247.397	8906
247.468	8911.39
247.539	8921.31
247.61	8889.2
247.681	8917.25
247.752	8957.29
247.823	8935.06
247.894	8954.26
247.965	8933.04
248.037	8927.6
248.108	8893.13
248.179	8894.05
248.25	8875.03
248.321	8892.4
248.392	8858.46
248.463	8921.69
248.534	8920.44
248.605	8930.89
248.675	8912.78
248.746	8920.14
248.817	8927.17
248.888	8936.18
248.959	8897.53
249.03	8915
249.101	8922.37
249.172	8913.8
249.243	8864.67
249.314	8909.62
249.385	8913.86
249.456	8935.66
249.527	8925.3
249.598	8939.46
249.669	8927.86
249.739	8939.8
249.81	8951.64
249.881	8917.42
249.952	8910.87
250.023	8911.26
250.094	8874.33
250.165	8850.97
250.235	8848.66
250.306	8850.68
250.377	8829.36
250.448	8848.13
250.519	8802.83
250.59	8840.34
250.66	8842.75
250.731	8894.81
250.802	8892.26
250.873	8905.07
250.944	8920.43
251.014	8914.94
251.085	8979.81
251.156	9007.72
251.227	9042.78
251.297	9080.63
251.368	9123.46
251.439	9157.37
251.51	9195.79
251.58	9184.14
251.651	9180.14
251.722	9220.93
251.792	9188.29
251.863	9194.35
251.934	9240.14
252.005	9323.24
252.075	9332.29
252.146	9367.58
252.217	9399.36
252.287	9433.84
252.358	9436.44
252.429	9490.72
252.499	9485.47
252.57	9495.83
252.641	9524.91
252.711	9529.34
252.782	9494.53
252.852	9551.75
252.923	9549
252.994	9558.06
253.064	9595.12
253.135	9576.93
253.205	9556.22
253.276	9610.29
253.347	9659.45
253.417	9640.14
253.488	9624.72
253.558	9617.26
253.629	9617.16
253.699	9630.07
253.77	9650.02
253.841	9642.99
253.911	9650.65
253.982	9667.78
254.052	9685.27
254.123	9696.54
254.193	9696.4
254.264	9800.84
254.334	9770.97
254.405	9750.6
254.475	9726.18
254.546	9730.23
254.616	9780.79
254.687	9809.88
254.757	9827.41
254.827	9829.19
254.898	9853.61
254.968	9861.12
255.039	9850.58
255.109	9872.97
255.18	9848.12
255.25	9799.14
255.321	9825.67
255.391	9797.2
255.461	9862.76
255.532	9802.63
255.602	9797.14
255.673	9762.47
255.743	9732.93
255.813	9681.84
255.884	9715.75
255.954	9744.36
256.024	9794.17
256.095	9793.15
256.165	9768.54
256.235	9787.91
256.306	9769.66
256.376	9800.06
256.446	9827.51
256.517	9848.9
256.587	9884.55
256.657	9903.81
256.728	9923.7
256.798	9929.67
256.868	9930.59
256.938	9913
257.009	9951.73
257.079	9975.91
257.149	10049.66
257.219	10007.7
257.29	10040.19
257.36	9992.37
257.43	10023.3
257.5	9976.43
257.571	9975.9
257.641	10001.24
257.711	9970.31
257.781	10001.71
257.852	10018.81
257.922	9969.88
257.992	9974.69
258.062	9966.79
258.132	10002.83
258.202	10008.27
258.273	10024.36
258.343	10079.86
258.413	10061.02
258.483	10059.24
258.553	10040.26
258.623	10027.59
258.693	10049.32
258.764	10099.31
258.834	10155.37
258.904	10164.67
258.974	10153.65
259.044	10164.53
259.114	10183.32
259.184	10209.72
259.254	10210.25
259.324	10168.29
259.394	10205.71
259.464	10263.72
259.535	10274.76
259.605	10271.09
259.675	10256.65
259.745	10281.89
259.815	10259.29
259.885	10265.12
259.955	10347.92
260.025	10339.54
260.095	10345.22
260.165	10369.26
260.235	10410.17
260.305	10400.97
260.375	10376.93
260.445	10451.88
260.515	10490.29
260.585	10531.29
260.655	10535.97
260.725	10568.25
260.795	10594.7
260.865	10649.43
260.934	10622.3
261.004	10645.19
261.074	10648.57
261.144	10704.49
261.214	10726.76
261.284	10730.66
261.354	10760.48
261.424	10728.48
261.494	10781.08
261.564	10786.86
261.634	10809.18
261.703	10768.46
261.773	10790.91
261.843	10820.25
261.913	10808.69
261.983	10773.75
262.053	10782.24
262.123	10778.33
262.192	10751.4
262.262	10785.52
262.332	10751.11
262.402	10780.31
262.472	10778.24
262.541	10735.56
262.611	10769.1
262.681	10754.3
262.751	10787.22
262.821	10794.88
262.89	10774.11
262.96	10803.31
263.03	10860.9
263.1	10877.48
263.169	10894.44
263.239	10917.91
263.309	10972.18
263.379	11001.28
263.448	11017.04
263.518	11045.38
263.588	11060.51
263.657	11117.85
263.727	11138.67
263.797	11146.23
263.867	11145.56
263.936	11126.04
264.006	11169.02
264.076	11156.87
264.145	11161.59
264.215	11143.23
264.285	11172.72
264.354	11143.19
264.424	11129.65
264.494	11091.04
264.563	11082.61
264.633	11130.85
264.702	11146.8
264.772	11100.96
264.842	11098.55
264.911	11128.48
264.981	11091.37
265.05	11099.9
265.12	11096.96
265.19	11113.3
265.259	11149.92
265.329	11172.04
265.398	11189.2
265.468	11265.4
265.537	11262.17
265.607	11283.81
265.676	11329.11
265.746	11345.25
265.815	11389.54
265.885	11397.78
265.955	11393.78
266.024	11394.31
266.094	11357.1
266.163	11410.65
266.232	11463.38
266.302	11472.25
266.371	11491.14
266.441	11514.37
266.51	11551.87
266.58	11553.8
266.649	11544.3
266.719	11580.11
266.788	11611.93
266.858	11666.49
266.927	11622.14
266.996	11648.12
267.066	11672.75
267.135	11642.72
267.205	11673.62
267.274	11701.28
267.343	11735.7
267.413	11748.18
267.482	11797.44
267.552	11843.9
267.621	11807.94
267.69	11774.2
267.76	11788.03
267.829	11809.53
267.898	11825.44
267.968	11817.73
268.037	11846.65
268.106	11885.69
268.176	11866.94
268.245	11873.78
268.314	11874.36
268.384	11915.96
268.453	11932.59
268.522	11953.75
268.592	12007.97
268.661	11997.61
268.73	12017.56
268.799	12007.78
268.869	12072.56
268.938	12045.13
269.007	12043.3
269.076	12056.22
269.146	12104.71
269.215	12133.97
269.284	12182.94
269.353	12175.52
269.422	12183.42
269.492	12181.64
269.561	12127.51
269.63	12152.09
269.699	12150.36
269.768	12161.4
269.838	12177.59
269.907	12215.92
269.976	12193.55
270.045	12159.23
270.114	12196.59
270.183	12199
270.253	12223.92
270.322	12188.78
270.391	12210.57
270.46	12256.6
270.529	12297.96
270.598	12323.07
270.667	12333.2
270.736	12321.39
270.806	12347.66
270.875	12389.26
270.944	12404.01
271.013	12495.06
271.082	12513.04
271.151	12539.89
271.22	12517.53
271.289	12525.1
271.358	12527.79
271.427	12565.49
271.496	12587.95
271.565	12584.96
271.634	12604.34
271.703	12700.7
271.772	12749.15
271.841	12762.21
271.91	12743.32
271.979	12760.96
272.048	12747.7
272.117	12785.88
272.186	12787.42
272.255	12836.16
272.324	12873.33
272.393	12896.85
272.462	12889.23
272.531	12914.54
272.6	12927.75
272.669	12990.42
272.738	13006.61
272.807	13037.85
272.876	13022.76
272.945	13131.08
273.013	13179.72
273.082	13224.51
273.151	13163.96
273.22	13187.34
273.289	13204.21
273.358	13271.12
273.427	13276.33
273.496	13313.06
273.564	13340.54
273.633	13385.76
273.702	13373.56
273.771	13380.12
273.84	13407.88
273.909	13446.59
273.977	13479.04
274.046	13486.51
274.115	13526.66
274.184	13522.08
274.253	13533.7
274.322	13592.46
274.39	13543.1
274.459	13531.29
274.528	13508.3
274.597	13526.08
274.665	13559.83
274.734	13614.5
274.803	13631.03
274.872	13649.69
274.94	13656.39
275.009	13818
275.078	13810.29
275.147	13841
275.215	13871.99
275.284	13926.27
275.353	13936.01
275.421	13905.5
275.49	13978.91
275.559	13981.42
275.627	14014.39
275.696	14029.87
275.765	14059.52
275.833	14074.85
275.902	14116.59
275.971	14170.54
276.039	14240.48
276.108	14276.83
276.177	14311.92
276.245	14308.4
276.314	14329.18
276.383	14375.99
276.451	14260.12
276.52	14310.69
276.588	14379.14
276.657	14412.98
276.725	14421.75
276.794	14447.83
276.863	14523.99
276.931	14509.82
277	14569.06
277.068	14614.81
277.137	14691.17
277.205	14723.61
277.274	14802.57
277.342	14862.24
277.411	14855.64
277.48	14859.69
277.548	14870
277.617	14890.68
277.685	14914.64
277.754	14973.11
277.822	14986.37
277.89	15050.76
277.959	15065.37
278.027	15043.1
278.096	15057.13
278.164	15158.49
278.233	15174.26
278.301	15173.73
278.37	15213.69
278.438	15211.03
278.507	15258.32
278.575	15233.4
278.643	15254.56
278.712	15244.29
278.78	15238.66
278.849	15307.44
278.917	15367.74
278.985	15388.03
279.054	15434.93
279.122	15496.39
279.191	15514.32
279.259	15541.02
279.327	15516.88
279.396	15588.65
279.464	15626.24
279.532	15675.12
279.601	15696.28
279.669	15722.21
279.737	15799.33
279.806	15850.18
279.874	15914.67
279.942	15940.79
280.011	15973.76
280.079	16035.07
280.147	16119.76
280.215	16168.34
280.284	16180.63
280.352	16176.39
280.42	16228.78
280.488	16243.68
280.557	16271.15
280.625	16316.02
280.693	16355.3
280.761	16406.92
280.83	16407.74
280.898	16466.54
280.966	16448.23
281.034	16410.15
281.102	16414.35
281.171	16425.24
281.239	16462.06
281.307	16464.13
281.375	16476.81
281.443	16564.33
281.512	16582.21
281.58	16634.12
281.648	16635.27
281.716	16680.48
281.784	16712.97
281.852	16736.44
281.92	16769.07
281.989	16817.55
282.057	16820.92
282.125	16929.31
282.193	16967.72
282.261	16999.29
282.329	17021.7
282.397	17082.86
282.465	17118.76
282.533	17196.89
282.601	17213.04
282.67	17202
282.738	17228.46
282.806	17285.95
282.874	17291.54
282.942	17332.85
283.01	17339.79
283.078	17386.97
283.146	17407.16
283.214	17470.2
283.282	17514.39
283.35	17572.56
283.418	17597.23
283.486	17643.45
283.554	17607.59
283.622	17633.57
283.69	17668.46
283.758	17692.56
283.826	17741.18
283.894	17802.96
283.962	17883.59
284.03	17955.54
284.098	18001.27
284.165	18023.54
284.233	18072.06
284.301	18093.03
284.369	18112.98
284.437	18128.69
284.505	18153.8
284.573	18228.64
284.641	18240.78
284.709	18285.89
284.777	18284.39
284.845	18336.92
284.912	18386.32
284.98	18439.04
285.048	18464.24
285.116	18516.09
285.184	18580.67
285.252	18613.29
285.319	18615.32
285.387	18628.23
285.455	18621.68
285.523	18673.05
285.591	18709.72
285.659	18744.8
285.726	18819.21
285.794	18816.41
285.862	18854.39
285.93	18889.66
285.997	18918.91
286.065	18948.16
286.133	18965.27
286.201	19002.33
286.269	19012.83
286.336	19027.77
286.404	19052.01
286.472	19111.38
286.539	19092.54
286.607	19091.58
286.675	19127.53
286.743	19181.93
286.81	19208.97
286.878	19281.4
286.946	19304.53
287.013	19335.61
287.081	19361.49
287.149	19353.59
287.216	19452.33
287.284	19473.72
287.352	19519.7
287.419	19549.67
287.487	19626.25
287.555	19673.86
287.622	19706.63
287.69	19752.36
287.758	19820.65
287.825	19837.61
287.893	19835.92
287.96	19894.04
288.028	19962.47
288.096	20004.01
288.163	20046.04
288.231	20052.16
288.298	20087.72
288.366	20151.29
288.433	20188.68
288.501	20206.56
288.569	20255.24
288.636	20272.3
288.704	20351.24
288.771	20400.83
288.839	20410.13
288.906	20417.89
288.974	20480.4
289.041	20518.71
289.109	20533.46
289.176	20587.05
289.244	20645.08
289.311	20723.83
289.379	20786.04
289.446	20831.88
289.514	20872.75
289.581	20907.11
289.649	20961.76
289.716	21002.97
289.783	21029.1
289.851	21110.69
289.918	21153.92
289.986	21204.09
290.053	21250.8
290.121	21268.97
290.188	21309.31
290.255	21420.07
290.323	21450.58
290.39	21471.31
290.458	21517.43
290.525	21589.11
290.592	21608.97
290.66	21642.8
290.727	21669.46
290.794	21731.88
290.862	21764.13
290.929	21803.37
290.996	21842.46
291.064	21898.13
291.131	21958.2
291.198	22023.76
291.266	22052.2
291.333	22102.04
291.4	22161.53
291.468	22240.88
291.535	22275.54
291.602	22330.93
291.669	22343.13
291.737	22393.36
291.804	22436.94
291.871	22517.07
291.938	22572.61
292.006	22677.15
292.073	22746.62
292.14	22809.58
292.207	22838.46
292.275	22879.06
292.342	22942.03
292.409	23051.25
292.476	23149.81
292.543	23163.51
292.611	23192.44
292.678	23265.97
292.745	23359.81
292.812	23419.94
292.879	23439.52
292.946	23491.31
293.014	23549.85
293.081	23609.84
293.148	23684
293.215	23762.81
293.282	23786.68
293.349	23844.7
293.416	23830.19
293.484	23889.41
293.551	23950.04
293.618	24022.09
293.685	24117.36
293.752	24139.78
293.819	24161.4
293.886	24170.56
293.953	24236.49
294.02	24303.54
294.087	24360.99
294.154	24372.72
294.221	24443.59
294.288	24482.76
294.356	24556.71
294.423	24615.33
294.49	24638.63
294.557	24708.73
294.624	24717.46
294.691	24794.22
294.758	24833.11
294.825	24893.41
294.892	24921.06
294.959	24946.97
295.026	25001.74
295.093	25023.98
295.16	25076.28
295.226	25112.86
295.293	25206.06
295.36	25247.17
295.427	25316.52
295.494	25386.46
295.561	25460.54
295.628	25554.51
295.695	25637.76
295.762	25686.65
295.829	25749.6
295.896	25838.5
295.963	25900.2
296.03	25969.5
296.096	26029.36
296.163	26095.84
296.23	26175.11
296.297	26245.91
296.364	26299.01
296.431	26359.6
296.498	26404.25
296.564	26494.09
296.631	26548.12
296.698	26557.1
296.765	26653.86
296.832	26671.73
296.899	26688.53
296.965	26773.96
297.032	26767.68
297.099	26849.8
297.166	26923.25
297.233	26953.49
297.299	26969.81
297.366	27007.29
297.433	27053.56
297.5	27115.97
297.566	27156.88
297.633	27197.36
297.7	27255.27
297.767	27291.3
297.833	27347.97
297.9	27390.18
297.967	27401.82
298.033	27473.42
298.1	27583.11
298.167	27598.95
298.234	27650.35
298.3	27700.35
298.367	27715.72
298.434	27764.57
298.5	27771.87
298.567	27793.81
298.634	27841.21
298.7	27919.38
298.767	27966.11
298.834	28039.32
298.9	28063.29
298.967	28089.15
299.033	28155.7
299.1	28235.71
299.167	28317.22
299.233	28343.28
299.3	28424.71
299.366	28501.74
299.433	28572.09
299.5	28543.43
299.566	28606.26
299.633	28695.99
299.699	28767.54
299.766	28803.02
299.832	28857.41
299.899	28932.75
299.965	29004.54
300.032	29031.8
300.099	29099.07
300.165	29154.58
300.232	29183.79
300.298	29237.6
300.365	29314.09
300.431	29348.97
300.498	29357.48
300.564	29408.26
300.631	29468.51
300.697	29529.51
300.763	29564.76
300.83	29624.14
300.896	29704.71
300.963	29756.9
301.029	29799.14
301.096	29854
301.162	29919.68
301.229	29958
301.295	29967.82
301.361	30015.13
301.428	30069.16
301.494	30072.64
301.561	30113.23
301.627	30164.71
301.693	30204.48
301.76	30252.91
301.826	30286.83
301.892	30361.49
301.959	30427.6
302.025	30464.13
302.092	30493.61
302.158	30560
302.224	30577.38
302.291	30593.97
302.357	30637.29
302.423	30654.52
302.49	30679.35
302.556	30756.61
302.622	30787.93
302.688	30854.62
302.755	30921.24
302.821	30981.4
302.887	31054.91
302.954	31097.03
303.02	31153.86
303.086	31211.32
303.152	31244.68
303.219	31269.22
303.285	31316.63
303.351	31360.36
303.417	31400.63
303.483	31433.85
303.55	31457.81
303.616	31500.33
303.682	31541.91
303.748	31550.43
303.815	31627.58
303.881	31680.8
303.947	31680.07
304.013	31712.13
304.079	31716.97
304.145	31695.18
304.212	31725.05
304.278	31729.31
304.344	31755.8
304.41	31764.76
304.476	31771.69
304.542	31795.47
304.608	31860.51
304.674	31855.71
304.741	31880.32
304.807	31929.29
304.873	31958.16
304.939	32029.12
305.005	32012.85
305.071	32051.4
305.137	32111.16
305.203	32091.25
305.269	32129.19
305.335	32194.21
305.401	32239.6
305.467	32276.16
305.533	32343.64
305.599	32398.48
305.666	32453.89
305.732	32489.36
305.798	32549.72
305.864	32635.14
305.93	32676.32
305.996	32694.3
306.062	32743.62
306.128	32777.35
306.194	32788.83
306.259	32828.51
306.325	32838.5
306.391	32901.09
306.457	32948.82
306.523	32979.54
306.589	33068.42
306.655	33074.09
306.721	33058.1
306.787	33057.37
306.853	33135.74
306.919	33129.1
306.985	33147.95
307.051	33179.4
307.117	33197.38
307.183	33221.23
307.248	33190.5
307.314	33239.55
307.38	33286.13
307.446	33332.86
307.512	33321.96
307.578	33354.62
307.644	33368.82
307.709	33399.55
307.775	33420.35
307.841	33441.77
307.907	33457.91
307.973	33444.34
308.039	33479.77
308.104	33531.78
308.17	33577.24
308.236	33567.35
308.302	33604.76
308.368	33594.25
308.433	33603.84
308.499	33621.83
308.565	33622.99
308.631	33664.87
308.696	33633.21
308.762	33625.55
308.828	33636.71
308.894	33631.33
308.959	33606.37
309.025	33608.74
309.091	33629.01
309.156	33645.88
309.222	33674.63
309.288	33678.65
309.354	33650.93
309.419	33674.01
309.485	33664.31
309.551	33696.89
309.616	33686.62
309.682	33716.72
309.748	33745.81
309.813	33772.91
309.879	33790.65
309.945	33788.23
310.01	33806.75
310.076	33849.6
310.141	33869
310.207	33859.25
310.273	33899.19
310.338	33950.67
310.404	33952.61
310.469	33945.14
310.535	33950.67
310.601	33930.55
310.666	33976.47
310.732	34032.85
310.797	34038.62
310.863	34045.89
310.928	34048.99
310.994	34083.75
311.059	34103.35
311.125	34120.75
311.191	34160.86
311.256	34162.51
311.322	34206.87
311.387	34191.99
311.453	35015.99
311.518	35010.9
311.584	35035.59
311.649	35086.36
311.715	35091.11
311.78	35127.67
311.846	35137.27
311.911	35181.01
311.976	35215.97
312.042	35208.36
312.107	35201.28
312.173	35202.3
312.238	35227.61
312.304	35252.25
312.369	35274.85
312.434	35268.73
312.5	35287.21
312.565	35252.24
312.631	35285.41
312.696	35306.51
312.761	35338.85
312.827	34551.8
312.892	34644.35
312.958	34669.67
313.023	34686.31
313.088	34701
313.154	34695.13
313.219	34700.42
313.284	34704.25
313.35	34716.62
313.415	34721.03
313.48	34747.66
313.546	34784.86
313.611	34819.49
313.676	34813.72
313.741	34807.7
313.807	34864.75
313.872	34893.12
313.937	34932.41
314.003	34980.43
314.068	34995.86
314.133	35044.52
314.198	35034.96
314.264	35006.09
314.329	35009.24
314.394	35019.87
314.459	35040.14
314.525	35113.48
314.59	35140.79
314.655	35132.25
314.72	35168.59
314.785	35197.88
314.851	35202.39
314.916	35180.61
314.981	35177.07
315.046	35189.44
315.111	35192.79
315.176	35178.43
315.242	35201.08
315.307	35208.21
315.372	35193.08
315.437	35197.54
315.502	35187.98
315.567	35241.83
315.632	35233.73
315.698	35257.5
315.763	35268.81
315.828	35269.58
315.893	35270.65
315.958	35270.7
316.023	35272.54
316.088	35238.73
316.153	35202.69
316.218	35198.96
316.283	35169.33
316.348	35137.03
316.413	35140.96
316.479	35115.64
316.544	35026.17
316.609	34960.83
316.674	34879.85
316.739	34780.15
316.804	34689.42
316.869	34590.39
316.934	34481.8
316.999	34397.77
317.064	34242.08
317.129	34108.34
317.194	34002.9
317.259	33860.58
317.324	33707.9
317.389	33565.5
317.454	33445.91
317.518	33328.53
317.583	33238.02
317.648	33151.02
317.713	33023.85
317.778	32835.76
317.843	32718.55
317.908	32590.48
317.973	32442.26
318.038	32329.67
318.103	32191.36
318.168	32066.97
318.233	31944.48
318.297	31775.51
318.362	31632.98
318.427	31511.08
318.492	31403.14
318.557	31232.41
318.622	31111.79
318.687	31010.4
318.751	30864.89
318.816	30729.64
318.881	30590.27
318.946	30393.91
319.011	30218.38
319.075	30058.77
319.14	29909.51
319.205	29736.52
319.27	29596.41
319.335	29435.17
319.399	29267.64
319.464	29138.59
319.529	28939.45
319.594	28778.29
319.658	28634.19
319.723	28461.52
319.788	28310.34
319.853	28111.42
319.917	27966.67
319.982	27767.12
320.047	27589.12
320.112	27445.06
320.176	27249.4
320.241	27084.54
320.306	26931.03
320.37	26757.27
320.435	26601.62
320.5	26455.51
320.564	26284.98
320.629	26098.7
320.694	25930.89
320.758	25750.41
320.823	25554.79
320.888	25407.23
320.952	25194.8
321.017	25018.18
321.082	24834.11
321.146	24657.67
321.211	24480.51
321.275	24293.78
321.34	24104.27
321.405	23908.59
321.469	23711.23
321.534	23516.02
321.598	23316.12
321.663	23149.01
321.727	22977.58
321.792	22768.94
321.857	22572.78
321.921	22391.17
321.986	22199.55
322.05	21970.61
322.115	21791.19
322.179	21603.88
322.244	21377.09
322.308	21217.5
322.373	21004.85
322.437	20818.9
322.502	20674.2
322.566	20474.38
322.631	20295.87
322.695	20104.59
322.76	19911.77
322.824	19733.36
322.889	19541.89
322.953	19332.5
323.018	19070.13
323.082	18819.92
323.146	18602.96
323.211	18379.44
323.275	18173.42
323.34	17975.98
323.404	17801.13
323.468	17593.61
323.533	17384.89
323.597	17185.98
323.662	16967.37
323.726	16783.6
323.79	16567.44
323.855	16304.54
323.919	16088.27
323.983	15887.96
324.048	15581.5
324.112	15675.71
324.177	15032.93
324.241	14208.07
324.305	13401.41
324.37	12615.72
324.434	11846.27
324.498	11629.01
324.562	11388.29
324.627	11113.92
324.691	10839.11
324.755	10530.27
324.82	10182.21
324.884	9824.26
324.948	9452.29
325.012	8991.74
325.077	8446.99
