Data from 20250626_urea_1M_exp2_MAYP1162681_09-03-59-000.txt Node
Date: Fri Jun 27 09:03:59 BST 2025
User: adleo
Spectrometer: MAYP116268
Trigger mode: 0
Integration Time (sec): 3.000000E0
Scans to average: 1
Electric dark correction enabled: true
Nonlinearity correction enabled: true
Boxcar width: 10
XAxis mode: Wavelengths
Number of Pixels in Spectrum: 2068
>>>>>Begin Spectral Data<<<<<
179.565	3009.64
179.642	3171.27
179.718	3291.4
179.795	3407.37
179.871	3495.08
179.948	3550.03
180.024	3608.68
180.101	3673.26
180.177	3709.89
180.254	3772.01
180.33	3833.14
180.407	4041.91
180.483	4276.87
180.56	4513.57
180.636	4730.76
180.712	4695.7
180.789	4721.36
180.865	4751.79
180.942	4779.93
181.018	4808.03
181.095	4851.81
181.171	4864.5
181.248	4863.64
181.324	4905.41
181.4	4921.08
181.477	4954.37
181.553	4984.95
181.63	5036.35
181.706	5077.6
181.782	5107.75
181.859	5107.46
181.935	5124.57
182.011	5119.01
182.088	5162.37
182.164	5214
182.24	5249.63
182.317	5277.84
182.393	5268.88
182.469	5309.7
182.546	5343.15
182.622	5355.46
182.698	5341.94
182.775	5377.17
182.851	5412.34
182.927	5391.3
183.003	5374.97
183.08	5354.8
183.156	5377.22
183.232	5374.77
183.308	5341.57
183.385	5358.19
183.461	5400.17
183.537	5400.13
183.613	5429.32
183.69	5404.58
183.766	5381.32
183.842	5403.13
183.918	5416.03
183.995	5452.54
184.071	5460.79
184.147	5446.7
184.223	5418.44
184.299	5447.26
184.375	5414.52
184.452	5433.28
184.528	5535.55
184.604	5570.38
184.68	5605.75
184.756	5632.37
184.832	5644.17
184.908	5664.33
184.985	5661.94
185.061	5623.45
185.137	5645.7
185.213	5619.24
185.289	5625.23
185.365	5603.57
185.441	5595.61
185.517	5632.69
185.593	5624.2
185.669	5611.3
185.745	5637.1
185.822	5679.35
185.898	5660.17
185.974	5687.91
186.05	5664.8
186.126	5604.09
186.202	5579.27
186.278	5565.51
186.354	5537.93
186.43	5554.53
186.506	5543.13
186.582	5544.04
186.658	5565.46
186.734	5516.38
186.81	5518.01
186.886	5524.1
186.962	5552.19
187.038	5545.33
187.114	5521.34
187.19	5540.71
187.266	5518.86
187.341	5524.67
187.417	5507.27
187.493	5506.65
187.569	5510.53
187.645	5497.73
187.721	5463.83
187.797	5489.57
187.873	5503.09
187.949	5484.93
188.025	5464.16
188.101	5473.55
188.176	5485.86
188.252	5472.45
188.328	5495.15
188.404	5492.66
188.48	5479.63
188.556	5455.85
188.632	5453.93
188.707	5456.24
188.783	5450.05
188.859	5436.69
188.935	5403.56
189.011	5420.28
189.086	5400.49
189.162	5378.92
189.238	5373.08
189.314	5370.06
189.39	5352.51
189.465	5333.24
189.541	5378.69
189.617	5339.2
189.693	5326.84
189.768	5340.37
189.844	5398.2
189.92	5375.6
189.996	5406.75
190.071	5438.34
190.147	5440.79
190.223	5466.68
190.298	5448.7
190.374	5413.52
190.45	5449.3
190.526	5471.4
190.601	5464.07
190.677	5469.48
190.753	5549.47
190.828	5555.98
190.904	5598.95
190.98	5641.58
191.055	5668.86
191.131	5649.2
191.207	5705.28
191.282	5727.85
191.358	5699.57
191.433	5665.41
191.509	5701.72
191.585	5691.75
191.66	5689.06
191.736	5712.94
191.811	5690.02
191.887	5734.63
191.963	5796.68
192.038	5808.34
192.114	5813.32
192.189	5821.33
192.265	5814.91
192.34	5748.44
192.416	5749.59
192.491	5733.85
192.567	5741.82
192.642	5751.32
192.718	5750.74
192.793	5720.24
192.869	5712.77
192.944	5716.98
193.02	5738.19
193.095	5743.7
193.171	5760.77
193.246	5762.88
193.322	5755.88
193.397	5753.49
193.473	5714.29
193.548	5667.14
193.624	5686.61
193.699	5679.76
193.775	5722.36
193.85	5726.34
193.925	5751.8
194.001	5744.62
194.076	5726.4
194.152	5692.86
194.227	5666.87
194.302	5641.42
194.378	5651.39
194.453	5644.49
194.529	5672.54
194.604	5629.82
194.679	5614.33
194.755	5557.4
194.83	5588.92
194.905	5581.64
194.981	5608.97
195.056	5587.98
195.131	5605.71
195.207	5594.82
195.282	5569.23
195.357	5516.8
195.433	5557.16
195.508	5526.52
195.583	5555.57
195.659	5596.05
195.734	5618.31
195.809	5624.11
195.884	5644.19
195.96	5639.68
196.035	5675.4
196.11	5671.47
196.185	5707.86
196.261	5711.21
196.336	5792.62
196.411	5749.2
196.486	5762.1
196.561	5739.51
196.637	5763.29
196.712	5804.51
196.787	5812.24
196.862	5856.11
196.937	5881.04
197.013	5898.22
197.088	5920.66
197.163	5974.33
197.238	6018.13
197.313	6018.52
197.388	6050.66
197.464	6135.53
197.539	6172.52
197.614	6156.64
197.689	6184.52
197.764	6226.1
197.839	6285.88
197.914	6278.35
197.989	6348.95
198.065	6384.03
198.14	6521.32
198.215	6592.94
198.29	6620.57
198.365	6658.98
198.44	6686.34
198.515	6765.39
198.59	6804.49
198.665	6876.48
198.74	6898.05
198.815	6894.79
198.89	6954.77
198.965	7035.99
199.04	7020.27
199.115	7056.49
199.19	7172.73
199.265	7187.9
199.34	7212.46
199.415	7303.09
199.49	7355.69
199.565	7375.35
199.64	7444.21
199.715	7432.43
199.79	7449.83
199.865	7470.59
199.94	7465.5
200.015	7549.92
200.09	7563.82
200.165	7580.55
200.24	7597.95
200.315	7696.35
200.39	7744.19
200.464	7753.85
200.539	7754.33
200.614	7800.82
200.689	7863.19
200.764	7881.32
200.839	7921.5
200.914	7937.89
200.989	7910.56
201.063	7950.05
201.138	7907.72
201.213	7904.35
201.288	7856.42
201.363	7870.7
201.438	7864.83
201.512	7904.34
201.587	7858.93
201.662	7869.85
201.737	7904
201.812	7933.29
201.886	7852.97
201.961	7869.09
202.036	7839.73
202.111	7833.38
202.186	7751.02
202.26	7706.68
202.335	7650.51
202.41	7634.21
202.485	7583.13
202.559	7530.39
202.634	7455.88
202.709	7474.22
202.784	7424.09
202.858	7430.1
202.933	7374.01
203.008	7358.1
203.082	7310.34
203.157	7305.63
203.232	7189.72
203.306	7129.05
203.381	7037.09
203.456	6971.02
203.53	6914.85
203.605	6863.15
203.68	6797.69
203.754	6784.06
203.829	6744.38
203.904	6685.4
203.978	6655.52
204.053	6671.66
204.127	6635.79
204.202	6628.69
204.277	6588.4
204.351	6572.75
204.426	6545.79
204.5	6529.37
204.575	6437.23
204.65	6459.14
204.724	6437.61
204.799	6459.82
204.873	6447.38
204.948	6442.62
205.022	6414.6
205.097	6389.81
205.171	6429.02
205.246	6451.07
205.32	6450.11
205.395	6444.92
205.469	6418.07
205.544	6433.63
205.618	6383.12
205.693	6413.47
205.767	6381.51
205.842	6433.66
205.916	6418.44
205.991	6390.45
206.065	6402.07
206.14	6442.83
206.214	6429.71
206.289	6409.78
206.363	6437.58
206.438	6447.09
206.512	6469.13
206.586	6521.02
206.661	6547.78
206.735	6483.01
206.81	6489.35
206.884	6524.97
206.958	6494.35
207.033	6541.41
207.107	6557.03
207.181	6644.84
207.256	6630.19
207.33	6679.2
207.405	6710.02
207.479	6758.28
207.553	6781.85
207.628	6739.96
207.702	6769.87
207.776	6753.01
207.851	6762.85
207.925	6808.22
207.999	6798.8
208.073	6785.64
208.148	6788.53
208.222	6755.42
208.296	6843.64
208.371	6890.18
208.445	6919.39
208.519	6993.49
208.593	7031.2
208.668	7021.83
208.742	7023.46
208.816	7027.69
208.89	7070.46
208.965	7065.03
209.039	7085.75
209.113	7125.29
209.187	7180.58
209.261	7172.23
209.336	7233.4
209.41	7284.77
209.484	7285.54
209.558	7350.77
209.632	7389.11
209.707	7419.77
209.781	7476.72
209.855	7517.98
209.929	7555.51
210.003	7577.39
210.077	7575.8
210.151	7704.67
210.226	7797.6
210.3	7875.52
210.374	7940.98
210.448	7954.79
210.522	7987.35
210.596	8009.71
210.67	8039.82
210.744	8171
210.818	8261.04
210.892	8306.56
210.966	8289.34
211.041	8322.87
211.115	8309.3
211.189	8379.39
211.263	8423.36
211.337	8440.43
211.411	8478.16
211.485	8462.56
211.559	8488.39
211.633	8494.69
211.707	8408.32
211.781	8429.8
211.855	8337.51
211.929	8308.8
212.003	8254.09
212.077	8274.16
212.151	8308.13
212.225	8331.8
212.299	8301.71
212.373	8262.99
212.447	8251.24
212.52	8332.8
212.594	8347.95
212.668	8376.77
212.742	8327.98
212.816	8317.35
212.89	8303.4
212.964	8298.3
213.038	8305.27
213.112	8339.06
213.186	8376.14
213.26	8313.69
213.333	8182.9
213.407	8191.17
213.481	8201.13
213.555	8230.54
213.629	8203.45
213.703	8156.34
213.777	8148.26
213.85	8090.52
213.924	8184.12
213.998	8182.05
214.072	8155.43
214.146	8111.94
214.219	8098.71
214.293	8091.06
214.367	8088.03
214.441	8104.58
214.515	8064.98
214.588	7995.38
214.662	7893.96
214.736	7836.54
214.81	7851.87
214.883	7871.52
214.957	7834.99
215.031	7793.18
215.105	7719.22
215.178	7666.23
215.252	7637.34
215.326	7563.34
215.4	7495.26
215.473	7348.27
215.547	7278.84
215.621	7227.56
215.694	7224.77
215.768	7143.98
215.842	7086.14
215.915	7029.02
215.989	6937.41
216.063	6893.71
216.136	6878.19
216.21	6862.25
216.284	6862.11
216.357	6840.39
216.431	6808.69
216.504	6802.2
216.578	6847.62
216.652	6856.45
216.725	6838.09
216.799	6846.94
216.873	6825.18
216.946	6834.21
217.02	6808.15
217.093	6791.38
217.167	6717.56
217.24	6656.97
217.314	6632.93
217.387	6599.01
217.461	6564.53
217.535	6589.11
217.608	6542.11
217.682	6520.59
217.755	6529.19
217.829	6491.49
217.902	6479.2
217.976	6467.34
218.049	6431.72
218.123	6367.34
218.196	6369.74
218.27	6338.25
218.343	6280.85
218.417	6280.51
218.49	6263.18
218.563	6297.46
218.637	6302.11
218.71	6357.53
218.784	6372.99
218.857	6397.17
218.931	6415.74
219.004	6420.59
219.077	6431.45
219.151	6445.12
219.224	6441.95
219.298	6437.68
219.371	6473.51
219.444	6440.88
219.518	6446.44
219.591	6458.54
219.665	6546.15
219.738	6549.36
219.811	6541.35
219.885	6572.9
219.958	6599.88
220.031	6603.48
220.105	6616.4
220.178	6618.66
220.251	6595.08
220.325	6617.37
220.398	6627.84
220.471	6643.53
220.544	6676.24
220.618	6655.25
220.691	6677.91
220.764	6686.26
220.838	6706.49
220.911	6695.48
220.984	6763.18
221.057	6793.39
221.131	6815.9
221.204	6733.29
221.277	6795.21
221.35	6893.41
221.424	6887.36
221.497	6894.71
221.57	6913.57
221.643	6937.12
221.716	6968.5
221.79	6982.91
221.863	6987.38
221.936	6997.61
222.009	7009.28
222.082	7031.05
222.155	7045.22
222.229	7094.53
222.302	7123.84
222.375	7129.12
222.448	7158.34
222.521	7166.17
222.594	7163
222.667	7142.16
222.74	7192.75
222.814	7187.94
222.887	7170.2
222.96	7213.93
223.033	7246.62
223.106	7263.57
223.179	7288.48
223.252	7300.45
223.325	7317.51
223.398	7329.15
223.471	7352.59
223.544	7364.99
223.617	7380.13
223.69	7397.82
223.763	7369.89
223.837	7386.52
223.91	7410.6
223.983	7370.05
224.056	7345.21
224.129	7362.79
224.202	7402.95
224.275	7391.55
224.348	7367.24
224.42	7345.75
224.493	7303.03
224.566	7285.57
224.639	7297.83
224.712	7275.75
224.785	7266.24
224.858	7257.01
224.931	7237.73
225.004	7203
225.077	7206.36
225.15	7126.13
225.223	7124.3
225.296	7186.72
225.369	7139.97
225.442	7116.03
225.514	7130.49
225.587	7143.99
225.66	7148.8
225.733	7153.27
225.806	7156.34
225.879	7145.25
225.952	7117.96
226.025	7156.55
226.097	7199.78
226.17	7197.81
226.243	7147.94
226.316	7140.16
226.389	7145.11
226.461	7165.01
226.534	7181.72
226.607	7176.92
226.68	7240.9
226.753	7235.47
226.825	7174.77
226.898	7218.45
226.971	7218.93
227.044	7235.22
227.117	7239.3
227.189	7258.63
227.262	7285.89
227.335	7299.21
227.407	7299.02
227.48	7322.74
227.553	7333.66
227.626	7315.28
227.698	7319.66
227.771	7347.66
227.844	7336.89
227.916	7350.93
227.989	7322.04
228.062	7331.8
228.134	7400.31
228.207	7403.24
228.28	7393.49
228.352	7401.04
228.425	7414.45
228.498	7449.64
228.57	7437.63
228.643	7483.02
228.716	7485.91
228.788	7478.36
228.861	7474.7
228.934	7525.84
229.006	7532.86
229.079	7528.1
229.151	7515.3
229.224	7484.7
229.296	7502.58
229.369	7581.5
229.442	7623.64
229.514	7612.01
229.587	7637.01
229.659	7575.56
229.732	7583.73
229.804	7621.99
229.877	7683.18
229.949	7698.04
230.022	7737.68
230.094	7737.16
230.167	7724.7
230.239	7685.37
230.312	7672.35
230.384	7727.76
230.457	7729.25
230.529	7740.88
230.602	7743.67
230.674	7751.7
230.747	7789.52
230.819	7819.62
230.892	7728.06
230.964	7728.59
231.037	7752.37
231.109	7748.14
231.181	7782.41
231.254	7757.75
231.326	7743.42
231.399	7724.8
231.471	7699.31
231.544	7637.84
231.616	7673.41
231.688	7681.34
231.761	7671.25
231.833	7665.29
231.905	7592.91
231.978	7590.27
232.05	7573.11
232.122	7581.48
232.195	7560.32
232.267	7585.47
232.339	7567.67
232.412	7620.89
232.484	7588.37
232.556	7566.36
232.629	7618.85
232.701	7628.23
232.773	7635.05
232.846	7624.96
232.918	7627.32
232.99	7648.57
233.062	7684.73
233.135	7688.05
233.207	7657.13
233.279	7692.21
233.351	7715.29
233.424	7726.49
233.496	7705.43
233.568	7771.07
233.64	7736.17
233.713	7754.63
233.785	7752.13
233.857	7761.56
233.929	7718.67
234.001	7775.06
234.074	7827.21
234.146	7769.49
234.218	7769.87
234.29	7769.92
234.362	7764.83
234.434	7725.19
234.507	7696.34
234.579	7649.41
234.651	7642.3
234.723	7668.79
234.795	7683.94
234.867	7677.45
234.939	7721.79
235.012	7730.54
235.084	7735.69
235.156	7770.49
235.228	7753.71
235.3	7745.44
235.372	7752.27
235.444	7802.51
235.516	7739.87
235.588	7743.34
235.66	7758.24
235.732	7735.79
235.804	7890.98
235.876	7923.81
235.948	7978.5
236.02	7991
236.092	8009.94
236.164	8020.81
236.236	8018.07
236.308	8018.98
236.38	8042.26
236.452	8028.21
236.524	8047.45
236.596	8099.01
236.668	8124.85
236.74	8146.92
236.812	8167.31
236.884	8195.94
236.956	8202.96
237.028	8198.83
237.1	8181.66
237.172	8245.08
237.244	8308.39
237.316	8215.64
237.388	8203.61
237.46	8182.44
237.532	8227.28
237.604	8213.43
237.675	8266.31
237.747	8308.99
237.819	8296.11
237.891	8299.71
237.963	8286.54
238.035	8279.56
238.107	8191.96
238.178	8239.77
238.25	8242.55
238.322	8315.39
238.394	8283.58
238.466	8284.21
238.538	8315.09
238.609	8356.4
238.681	8311.26
238.753	8287.48
238.825	8303.03
238.897	8328.86
238.968	8393.65
239.04	8380.99
239.112	8473.08
239.184	8449.88
239.255	8438.57
239.327	8466.99
239.399	8486.62
239.471	8526.79
239.542	8560.81
239.614	8618.41
239.686	8548.47
239.758	8591.49
239.829	8565.15
239.901	8615.05
239.973	8627.75
240.044	8660.04
240.116	8664.04
240.188	8668.9
240.259	8691.27
240.331	8680.88
240.403	8716.87
240.474	8684.56
240.546	8676
240.618	8628.11
240.689	8615.02
240.761	8636.97
240.833	8691.94
240.904	8693.53
240.976	8693.91
241.048	8703.88
241.119	8719.04
241.191	8759.41
241.262	8815.71
241.334	8811.47
241.405	8808.82
241.477	8811.71
241.549	8816.48
241.62	8840.4
241.692	8882.08
241.763	8927.68
241.835	8942.94
241.906	8951.32
241.978	8920.95
242.049	8980.54
242.121	9029.2
242.192	9089.37
242.264	9058.95
242.335	9013.79
242.407	9046.39
242.478	9052.26
242.55	9077.39
242.621	9073.58
242.693	9071.71
242.764	9061.25
242.836	9071.6
242.907	9101.22
242.979	9128.27
243.05	9148.15
243.122	9166.74
243.193	9164.09
243.264	9105.06
243.336	9115.56
243.407	9137.81
243.479	9205.25
243.55	9214.01
243.622	9224.37
243.693	9220.08
243.764	9284.74
243.836	9275.26
243.907	9267.75
243.978	9272.75
244.05	9291.34
244.121	9253.12
244.192	9290
244.264	9246.37
244.335	9258.94
244.407	9217.35
244.478	9222.79
244.549	9213.59
244.62	9177.53
244.692	9174.64
244.763	9210.17
244.834	9195.15
244.906	9183.49
244.977	9200.25
245.048	9242.07
245.119	9222.57
245.191	9201.53
245.262	9146.49
245.333	9210.28
245.405	9225.97
245.476	9244.89
245.547	9254.53
245.618	9293.86
245.689	9299.01
245.761	9330.98
245.832	9323.37
245.903	9355.96
245.974	9385.73
246.045	9391.22
246.117	9459.01
246.188	9443.42
246.259	9430.03
246.33	9446.55
246.401	9450.59
246.473	9421.84
246.544	9412.25
246.615	9463.06
246.686	9473.41
246.757	9531.96
246.828	9505.91
246.899	9561.11
246.97	9544.5
247.042	9532.51
247.113	9570.03
247.184	9642.54
247.255	9635.65
247.326	9661.9
247.397	9676.73
247.468	9681.98
247.539	9700.67
247.61	9669.03
247.681	9711.83
247.752	9754.64
247.823	9734.13
247.894	9749.06
247.965	9724.41
248.037	9707.26
248.108	9663.14
248.179	9669.35
248.25	9660.3
248.321	9687.84
248.392	9653.15
248.463	9715.85
248.534	9718.12
248.605	9735.89
248.675	9715.17
248.746	9734.87
248.817	9747.01
248.888	9756.11
248.959	9714.07
249.03	9730.74
249.101	9734.83
249.172	9720.53
249.243	9665.97
249.314	9721.59
249.385	9727.08
249.456	9752.12
249.527	9745.76
249.598	9767.53
249.669	9762.09
249.739	9763.87
249.81	9769.36
249.881	9732.09
249.952	9722.26
250.023	9716.77
250.094	9678.38
250.165	9649.56
250.235	9641.47
250.306	9644.99
250.377	9630.39
250.448	9652.02
250.519	9601.64
250.59	9648.66
250.66	9646.44
250.731	9700.13
250.802	9700.03
250.873	9719.21
250.944	9738.38
251.014	9737.41
251.085	9813.25
251.156	9838.14
251.227	9890.03
251.297	9937.53
251.368	9979.62
251.439	10019.08
251.51	10062.38
251.58	10046.64
251.651	10043.79
251.722	10088.93
251.792	10053
251.863	10046.26
251.934	10089.56
252.005	10181.61
252.075	10188.6
252.146	10226.17
252.217	10266.1
252.287	10296.12
252.358	10297.18
252.429	10358.9
252.499	10347.68
252.57	10345.46
252.641	10385.78
252.711	10385.69
252.782	10349.89
252.852	10406.41
252.923	10392.92
252.994	10404.05
253.064	10442.96
253.135	10429.62
253.205	10413.14
253.276	10467.14
253.347	10519.26
253.417	10501.29
253.488	10482.65
253.558	10480.29
253.629	10485.05
253.699	10496.52
253.77	10518.3
253.841	10508.43
253.911	10514.6
253.982	10529.67
254.052	10557.96
254.123	10562.73
254.193	10567.17
254.264	10675.21
254.334	10647.98
254.405	10630.16
254.475	10601.44
254.546	10610.6
254.616	10652.17
254.687	10676.79
254.757	10693.76
254.827	10696.26
254.898	10724.54
254.968	10729.36
255.039	10708.93
255.109	10736.16
255.18	10709.36
255.25	10655.35
255.321	10688.06
255.391	10656.4
255.461	10726.12
255.532	10664.34
255.602	10659.28
255.673	10617.37
255.743	10587.39
255.813	10534.49
255.884	10573.86
255.954	10610.09
256.024	10656.88
256.095	10663.43
256.165	10632.26
256.235	10653.13
256.306	10640.31
256.376	10673.08
256.446	10700.69
256.517	10727.72
256.587	10761.46
256.657	10778.27
256.728	10792.77
256.798	10795.57
256.868	10792.82
256.938	10769.26
257.009	10805.3
257.079	10830.94
257.149	10912.95
257.219	10869.96
257.29	10902.28
257.36	10855.6
257.43	10885.19
257.5	10838.4
257.571	10829.38
257.641	10861.71
257.711	10834.05
257.781	10855.44
257.852	10862.87
257.922	10822.87
257.992	10819.45
258.062	10803.35
258.132	10834.44
258.202	10840.56
258.273	10856.51
258.343	10912.12
258.413	10904.07
258.483	10904.56
258.553	10877.28
258.623	10855.5
258.693	10870.96
258.764	10927.44
258.834	10984.92
258.904	10991.38
258.974	10977.46
259.044	10995.05
259.114	11014.85
259.184	11035.14
259.254	11046.47
259.324	11009.5
259.394	11047.13
259.464	11108
259.535	11121.59
259.605	11121.88
259.675	11116.01
259.745	11140.92
259.815	11124.2
259.885	11127.28
259.955	11214.29
260.025	11213.61
260.095	11220.21
260.165	11251.35
260.235	11294.39
260.305	11287.45
260.375	11271.26
260.445	11351.92
260.515	11400.55
260.585	11441.09
260.655	11440.66
260.725	11475.69
260.795	11504.56
260.865	11560.04
260.934	11541.72
261.004	11565.29
261.074	11566.74
261.144	11612.42
261.214	11639.55
261.284	11643.27
261.354	11677.92
261.424	11643.4
261.494	11701.76
261.564	11707.93
261.634	11723.84
261.703	11672.45
261.773	11690.09
261.843	11716.89
261.913	11703.06
261.983	11660.89
262.053	11672.12
262.123	11679.44
262.192	11642.28
262.262	11671.59
262.332	11634.96
262.402	11663.97
262.472	11676.65
262.541	11633.57
262.611	11679.02
262.681	11653.67
262.751	11681.43
262.821	11684.71
262.89	11658.39
262.96	11675.26
263.03	11738.16
263.1	11759.18
263.169	11778.02
263.239	11796.68
263.309	11844.69
263.379	11876.89
263.448	11887.44
263.518	11907.35
263.588	11921.23
263.657	11984.71
263.727	12022.11
263.797	12022.79
263.867	12017.44
263.936	11982.49
264.006	12032.75
264.076	12022.15
264.145	12027.93
264.215	12010.53
264.285	12040.66
264.354	12007.35
264.424	12001.67
264.494	11961.99
264.563	11951.05
264.633	12010.73
264.702	12031.98
264.772	11988.89
264.842	11979.35
264.911	12007.01
264.981	11976.26
265.05	11987.25
265.12	11987.25
265.19	11995.49
265.259	12041.52
265.329	12070.11
265.398	12090.25
265.468	12169.26
265.537	12166.37
265.607	12201.27
265.676	12244.94
265.746	12254.1
265.815	12306.97
265.885	12304.99
265.955	12287.5
266.024	12292.17
266.094	12246.62
266.163	12301.19
266.232	12356.14
266.302	12369.73
266.371	12392.2
266.441	12411.82
266.51	12451.34
266.58	12443.1
266.649	12426.08
266.719	12465.37
266.788	12488.51
266.858	12548.91
266.927	12489.09
266.996	12512.51
267.066	12537.73
267.135	12514.44
267.205	12554.6
267.274	12569.49
267.343	12612.97
267.413	12629.99
267.482	12674.53
267.552	12723.17
267.621	12677.18
267.69	12639.34
267.76	12655.92
267.829	12682
267.898	12697.67
267.968	12682.82
268.037	12724.37
268.106	12764.09
268.176	12737.82
268.245	12742.4
268.314	12737.53
268.384	12782.89
268.453	12802.27
268.522	12809.65
268.592	12858.14
268.661	12845.61
268.73	12870.29
268.799	12860.55
268.869	12939.22
268.938	12901.62
269.007	12895.26
269.076	12920.23
269.146	12971.95
269.215	13006.61
269.284	13061.28
269.353	13060.7
269.422	13063.11
269.492	13050.96
269.561	12992.54
269.63	13021.41
269.699	13020.4
269.768	13034.04
269.838	13054.77
269.907	13086.11
269.976	13065.09
270.045	13023.58
270.114	13056.36
270.183	13062.73
270.253	13088.9
270.322	13043.2
270.391	13071.5
270.46	13122.5
270.529	13154.7
270.598	13184.93
270.667	13177.41
270.736	13149.5
270.806	13180.3
270.875	13223.01
270.944	13241.23
271.013	13340.35
271.082	13360.74
271.151	13388.41
271.22	13365.03
271.289	13374.52
271.358	13379.88
271.427	13407.11
271.496	13437.82
271.565	13435.07
271.634	13456.57
271.703	13563.01
271.772	13612.42
271.841	13617.34
271.91	13600.56
271.979	13618.69
272.048	13591.45
272.117	13637.49
272.186	13639.8
272.255	13672.92
272.324	13711.68
272.393	13738.53
272.462	13733.66
272.531	13754
272.6	13762.1
272.669	13818.6
272.738	13826.84
272.807	13855.91
272.876	13846.46
272.945	13952.27
273.013	14006.94
273.082	14053.84
273.151	13979.13
273.22	14006.31
273.289	14029.89
273.358	14091.64
273.427	14096.56
273.496	14146.4
273.564	14170.17
273.633	14214.95
273.702	14203.86
273.771	14207.38
273.84	14231.44
273.909	14264.94
273.977	14289.81
274.046	14296.42
274.115	14342.11
274.184	14343.56
274.253	14359.85
274.322	14424.16
274.39	14378.61
274.459	14364.82
274.528	14322.5
274.597	14336.43
274.665	14362.8
274.734	14417.27
274.803	14426.67
274.872	14455.21
274.94	14446.96
275.009	14629.19
275.078	14626.69
275.147	14659.32
275.215	14691.33
275.284	14749.9
275.353	14753.85
275.421	14722.86
275.49	14801.48
275.559	14802.68
275.627	14825.14
275.696	14832.86
275.765	14861.06
275.833	14878.56
275.902	14912.54
275.971	14985.14
276.039	15059.47
276.108	15100.44
276.177	15128.49
276.245	15127.43
276.314	15147.05
276.383	15198.24
276.451	15067.88
276.52	15111.93
276.588	15175.27
276.657	15215.04
276.725	15212.97
276.794	15253.55
276.863	15327.21
276.931	15304.12
277	15355.21
277.068	15411.66
277.137	15493.07
277.205	15529.94
277.274	15608.75
277.342	15672.62
277.411	15649.33
277.48	15654.88
277.548	15669.58
277.617	15706.64
277.685	15730.36
277.754	15774.13
277.822	15786.95
277.89	15857.22
277.959	15876.64
278.027	15858.66
278.096	15874.86
278.164	15972.41
278.233	15983.69
278.301	15987.35
278.37	16030.11
278.438	16025.43
278.507	16063.22
278.575	16030.59
278.643	16052.95
278.712	16038.25
278.78	16036.47
278.849	16111.37
278.917	16172.68
278.985	16190.8
279.054	16225.07
279.122	16283.24
279.191	16315.1
279.259	16337.52
279.327	16316.07
279.396	16385.71
279.464	16418.01
279.532	16468.8
279.601	16493.82
279.669	16513.19
279.737	16588.38
279.806	16631.42
279.874	16708.29
279.942	16740.24
280.011	16764.44
280.079	16817.21
280.147	16892.74
280.215	16935.24
280.284	16949.17
280.352	16942.38
280.42	16997.27
280.488	17022.04
280.557	17042.43
280.625	17078.91
280.693	17124.36
280.761	17161.04
280.83	17158.67
280.898	17227.69
280.966	17201.47
281.034	17155.74
281.102	17154.43
281.171	17168.36
281.239	17232.75
281.307	17233.76
281.375	17245.18
281.443	17348.56
281.512	17372.99
281.58	17436.41
281.648	17437.81
281.716	17475.64
281.784	17511.4
281.852	17524.65
281.92	17551.35
281.989	17612.31
282.057	17602.62
282.125	17705.13
282.193	17742.33
282.261	17781.08
282.329	17795.49
282.397	17849.94
282.465	17900.74
282.533	17981.41
282.601	17993.99
282.67	17962.48
282.738	17979.1
282.806	18038.14
282.874	18041.56
282.942	18087.68
283.01	18094.38
283.078	18145.02
283.146	18172.93
283.214	18232.3
283.282	18273.02
283.35	18330.9
283.418	18347.86
283.486	18407.18
283.554	18368.58
283.622	18393.74
283.69	18416.96
283.758	18433.88
283.826	18483.03
283.894	18534.6
283.962	18620.95
284.03	18691.79
284.098	18738.92
284.165	18765.48
284.233	18802.97
284.301	18816.41
284.369	18821.09
284.437	18835.4
284.505	18856.17
284.573	18929.76
284.641	18936.36
284.709	18997.7
284.777	19002.81
284.845	19069.02
284.912	19115.48
284.98	19163.04
285.048	19184.25
285.116	19231.47
285.184	19320.34
285.252	19355.66
285.319	19353.83
285.387	19355.71
285.455	19349.06
285.523	19400.09
285.591	19430.02
285.659	19468.33
285.726	19542.97
285.794	19552.18
285.862	19580.71
285.93	19620.41
285.997	19645.81
286.065	19670.05
286.133	19673.95
286.201	19697.95
286.269	19687.4
286.336	19699.78
286.404	19719.73
286.472	19791.11
286.539	19781.42
286.607	19761.08
286.675	19800.41
286.743	19853.51
286.81	19882.48
286.878	19939.2
286.946	19956.5
287.013	19993.56
287.081	20018.81
287.149	20008.3
287.216	20100.98
287.284	20126.42
287.352	20160.2
287.419	20190.28
287.487	20270.42
287.555	20324.35
287.622	20349.51
287.69	20410.23
287.758	20479.05
287.825	20511.05
287.893	20512.83
287.96	20570.28
288.028	20643.77
288.096	20691.73
288.163	20747.05
288.231	20745.85
288.298	20796.79
288.366	20872.61
288.433	20912.51
288.501	20931.69
288.569	20978.97
288.636	20992.9
288.704	21060.32
288.771	21119.37
288.839	21124.67
288.906	21134.31
288.974	21189.45
289.041	21224.92
289.109	21228.68
289.176	21269.75
289.244	21311.53
289.311	21376.6
289.379	21431.74
289.446	21467.89
289.514	21499.99
289.581	21519.76
289.649	21579.09
289.716	21609.89
289.783	21616.15
289.851	21691.3
289.918	21730.44
289.986	21789.24
290.053	21826.5
290.121	21856.15
290.188	21897.65
290.255	22014.27
290.323	22037.31
290.39	22052.73
290.458	22103.39
290.525	22174.06
290.592	22203.76
290.66	22249.21
290.727	22268.93
290.794	22337.15
290.862	22370.94
290.929	22410.71
290.996	22456.27
291.064	22506.74
291.131	22575.59
291.198	22647
291.266	22676.84
291.333	22715.36
291.4	22766.85
291.468	22855.57
291.535	22875.63
291.602	22920.62
291.669	22924.28
291.737	22970.56
291.804	23004.94
291.871	23091.83
291.938	23137.06
292.006	23243.31
292.073	23309.08
292.14	23374.76
292.207	23388.88
292.275	23427.94
292.342	23479.3
292.409	23587.82
292.476	23685.54
292.543	23699.47
292.611	23741.24
292.678	23812.38
292.745	23915.19
292.812	23960.92
292.879	23974.04
292.946	24019.85
293.014	24088.01
293.081	24153.51
293.148	24235.64
293.215	24310.94
293.282	24324.73
293.349	24391.4
293.416	24374.08
293.484	24456.43
293.551	24514.18
293.618	24604.24
293.685	24707.87
293.752	24739.76
293.819	24755.05
293.886	24761.18
293.953	24813.81
294.02	24875.86
294.087	24940.18
294.154	24958.62
294.221	25047.85
294.288	25090.26
294.356	25189.07
294.423	25235.74
294.49	25246.16
294.557	25312.8
294.624	25329.64
294.691	25423.65
294.758	25468.2
294.825	25533.15
294.892	25537.16
294.959	25565.63
295.026	25614.91
295.093	25630.6
295.16	25670.31
295.226	25712.45
295.293	25827.6
295.36	25874.22
295.427	25943.41
295.494	26011.2
295.561	26074.58
295.628	26168
295.695	26255.43
295.762	26291.21
295.829	26360.35
295.896	26455.26
295.963	26521.08
296.03	26587.46
296.096	26644.35
296.163	26708.81
296.23	26789.03
296.297	26867.49
296.364	26921.08
296.431	26977.34
296.498	27018.87
296.564	27119.5
296.631	27172.48
296.698	27166.58
296.765	27263.61
296.832	27266.03
296.899	27281.39
296.965	27363.27
297.032	27342.83
297.099	27429.28
297.166	27502.66
297.233	27530
297.299	27547.82
297.366	27580.92
297.433	27627.53
297.5	27684.99
297.566	27724.95
297.633	27753.51
297.7	27807.34
297.767	27839.65
297.833	27910.65
297.9	27948.72
297.967	27956.3
298.033	28028.02
298.1	28130.73
298.167	28144.22
298.234	28210.27
298.3	28258.3
298.367	28286.63
298.434	28347.58
298.5	28343.28
298.567	28360.78
298.634	28393.83
298.7	28489.53
298.767	28538.46
298.834	28618.5
298.9	28637.94
298.967	28665.25
299.033	28734.44
299.1	28812.58
299.167	28890.74
299.233	28910.18
299.3	28991.05
299.366	29062.64
299.433	29133.45
299.5	29111.79
299.566	29167.58
299.633	29242.73
299.699	29318.76
299.766	29350.53
299.832	29395.02
299.899	29465.3
299.965	29543.89
300.032	29578.31
300.099	29624.99
300.165	29675.2
300.232	29706.11
300.298	29748.43
300.365	29810.77
300.431	29856.74
300.498	29868.01
300.564	29928.19
300.631	29977.49
300.697	30048.32
300.763	30088.47
300.83	30120.03
300.896	30203.58
300.963	30270.68
301.029	30320.97
301.096	30357.75
301.162	30427.27
301.229	30460.37
301.295	30470.2
301.361	30509.44
301.428	30560.33
301.494	30562.56
301.561	30612.12
301.627	30668.7
301.693	30717.72
301.76	30770.47
301.826	30789.35
301.892	30865.98
301.959	30919.95
302.025	30957.42
302.092	30972.33
302.158	31038.69
302.224	31087.16
302.291	31100.03
302.357	31125.35
302.423	31148.88
302.49	31165.73
302.556	31236.09
302.622	31275.93
302.688	31343.23
302.755	31417.9
302.821	31481.12
302.887	31548.95
302.954	31581.39
303.02	31622.21
303.086	31683.95
303.152	31708.31
303.219	31740.7
303.285	31783.81
303.351	31842.57
303.417	31889.59
303.483	31906.59
303.55	31920.15
303.616	31959.82
303.682	31999.63
303.748	32020.74
303.815	32094.91
303.881	32167.56
303.947	32170.27
304.013	32208.44
304.079	32227.04
304.145	32213.48
304.212	32242.83
304.278	32261.62
304.344	32285.11
304.41	32289.86
304.476	32297.76
304.542	32328.17
304.608	32375.4
304.674	32365.57
304.741	32380.45
304.807	32423.28
304.873	32488.92
304.939	32568.28
305.005	32554.91
305.071	32581.31
305.137	32633.63
305.203	32598.5
305.269	32630.68
305.335	32701.68
305.401	32738.74
305.467	32770.87
305.533	32828
305.599	32881.3
305.666	32935.76
305.732	32960.77
305.798	33033.6
305.864	33128.41
305.93	33182.92
305.996	33218.93
306.062	33262.64
306.128	33293.71
306.194	33294.58
306.259	33317.03
306.325	33325.9
306.391	33382.36
306.457	33448.17
306.523	33485.78
306.589	33589.56
306.655	33596.11
306.721	33582.92
306.787	33585.68
306.853	33648.75
306.919	33641.67
306.985	33655.88
307.051	33670.47
307.117	33710.36
307.183	33728.2
307.248	33687.38
307.314	33725.53
307.38	33754.28
307.446	33800.92
307.512	33801.16
307.578	33846.97
307.644	33867.72
307.709	33895.79
307.775	33907.14
307.841	33913.73
307.907	33940.35
307.973	33920.32
308.039	33946.45
308.104	33991.69
308.17	34026.01
308.236	34014.86
308.302	34057.18
308.368	34066.88
308.433	34093.69
308.499	34096.16
308.565	34097.42
308.631	34139.51
308.696	34112.26
308.762	34109.78
308.828	34128.17
308.894	34114.45
308.959	34087.54
309.025	34103.49
309.091	34127.6
309.156	34146.07
309.222	34191.17
309.288	34186.81
309.354	34162.95
309.419	34182.93
309.485	34168.82
309.551	34214.55
309.616	34222.26
309.682	34242.05
309.748	34253.29
309.813	34271.92
309.879	34284.33
309.945	34290.24
310.01	34306.2
310.076	34346.69
310.141	34381.26
310.207	34382.43
310.273	34417.97
310.338	34467.13
310.404	34444.92
310.469	34438.81
310.535	34457.73
310.601	34422.18
310.666	34471.7
310.732	34533.67
310.797	34552.54
310.863	34564.23
310.928	34578.29
310.994	34608.02
311.059	34629.9
311.125	34659.43
311.191	34721.57
311.256	34727.1
311.322	34768.47
311.387	34738.55
311.453	35678.6
311.518	35664.68
311.584	35682.72
311.649	35725.02
311.715	35727.73
311.78	35774.87
311.846	35784.42
311.911	35819.93
311.976	35864.89
312.042	35840.88
312.107	35827.73
312.173	35820.9
312.238	35835.74
312.304	35846.17
312.369	35855.77
312.434	35849.71
312.5	35856.45
312.565	35795.91
312.631	35836.89
312.696	35832.96
312.761	35879.08
312.827	34978.66
312.892	35078.51
312.958	35100.1
313.023	35122.03
313.088	35142.69
313.154	35135.27
313.219	35137.84
313.284	35136.1
313.35	35139.15
313.415	35152.15
313.48	35167.38
313.546	35211.73
313.611	35259.56
313.676	35257.04
313.741	35263.44
313.807	35320.5
313.872	35355.57
313.937	35403.55
314.003	35454.69
314.068	35493.84
314.133	35532.51
314.198	35529.94
314.264	35507.71
314.329	35501.74
314.394	35524.94
314.459	35543.95
314.525	35609.21
314.59	35636.18
314.655	35632.83
314.72	35683.15
314.785	35702.94
314.851	35717.74
314.916	35695.66
314.981	35679.89
315.046	35692.89
315.111	35690.37
315.176	35676.78
315.242	35710.22
315.307	35731.72
315.372	35706.43
315.437	35702.07
315.502	35707.11
315.567	35756.8
315.632	35735.6
315.698	35768.89
315.763	35775.2
315.828	35783.44
315.893	35805.87
315.958	35803.73
316.023	35790.78
316.088	35758.12
316.153	35727.56
316.218	35716.64
316.283	35683.9
316.348	35651.3
316.413	35648.93
316.479	35613.81
316.544	35519.37
316.609	35433.6
316.674	35336.29
316.739	35231.73
316.804	35146.12
316.869	35033.54
316.934	34922.5
316.999	34830.4
317.064	34668.08
317.129	34541.29
317.194	34422.49
317.259	34268.73
317.324	34121.35
317.389	33999.18
317.454	33863.9
317.518	33759.33
317.583	33669
317.648	33572.15
317.713	33439.58
317.778	33248.06
317.843	33150.35
317.908	33033.48
317.973	32896.96
318.038	32786.04
318.103	32667.61
318.168	32542.61
318.233	32431.95
318.297	32252.77
318.362	32124.54
318.427	31988.44
318.492	31868.16
318.557	31699.23
318.622	31572.49
318.687	31465.59
318.751	31307.16
318.816	31170.34
318.881	31032.33
318.946	30835.15
319.011	30664.24
319.075	30512.1
319.14	30369.52
319.205	30189.12
319.27	30052.25
319.335	29876.46
319.399	29706.31
319.464	29566.97
319.529	29372.33
319.594	29215.12
319.658	29080.66
319.723	28899.14
319.788	28766.06
319.853	28560.29
319.917	28419.46
319.982	28223.35
320.047	28057.37
320.112	27919.23
320.176	27728.6
320.241	27560.63
320.306	27405.66
320.37	27233.69
320.435	27081.39
320.5	26943.44
320.564	26766.74
320.629	26574.9
320.694	26424.93
320.758	26249.37
320.823	26059.36
320.888	25908.96
320.952	25688.61
321.017	25506.17
321.082	25324.57
321.146	25150.3
321.211	24979.59
321.275	24783.47
321.34	24585.49
321.405	24389.28
321.469	24185.76
321.534	23997.95
321.598	23777
321.663	23623.02
321.727	23464.4
321.792	23251.43
321.857	23044.4
321.921	22869.75
321.986	22680.71
322.05	22451.31
322.115	22262.9
322.179	22068.19
322.244	21847.99
322.308	21692.87
322.373	21489.74
322.437	21302.28
322.502	21160.46
322.566	20975.62
322.631	20807.27
322.695	20620.27
322.76	20421.66
322.824	20255.68
322.889	20058.19
322.953	19866.14
323.018	19604.25
323.082	19342.85
323.146	19122.9
323.211	18902.42
323.275	18690.33
323.34	18474.19
323.404	18293.95
323.468	18094.39
323.533	17892.94
323.597	17686.33
323.662	17457.12
323.726	17268.88
323.79	17049.59
323.855	16777.83
323.919	16551.64
323.983	16340.3
324.048	16039.34
324.112	16262.68
324.177	15617.22
324.241	14770.24
324.305	13937.85
324.37	13124.11
324.434	12334.42
324.498	12124.2
324.562	11882.14
324.627	11613.53
324.691	11354.22
324.755	11047.76
324.82	10697.27
324.884	10337.7
324.948	9970.85
325.012	9522.44
325.077	8981.28
