Data from 20250626_urea_1M_exp2_MAYP1162681_21-33-59-372.txt Node
Date: Thu Jun 26 21:33:59 BST 2025
User: adleo
Spectrometer: MAYP116268
Trigger mode: 0
Integration Time (sec): 3.000000E0
Scans to average: 1
Electric dark correction enabled: true
Nonlinearity correction enabled: true
Boxcar width: 10
XAxis mode: Wavelengths
Number of Pixels in Spectrum: 2068
>>>>>Begin Spectral Data<<<<<
179.565	2962.79
179.642	3114.12
179.718	3225.23
179.795	3337.85
179.871	3426.27
179.948	3474.76
180.024	3531.01
180.101	3600.11
180.177	3636.49
180.254	3694.91
180.33	3758.54
180.407	3963
180.483	4194.75
180.56	4427.38
180.636	4642.28
180.712	4619.86
180.789	4642.27
180.865	4674.61
180.942	4698.91
181.018	4724.43
181.095	4762.55
181.171	4777.15
181.248	4783.18
181.324	4831.85
181.4	4846.07
181.477	4875.33
181.553	4909.55
181.63	4964.24
181.706	5000.07
181.782	5024.09
181.859	5031.51
181.935	5043.39
182.011	5033.43
182.088	5078.66
182.164	5127.78
182.24	5158.33
182.317	5178.68
182.393	5175.66
182.469	5209.53
182.546	5245.8
182.622	5259.64
182.698	5247.66
182.775	5279.38
182.851	5309.76
182.927	5284.55
183.003	5276.46
183.08	5265.06
183.156	5290.59
183.232	5286.37
183.308	5256.38
183.385	5278.03
183.461	5319.2
183.537	5320.83
183.613	5355.24
183.69	5328.97
183.766	5300.11
183.842	5326.56
183.918	5340.8
183.995	5369.59
184.071	5379.08
184.147	5365.52
184.223	5333
184.299	5365.99
184.375	5338.96
184.452	5360.83
184.528	5468.61
184.604	5497.26
184.68	5528.94
184.756	5547.16
184.832	5556.12
184.908	5568.67
184.985	5569.2
185.061	5527.36
185.137	5554.21
185.213	5526.99
185.289	5529.52
185.365	5512.23
185.441	5503.7
185.517	5537.89
185.593	5534.73
185.669	5528.78
185.745	5551.79
185.822	5594.14
185.898	5567.77
185.974	5589.23
186.05	5567.46
186.126	5501.43
186.202	5480.63
186.278	5467.26
186.354	5444.1
186.43	5460.74
186.506	5459.64
186.582	5455.81
186.658	5472.67
186.734	5422.02
186.81	5426.19
186.886	5437.59
186.962	5466.68
187.038	5450.29
187.114	5428.75
187.19	5447.02
187.266	5424.3
187.341	5428.9
187.417	5407.68
187.493	5407.87
187.569	5417.98
187.645	5403.13
187.721	5374.41
187.797	5399.81
187.873	5409.11
187.949	5391.29
188.025	5372.2
188.101	5377.08
188.176	5388.2
188.252	5375.12
188.328	5395.33
188.404	5392.36
188.48	5381.05
188.556	5367.01
188.632	5378.03
188.707	5380.67
188.783	5372.9
188.859	5358.82
188.935	5326.8
189.011	5351.57
189.086	5335.43
189.162	5310.17
189.238	5305.62
189.314	5298.43
189.39	5276.96
189.465	5255.25
189.541	5297.72
189.617	5262.59
189.693	5249.23
189.768	5264.04
189.844	5329.11
189.92	5301.05
189.996	5323.05
190.071	5348.36
190.147	5343.57
190.223	5365.29
190.298	5347.11
190.374	5311.75
190.45	5344.04
190.526	5367.19
190.601	5353.34
190.677	5362.39
190.753	5437.61
190.828	5448.48
190.904	5486.16
190.98	5528.31
191.055	5558.55
191.131	5534.2
191.207	5587.4
191.282	5611.69
191.358	5585.38
191.433	5550.26
191.509	5583.88
191.585	5581.43
191.66	5587.86
191.736	5612.31
191.811	5589
191.887	5630.3
191.963	5692.39
192.038	5703.46
192.114	5706.24
192.189	5718.66
192.265	5708.55
192.34	5648.24
192.416	5645.41
192.491	5635.24
192.567	5639.65
192.642	5652.46
192.718	5663.01
192.793	5629.44
192.869	5616.89
192.944	5620.58
193.02	5638.32
193.095	5644.36
193.171	5662.25
193.246	5656.26
193.322	5650.36
193.397	5649.54
193.473	5611.99
193.548	5569.54
193.624	5586.28
193.699	5588.3
193.775	5626.05
193.85	5628.49
193.925	5654.29
194.001	5648.78
194.076	5629.99
194.152	5601.31
194.227	5572.87
194.302	5544.36
194.378	5554.57
194.453	5547.76
194.529	5582.38
194.604	5546.18
194.679	5542.01
194.755	5488.14
194.83	5518.9
194.905	5513
194.981	5531.89
195.056	5514.11
195.131	5528.54
195.207	5518.08
195.282	5483.62
195.357	5434.41
195.433	5480.38
195.508	5444.66
195.583	5469.88
195.659	5507.28
195.734	5524.26
195.809	5529.82
195.884	5549.41
195.96	5550.71
196.035	5596.35
196.11	5588.82
196.185	5620.55
196.261	5628.03
196.336	5709.49
196.411	5669.53
196.486	5679.46
196.561	5661.77
196.637	5690.86
196.712	5729.15
196.787	5744.21
196.862	5785.87
196.937	5810.03
197.013	5822.89
197.088	5852.95
197.163	5903.3
197.238	5943.77
197.313	5942.05
197.388	5976.63
197.464	6060.1
197.539	6090.55
197.614	6071.9
197.689	6103.76
197.764	6143.75
197.839	6193.98
197.914	6179.87
197.989	6243.07
198.065	6278.43
198.14	6415.07
198.215	6475.99
198.29	6511.39
198.365	6545.48
198.44	6576.34
198.515	6650.04
198.59	6689.81
198.665	6758.43
198.74	6779.18
198.815	6782.5
198.89	6845.54
198.965	6917.8
199.04	6905.5
199.115	6943.49
199.19	7050.92
199.265	7056.73
199.34	7083.45
199.415	7167
199.49	7221.46
199.565	7245.1
199.64	7312.66
199.715	7304.63
199.79	7320.44
199.865	7328.9
199.94	7322.03
200.015	7403.89
200.09	7422.88
200.165	7436.24
200.24	7450.81
200.315	7550.78
200.39	7595.49
200.464	7609
200.539	7612.94
200.614	7654.61
200.689	7722.7
200.764	7738.72
200.839	7783.35
200.914	7792.87
200.989	7770.45
201.063	7810.32
201.138	7765.84
201.213	7763.77
201.288	7709.49
201.363	7724.25
201.438	7728.63
201.512	7771.06
201.587	7724.22
201.662	7732.49
201.737	7771.01
201.812	7794.96
201.886	7712.73
201.961	7739.09
202.036	7708.19
202.111	7702.66
202.186	7623.11
202.26	7572.81
202.335	7524.05
202.41	7509.29
202.485	7467.05
202.559	7416.06
202.634	7342.8
202.709	7366.81
202.784	7316.88
202.858	7321.39
202.933	7275.07
203.008	7253.64
203.082	7201.74
203.157	7204.77
203.232	7090.57
203.306	7023.75
203.381	6941.85
203.456	6882.23
203.53	6813.66
203.605	6763.69
203.68	6699.11
203.754	6684.57
203.829	6645.56
203.904	6587.22
203.978	6554.65
204.053	6567.57
204.127	6532.43
204.202	6519.51
204.277	6475.01
204.351	6451.92
204.426	6436.64
204.5	6415.71
204.575	6322.59
204.65	6346.89
204.724	6321.47
204.799	6342.81
204.873	6332.1
204.948	6323.89
205.022	6291.13
205.097	6267.59
205.171	6300.56
205.246	6323.56
205.32	6320.73
205.395	6321.02
205.469	6298.86
205.544	6312.45
205.618	6263.63
205.693	6296.32
205.767	6271.32
205.842	6320.2
205.916	6308.49
205.991	6278.68
206.065	6293.47
206.14	6338.05
206.214	6322.53
206.289	6305.82
206.363	6336.2
206.438	6347.97
206.512	6370.1
206.586	6416.12
206.661	6444.99
206.735	6392.18
206.81	6394.77
206.884	6435.18
206.958	6400.39
207.033	6443.47
207.107	6455.14
207.181	6534.82
207.256	6516.52
207.33	6566.35
207.405	6603.22
207.479	6651.52
207.553	6674.6
207.628	6629.26
207.702	6663.87
207.776	6646.54
207.851	6653.89
207.925	6692.76
207.999	6682.14
208.073	6671.39
208.148	6685.99
208.222	6655.05
208.296	6738.56
208.371	6784.9
208.445	6809.88
208.519	6881.47
208.593	6916.92
208.668	6912.54
208.742	6920.19
208.816	6924.6
208.89	6962.14
208.965	6954.98
209.039	6976.32
209.113	7014.08
209.187	7071.76
209.261	7065.95
209.336	7122.64
209.41	7171.94
209.484	7175.69
209.558	7238.89
209.632	7274.05
209.707	7299.95
209.781	7355.84
209.855	7395.26
209.929	7436.16
210.003	7456.88
210.077	7456.59
210.151	7580.92
210.226	7672.16
210.3	7747.32
210.374	7808.83
210.448	7818.69
210.522	7849.47
210.596	7877.27
210.67	7904.58
210.744	8031.13
210.818	8106.65
210.892	8161.48
210.966	8147.59
211.041	8184.38
211.115	8170.68
211.189	8236.71
211.263	8284.52
211.337	8302.22
211.411	8340.14
211.485	8322.23
211.559	8349.64
211.633	8352.96
211.707	8269.69
211.781	8286.15
211.855	8190.36
211.929	8168.29
212.003	8121.81
212.077	8144.77
212.151	8177.34
212.225	8201.54
212.299	8165.82
212.373	8141.82
212.447	8125.89
212.52	8199.39
212.594	8213.35
212.668	8243.22
212.742	8204.87
212.816	8185.2
212.89	8167.59
212.964	8163.5
213.038	8175.97
213.112	8203.92
213.186	8247.64
213.26	8189.33
213.333	8063.76
213.407	8077.8
213.481	8084.24
213.555	8108.22
213.629	8078.77
213.703	8029.36
213.777	8021.37
213.85	7969.42
213.924	8052.82
213.998	8050.84
214.072	8029.04
214.146	7987.48
214.219	7977.66
214.293	7963.96
214.367	7965.31
214.441	7985.07
214.515	7946.34
214.588	7873.1
214.662	7776.98
214.736	7713.99
214.81	7725.19
214.883	7747.62
214.957	7708.6
215.031	7666.8
215.105	7592.85
215.178	7541.12
215.252	7513.43
215.326	7438.53
215.4	7378.05
215.473	7236.7
215.547	7176.89
215.621	7130.28
215.694	7124.99
215.768	7048.77
215.842	7000.92
215.915	6948.75
215.989	6856.44
216.063	6815.63
216.136	6802.42
216.21	6786.48
216.284	6794.21
216.357	6778.46
216.431	6743.59
216.504	6742.63
216.578	6788.71
216.652	6801.76
216.725	6788.45
216.799	6793.54
216.873	6776.74
216.946	6776.55
217.02	6746.46
217.093	6717.16
217.167	6638.36
217.24	6573.93
217.314	6545.72
217.387	6505.65
217.461	6469.69
217.535	6491.82
217.608	6442.9
217.682	6417.97
217.755	6426.38
217.829	6380.51
217.902	6366.01
217.976	6352.14
218.049	6315.23
218.123	6253.07
218.196	6255.81
218.27	6223.54
218.343	6171.82
218.417	6169.13
218.49	6153.68
218.563	6186.89
218.637	6194.14
218.71	6253.58
218.784	6272.39
218.857	6297.54
218.931	6315.57
219.004	6318.93
219.077	6337.33
219.151	6351.3
219.224	6349.38
219.298	6343.9
219.371	6381.07
219.444	6353
219.518	6369.07
219.591	6385.73
219.665	6470.87
219.738	6485.51
219.811	6473.33
219.885	6507.61
219.958	6533.59
220.031	6536.85
220.105	6553.99
220.178	6560.43
220.251	6540.54
220.325	6568.31
220.398	6583.67
220.471	6597.93
220.544	6631.83
220.618	6608.78
220.691	6628.22
220.764	6642.96
220.838	6667.59
220.911	6658.04
220.984	6722.18
221.057	6746.14
221.131	6765.44
221.204	6688.41
221.277	6738.38
221.35	6833.38
221.424	6825.65
221.497	6835.93
221.57	6854.27
221.643	6880.75
221.716	6914.72
221.79	6920.24
221.863	6923.03
221.936	6930.76
222.009	6945.74
222.082	6964.43
222.155	6974.47
222.229	7024.59
222.302	7045.39
222.375	7056.3
222.448	7087.39
222.521	7091.28
222.594	7095.32
222.667	7073.33
222.74	7121.27
222.814	7115.64
222.887	7105.07
222.96	7144.9
223.033	7177.88
223.106	7200.69
223.179	7221.56
223.252	7226.8
223.325	7247.7
223.398	7258.51
223.471	7280.04
223.544	7295.6
223.617	7307.57
223.69	7323.91
223.763	7299.2
223.837	7312.7
223.91	7332.55
223.983	7293.16
224.056	7269.66
224.129	7286.63
224.202	7329.85
224.275	7311.16
224.348	7287.37
224.42	7261.66
224.493	7221.53
224.566	7206.19
224.639	7222.15
224.712	7205.32
224.785	7198.88
224.858	7195.9
224.931	7178.98
225.004	7146.88
225.077	7148.66
225.15	7076.46
225.223	7077.9
225.296	7139.36
225.369	7097.71
225.442	7069.79
225.514	7083.67
225.587	7098.32
225.66	7102.22
225.733	7101.49
225.806	7116.15
225.879	7106.93
225.952	7078.21
226.025	7115.64
226.097	7150.31
226.17	7139.83
226.243	7086.46
226.316	7084.63
226.389	7085.45
226.461	7109.24
226.534	7130.96
226.607	7125.38
226.68	7191.38
226.753	7187.78
226.825	7125.4
226.898	7175.37
226.971	7184.26
227.044	7201.27
227.117	7206.46
227.189	7220.3
227.262	7248.67
227.335	7259.58
227.407	7266.16
227.48	7297.43
227.553	7307.43
227.626	7297.52
227.698	7306.55
227.771	7340.08
227.844	7325.04
227.916	7346.91
227.989	7318.21
228.062	7311.39
228.134	7375.28
228.207	7377.16
228.28	7371.34
228.352	7383.84
228.425	7390.09
228.498	7425.14
228.57	7411.35
228.643	7461.79
228.716	7465.3
228.788	7455.2
228.861	7454.05
228.934	7499.47
229.006	7511.39
229.079	7508.84
229.151	7501.14
229.224	7477.94
229.296	7498.08
229.369	7579.6
229.442	7614.28
229.514	7595.88
229.587	7631.98
229.659	7573.94
229.732	7585.53
229.804	7617.88
229.877	7684.02
229.949	7705.9
230.022	7743.34
230.094	7748.19
230.167	7732.94
230.239	7695.45
230.312	7685.74
230.384	7740.33
230.457	7737.64
230.529	7740.04
230.602	7750.1
230.674	7753.17
230.747	7780.03
230.819	7800.85
230.892	7703.82
230.964	7700.45
231.037	7729.8
231.109	7725.43
231.181	7758.11
231.254	7732.68
231.326	7723.84
231.399	7700.83
231.471	7678.76
231.544	7618.39
231.616	7652.28
231.688	7661.03
231.761	7654.69
231.833	7654.64
231.905	7583.94
231.978	7581.1
232.05	7567.7
232.122	7564.18
232.195	7541.97
232.267	7574.48
232.339	7554.28
232.412	7612.39
232.484	7589.93
232.556	7565.18
232.629	7620.36
232.701	7638.73
232.773	7638.83
232.846	7628.16
232.918	7631.48
232.99	7641.63
233.062	7672.79
233.135	7675.96
233.207	7643.55
233.279	7677.67
233.351	7696.81
233.424	7703.49
233.496	7689.02
233.568	7758.03
233.64	7732.5
233.713	7749.09
233.785	7745.82
233.857	7758.27
233.929	7716.06
234.001	7770.91
234.074	7821.96
234.146	7764.23
234.218	7758.98
234.29	7761.05
234.362	7752.21
234.434	7705.41
234.507	7686.37
234.579	7650.79
234.651	7643.09
234.723	7676.23
234.795	7693.68
234.867	7688.39
234.939	7735.23
235.012	7745.86
235.084	7738.93
235.156	7760.75
235.228	7742.34
235.3	7727.62
235.372	7738.21
235.444	7789.55
235.516	7726.57
235.588	7734.17
235.66	7746.72
235.732	7725.08
235.804	7881.28
235.876	7917.86
235.948	7974.91
236.02	7979.67
236.092	7988.56
236.164	7994.91
236.236	7989.19
236.308	7980.72
236.38	8007.85
236.452	7993.13
236.524	8005.82
236.596	8066.96
236.668	8101.74
236.74	8124.53
236.812	8142.32
236.884	8165.42
236.956	8170.81
237.028	8164.46
237.1	8151.47
237.172	8209.89
237.244	8271.47
237.316	8175.83
237.388	8166.16
237.46	8145.37
237.532	8198.96
237.604	8191.18
237.675	8252.72
237.747	8291.6
237.819	8286.16
237.891	8289.58
237.963	8281.6
238.035	8284.48
238.107	8194.04
238.178	8241.12
238.25	8245.98
238.322	8319.67
238.394	8292.97
238.466	8289.74
238.538	8322.69
238.609	8350.35
238.681	8306.7
238.753	8286.72
238.825	8304.58
238.897	8330.55
238.968	8404.73
239.04	8387.65
239.112	8473.29
239.184	8444.65
239.255	8436.27
239.327	8465.32
239.399	8479.71
239.471	8521.47
239.542	8544.66
239.614	8593.4
239.686	8528.76
239.758	8574.57
239.829	8550.73
239.901	8600.83
239.973	8613.19
240.044	8636.44
240.116	8646.25
240.188	8658.47
240.259	8667.28
240.331	8659.05
240.403	8684.26
240.474	8639.91
240.546	8631.74
240.618	8589.29
240.689	8584.09
240.761	8606.33
240.833	8657.69
240.904	8657.59
240.976	8650.76
241.048	8669.14
241.119	8695.96
241.191	8730.84
241.262	8783
241.334	8784.92
241.405	8785.45
241.477	8789.11
241.549	8798.59
241.62	8822.95
241.692	8856.73
241.763	8908.44
241.835	8928.37
241.906	8945.08
241.978	8921.06
242.049	8971.21
242.121	9015.15
242.192	9069.02
242.264	9042.26
242.335	9004.28
242.407	9040.86
242.478	9047.99
242.55	9062.96
242.621	9059.25
242.693	9066.18
242.764	9053.03
242.836	9055.49
242.907	9080.72
242.979	9113.35
243.05	9131.7
243.122	9146.53
243.193	9145.13
243.264	9091.26
243.336	9086.78
243.407	9107.58
243.479	9173.68
243.55	9193.18
243.622	9207.43
243.693	9201.22
243.764	9252.25
243.836	9237.86
243.907	9225.73
243.978	9222.89
244.05	9240.71
244.121	9202.15
244.192	9228.1
244.264	9190.45
244.335	9201.67
244.407	9163.1
244.478	9167.24
244.549	9160.65
244.62	9132.77
244.692	9134.99
244.763	9170.22
244.834	9164.64
244.906	9154.67
244.977	9165.27
245.048	9207.32
245.119	9195.57
245.191	9182.67
245.262	9137.84
245.333	9194.6
245.405	9209.76
245.476	9241.15
245.547	9258.59
245.618	9300.56
245.689	9308.99
245.761	9337.35
245.832	9335.42
245.903	9368.35
245.974	9391.76
246.045	9408.13
246.117	9475.11
246.188	9459.13
246.259	9445.55
246.33	9461.01
246.401	9462.12
246.473	9431.54
246.544	9416.36
246.615	9458.98
246.686	9465.68
246.757	9524.8
246.828	9503.71
246.899	9561.33
246.97	9538.31
247.042	9527.48
247.113	9557.29
247.184	9627.53
247.255	9631
247.326	9660.67
247.397	9667.6
247.468	9674.64
247.539	9683.93
247.61	9648.14
247.681	9687.24
247.752	9730.63
247.823	9718.3
247.894	9733.09
247.965	9719.61
248.037	9707.23
248.108	9668.55
248.179	9671.92
248.25	9660.65
248.321	9689.06
248.392	9655
248.463	9717.46
248.534	9715.96
248.605	9736.49
248.675	9716.39
248.746	9725.93
248.817	9733.3
248.888	9748.86
248.959	9706.48
249.03	9721.17
249.101	9726.27
249.172	9712.84
249.243	9657.41
249.314	9705.67
249.385	9713.91
249.456	9739.52
249.527	9732.54
249.598	9746.89
249.669	9750.84
249.739	9763.84
249.81	9770.15
249.881	9735.38
249.952	9731.19
250.023	9731.24
250.094	9686.78
250.165	9661.14
250.235	9653.82
250.306	9657.73
250.377	9638.27
250.448	9667.79
250.519	9625.65
250.59	9673.29
250.66	9675.98
250.731	9727.79
250.802	9722.69
250.873	9737.19
250.944	9754.57
251.014	9755.87
251.085	9827.71
251.156	9841.96
251.227	9876.07
251.297	9919.09
251.368	9956.37
251.439	9985.61
251.51	10025.26
251.58	10022.85
251.651	10021.89
251.722	10069.48
251.792	10035.48
251.863	10036.1
251.934	10080.08
252.005	10168.09
252.075	10173.82
252.146	10214.04
252.217	10255.62
252.287	10297.15
252.358	10300.23
252.429	10362.15
252.499	10353.38
252.57	10360.9
252.641	10397.94
252.711	10402.86
252.782	10370.53
252.852	10433.36
252.923	10436.69
252.994	10447.48
253.064	10482.59
253.135	10467.9
253.205	10448
253.276	10505.52
253.347	10552.92
253.417	10539.24
253.488	10518.85
253.558	10507.87
253.629	10500.31
253.699	10509.56
253.77	10525.32
253.841	10524.16
253.911	10524.02
253.982	10544.63
254.052	10569.69
254.123	10582.94
254.193	10591.52
254.264	10699.71
254.334	10677.54
254.405	10647.62
254.475	10626.28
254.546	10628.88
254.616	10680.09
254.687	10713.48
254.757	10731.46
254.827	10735.41
254.898	10750.87
254.968	10756.99
255.039	10748.61
255.109	10779.83
255.18	10757.23
255.25	10701.48
255.321	10723.07
255.391	10696.56
255.461	10761.18
255.532	10692.65
255.602	10678.39
255.673	10635.12
255.743	10609.87
255.813	10547.72
255.884	10592.73
255.954	10614.26
256.024	10673.49
256.095	10672.18
256.165	10640.72
256.235	10657.54
256.306	10650.41
256.376	10687.23
256.446	10727.32
256.517	10750.21
256.587	10785.24
256.657	10810.44
256.728	10837.81
256.798	10851.4
256.868	10847.88
256.938	10827.78
257.009	10872.74
257.079	10902.04
257.149	10980.49
257.219	10931.33
257.29	10963.84
257.36	10915.37
257.43	10951.32
257.5	10897.59
257.571	10889.79
257.641	10919.8
257.711	10889.35
257.781	10912.76
257.852	10925.63
257.922	10873.59
257.992	10882.31
258.062	10876.67
258.132	10904.67
258.202	10907.61
258.273	10913.88
258.343	10975.23
258.413	10960.09
258.483	10962.17
258.553	10942.36
258.623	10921.64
258.693	10945.11
258.764	11004.09
258.834	11066.2
258.904	11078.87
258.974	11068.27
259.044	11080.99
259.114	11106.87
259.184	11133.47
259.254	11136.61
259.324	11092.75
259.394	11126.58
259.464	11183.4
259.535	11192.94
259.605	11186.25
259.675	11176.61
259.745	11213.09
259.815	11191.07
259.885	11192.03
259.955	11279.52
260.025	11274.41
260.095	11288.39
260.165	11311.71
260.235	11356.06
260.305	11342.8
260.375	11321.02
260.445	11398.12
260.515	11448.01
260.585	11486.32
260.655	11493.65
260.725	11534.52
260.795	11565.99
260.865	11628.55
260.934	11607.92
261.004	11626.24
261.074	11626.33
261.144	11678.04
261.214	11698.48
261.284	11701.32
261.354	11738.24
261.424	11704.93
261.494	11764.25
261.564	11763.58
261.634	11790.23
261.703	11737.6
261.773	11753.93
261.843	11781.6
261.913	11779.09
261.983	11740.82
262.053	11750.99
262.123	11749.74
262.192	11717.64
262.262	11756.54
262.332	11711.76
262.402	11727.96
262.472	11735.62
262.541	11690.66
262.611	11729.17
262.681	11710.52
262.751	11742.76
262.821	11743.92
262.89	11716.35
262.96	11740.11
263.03	11805.47
263.1	11814.87
263.169	11835.31
263.239	11862.59
263.309	11910.94
263.379	11926.94
263.448	11949.83
263.518	11970.76
263.588	11984.83
263.657	12035.53
263.727	12063.49
263.797	12080.6
263.867	12085.47
263.936	12059.93
264.006	12114.72
264.076	12101.37
264.145	12098.47
264.215	12080.16
264.285	12109.94
264.354	12078.91
264.424	12069.12
264.494	12031.23
264.563	12027.76
264.633	12087.73
264.702	12111.44
264.772	12072.3
264.842	12080.01
264.911	12103.73
264.981	12076.06
265.05	12083.63
265.12	12086.76
265.19	12093.6
265.259	12125.85
265.329	12154.73
265.398	12178.63
265.468	12259.66
265.537	12268.15
265.607	12300.83
265.676	12346.52
265.746	12369.42
265.815	12417.86
265.885	12420.95
265.955	12418.49
266.024	12426.01
266.094	12375.01
266.163	12420.47
266.232	12475.66
266.302	12480.63
266.371	12491.71
266.441	12512.01
266.51	12549.36
266.58	12548.69
266.649	12536.16
266.719	12570.09
266.788	12592.03
266.858	12647.99
266.927	12590.92
266.996	12613.19
267.066	12637.77
267.135	12615.69
267.205	12646.11
267.274	12664.48
267.343	12714.76
267.413	12725.94
267.482	12770.24
267.552	12828.04
267.621	12785.04
267.69	12750.81
267.76	12765.32
267.829	12794.49
267.898	12800.51
267.968	12798.49
268.037	12836.13
268.106	12874.94
268.176	12858.79
268.245	12872.39
268.314	12868.72
268.384	12924.83
268.453	12939.78
268.522	12961.95
268.592	13014.4
268.661	13007.31
268.73	13025.92
268.799	13010.69
268.869	13074.75
268.938	13037.49
269.007	13029.29
269.076	13052.38
269.146	13097.7
269.215	13125.18
269.284	13178.93
269.353	13182.2
269.422	13188.81
269.492	13184.13
269.561	13127.97
269.63	13153.28
269.699	13146.34
269.768	13159.55
269.838	13169.38
269.907	13204.81
269.976	13187.56
270.045	13145.28
270.114	13175.7
270.183	13192.62
270.253	13219.52
270.322	13183.6
270.391	13209.88
270.46	13257.79
270.529	13290.91
270.598	13329.52
270.667	13337.04
270.736	13316.51
270.806	13341.43
270.875	13380.04
270.944	13391.23
271.013	13494.39
271.082	13519.94
271.151	13551.47
271.22	13528.76
271.289	13541.05
271.358	13538.79
271.427	13562.7
271.496	13586.7
271.565	13586.17
271.634	13606.28
271.703	13704.9
271.772	13753.83
271.841	13768.87
271.91	13753.64
271.979	13775.86
272.048	13756.05
272.117	13795.72
272.186	13796.54
272.255	13843.64
272.324	13887.07
272.393	13911.03
272.462	13905.15
272.531	13915.37
272.6	13922.31
272.669	13983.87
272.738	13997.76
272.807	14029.96
272.876	14029.62
272.945	14142.76
273.013	14192.75
273.082	14232.18
273.151	14162.09
273.22	14186.05
273.289	14203.98
273.358	14274.36
273.427	14292.58
273.496	14325.32
273.564	14354.48
273.633	14404.57
273.702	14391.69
273.771	14395.84
273.84	14426.88
273.909	14457.01
273.977	14495.53
274.046	14516.26
274.115	14556.7
274.184	14553.47
274.253	14563.45
274.322	14622.21
274.39	14570.1
274.459	14571.12
274.528	14547.35
274.597	14562.92
274.665	14591.99
274.734	14648.19
274.803	14651.62
274.872	14662.99
274.94	14666.51
275.009	14828.31
275.078	14825.03
275.147	14855.5
275.215	14877.14
275.284	14937.68
275.353	14952
275.421	14930.16
275.49	15002.32
275.559	15012.44
275.627	15041.42
275.696	15068.94
275.765	15101.96
275.833	15125.77
275.902	15160.77
275.971	15220.88
276.039	15296.7
276.108	15341.38
276.177	15368.52
276.245	15372.23
276.314	15401.35
276.383	15449.74
276.451	15338.61
276.52	15382.13
276.588	15458.67
276.657	15515.21
276.725	15523.26
276.794	15558.5
276.863	15625.02
276.931	15601.4
277	15655.33
277.068	15703.87
277.137	15779.35
277.205	15809.29
277.274	15885.15
277.342	15944
277.411	15934.27
277.48	15938.94
277.548	15951.33
277.617	15991
277.685	16015.19
277.754	16062.04
277.822	16082.34
277.89	16149.43
277.959	16161.43
278.027	16141.76
278.096	16150.05
278.164	16252.56
278.233	16266.69
278.301	16269.87
278.37	16316.28
278.438	16315.7
278.507	16360.67
278.575	16332.28
278.643	16352.48
278.712	16341.83
278.78	16340
278.849	16407.86
278.917	16466.47
278.985	16490.23
279.054	16526.47
279.122	16599.34
279.191	16630.38
279.259	16653.76
279.327	16638.43
279.396	16719.16
279.464	16750.15
279.532	16802.01
279.601	16816.37
279.669	16851.94
279.737	16932.52
279.806	16976.91
279.874	17042.98
279.942	17080.62
280.011	17111.9
280.079	17174.98
280.147	17259.57
280.215	17308.63
280.284	17330.94
280.352	17331.42
280.42	17388.53
280.488	17407.95
280.557	17420.24
280.625	17459.38
280.693	17503.71
280.761	17551.04
280.83	17538.85
280.898	17604.63
280.966	17582.7
281.034	17547.09
281.102	17536.68
281.171	17553.88
281.239	17609.88
281.307	17620.68
281.375	17630.12
281.443	17732.29
281.512	17753.06
281.58	17804.62
281.648	17800.29
281.716	17836.38
281.784	17880.96
281.852	17899.42
281.92	17924.23
281.989	17987.89
282.057	17980.09
282.125	18084.71
282.193	18118.73
282.261	18164.46
282.329	18190.01
282.397	18244.94
282.465	18290.68
282.533	18368.89
282.601	18375.45
282.67	18362
282.738	18373.33
282.806	18438.58
282.874	18438.19
282.942	18483.83
283.01	18503.3
283.078	18557.27
283.146	18584.35
283.214	18641.02
283.282	18680.88
283.35	18751.81
283.418	18771.23
283.486	18829.78
283.554	18799.43
283.622	18824.97
283.69	18863.57
283.758	18889.01
283.826	18939.37
283.894	18994.45
283.962	19082.3
284.03	19155.21
284.098	19202.05
284.165	19234.34
284.233	19265.95
284.301	19281.18
284.369	19292.99
284.437	19302.09
284.505	19327.78
284.573	19403.97
284.641	19406.47
284.709	19458.28
284.777	19464.59
284.845	19521.89
284.912	19569.41
284.98	19616.44
285.048	19647.86
285.116	19698.07
285.184	19771.71
285.252	19809.97
285.319	19801.68
285.387	19820
285.455	19828.19
285.523	19878.84
285.591	19916.33
285.659	19956.28
285.726	20025.92
285.794	20034.25
285.862	20067.46
285.93	20107.55
285.997	20129.72
286.065	20164.66
286.133	20180.66
286.201	20211.12
286.269	20207.16
286.336	20226.49
286.404	20258.3
286.472	20314.44
286.539	20294.25
286.607	20280.32
286.675	20311.36
286.743	20375.89
286.81	20385.67
286.878	20443.45
286.946	20460.76
287.013	20494.1
287.081	20530.06
287.149	20536.52
287.216	20627.8
287.284	20658.74
287.352	20687.84
287.419	20715.17
287.487	20786.65
287.555	20835.47
287.622	20859.85
287.69	20912.97
287.758	20974.32
287.825	20987.96
287.893	20993.98
287.96	21054.18
288.028	21126.47
288.096	21175.59
288.163	21224.31
288.231	21231.88
288.298	21272.8
288.366	21343.71
288.433	21384.96
288.501	21406.22
288.569	21444.92
288.636	21464.73
288.704	21532.84
288.771	21596.61
288.839	21621.28
288.906	21635.02
288.974	21705.12
289.041	21740.25
289.109	21758.67
289.176	21815.98
289.244	21876.19
289.311	21953.36
289.379	22014.58
289.446	22050.73
289.514	22090.07
289.581	22131.82
289.649	22195.69
289.716	22232.42
289.783	22247.22
289.851	22328.11
289.918	22376.9
289.986	22451.81
290.053	22498.09
290.121	22533.19
290.188	22578.46
290.255	22688.63
290.323	22717.32
290.39	22729.71
290.458	22795.27
290.525	22871.74
290.592	22902.26
290.66	22939.77
290.727	22959.97
290.794	23038.23
290.862	23081.29
290.929	23136.84
290.996	23171.55
291.064	23225.61
291.131	23295.05
291.198	23380.16
291.266	23421.88
291.333	23454.57
291.4	23503.08
291.468	23585.89
291.535	23617.34
291.602	23663.63
291.669	23684.13
291.737	23732.78
291.804	23762.06
291.871	23831.7
291.938	23880.7
292.006	23991.18
292.073	24057.06
292.14	24119.57
292.207	24138.96
292.275	24179.71
292.342	24227.71
292.409	24336.35
292.476	24428.79
292.543	24438.63
292.611	24470.57
292.678	24544.19
292.745	24651.81
292.812	24703.92
292.879	24727.95
292.946	24774.6
293.014	24848.51
293.081	24907.09
293.148	24990.98
293.215	25086.18
293.282	25106.92
293.349	25171.34
293.416	25150.88
293.484	25237.21
293.551	25304.68
293.618	25385.31
293.685	25480.67
293.752	25510.98
293.819	25531.88
293.886	25544.19
293.953	25609.09
294.02	25670.24
294.087	25718.22
294.154	25728.55
294.221	25809.51
294.288	25855.08
294.356	25936.45
294.423	25996.9
294.49	26009.59
294.557	26075.58
294.624	26083.84
294.691	26183.81
294.758	26233.35
294.825	26297.07
294.892	26310.69
294.959	26349.17
295.026	26397.12
295.093	26421.21
295.16	26459.06
295.226	26503.96
295.293	26612.39
295.36	26665.64
295.427	26747.9
295.494	26818.47
295.561	26895.93
295.628	26993.55
295.695	27078.94
295.762	27133.03
295.829	27201.54
295.896	27298.86
295.963	27362.62
296.03	27444.58
296.096	27481.64
296.163	27552.22
296.23	27632.42
296.297	27705.07
296.364	27748.45
296.431	27820.83
296.498	27874.65
296.564	27986.87
296.631	28042.72
296.698	28042.86
296.765	28147.34
296.832	28143.33
296.899	28158.26
296.965	28244.97
297.032	28229.98
297.099	28312.85
297.166	28380.32
297.233	28409.28
297.299	28432.23
297.366	28472.88
297.433	28524.31
297.5	28606.54
297.566	28639.27
297.633	28678.96
297.7	28730.25
297.767	28774.28
297.833	28818.52
297.9	28858.74
297.967	28863.62
298.033	28937.16
298.1	29056.03
298.167	29067.01
298.234	29138.22
298.3	29204.99
298.367	29227.82
298.434	29292.24
298.5	29295.77
298.567	29320.1
298.634	29359.07
298.7	29452.51
298.767	29506.82
298.834	29575.8
298.9	29597.76
298.967	29628.03
299.033	29701.91
299.1	29787.93
299.167	29875.23
299.233	29910.49
299.3	29981.11
299.366	30056.75
299.433	30124.65
299.5	30110.18
299.566	30161.02
299.633	30230.31
299.699	30311.03
299.766	30345.72
299.832	30394.94
299.899	30464.34
299.965	30546.21
300.032	30582.3
300.099	30625.53
300.165	30684.72
300.232	30717.1
300.298	30760.7
300.365	30847.48
300.431	30889.11
300.498	30908.23
300.564	30958.62
300.631	31027.07
300.697	31104.14
300.763	31151.14
300.83	31206.49
300.896	31283.51
300.963	31358.89
301.029	31427.7
301.096	31472.88
301.162	31553.59
301.229	31593.16
301.295	31616.98
301.361	31660.56
301.428	31705.05
301.494	31712.26
301.561	31761.47
301.627	31806.55
301.693	31865.48
301.76	31905
301.826	31936.09
301.892	32007.1
301.959	32070.6
302.025	32104.26
302.092	32123.98
302.158	32191.54
302.224	32222.31
302.291	32231.42
302.357	32259.41
302.423	32276.23
302.49	32295.8
302.556	32349.58
302.622	32390.23
302.688	32459.07
302.755	32530.16
302.821	32598.94
302.887	32676.69
302.954	32705.47
303.02	32773.01
303.086	32820.83
303.152	32852.03
303.219	32880.86
303.285	32930.93
303.351	32987.35
303.417	33031.15
303.483	33059.89
303.55	33074.91
303.616	33113.49
303.682	33161.41
303.748	33190.04
303.815	33269.93
303.881	33328.72
303.947	33343.31
304.013	33389.11
304.079	33410.68
304.145	33395.61
304.212	33429.63
304.278	33437.68
304.344	33480.82
304.41	33489.15
304.476	33510.87
304.542	33539.22
304.608	33588.08
304.674	33578
304.741	33595.31
304.807	33641.41
304.873	33696.43
304.939	33770.21
305.005	33758.72
305.071	33793.58
305.137	33835.46
305.203	33800.79
305.269	33834.1
305.335	33894.18
305.401	33914.79
305.467	33938.16
305.533	33994.45
305.599	34046.72
305.666	34111.1
305.732	34142.71
305.798	34197.12
305.864	34292.85
305.93	34356.91
305.996	34391.53
306.062	34438.13
306.128	34461.17
306.194	34462.28
306.259	34489.83
306.325	34502.39
306.391	34553.2
306.457	34611.54
306.523	34647.19
306.589	34746.95
306.655	34767.66
306.721	34760.73
306.787	34764.7
306.853	34838.91
306.919	34828.97
306.985	34834.16
307.051	34851.72
307.117	34866.95
307.183	34893.43
307.248	34852.64
307.314	34879.46
307.38	34912.84
307.446	34964.45
307.512	34981.72
307.578	35025.76
307.644	35062.53
307.709	35095.32
307.775	35120.98
307.841	35137.19
307.907	35179.34
307.973	35166.19
308.039	35187.2
308.104	35226.59
308.17	35266.07
308.236	35240.36
308.302	35290.65
308.368	35295.8
308.433	35318.64
308.499	35338.87
308.565	35345.03
308.631	35393.01
308.696	35365.6
308.762	35367.4
308.828	35389.33
308.894	35368.33
308.959	35357.03
309.025	35360.32
309.091	35379.3
309.156	35400.11
309.222	35435.34
309.288	35427.04
309.354	35405.02
309.419	35437.53
309.485	35435.59
309.551	35483.14
309.616	35488.33
309.682	35506.18
309.748	35531.8
309.813	35558.48
309.879	35563.63
309.945	35564.26
310.01	35569.01
310.076	35615.2
310.141	35640.91
310.207	35625.77
310.273	35673.61
310.338	35705
310.404	35689.76
310.469	35696.22
310.535	35701.65
310.601	35671.13
310.666	35716.74
310.732	35782.2
310.797	35779.14
310.863	35791.47
310.928	35793.07
310.994	35839.94
311.059	35872.84
311.125	35887.88
311.191	35931.47
311.256	35942.43
311.322	35993.53
311.387	35976.5
311.453	36944.8
311.518	36940.82
311.584	36974.6
311.649	37008.28
311.715	37017.21
311.78	37054.62
311.846	37050.98
311.911	37092.33
311.976	37132.94
312.042	37127.51
312.107	37092.08
312.173	37094.36
312.238	37104.99
312.304	37141.93
312.369	37142.31
312.434	37137.56
312.5	37148.33
312.565	37104.65
312.631	37141
312.696	37140.56
312.761	37184.91
312.827	36254.52
312.892	36358.11
312.958	36375.25
313.023	36388.55
313.088	36420.38
313.154	36411.55
313.219	36433.87
313.284	36444.02
313.35	36461.59
313.415	36463.24
313.48	36498.28
313.546	36536.82
313.611	36593.51
313.676	36574.04
313.741	36590.45
313.807	36636.56
313.872	36673.93
313.937	36728.78
314.003	36780.92
314.068	36808.15
314.133	36845.53
314.198	36845.96
314.264	36815.47
314.329	36813.09
314.394	36839.79
314.459	36859.4
314.525	36938.04
314.59	36961.04
314.655	36966.34
314.72	37011.1
314.785	37044.3
314.851	37057.31
314.916	37030.37
314.981	37010.71
315.046	37025.56
315.111	37014.3
315.176	37011.58
315.242	37055.13
315.307	37075.08
315.372	37041.88
315.437	37043.04
315.502	37041.25
315.567	37088.58
315.632	37072.37
315.698	37102.81
315.763	37116.84
315.828	37121.55
315.893	37131.89
315.958	37124.17
316.023	37121.74
316.088	37081.98
316.153	37035.63
316.218	37030.58
316.283	37000.64
316.348	36965.11
316.413	36962.39
316.479	36934.88
316.544	36849.31
316.609	36769.56
316.674	36657.15
316.739	36567.77
316.804	36480.37
316.869	36381.32
316.934	36276.52
316.999	36178.26
317.064	36033.21
317.129	35904.7
317.194	35776.9
317.259	35623.35
317.324	35463.33
317.389	35307.31
317.454	35175.26
317.518	35060.11
317.583	34962.88
317.648	34866.55
317.713	34752.38
317.778	34553.19
317.843	34444.07
317.908	34303.27
317.973	34153.23
318.038	34044.05
318.103	33901.79
318.168	33782.42
318.233	33655.31
318.297	33475.08
318.362	33324.68
318.427	33162.02
318.492	33041.41
318.557	32867.87
318.622	32729.03
318.687	32621.69
318.751	32469.36
318.816	32327.51
318.881	32184.32
318.946	31967.7
319.011	31788.36
319.075	31608.75
319.14	31470.92
319.205	31284.55
319.27	31127
319.335	30950.65
319.399	30780.93
319.464	30646.88
319.529	30432.84
319.594	30262.19
319.658	30106.88
319.723	29925.76
319.788	29787.43
319.853	29557.63
319.917	29404.11
319.982	29197.74
320.047	29017.22
320.112	28867.97
320.176	28648.34
320.241	28468.88
320.306	28311.12
320.37	28129.95
320.435	27967.37
320.5	27794.04
320.564	27615.7
320.629	27433.49
320.694	27267.17
320.758	27065.79
320.823	26862.21
320.888	26707.88
320.952	26488.79
321.017	26298.64
321.082	26114.61
321.146	25929.51
321.211	25761.43
321.275	25570.46
321.34	25371.11
321.405	25174.46
321.469	24965.99
321.534	24782.91
321.598	24568.31
321.663	24407.96
321.727	24240.57
321.792	24032.08
321.857	23839.57
321.921	23649.05
321.986	23448.3
322.05	23197.51
322.115	23010.51
322.179	22801.88
322.244	22567.66
322.308	22389.86
322.373	22179.37
322.437	21981.62
322.502	21819.63
322.566	21605.02
322.631	21423.73
322.695	21235.03
322.76	21031.25
322.824	20848.53
322.889	20640.9
322.953	20434.73
323.018	20157.45
323.082	19891.75
323.146	19653.63
323.211	19416.76
323.275	19202.01
323.34	18990.74
323.404	18809.73
323.468	18592.62
323.533	18387.47
323.597	18169.49
323.662	17944.87
323.726	17745.3
323.79	17523.66
323.855	17255.51
323.919	17031.21
323.983	16801.85
324.048	16476.94
324.112	16477.52
324.177	15804.56
324.241	14934.85
324.305	14075.75
324.37	13244.42
324.434	12430.34
324.498	12199.37
324.562	11941.01
324.627	11642.07
324.691	11345.95
324.755	11018.38
324.82	10646.8
324.884	10252.79
324.948	9849.86
325.012	9352.53
325.077	8759.99
