Data from 20250626_urea_1M_exp2_MAYP1162681_20-03-59-811.txt Node
Date: Thu Jun 26 20:03:59 BST 2025
User: adleo
Spectrometer: MAYP116268
Trigger mode: 0
Integration Time (sec): 3.000000E0
Scans to average: 1
Electric dark correction enabled: true
Nonlinearity correction enabled: true
Boxcar width: 10
XAxis mode: Wavelengths
Number of Pixels in Spectrum: 2068
>>>>>Begin Spectral Data<<<<<
179.565	3024.07
179.642	3180.64
179.718	3294.41
179.795	3412.89
179.871	3505.72
179.948	3560.57
180.024	3622.86
180.101	3688.39
180.177	3727.61
180.254	3788.79
180.33	3848.5
180.407	4061.58
180.483	4298.83
180.56	4537.97
180.636	4761.2
180.712	4732.94
180.789	4757.4
180.865	4792.05
180.942	4822.29
181.018	4851.36
181.095	4889.2
181.171	4901.17
181.248	4906.44
181.324	4957.08
181.4	4969.29
181.477	4996.69
181.553	5029.34
181.63	5079.68
181.706	5118.44
181.782	5142.37
181.859	5146.4
181.935	5164.32
182.011	5156.55
182.088	5201.5
182.164	5254.14
182.24	5285.95
182.317	5312.34
182.393	5304.87
182.469	5342.19
182.546	5376.6
182.622	5383.12
182.698	5376.69
182.775	5415.32
182.851	5452.56
182.927	5428.16
183.003	5415.09
183.08	5397.84
183.156	5422.61
183.232	5419.5
183.308	5392.18
183.385	5411.25
183.461	5456.21
183.537	5459.18
183.613	5488.95
183.69	5465.75
183.766	5435.58
183.842	5455.48
183.918	5469.43
183.995	5504.31
184.071	5514.1
184.147	5496.74
184.223	5472.46
184.299	5498.45
184.375	5465.81
184.452	5482.27
184.528	5590.79
184.604	5622.22
184.68	5659.08
184.756	5676.78
184.832	5688.09
184.908	5703.38
184.985	5704.72
185.061	5659.85
185.137	5683.45
185.213	5655.21
185.289	5654.59
185.365	5637.29
185.441	5629.66
185.517	5666.56
185.593	5658.02
185.669	5648.29
185.745	5676.19
185.822	5719.51
185.898	5700.95
185.974	5729.94
186.05	5699.73
186.126	5635.51
186.202	5619.26
186.278	5605.31
186.354	5581.9
186.43	5596.58
186.506	5589.01
186.582	5588.39
186.658	5608.51
186.734	5555.75
186.81	5561.59
186.886	5574
186.962	5604.11
187.038	5598.4
187.114	5573.11
187.19	5590.95
187.266	5563.3
187.341	5565.84
187.417	5548.3
187.493	5542.98
187.569	5547.68
187.645	5540.77
187.721	5508.21
187.797	5529.59
187.873	5541.05
187.949	5524.32
188.025	5503.98
188.101	5514.29
188.176	5526.32
188.252	5513.67
188.328	5533.35
188.404	5531
188.48	5514.61
188.556	5489.69
188.632	5488.58
188.707	5495.25
188.783	5488.59
188.859	5479.49
188.935	5449.47
189.011	5474.01
189.086	5463.81
189.162	5442.28
189.238	5438.35
189.314	5430.06
189.39	5414.62
189.465	5399.19
189.541	5445.31
189.617	5409.41
189.693	5395.23
189.768	5406.88
189.844	5467.84
189.92	5443.51
189.996	5468.15
190.071	5500.42
190.147	5506.02
190.223	5529.81
190.298	5504.97
190.374	5471.51
190.45	5504.72
190.526	5528.59
190.601	5509.8
190.677	5512.53
190.753	5588.54
190.828	5593.47
190.904	5636.2
190.98	5677.11
191.055	5704.4
191.131	5680.61
191.207	5735.5
191.282	5760.32
191.358	5730.79
191.433	5700.56
191.509	5732.08
191.585	5721.15
191.66	5727.67
191.736	5752.03
191.811	5725.8
191.887	5772
191.963	5833.33
192.038	5849.68
192.114	5850.45
192.189	5861.91
192.265	5851.56
192.34	5786.77
192.416	5784.37
192.491	5771.99
192.567	5776.7
192.642	5781.54
192.718	5783.03
192.793	5749.7
192.869	5738.96
192.944	5746.15
193.02	5758.33
193.095	5771.71
193.171	5790.8
193.246	5780.72
193.322	5771.32
193.397	5778.27
193.473	5740.32
193.548	5691.73
193.624	5704.06
193.699	5701.09
193.775	5740.96
193.85	5741.73
193.925	5769.55
194.001	5767.73
194.076	5748.6
194.152	5719.14
194.227	5698.75
194.302	5675.8
194.378	5688.21
194.453	5679.49
194.529	5711.72
194.604	5675.75
194.679	5665.87
194.755	5615.93
194.83	5652.83
194.905	5646.02
194.981	5666.12
195.056	5647.09
195.131	5665.88
195.207	5658.78
195.282	5628.48
195.357	5579.6
195.433	5622.41
195.508	5586.06
195.583	5611.13
195.659	5648.54
195.734	5666.96
195.809	5670.99
195.884	5692.41
195.96	5690.5
196.035	5731.78
196.11	5727.7
196.185	5758.29
196.261	5761.03
196.336	5843.85
196.411	5798.65
196.486	5809.15
196.561	5788.82
196.637	5815.04
196.712	5852.33
196.787	5860.39
196.862	5906.13
196.937	5929.73
197.013	5946.47
197.088	5981.48
197.163	6039.96
197.238	6085.01
197.313	6084.77
197.388	6113.94
197.464	6198.92
197.539	6233.08
197.614	6215.33
197.689	6243.02
197.764	6286.23
197.839	6345.35
197.914	6332.34
197.989	6399.49
198.065	6441.91
198.14	6580.13
198.215	6647.3
198.29	6683.9
198.365	6716.94
198.44	6744.25
198.515	6821.39
198.59	6862.5
198.665	6921.77
198.74	6940.85
198.815	6942.68
198.89	7006.08
198.965	7091.77
199.04	7076.1
199.115	7115.24
199.19	7224.18
199.265	7233.89
199.34	7263.87
199.415	7354.85
199.49	7404.81
199.565	7428.75
199.64	7499.7
199.715	7492.91
199.79	7508.82
199.865	7524.45
199.94	7522.86
200.015	7612.87
200.09	7625.47
200.165	7640.61
200.24	7668.3
200.315	7765.41
200.39	7804.55
200.464	7822.38
200.539	7821.81
200.614	7864.4
200.689	7926.53
200.764	7952.27
200.839	7997.3
200.914	8009.95
200.989	7975.11
201.063	8018.74
201.138	7970.88
201.213	7966.07
201.288	7914.28
201.363	7932.75
201.438	7933.76
201.512	7974.99
201.587	7920.45
201.662	7927.76
201.737	7959.55
201.812	7977.25
201.886	7897.07
201.961	7924.02
202.036	7886.62
202.111	7881.43
202.186	7798.35
202.26	7747.99
202.335	7687.59
202.41	7675.13
202.485	7630.87
202.559	7584.72
202.634	7511.83
202.709	7539.93
202.784	7483.11
202.858	7482.58
202.933	7429.13
203.008	7411.01
203.082	7359.44
203.157	7360.16
203.232	7247.96
203.306	7184.89
203.381	7097.65
203.456	7032.2
203.53	6969.53
203.605	6914.75
203.68	6850.97
203.754	6835.8
203.829	6799.29
203.904	6741.9
203.978	6707.54
204.053	6716.67
204.127	6678.4
204.202	6667.02
204.277	6620.24
204.351	6601.66
204.426	6579.75
204.5	6561.26
204.575	6470.79
204.65	6499.04
204.724	6479.43
204.799	6505.76
204.873	6498.18
204.948	6496.06
205.022	6465.93
205.097	6439.79
205.171	6482.32
205.246	6504.75
205.32	6505.76
205.395	6502.49
205.469	6481.77
205.544	6499.45
205.618	6451
205.693	6483.61
205.767	6453.56
205.842	6507.3
205.916	6495.64
205.991	6471.29
206.065	6481.91
206.14	6519.84
206.214	6501.68
206.289	6480.06
206.363	6507.57
206.438	6518.24
206.512	6536.58
206.586	6588.09
206.661	6614.85
206.735	6556.45
206.81	6557.32
206.884	6596.77
206.958	6561.35
207.033	6605.11
207.107	6615.01
207.181	6701.44
207.256	6688.37
207.33	6742.34
207.405	6776.33
207.479	6822.58
207.553	6841.98
207.628	6798.11
207.702	6827.06
207.776	6810.54
207.851	6818.13
207.925	6862.97
207.999	6849.47
208.073	6842.65
208.148	6850.48
208.222	6820.65
208.296	6901.24
208.371	6943.89
208.445	6968.73
208.519	7052.87
208.593	7089.96
208.668	7083.9
208.742	7091.36
208.816	7093.18
208.89	7126.21
208.965	7117.26
209.039	7144.42
209.113	7184.98
209.187	7244.4
209.261	7238.79
209.336	7291.98
209.41	7345.57
209.484	7340.62
209.558	7408.72
209.632	7443.56
209.707	7474.9
209.781	7529.07
209.855	7578.02
209.929	7625.28
210.003	7646.57
210.077	7638.06
210.151	7764.87
210.226	7858.15
210.3	7927.55
210.374	7988.45
210.448	7999.94
210.522	8033.42
210.596	8055.74
210.67	8089.21
210.744	8216.42
210.818	8304.16
210.892	8360.83
210.966	8345.11
211.041	8386.09
211.115	8372.86
211.189	8442.91
211.263	8487.79
211.337	8505.88
211.411	8535.96
211.485	8513.77
211.559	8545.37
211.633	8553.92
211.707	8467.27
211.781	8490.48
211.855	8397.08
211.929	8377.27
212.003	8324.72
212.077	8347.2
212.151	8379.54
212.225	8398.16
212.299	8365.9
212.373	8331.07
212.447	8318.85
212.52	8394.92
212.594	8404.3
212.668	8436.63
212.742	8391.98
212.816	8372.63
212.89	8359.35
212.964	8356.8
213.038	8366.38
213.112	8390.35
213.186	8424.16
213.26	8365.7
213.333	8233.31
213.407	8247.16
213.481	8255.72
213.555	8285.99
213.629	8254.52
213.703	8205.58
213.777	8200.53
213.85	8141.69
213.924	8224.03
213.998	8221
214.072	8197.31
214.146	8159.06
214.219	8145.01
214.293	8132.27
214.367	8132.89
214.441	8151.95
214.515	8112.63
214.588	8040.34
214.662	7946.94
214.736	7890.39
214.81	7907.07
214.883	7935.13
214.957	7893.89
215.031	7849.39
215.105	7782.91
215.178	7734.82
215.252	7709.91
215.326	7628.75
215.4	7563.65
215.473	7424.36
215.547	7353.67
215.621	7304.65
215.694	7303.11
215.768	7226.88
215.842	7174.36
215.915	7117.81
215.989	7028.26
216.063	6988.4
216.136	6973.51
216.21	6957.32
216.284	6963.67
216.357	6938.01
216.431	6894.63
216.504	6888.09
216.578	6932.21
216.652	6937.3
216.725	6916.93
216.799	6923.56
216.873	6912.9
216.946	6918.8
217.02	6890.96
217.093	6869.97
217.167	6788.52
217.24	6718.07
217.314	6686.3
217.387	6647.72
217.461	6617.89
217.535	6643.06
217.608	6590.14
217.682	6570.78
217.755	6578.32
217.829	6536.92
217.902	6527.36
217.976	6516.61
218.049	6489.82
218.123	6425.96
218.196	6428.17
218.27	6396.72
218.343	6336.05
218.417	6335.43
218.49	6314.74
218.563	6351.22
218.637	6354.54
218.71	6419.31
218.784	6443.85
218.857	6474.71
218.931	6494.48
219.004	6495.44
219.077	6505.82
219.151	6526.94
219.224	6521.46
219.298	6516.66
219.371	6551.29
219.444	6518.08
219.518	6527.59
219.591	6534.88
219.665	6614.89
219.738	6625.94
219.811	6618.88
219.885	6656.87
219.958	6681.03
220.031	6689.18
220.105	6702.68
220.178	6711.76
220.251	6687.11
220.325	6706.77
220.398	6716.18
220.471	6730.24
220.544	6759.21
220.618	6736.62
220.691	6754.73
220.764	6773.22
220.838	6794.79
220.911	6778.45
220.984	6846.73
221.057	6873.15
221.131	6900.62
221.204	6826.18
221.277	6883.6
221.35	6982.29
221.424	6973.83
221.497	6978.69
221.57	7001.64
221.643	7033.5
221.716	7069.02
221.79	7080.16
221.863	7084.63
221.936	7089.68
222.009	7103.27
222.082	7127.73
222.155	7141.14
222.229	7194.11
222.302	7216.16
222.375	7226.69
222.448	7266.87
222.521	7273.02
222.594	7273.55
222.667	7243.48
222.74	7294.8
222.814	7286.29
222.887	7270.22
222.96	7317.33
223.033	7356.27
223.106	7376.73
223.179	7395.06
223.252	7401.12
223.325	7418.46
223.398	7436.01
223.471	7465.9
223.544	7481.95
223.617	7493.44
223.69	7512.28
223.763	7477.66
223.837	7493.24
223.91	7511.31
223.983	7465.57
224.056	7444.23
224.129	7457.64
224.202	7508.07
224.275	7499.57
224.348	7480.34
224.42	7454.76
224.493	7406.7
224.566	7382.9
224.639	7396.26
224.712	7371.15
224.785	7364.52
224.858	7366.25
224.931	7348.17
225.004	7313.57
225.077	7316.02
225.15	7244.34
225.223	7236.74
225.296	7301.43
225.369	7256.98
225.442	7234.77
225.514	7253.99
225.587	7262.88
225.66	7277.25
225.733	7274.56
225.806	7277.01
225.879	7264.33
225.952	7237.37
226.025	7278.66
226.097	7323.92
226.17	7315.55
226.243	7266.64
226.316	7260.39
226.389	7255.82
226.461	7276.11
226.534	7288.41
226.607	7280.92
226.68	7345.92
226.753	7341.5
226.825	7279.02
226.898	7323.95
226.971	7329.33
227.044	7347.69
227.117	7354.37
227.189	7367.74
227.262	7397.7
227.335	7416.11
227.407	7423.08
227.48	7447.05
227.553	7456.28
227.626	7438.1
227.698	7445.21
227.771	7480.9
227.844	7468.07
227.916	7483.41
227.989	7450.38
228.062	7459.85
228.134	7528.8
228.207	7528.85
228.28	7523.23
228.352	7533.95
228.425	7546.88
228.498	7578.62
228.57	7560.31
228.643	7608.59
228.716	7607.77
228.788	7600.61
228.861	7592.09
228.934	7642.09
229.006	7651.9
229.079	7649.93
229.151	7642.33
229.224	7615.37
229.296	7631.33
229.369	7718.06
229.442	7764.29
229.514	7756.36
229.587	7793.19
229.659	7732.74
229.732	7740.67
229.804	7777.45
229.877	7842.01
229.949	7858.99
230.022	7901.87
230.094	7901.96
230.167	7889.31
230.239	7855.99
230.312	7844.21
230.384	7902.71
230.457	7897.28
230.529	7901.85
230.602	7904.97
230.674	7921.9
230.747	7953.81
230.819	7981.8
230.892	7891.81
230.964	7882.81
231.037	7901.36
231.109	7893.57
231.181	7929.24
231.254	7909.48
231.326	7896.35
231.399	7876.23
231.471	7853.38
231.544	7794.74
231.616	7835.5
231.688	7845.65
231.761	7832.39
231.833	7824.94
231.905	7752.07
231.978	7751.58
232.05	7742.4
232.122	7744.66
232.195	7715.57
232.267	7743.51
232.339	7720.13
232.412	7762.92
232.484	7742.67
232.556	7722.29
232.629	7774.35
232.701	7784.84
232.773	7792.53
232.846	7786.09
232.918	7784.45
232.99	7804.85
233.062	7832.17
233.135	7840.15
233.207	7811.63
233.279	7849.84
233.351	7874.07
233.424	7883.74
233.496	7863.01
233.568	7932.27
233.64	7903.52
233.713	7915.83
233.785	7917.85
233.857	7938.82
233.929	7902.14
234.001	7960.03
234.074	8015.46
234.146	7960.17
234.218	7954.83
234.29	7953.06
234.362	7942.87
234.434	7906.16
234.507	7875.43
234.579	7836.77
234.651	7821.38
234.723	7844.99
234.795	7866.25
234.867	7864.61
234.939	7907.66
235.012	7921.41
235.084	7922.62
235.156	7953.1
235.228	7940.22
235.3	7923.14
235.372	7924.78
235.444	7975.17
235.516	7911.94
235.588	7911.41
235.66	7921.99
235.732	7908.14
235.804	8067.3
235.876	8101.15
235.948	8157.78
236.02	8170.76
236.092	8184.94
236.164	8188.16
236.236	8191.68
236.308	8185.28
236.38	8203.51
236.452	8191.24
236.524	8203.65
236.596	8258.59
236.668	8289.05
236.74	8310.88
236.812	8336.18
236.884	8366.4
236.956	8371.89
237.028	8362.61
237.1	8353.18
237.172	8410.02
237.244	8470.16
237.316	8372.1
237.388	8362.29
237.46	8340.87
237.532	8388.07
237.604	8382.4
237.675	8446.25
237.747	8471.33
237.819	8462.09
237.891	8467.91
237.963	8458.15
238.035	8459.3
238.107	8363.94
238.178	8407.75
238.25	8412.71
238.322	8485.16
238.394	8452.15
238.466	8446.62
238.538	8484.91
238.609	8523.64
238.681	8480.13
238.753	8456.88
238.825	8473.64
238.897	8499.37
238.968	8563.64
239.04	8548.67
239.112	8639.33
239.184	8609.06
239.255	8610.21
239.327	8642.49
239.399	8660.39
239.471	8702.59
239.542	8731.66
239.614	8785.99
239.686	8723.6
239.758	8765.76
239.829	8733.83
239.901	8783.98
239.973	8801.11
240.044	8829.8
240.116	8832.97
240.188	8846.11
240.259	8860.89
240.331	8850.29
240.403	8878.3
240.474	8845.51
240.546	8838
240.618	8786.78
240.689	8788.52
240.761	8804.88
240.833	8854.28
240.904	8855.1
240.976	8850.52
241.048	8866.07
241.119	8899.59
241.191	8939.1
241.262	8987.11
241.334	8997.27
241.405	8994.77
241.477	8999.87
241.549	9007.91
241.62	9030.64
241.692	9065.29
241.763	9118.26
241.835	9134.58
241.906	9153.99
241.978	9129
242.049	9184.56
242.121	9232.07
242.192	9288.88
242.264	9262.12
242.335	9225.48
242.407	9264.57
242.478	9266.98
242.55	9282.44
242.621	9266.25
242.693	9267.84
242.764	9263.94
242.836	9263.46
242.907	9287.34
242.979	9318.16
243.05	9331.54
243.122	9351.05
243.193	9354.08
243.264	9299.43
243.336	9300.24
243.407	9327.02
243.479	9394.14
243.55	9412.44
243.622	9418.32
243.693	9413.36
243.764	9476.29
243.836	9461.8
243.907	9449.18
243.978	9460.11
244.05	9476.77
244.121	9441.82
244.192	9475.19
244.264	9437.05
244.335	9446.39
244.407	9416.44
244.478	9423.28
244.549	9411.48
244.62	9379.51
244.692	9378.45
244.763	9420.34
244.834	9415.57
244.906	9399.3
244.977	9409.8
245.048	9447.91
245.119	9443.23
245.191	9427.58
245.262	9379.33
245.333	9436.58
245.405	9454.59
245.476	9484.78
245.547	9499.13
245.618	9544.54
245.689	9547.09
245.761	9572.8
245.832	9575.45
245.903	9613.25
245.974	9641.72
246.045	9662.38
246.117	9734.67
246.188	9726.77
246.259	9705.68
246.33	9726.53
246.401	9734.53
246.473	9711.55
246.544	9701.29
246.615	9751.72
246.686	9756.15
246.757	9809.6
246.828	9788.75
246.899	9839.58
246.97	9809.63
247.042	9806.4
247.113	9840.65
247.184	9913.94
247.255	9914.71
247.326	9939.51
247.397	9943.46
247.468	9943.22
247.539	9952.57
247.61	9907.33
247.681	9936.61
247.752	9972.06
247.823	9948.8
247.894	9964.84
247.965	9938.31
248.037	9922.31
248.108	9869.32
248.179	9879.39
248.25	9873.75
248.321	9898.03
248.392	9868.06
248.463	9934.67
248.534	9930.28
248.605	9948.59
248.675	9931
248.746	9949.11
248.817	9965.78
248.888	9982.64
248.959	9943.34
249.03	9957.84
249.101	9963.53
249.172	9953.07
249.243	9906.8
249.314	9957.66
249.385	9963.24
249.456	9991.22
249.527	9986.89
249.598	10006.29
249.669	10000.8
249.739	10020.8
249.81	10034.57
249.881	9991.71
249.952	9979.37
250.023	9978.8
250.094	9930.96
250.165	9898.82
250.235	9893.42
250.306	9896.84
250.377	9869.63
250.448	9890.43
250.519	9848.14
250.59	9894.82
250.66	9889.67
250.731	9949.2
250.802	9951.8
250.873	9970.64
250.944	9991.16
251.014	9987.59
251.085	10059.48
251.156	10080.04
251.227	10108.71
251.297	10151.98
251.368	10199.71
251.439	10238.02
251.51	10289.47
251.58	10282.15
251.651	10284.13
251.722	10326.77
251.792	10283.94
251.863	10285.14
251.934	10336.74
252.005	10421.24
252.075	10431.79
252.146	10480.68
252.217	10518.36
252.287	10551.32
252.358	10548.19
252.429	10614.35
252.499	10609.92
252.57	10622.26
252.641	10659.21
252.711	10664.9
252.782	10625.68
252.852	10689.04
252.923	10682.39
252.994	10692.8
253.064	10740.45
253.135	10723.97
253.205	10706.38
253.276	10766.99
253.347	10823.16
253.417	10804.32
253.488	10797.43
253.558	10788.81
253.629	10779.8
253.699	10786.4
253.77	10810.54
253.841	10806.69
253.911	10806.3
253.982	10824.71
254.052	10851.07
254.123	10863.7
254.193	10863.46
254.264	10979.17
254.334	10951.07
254.405	10925.39
254.475	10890.65
254.546	10889.92
254.616	10945.24
254.687	10968.95
254.757	10988.8
254.827	10989.43
254.898	11009.18
254.968	11011.79
255.039	10998.54
255.109	11034.82
255.18	11011.83
255.25	10951.89
255.321	10980.8
255.391	10949.47
255.461	11017.9
255.532	10946.96
255.602	10938.14
255.673	10902.39
255.743	10873.18
255.813	10814.11
255.884	10855.69
255.954	10887.98
256.024	10938.15
256.095	10932.7
256.165	10909.91
256.235	10929.86
256.306	10914.73
256.376	10953.43
256.446	10985.38
256.517	11009.77
256.587	11048.56
256.657	11071.84
256.728	11092.22
256.798	11098.58
256.868	11094.92
256.938	11067.98
257.009	11114.24
257.079	11138.14
257.149	11212.65
257.219	11162.19
257.29	11196.68
257.36	11152.83
257.43	11180.49
257.5	11125.51
257.571	11123.53
257.641	11156.3
257.711	11127.48
257.781	11152.78
257.852	11163.04
257.922	11118.22
257.992	11127.81
258.062	11118.32
258.132	11142.85
258.202	11143.67
258.273	11159.33
258.343	11219.43
258.413	11213.22
258.483	11210.61
258.553	11193.5
258.623	11178.47
258.693	11201.69
258.764	11256.54
258.834	11312.82
258.904	11328.87
258.974	11328.15
259.044	11336.48
259.114	11357.59
259.184	11377.64
259.254	11385.26
259.324	11345.45
259.394	11373.78
259.464	11433.45
259.535	11437.36
259.605	11439.38
259.675	11438.8
259.745	11467.05
259.815	11456.01
259.885	11458.28
259.955	11540.9
260.025	11538.25
260.095	11557.38
260.165	11583.46
260.235	11634.84
260.305	11628.77
260.375	11608.86
260.445	11689.34
260.515	11744
260.585	11782.66
260.655	11799.43
260.725	11835.44
260.795	11866.81
260.865	11928.75
260.934	11904.79
261.004	11933.14
261.074	11933.33
261.144	11977.67
261.214	11998.88
261.284	11989.96
261.354	12019.07
261.424	11993.47
261.494	12045.38
261.564	12039.02
261.634	12062.25
261.703	12010
261.773	12024.7
261.843	12048.41
261.913	12035.4
261.983	11990.48
262.053	12002.24
262.123	11992.21
262.192	11958.57
262.262	11994.24
262.332	11960.93
262.402	11987.68
262.472	11996.5
262.541	11946.53
262.611	11992.13
262.681	11976.99
262.751	12011.65
262.821	12013.72
262.89	11988.46
262.96	12013
263.03	12077.01
263.1	12095.57
263.169	12110.7
263.239	12143.48
263.309	12200.6
263.379	12227.89
263.448	12243.7
263.518	12271.46
263.588	12289.49
263.657	12353.98
263.727	12384.01
263.797	12394.81
263.867	12395.87
263.936	12364.11
264.006	12418.28
264.076	12413.55
264.145	12416.88
264.215	12403.53
264.285	12441.9
264.354	12402.03
264.424	12391.28
264.494	12356.48
264.563	12344.77
264.633	12411.14
264.702	12422.86
264.772	12376.63
264.842	12369.59
264.911	12400.49
264.981	12354.64
265.05	12357.39
265.12	12352.48
265.19	12365.59
265.259	12391.23
265.329	12420.4
265.398	12439.44
265.468	12524.81
265.537	12517.19
265.607	12543.51
265.676	12584.82
265.746	12605.45
265.815	12658.09
265.885	12662.91
265.955	12654.43
266.024	12658.52
266.094	12605.98
266.163	12666.28
266.232	12717.53
266.302	12730.59
266.371	12748.52
266.441	12780.77
266.51	12823.43
266.58	12826.95
266.649	12816.54
266.719	12864.99
266.788	12887.45
266.858	12952.53
266.927	12896.03
266.996	12921.19
267.066	12945.15
267.135	12918.78
267.205	12944.04
267.274	12969.64
267.343	13019.15
267.413	13031.92
267.482	13090.78
267.552	13148.29
267.621	13103.03
267.69	13068.13
267.76	13093.34
267.829	13121.73
267.898	13134.07
267.968	13121.49
268.037	13159.96
268.106	13196.84
268.176	13166.37
268.245	13173.02
268.314	13162.22
268.384	13207.34
268.453	13225.76
268.522	13245.57
268.592	13295.8
268.661	13286.02
268.73	13314.12
268.799	13299.27
268.869	13365.85
268.938	13322.22
269.007	13310.17
269.076	13328.53
269.146	13373.94
269.215	13391.49
269.284	13444.52
269.353	13439.07
269.422	13449.15
269.492	13439.07
269.561	13377.56
269.63	13410
269.699	13409.04
269.768	13424.46
269.838	13441.87
269.907	13480.34
269.976	13457.1
270.045	13415.4
270.114	13444.23
270.183	13443.22
270.253	13467.42
270.322	13430.83
270.391	13460.81
270.46	13517.41
270.529	13559.4
270.598	13599.6
270.667	13607.02
270.736	13576.89
270.806	13602.64
270.875	13653.78
270.944	13660.58
271.013	13759.4
271.082	13783.99
271.151	13817.25
271.22	13782.2
271.289	13795.75
271.358	13795.36
271.427	13825.88
271.496	13862.52
271.565	13864.59
271.634	13881.65
271.703	13979.12
271.772	14025.64
271.841	14033.69
271.91	14010.84
271.979	14023.18
272.048	14001.15
272.117	14041.41
272.186	14048.44
272.255	14097.47
272.324	14128.13
272.393	14163.32
272.462	14163.17
272.531	14182.84
272.6	14192.96
272.669	14258.24
272.738	14262.14
272.807	14296.75
272.876	14293.67
272.945	14400.15
273.013	14452.79
273.082	14503.21
273.151	14435.15
273.22	14466
273.289	14483.93
273.358	14553.73
273.427	14570.32
273.496	14613.17
273.564	14649.42
273.633	14699.31
273.702	14689.38
273.771	14695.94
273.84	14726.6
273.909	14756.48
273.977	14778.61
274.046	14787.62
274.115	14833.13
274.184	14832.79
274.253	14851.88
274.322	14916.33
274.39	14870.44
274.459	14859.88
274.528	14830.62
274.597	14847.01
274.665	14869.81
274.734	14930.74
274.803	14936.91
274.872	14947.52
274.94	14941.06
275.009	15037.31
275.078	15034.85
275.147	15061.94
275.215	15088.36
275.284	15136.22
275.353	15149.57
275.421	15130.1
275.49	15203.41
275.559	15214.21
275.627	15245.78
275.696	15255.91
275.765	15281.55
275.833	15296.44
275.902	15333.85
275.971	15397.91
276.039	15474.79
276.108	15522.85
276.177	15543.72
276.245	15548.54
276.314	15578.33
276.383	15635.11
276.451	15582.09
276.52	15624.75
276.588	15689.97
276.657	15746.26
276.725	15745.54
276.794	15780.34
276.863	15858.71
276.931	15840.45
277	15893.71
277.068	15949.28
277.137	16028.86
277.205	16057.58
277.274	16142.37
277.342	16210.95
277.411	16196.78
277.48	16203.91
277.548	16213.79
277.617	16253.03
277.685	16275.73
277.754	16327.4
277.822	16342.19
277.89	16409.09
277.959	16419.69
278.027	16404.17
278.096	16401.14
278.164	16516.56
278.233	16523.12
278.301	16511.55
278.37	16553.29
278.438	16554.74
278.507	16599.27
278.575	16572.62
278.643	16598.07
278.712	16573.68
278.78	16571.36
278.849	16633.54
278.917	16694.94
278.985	16727.52
279.054	16768.15
279.122	16827.09
279.191	16856.01
279.259	16884.54
279.327	16866.13
279.396	16954.42
279.464	16986.04
279.532	17038.14
279.601	17058.47
279.669	17091.54
279.737	17170.62
279.806	17227.59
279.874	17290.62
279.942	17323.35
280.011	17350.43
280.079	17405.42
280.147	17499.4
280.215	17545.13
280.284	17568.89
280.352	17568.51
280.42	17611.5
280.488	17625.62
280.557	17651.83
280.625	17699.11
280.693	17736.07
280.761	17780.31
280.83	17765.66
280.898	17835.73
280.966	17822.29
281.034	17781.81
281.102	17782
281.171	17793.28
281.239	17832.89
281.307	17841.28
281.375	17851.16
281.443	17951.39
281.512	17978.38
281.58	18026.38
281.648	18023.73
281.716	18058.42
281.784	18098.52
281.852	18119.67
281.92	18162.9
281.989	18222.75
282.057	18206.95
282.125	18322.22
282.193	18357.88
282.261	18390.17
282.329	18406.74
282.397	18458.74
282.465	18498.4
282.533	18569.78
282.601	18589.29
282.67	18571.8
282.738	18589.58
282.806	18655.12
282.874	18657.67
282.942	18700.42
283.01	18716.03
283.078	18770.1
283.146	18804.65
283.214	18859.78
283.282	18906.14
283.35	18972.02
283.418	18998.28
283.486	19064.54
283.554	19029.17
283.622	19053.46
283.69	19106.85
283.758	19134.51
283.826	19193.5
283.894	19261.59
283.962	19360.04
284.03	19438.02
284.098	19482.3
284.165	19510.64
284.233	19540.32
284.301	19551.36
284.369	19559.74
284.437	19579.02
284.505	19599.65
284.573	19676.03
284.641	19688.36
284.709	19741.18
284.777	19726.39
284.845	19779.21
284.912	19819.2
284.98	19866.29
285.048	19897.03
285.116	19928.64
285.184	20004.21
285.252	20033.22
285.319	20021.51
285.387	20027.82
285.455	20019.24
285.523	20079.39
285.591	20107.15
285.659	20153.51
285.726	20232.45
285.794	20242.85
285.862	20279.48
285.93	20322.08
285.997	20347.33
286.065	20374.32
286.133	20385.99
286.201	20420.92
286.269	20416.3
286.336	20438.76
286.404	20463.67
286.472	20527.19
286.539	20516.59
286.607	20504.49
286.675	20544.06
286.743	20603.72
286.81	20625.31
286.878	20698.33
286.946	20708.59
287.013	20752.35
287.081	20781.85
287.149	20770.04
287.216	20860.21
287.284	20873.9
287.352	20911.73
287.419	20945.38
287.487	21017.34
287.555	21067.99
287.622	21101.05
287.69	21154.31
287.758	21223.57
287.825	21237.89
287.893	21243.29
287.96	21302.08
288.028	21372.5
288.096	21413.86
288.163	21456.37
288.231	21466.01
288.298	21495.94
288.366	21580.3
288.433	21609.45
288.501	21621.41
288.569	21678.52
288.636	21703.4
288.704	21779.36
288.771	21841.74
288.839	21846.99
288.906	21863.09
288.974	21920.8
289.041	21947.84
289.109	21965.92
289.176	22008.34
289.244	22064.21
289.311	22131.65
289.379	22191.08
289.446	22229.75
289.514	22270.29
289.581	22314.02
289.649	22359.91
289.716	22402.52
289.783	22411.2
289.851	22505.98
289.918	22547.19
289.986	22611.22
290.053	22648.92
290.121	22689.81
290.188	22720.62
290.255	22843.04
290.323	22862.18
290.39	22883.45
290.458	22941.73
290.525	23008.36
290.592	23037.25
290.66	23084.98
290.727	23107.26
290.794	23185.71
290.862	23228.39
290.929	23274.05
290.996	23306.21
291.064	23375.17
291.131	23440.27
291.198	23517
291.266	23549.99
291.333	23594.73
291.4	23638.28
291.468	23734.03
291.535	23760.26
291.602	23819.63
291.669	23831.16
291.737	23886.32
291.804	23925.15
291.871	24006.9
291.938	24063.92
292.006	24177.01
292.073	24237.49
292.14	24307.28
292.207	24329.86
292.275	24362.56
292.342	24417.07
292.409	24525.96
292.476	24617.44
292.543	24636.06
292.611	24667.95
292.678	24742.4
292.745	24857.85
292.812	24930.95
292.879	24944.8
292.946	24986.96
293.014	25054.76
293.081	25113
293.148	25184.64
293.215	25261.61
293.282	25286.02
293.349	25350.64
293.416	25328.97
293.484	25414.64
293.551	25476.75
293.618	25562.22
293.685	25672.45
293.752	25697.64
293.819	25722.31
293.886	25731.39
293.953	25788.24
294.02	25860.59
294.087	25911.09
294.154	25915.91
294.221	25981.1
294.288	26023.24
294.356	26115.72
294.423	26166.9
294.49	26186.5
294.557	26270.55
294.624	26289.87
294.691	26374.93
294.758	26414.43
294.825	26484.05
294.892	26489.36
294.959	26536.1
295.026	26586.28
295.093	26616.42
295.16	26664.59
295.226	26707.09
295.293	26815.34
295.36	26865.26
295.427	26936.37
295.494	27019.94
295.561	27100.26
295.628	27206.59
295.695	27285.56
295.762	27336.18
295.829	27412.18
295.896	27505.79
295.963	27565.07
296.03	27639.89
296.096	27697.24
296.163	27774.4
296.23	27853.16
296.297	27939.35
296.364	27974.61
296.431	28031.34
296.498	28061.69
296.564	28169.76
296.631	28228.33
296.698	28229.39
296.765	28341.03
296.832	28344.17
296.899	28349.92
296.965	28424.79
297.032	28399.7
297.099	28491.6
297.166	28556.38
297.233	28581.13
297.299	28596.31
297.366	28639.58
297.433	28684.63
297.5	28746.9
297.566	28790.37
297.633	28832.05
297.7	28878.89
297.767	28929.16
297.833	28984.87
297.9	29029.58
297.967	29030.64
298.033	29099.74
298.1	29220.33
298.167	29229.71
298.234	29289.85
298.3	29357.26
298.367	29382.5
298.434	29451.77
298.5	29464.49
298.567	29484.85
298.634	29526.11
298.7	29625.93
298.767	29672.76
298.834	29742.7
298.9	29781.74
298.967	29796.2
299.033	29860.36
299.1	29941.74
299.167	30011.29
299.233	30045.5
299.3	30125.46
299.366	30213.74
299.433	30311.56
299.5	30283.01
299.566	30333.71
299.633	30428.12
299.699	30493.31
299.766	30537.97
299.832	30583.71
299.899	30648.18
299.965	30721.06
300.032	30745.68
300.099	30798.01
300.165	30857.16
300.232	30901.6
300.298	30934.85
300.365	31020.41
300.431	31063.31
300.498	31082.58
300.564	31149.77
300.631	31223.02
300.697	31303.69
300.763	31336.02
300.83	31371.63
300.896	31447.54
300.963	31517.54
301.029	31562.34
301.096	31618.67
301.162	31681.8
301.229	31715.8
301.295	31739.38
301.361	31793.91
301.428	31860.52
301.494	31850.16
301.561	31892.25
301.627	31937.67
301.693	31982.75
301.76	32031.87
301.826	32059.09
301.892	32133.98
301.959	32195.45
302.025	32214.3
302.092	32230.14
302.158	32294.56
302.224	32326.2
302.291	32347.22
302.357	32383.75
302.423	32404.29
302.49	32417.04
302.556	32496.12
302.622	32534.24
302.688	32592.04
302.755	32667.64
302.821	32725.05
302.887	32805.17
302.954	32848.1
303.02	32907.17
303.086	32965.41
303.152	32988.57
303.219	33019.48
303.285	33070.67
303.351	33116.24
303.417	33167.12
303.483	33190.67
303.55	33213.3
303.616	33246.31
303.682	33285.75
303.748	33300.77
303.815	33386.34
303.881	33453.03
303.947	33455.26
304.013	33494.91
304.079	33517.88
304.145	33497.28
304.212	33533.68
304.278	33555.68
304.344	33580.89
304.41	33583.22
304.476	33603.14
304.542	33638.57
304.608	33692.09
304.674	33681.9
304.741	33700.57
304.807	33753.76
304.873	33812.42
304.939	33897.07
305.005	33884.86
305.071	33910.79
305.137	33957.28
305.203	33926.87
305.269	33961.64
305.335	34033.56
305.401	34069.78
305.467	34110.61
305.533	34171.94
305.599	34217.62
305.666	34274.64
305.732	34307.32
305.798	34377.88
305.864	34487.44
305.93	34539.19
305.996	34568.43
306.062	34612.41
306.128	34635.5
306.194	34631.81
306.259	34658.05
306.325	34664.45
306.391	34727.2
306.457	34783.11
306.523	34821.28
306.589	34919.31
306.655	34918.49
306.721	34896.32
306.787	34902.48
306.853	34957.1
306.919	34951.62
306.985	34977.62
307.051	34996.53
307.117	35013.75
307.183	35034.32
307.248	34986.34
307.314	35036.16
307.38	35080.6
307.446	35132.07
307.512	35133.92
307.578	35188.88
307.644	35206.05
307.709	35233.17
307.775	35252.86
307.841	35279.93
307.907	35312.48
307.973	35291.91
308.039	35339.6
308.104	35396.94
308.17	35438.22
308.236	35439
308.302	35480.67
308.368	35475.09
308.433	35490.52
308.499	35507.2
308.565	35505.7
308.631	35545.63
308.696	35505.31
308.762	35505.55
308.828	35525.88
308.894	35529.52
308.959	35501.97
309.025	35523.12
309.091	35549.13
309.156	35565.24
309.222	35605.22
309.288	35600.57
309.354	35582.61
309.419	35614.6
309.485	35600.57
309.551	35624.15
309.616	35609.7
309.682	35636
309.748	35663.6
309.813	35696.21
309.879	35709.55
309.945	35723.43
310.01	35739.83
310.076	35778.69
310.141	35794.32
310.207	35783.11
310.273	35818.18
310.338	35858.21
310.404	35840.6
310.469	35839.38
310.535	35849.96
310.601	35810.71
310.666	35858.12
310.732	35914.45
310.797	35901.1
310.863	35910.52
310.928	35937.74
310.994	35998.89
311.059	36025.92
311.125	36039.51
311.191	36094.7
311.256	36100.67
311.322	36142.64
311.387	36116.88
311.453	37129.13
311.518	37130.49
311.584	37157.91
311.649	37201.64
311.715	37201.44
311.78	37242.01
311.846	37246.04
311.911	37284.43
311.976	37329.51
312.042	37317.04
312.107	37305.29
312.173	37321.31
312.238	37345.04
312.304	37355.96
312.369	37355.28
312.434	37345.19
312.5	37362.12
312.565	37301.16
312.631	37353.52
312.696	37360.22
312.761	37417.97
312.827	36435.08
312.892	36530.96
312.958	36551.74
313.023	36587.81
313.088	36621.15
313.154	36615.42
313.219	36617.12
313.284	36618.62
313.35	36637.07
313.415	36652.89
313.48	36667.21
313.546	36694.39
313.611	36740.94
313.676	36745.17
313.741	36741.62
313.807	36790.85
313.872	36833.23
313.937	36879.24
314.003	36927.3
314.068	36953.66
314.133	36964.15
314.198	36972.35
314.264	36937.73
314.329	36936.27
314.394	36934.43
314.459	36945.4
314.525	37015.88
314.59	37046.85
314.655	37041.37
314.72	37072.68
314.785	37100.74
314.851	37111.66
314.916	37098.5
314.981	37083.16
315.046	37095.05
315.111	37097.97
315.176	37083.26
315.242	37110.01
315.307	37124.14
315.372	37091.85
315.437	37102.29
315.502	37126.61
315.567	37188.76
315.632	37185.7
315.698	37213.71
315.763	37221.53
315.828	37228.08
315.893	37235.27
315.958	37234.64
316.023	37229.4
316.088	37200.02
316.153	37172.26
316.218	37167.99
316.283	37127.61
316.348	37091.25
316.413	37074.21
316.479	37049.94
316.544	36972.77
316.609	36883.31
316.674	36801.72
316.739	36708.55
316.804	36601.97
316.869	36495.63
316.934	36383.74
316.999	36281.82
317.064	36135.56
317.129	36001.81
317.194	35892
317.259	35734.82
317.324	35577.69
317.389	35438.03
317.454	35299.28
317.518	35168.06
317.583	35070.64
317.648	34973.67
317.713	34849.74
317.778	34665.68
317.843	34538.66
317.908	34399.7
317.973	34259.64
318.038	34145.49
318.103	34008.94
318.168	33890.97
318.233	33754.64
318.297	33570.04
318.362	33420.31
318.427	33262.87
318.492	33145.23
318.557	32972.39
318.622	32848.81
318.687	32737.24
318.751	32592.5
318.816	32459.27
318.881	32302.43
318.946	32097.66
319.011	31918.79
319.075	31748.41
319.14	31612.6
319.205	31430.29
319.27	31285.21
319.335	31107.64
319.399	30924.35
319.464	30775.48
319.529	30563.32
319.594	30392.86
319.658	30243.01
319.723	30066.8
319.788	29915.17
319.853	29702.97
319.917	29538.11
319.982	29335
320.047	29152.73
320.112	28992.39
320.176	28781.11
320.241	28613.78
320.306	28448.28
320.37	28272
320.435	28097.24
320.5	27931.03
320.564	27760.99
320.629	27556.79
320.694	27380.99
320.758	27195.44
320.823	26997.46
320.888	26838.97
320.952	26630.06
321.017	26439.41
321.082	26244.12
321.146	26078.71
321.211	25898.51
321.275	25703.13
321.34	25491.99
321.405	25305.12
321.469	25106.82
321.534	24919.04
321.598	24690.45
321.663	24525.86
321.727	24351.07
321.792	24141.33
321.857	23937.65
321.921	23742.21
321.986	23552.02
322.05	23326.58
322.115	23140.81
322.179	22937.43
322.244	22711.64
322.308	22539.04
322.373	22323.72
322.437	22134.46
322.502	21973.46
322.566	21767.53
322.631	21585.32
322.695	21391.03
322.76	21179.19
322.824	20990.49
322.889	20786.57
322.953	20589.65
323.018	20330.06
323.082	20064.69
323.146	19835.2
323.211	19598.47
323.275	19381.89
323.34	19161.99
323.404	18970.09
323.468	18745.42
323.533	18531.98
323.597	18320.89
323.662	18079.69
323.726	17882.77
323.79	17658.15
323.855	17385.76
323.919	17159.58
323.983	16946.8
324.048	16632.45
324.112	16755.63
324.177	16080.29
324.241	15200.31
324.305	14339.87
324.37	13490.56
324.434	12669.88
324.498	12443.94
324.562	12191.07
324.627	11903.52
324.691	11622.1
324.755	11298.28
324.82	10933.38
324.884	10556.11
324.948	10150.7
325.012	9680.68
325.077	9106.42
