Data from 20250626_urea_1M_exp2_MAYP1162681_10-53-58-474.txt Node
Date: Fri Jun 27 10:53:58 BST 2025
User: adleo
Spectrometer: MAYP116268
Trigger mode: 0
Integration Time (sec): 3.000000E0
Scans to average: 1
Electric dark correction enabled: true
Nonlinearity correction enabled: true
Boxcar width: 10
XAxis mode: Wavelengths
Number of Pixels in Spectrum: 2068
>>>>>Begin Spectral Data<<<<<
179.565	3164.73
179.642	3328.51
179.718	3451.69
179.795	3572.36
179.871	3668.23
179.948	3726.29
180.024	3790.58
180.101	3857.12
180.177	3898.18
180.254	3960.58
180.33	4024.9
180.407	4248.24
180.483	4493.63
180.56	4739.67
180.636	4969.74
180.712	4937.54
180.789	4961.92
180.865	4995.66
180.942	5017.16
181.018	5041.25
181.095	5080.89
181.171	5097.36
181.248	5101.53
181.324	5143.51
181.4	5155.83
181.477	5185.15
181.553	5214.46
181.63	5265.11
181.706	5306.19
181.782	5331.28
181.859	5329.17
181.935	5343.07
182.011	5333.44
182.088	5377.82
182.164	5435.23
182.24	5477.11
182.317	5502.74
182.393	5497.66
182.469	5541.09
182.546	5578.72
182.622	5589.21
182.698	5578.62
182.775	5613.66
182.851	5653.84
182.927	5636.87
183.003	5625.04
183.08	5606.44
183.156	5636.5
183.232	5634.96
183.308	5608.21
183.385	5627.86
183.461	5678.97
183.537	5682.81
183.613	5718.68
183.69	5696.57
183.766	5667.49
183.842	5678.76
183.918	5693.72
183.995	5727.52
184.071	5732.18
184.147	5720.91
184.223	5695.95
184.299	5724.68
184.375	5695.52
184.452	5706.95
184.528	5814.55
184.604	5844.07
184.68	5879.55
184.756	5898.74
184.832	5912.13
184.908	5923.35
184.985	5924.98
185.061	5886.08
185.137	5910.74
185.213	5879.09
185.289	5884.79
185.365	5863.12
185.441	5859.14
185.517	5897.68
185.593	5887.84
185.669	5879.16
185.745	5906.27
185.822	5950.6
185.898	5926.42
185.974	5948.19
186.05	5926.5
186.126	5864.57
186.202	5850.14
186.278	5837.04
186.354	5812.96
186.43	5830.96
186.506	5828.61
186.582	5825.35
186.658	5837.53
186.734	5781.86
186.81	5786.42
186.886	5791.98
186.962	5828.33
187.038	5822.67
187.114	5797.13
187.19	5816.85
187.266	5795.32
187.341	5794.12
187.417	5774.75
187.493	5782.56
187.569	5789.57
187.645	5771.11
187.721	5737.14
187.797	5759.67
187.873	5771.52
187.949	5753.64
188.025	5735.4
188.101	5739.33
188.176	5754.34
188.252	5745.28
188.328	5770.63
188.404	5767.46
188.48	5754.71
188.556	5730.44
188.632	5728
188.707	5728.19
188.783	5725.26
188.859	5713
188.935	5683.45
189.011	5702.77
189.086	5684.89
189.162	5663.64
189.238	5663.5
189.314	5657.41
189.39	5637.32
189.465	5618.71
189.541	5663.27
189.617	5613.02
189.693	5599.79
189.768	5611.74
189.844	5676.32
189.92	5646.81
189.996	5670.31
190.071	5702.44
190.147	5703.06
190.223	5727.72
190.298	5712.37
190.374	5676.02
190.45	5707.17
190.526	5730.63
190.601	5720.12
190.677	5721.47
190.753	5801.77
190.828	5810.31
190.904	5851.18
190.98	5894.65
191.055	5924.05
191.131	5905.53
191.207	5967.05
191.282	5995.48
191.358	5969.1
191.433	5928.2
191.509	5970.38
191.585	5963.14
191.66	5966.69
191.736	5988.56
191.811	5962.17
191.887	6002.53
191.963	6064.57
192.038	6074.16
192.114	6079.97
192.189	6087.02
192.265	6081.17
192.34	6015.34
192.416	6018.08
192.491	6001.81
192.567	6012.13
192.642	6017.41
192.718	6016.54
192.793	5981.76
192.869	5971.12
192.944	5975.09
193.02	5997.31
193.095	6009.64
193.171	6029.84
193.246	6022.74
193.322	6013.91
193.397	6014.1
193.473	5979.16
193.548	5927.63
193.624	5950.91
193.699	5946.25
193.775	5993.15
193.85	5998.61
193.925	6022.89
194.001	6012.3
194.076	5992.34
194.152	5959.85
194.227	5941.28
194.302	5909.83
194.378	5921.72
194.453	5914.82
194.529	5954.21
194.604	5914.1
194.679	5893.33
194.755	5837.62
194.83	5880.2
194.905	5873.54
194.981	5900.4
195.056	5879.25
195.131	5898.77
195.207	5884.28
195.282	5850.61
195.357	5794.56
195.433	5835.09
195.508	5800.55
195.583	5829.32
195.659	5872.61
195.734	5891.42
195.809	5890.12
195.884	5918.46
195.96	5920.18
196.035	5962.88
196.11	5948.72
196.185	5982.06
196.261	5991.31
196.336	6080.5
196.411	6030.19
196.486	6046.59
196.561	6025.48
196.637	6054.06
196.712	6101.21
196.787	6114.17
196.862	6163.14
196.937	6187.08
197.013	6201.77
197.088	6234.39
197.163	6289.38
197.238	6332.62
197.313	6330.61
197.388	6368.43
197.464	6450.35
197.539	6487.31
197.614	6468.6
197.689	6496.06
197.764	6538.37
197.839	6595.26
197.914	6579.26
197.989	6649.99
198.065	6687.83
198.14	6835.03
198.215	6902.89
198.29	6936.49
198.365	6976.79
198.44	7006.81
198.515	7090.84
198.59	7133.03
198.665	7199.38
198.74	7219.23
198.815	7226.49
198.89	7288.42
198.965	7372.98
199.04	7357.46
199.115	7394.41
199.19	7509.45
199.265	7520.79
199.34	7555.01
199.415	7641.68
199.49	7699.5
199.565	7724.4
199.64	7791.57
199.715	7777.75
199.79	7793.14
199.865	7807.32
199.94	7798.29
200.015	7885.97
200.09	7898.23
200.165	7913.33
200.24	7929.97
200.315	8043.08
200.39	8084.79
200.464	8102.77
200.539	8102.63
200.614	8148.94
200.689	8214.79
200.764	8233.37
200.839	8281.49
200.914	8289.48
200.989	8263.68
201.063	8301.25
201.138	8246.37
201.213	8244.97
201.288	8191.53
201.363	8209.18
201.438	8202.64
201.512	8244.71
201.587	8192.22
201.662	8206.22
201.737	8239.08
201.812	8270.93
201.886	8175.47
201.961	8200.21
202.036	8169.92
202.111	8160.77
202.186	8081.08
202.26	8030.71
202.335	7967.3
202.41	7951.39
202.485	7909.08
202.559	7854.64
202.634	7780.34
202.709	7810.04
202.784	7758.73
202.858	7759.98
202.933	7710.12
203.008	7694.45
203.082	7643.97
203.157	7642.24
203.232	7518.22
203.306	7462.76
203.381	7368.23
203.456	7308.58
203.53	7241.03
203.605	7184.79
203.68	7123.73
203.754	7112.21
203.829	7073.08
203.904	7014.95
203.978	6978
204.053	6985.06
204.127	6951.68
204.202	6942.74
204.277	6895.95
204.351	6872.41
204.426	6852.56
204.5	6826
204.575	6730.03
204.65	6758.14
204.724	6730.79
204.799	6756.8
204.873	6739.07
204.948	6739.02
205.022	6708.2
205.097	6679.31
205.171	6717.73
205.246	6739.45
205.32	6732.25
205.395	6729.75
205.469	6709.74
205.544	6725.41
205.618	6677.81
205.693	6707.49
205.767	6675.18
205.842	6735.43
205.916	6717.66
205.991	6687.26
206.065	6703.59
206.14	6747.53
206.214	6731.86
206.289	6713.7
206.363	6742.32
206.438	6755.2
206.512	6774.75
206.586	6826.52
206.661	6852.77
206.735	6790.99
206.81	6789.35
206.884	6831.51
206.958	6793.2
207.033	6840.58
207.107	6860.43
207.181	6947.41
207.256	6935.35
207.33	6990.63
207.405	7021.36
207.479	7074.54
207.553	7098.07
207.628	7055.35
207.702	7084.31
207.776	7069.22
207.851	7082.38
207.925	7125.55
207.999	7113.01
208.073	7098.93
208.148	7101.48
208.222	7071.49
208.296	7161.53
208.371	7207.26
208.445	7235.14
208.519	7315.9
208.593	7349.1
208.668	7342.18
208.742	7348.77
208.816	7355.98
208.89	7391.75
208.965	7385.74
209.039	7408.43
209.113	7452.46
209.187	7513.02
209.261	7506.68
209.336	7565.66
209.41	7619.61
209.484	7625.38
209.558	7691.98
209.632	7738.69
209.707	7767.88
209.781	7827.64
209.855	7872.32
209.929	7920.89
210.003	7934.69
210.077	7936.47
210.151	8067.78
210.226	8165.37
210.3	8243.31
210.374	8305.1
210.448	8314.09
210.522	8342
210.596	8375.53
210.67	8402.52
210.744	8529.42
210.818	8619.16
210.892	8671.66
210.966	8653
211.041	8692.8
211.115	8680.33
211.189	8737.74
211.263	8792.26
211.337	8808.86
211.411	8849.92
211.485	8825.32
211.559	8861.02
211.633	8867.46
211.707	8779.15
211.781	8794.85
211.855	8691.71
211.929	8669.19
212.003	8619.47
212.077	8647.3
212.151	8675.56
212.225	8699.09
212.299	8670.53
212.373	8635.12
212.447	8620.72
212.52	8698.4
212.594	8707.4
212.668	8740.6
212.742	8701.96
212.816	8680.97
212.89	8665.28
212.964	8658.21
213.038	8674.77
213.112	8707.26
213.186	8743.49
213.26	8685.88
213.333	8554.04
213.407	8568.27
213.481	8569.62
213.555	8599.28
213.629	8564
213.703	8515.58
213.777	8505.57
213.85	8445.12
213.924	8533.4
213.998	8532.25
214.072	8508.61
214.146	8467.36
214.219	8448.93
214.293	8434.64
214.367	8433.06
214.441	8459.28
214.515	8414.33
214.588	8336.38
214.662	8234.1
214.736	8170.94
214.81	8185.65
214.883	8206.22
214.957	8165.74
215.031	8125.26
215.105	8051.99
215.178	7995.91
215.252	7967.15
215.326	7893.9
215.4	7824.49
215.473	7681.36
215.547	7604.93
215.621	7551.42
215.694	7544.83
215.768	7465.6
215.842	7410.9
215.915	7352.46
215.989	7255.86
216.063	7214.12
216.136	7195.99
216.21	7174.95
216.284	7178.03
216.357	7156.64
216.431	7119.64
216.504	7117.53
216.578	7157.9
216.652	7165.87
216.725	7154
216.799	7158.52
216.873	7136.71
216.946	7144.01
217.02	7111.89
217.093	7092.09
217.167	7014.12
217.24	6946.3
217.314	6921.38
217.387	6887.44
217.461	6857.08
217.535	6871.78
217.608	6817.64
217.682	6801.21
217.755	6807.55
217.829	6765.08
217.902	6755.18
217.976	6742.64
218.049	6701.44
218.123	6639.64
218.196	6638.87
218.27	6602.46
218.343	6549.17
218.417	6551.48
218.49	6529.73
218.563	6577.51
218.637	6582.99
218.71	6645.87
218.784	6669.45
218.857	6695.43
218.931	6710.69
219.004	6709.11
219.077	6729.15
219.151	6743.12
219.224	6734.57
219.298	6732.89
219.371	6771.47
219.444	6734.02
219.518	6738.77
219.591	6757.98
219.665	6845.99
219.738	6858.43
219.811	6844.27
219.885	6876.51
219.958	6896.54
220.031	6904.99
220.105	6907.1
220.178	6912.63
220.251	6889.08
220.325	6908.88
220.398	6915.99
220.471	6933.28
220.544	6965.61
220.618	6943.74
220.691	6969.88
220.764	6988.8
220.838	7012.06
220.911	6992.11
220.984	7063.97
221.057	7098.61
221.131	7113.69
221.204	7035.19
221.277	7095.6
221.35	7204.11
221.424	7196.23
221.497	7212.86
221.57	7233.42
221.643	7260.1
221.716	7297.93
221.79	7303.56
221.863	7308.03
221.936	7317.88
222.009	7334.74
222.082	7355.75
222.155	7365.22
222.229	7419.93
222.302	7439.16
222.375	7443.48
222.448	7484.39
222.521	7484.97
222.594	7480.02
222.667	7465.37
222.74	7513.48
222.814	7506.55
222.887	7487.16
222.96	7529.95
223.033	7564.48
223.106	7584.95
223.179	7614.63
223.252	7623.53
223.325	7644.29
223.398	7656.89
223.471	7680.35
223.544	7697.94
223.617	7712.03
223.69	7727.94
223.763	7693.17
223.837	7715.87
223.91	7743.03
223.983	7702.9
224.056	7676.7
224.129	7697.95
224.202	7737.73
224.275	7723.65
224.348	7697.68
224.42	7670.9
224.493	7631.29
224.566	7605.75
224.639	7619.35
224.712	7589.14
224.785	7572.16
224.858	7567.4
224.931	7552.64
225.004	7522.22
225.077	7513.56
225.15	7436.38
225.223	7438.98
225.296	7502.34
225.369	7451.96
225.442	7423.74
225.514	7430.7
225.587	7443.77
225.66	7451.52
225.733	7451.47
225.806	7455.41
225.879	7448.39
225.952	7420.72
226.025	7457.49
226.097	7499.54
226.17	7490.26
226.243	7439.22
226.316	7438.5
226.389	7440.23
226.461	7455.86
226.534	7474.12
226.607	7468.79
226.68	7536.88
226.753	7529.76
226.825	7469.67
226.898	7516.34
226.971	7516.68
227.044	7538.22
227.117	7545.09
227.189	7555.96
227.262	7590.15
227.335	7609.2
227.407	7609.48
227.48	7639.71
227.553	7641.97
227.626	7623.64
227.698	7637.39
227.771	7671.31
227.844	7658.28
227.916	7676.55
227.989	7643.96
228.062	7643.67
228.134	7714.32
228.207	7713.02
228.28	7705.42
228.352	7712.49
228.425	7718.31
228.498	7759.86
228.57	7745.68
228.643	7800.52
228.716	7804.03
228.788	7789.21
228.861	7785.22
228.934	7832.34
229.006	7835.47
229.079	7842.49
229.151	7838.31
229.224	7804.08
229.296	7821.44
229.369	7899.62
229.442	7939.41
229.514	7934.65
229.587	7967.54
229.659	7908.76
229.732	7919.2
229.804	7949.3
229.877	8011.71
229.949	8033.55
230.022	8078.02
230.094	8074.51
230.167	8058.44
230.239	8020.93
230.312	8009.01
230.384	8062.75
230.457	8063.38
230.529	8074.01
230.602	8070.4
230.674	8076.6
230.747	8109.14
230.819	8136.13
230.892	8042.72
230.964	8037.23
231.037	8055.01
231.109	8048.76
231.181	8075.98
231.254	8048.81
231.326	8041.88
231.399	8020.32
231.471	7999
231.544	7926.39
231.616	7967.7
231.688	7970.78
231.761	7962.99
231.833	7960.01
231.905	7887.56
231.978	7880.2
232.05	7863.27
232.122	7872.08
232.195	7850.91
232.267	7879.15
232.339	7860.05
232.412	7914.62
232.484	7893.93
232.556	7873.12
232.629	7932.7
232.701	7950.45
232.773	7960.07
232.846	7948.96
232.918	7954.74
232.99	7967.39
233.062	8003.27
233.135	8009.48
233.207	7985.91
233.279	8020.71
233.351	8043.17
233.424	8050.72
233.496	8035.62
233.568	8108.45
233.64	8072.53
233.713	8086.62
233.785	8086.33
233.857	8099.03
233.929	8060.36
234.001	8119.18
234.074	8171.11
234.146	8102.34
234.218	8100.42
234.29	8102.39
234.362	8097.39
234.434	8057.84
234.507	8031.48
234.579	7986.56
234.651	7971.17
234.723	7994.02
234.795	8004.36
234.867	8004.55
234.939	8045.92
235.012	8058.66
235.084	8065.35
235.156	8096.85
235.228	8078.24
235.3	8059.96
235.372	8064.29
235.444	8109.31
235.516	8043.71
235.588	8050.68
235.66	8069.44
235.732	8046.78
235.804	8206.54
235.876	8237.46
235.948	8294.78
236.02	8304.11
236.092	8319.01
236.164	8328.68
236.236	8329.59
236.308	8335.94
236.38	8358.56
236.452	8345.13
236.524	8361.49
236.596	8407.43
236.668	8437.94
236.74	8455.59
236.812	8484.6
236.884	8517.04
236.956	8527.19
237.028	8517.62
237.1	8503.67
237.172	8561.67
237.244	8626.39
237.316	8532.12
237.388	8519.9
237.46	8494.39
237.532	8547.95
237.604	8540.79
237.675	8602.2
237.747	8635.65
237.819	8624.64
237.891	8627.23
237.963	8621.32
238.035	8622.71
238.107	8532.78
238.178	8581.27
238.25	8595.17
238.322	8668.5
238.394	8629.47
238.466	8630.77
238.538	8670.03
238.609	8702.94
238.681	8652.79
238.753	8629.97
238.825	8642.34
238.897	8667.84
238.968	8735.73
239.04	8715.66
239.112	8807.24
239.184	8775.61
239.255	8766.89
239.327	8792.68
239.399	8810.3
239.471	8847.06
239.542	8875.46
239.614	8926.67
239.686	8865.57
239.758	8903.35
239.829	8873.2
239.901	8925.96
239.973	8935.34
240.044	8956.81
240.116	8968.65
240.188	8982.08
240.259	8995.84
240.331	8984.67
240.403	9021.83
240.474	8986.34
240.546	8982.53
240.618	8937.28
240.689	8933.53
240.761	8954.71
240.833	9003.91
240.904	9003.77
240.976	9004.06
241.048	9013.35
241.119	9046.19
241.191	9076.18
241.262	9138.12
241.334	9141.78
241.405	9145.58
241.477	9145.63
241.549	9155.21
241.62	9173.75
241.692	9214.81
241.763	9267.93
241.835	9285.08
241.906	9299.62
241.978	9273.04
242.049	9325.57
242.121	9375.25
242.192	9431.64
242.264	9405.4
242.335	9368.08
242.407	9405.16
242.478	9412.29
242.55	9430.54
242.621	9417.05
242.693	9415.36
242.764	9399.8
242.836	9398.17
242.907	9418.68
242.979	9448.92
243.05	9466.88
243.122	9488.21
243.193	9489.32
243.264	9424.75
243.336	9426.91
243.407	9439.63
243.479	9502.75
243.55	9519.95
243.622	9528.76
243.693	9526.89
243.764	9583.42
243.836	9566.38
243.907	9553.09
243.978	9552.7
244.05	9573.61
244.121	9540.09
244.192	9578.19
244.264	9537.58
244.335	9550.73
244.407	9517.84
244.478	9525.26
244.549	9514.71
244.62	9476.38
244.692	9475.27
244.763	9512.68
244.834	9506.42
244.906	9502.42
244.977	9517.07
245.048	9555.08
245.119	9544.2
245.191	9523.25
245.262	9469.7
245.333	9535.32
245.405	9550.54
245.476	9579.58
245.547	9591.72
245.618	9629.85
245.689	9636.74
245.761	9669.35
245.832	9671.66
245.903	9709.8
245.974	9739.76
246.045	9757.96
246.117	9834.88
246.188	9813.55
246.259	9801.08
246.33	9813.6
246.401	9811.53
246.473	9783.88
246.544	9777.23
246.615	9817.16
246.686	9827.42
246.757	9888.82
246.828	9869.08
246.899	9933.35
246.97	9902.1
247.042	9891.98
247.113	9933.07
247.184	10008.63
247.255	10003.96
247.326	10023.56
247.397	10026.84
247.468	10026.36
247.539	10028.28
247.61	9986.32
247.681	10025.86
247.752	10070.65
247.823	10052.02
247.894	10073.98
247.965	10057.8
248.037	10041.03
248.108	9998.4
248.179	9998.64
248.25	9994.11
248.321	10017.18
248.392	9972.61
248.463	10043.6
248.534	10044.04
248.605	10054.25
248.675	10030.35
248.746	10046.29
248.817	10069.61
248.888	10082.81
248.959	10043.55
249.03	10069.66
249.101	10075.2
249.172	10059.65
249.243	10000.31
249.314	10050.7
249.385	10059.22
249.456	10075.84
249.527	10078.05
249.598	10099.87
249.669	10106.33
249.739	10114.52
249.81	10126.08
249.881	10092.99
249.952	10088.5
250.023	10090.87
250.094	10047.55
250.165	10016.57
250.235	10009.1
250.306	10004.67
250.377	9980.97
250.448	10004.04
250.519	9949.56
250.59	9995.14
250.66	9996.87
250.731	10059.38
250.802	10067.14
250.873	10078.95
250.944	10100
251.014	10088.05
251.085	10159.31
251.156	10184.03
251.227	10235.3
251.297	10276.11
251.368	10315.56
251.439	10345.43
251.51	10380.89
251.58	10370.1
251.651	10373.96
251.722	10419.59
251.792	10381.62
251.863	10389.38
251.934	10440.16
252.005	10530.73
252.075	10545.91
252.146	10591.62
252.217	10630.22
252.287	10659.9
252.358	10665.25
252.429	10731.65
252.499	10724.72
252.57	10733.25
252.641	10764.28
252.711	10759.41
252.782	10729.78
252.852	10791.89
252.923	10791.27
252.994	10807.89
253.064	10848.21
253.135	10828.22
253.205	10810.24
253.276	10868.88
253.347	10909.3
253.417	10886.8
253.488	10874.27
253.558	10859.33
253.629	10858.03
253.699	10866.22
253.77	10887.33
253.841	10885.93
253.911	10892.05
253.982	10908.33
254.052	10938.94
254.123	10947.62
254.193	10953.35
254.264	11061.41
254.334	11038.66
254.405	11017.36
254.475	10986.23
254.546	10992.45
254.616	11046.46
254.687	11074.56
254.757	11094.94
254.827	11102.6
254.898	11119.08
254.968	11127.61
255.039	11113.06
255.109	11134.65
255.18	11109.2
255.25	11056.15
255.321	11076.48
255.391	11039.66
255.461	11113.39
255.532	11039.26
255.602	11033.34
255.673	10987.46
255.743	10958.64
255.813	10891.86
255.884	10935.9
255.954	10962.6
256.024	11017.15
256.095	11021.83
256.165	10990.41
256.235	11006.75
256.306	10991.47
256.376	11035.72
256.446	11072.3
256.517	11096.25
256.587	11140.97
256.657	11162.51
256.728	11179.52
256.798	11188.58
256.868	11179.38
256.938	11154.22
257.009	11195.33
257.079	11216.82
257.149	11300.77
257.219	11254.41
257.29	11289.81
257.36	11238.83
257.43	11274.78
257.5	11220.95
257.571	11212.09
257.641	11244.52
257.711	11214.3
257.781	11240.08
257.852	11254.25
257.922	11198.1
257.992	11202.01
258.062	11190.34
258.132	11221.43
258.202	11224.27
258.273	11231.21
258.343	11300.08
258.413	11287.46
258.483	11279.46
258.553	11261.24
258.623	11232.85
258.693	11252.22
258.764	11313.57
258.834	11364.22
258.904	11381.91
258.974	11375.69
259.044	11381.57
259.114	11405.86
259.184	11432.52
259.254	11439.79
259.324	11396.9
259.394	11436.41
259.464	11501.34
259.535	11510.64
259.605	11503.6
259.675	11494.93
259.745	11524.57
259.815	11504.28
259.885	11504.09
259.955	11606.42
260.025	11598.62
260.095	11609.32
260.165	11632.84
260.235	11684.08
260.305	11675.74
260.375	11649.61
260.445	11722.92
260.515	11776.95
260.585	11814.26
260.655	11825.49
260.725	11863.23
260.795	11887.37
260.865	11941.36
260.934	11908.05
261.004	11933.36
261.074	11940.11
261.144	11989.99
261.214	12018.91
261.284	12015.73
261.354	12045.56
261.424	12007.04
261.494	12066.85
261.564	12075.05
261.634	12103.25
261.703	12041.64
261.773	12063.19
261.843	12087.38
261.913	12083.34
261.983	12033.01
262.053	12048.58
262.123	12042.03
262.192	12007.28
262.262	12042.32
262.332	12007.66
262.402	12042.46
262.472	12047.86
262.541	11994.46
262.611	12034.42
262.681	12017.99
262.751	12055.2
262.821	12067.49
262.89	12042.23
262.96	12059.97
263.03	12121.24
263.1	12133.34
263.169	12147.02
263.239	12174.16
263.309	12230.03
263.379	12255.96
263.448	12278.38
263.518	12303.83
263.588	12315.4
263.657	12382.83
263.727	12422.22
263.797	12433.3
263.867	12433.35
263.936	12402.21
264.006	12455.61
264.076	12450.93
264.145	12449.49
264.215	12427.7
264.285	12458.74
264.354	12421.34
264.424	12415.99
264.494	12379.11
264.563	12374.82
264.633	12447.13
264.702	12466.12
264.772	12424.28
264.842	12416.32
264.911	12442.98
264.981	12403.36
265.05	12417.96
265.12	12404.66
265.19	12410.49
265.259	12440.38
265.329	12470.17
265.398	12488.34
265.468	12572.36
265.537	12567.64
265.607	12594.97
265.676	12638.83
265.746	12651.51
265.815	12701.79
265.885	12701.16
265.955	12686.6
266.024	12688.34
266.094	12630.88
266.163	12687.95
266.232	12735.72
266.302	12744.93
266.371	12764.45
266.441	12775.73
266.51	12816.37
266.58	12819.31
266.649	12805.91
266.719	12846.65
266.788	12869.78
266.858	12926.04
266.927	12870.02
266.996	12896.63
267.066	12920.11
267.135	12898.61
267.205	12930.96
267.274	12952.7
267.343	13003.22
267.413	13020.72
267.482	13067.38
267.552	13128.74
267.621	13083.33
267.69	13051.57
267.76	13080.44
267.829	13099.53
267.898	13126.04
267.968	13105.65
268.037	13144.84
268.106	13186.35
268.176	13165.96
268.245	13160.75
268.314	13161.96
268.384	13213.83
268.453	13232.72
268.522	13259.05
268.592	13312.89
268.661	13300.65
268.73	13330.87
268.799	13316.6
268.869	13383.37
268.938	13349.48
269.007	13336.08
269.076	13351.65
269.146	13396.58
269.215	13414.27
269.284	13478.24
269.353	13466.86
269.422	13479.11
269.492	13470.43
269.561	13400.77
269.63	13424.01
269.699	13433.36
269.768	13446.71
269.838	13461.66
269.907	13498.63
269.976	13478.87
270.045	13427.77
270.114	13462.38
270.183	13456.55
270.253	13484.89
270.322	13438.13
270.391	13456.26
270.46	13513.91
270.529	13557.35
270.598	13593.69
270.667	13606.76
270.736	13576.97
270.806	13612.35
270.875	13652.02
270.944	13668.85
271.013	13774.37
271.082	13799.78
271.151	13833.42
271.22	13800.55
271.289	13810.67
271.358	13801.66
271.427	13822.72
271.496	13851.79
271.565	13854.59
271.634	13877.34
271.703	13978.76
271.772	14028.03
271.841	14033.04
271.91	14000.65
271.979	14011.97
272.048	13985.03
272.117	14019.64
272.186	14015.88
272.255	14060.18
272.324	14096.05
272.393	14120
272.462	14106.17
272.531	14124.68
272.6	14122.03
272.669	14187.2
272.738	14197.04
272.807	14230.59
272.876	14222.1
272.945	14332.98
273.013	14379.54
273.082	14428.52
273.151	14350.91
273.22	14382.58
273.289	14411.89
273.358	14483.62
273.427	14496.01
273.496	14536.36
273.564	14561.81
273.633	14621.25
273.702	14606.3
273.771	14617.87
273.84	14649.98
273.909	14693.89
273.977	14728.93
274.046	14741.95
274.115	14784.42
274.184	14784.71
274.253	14802.11
274.322	14866.56
274.39	14823.95
274.459	14817.68
274.528	14780.03
274.597	14797.68
274.665	14826.65
274.734	14880.63
274.803	14889.41
274.872	14907.53
274.94	14900.64
275.009	15012.22
275.078	15004.07
275.147	15028.41
275.215	15052.61
275.284	15103.66
275.353	15114.5
275.421	15080.57
275.49	15158.8
275.559	15160.73
275.627	15182.76
275.696	15197.46
275.765	15223.2
275.833	15234.86
275.902	15272.51
275.971	15339.37
276.039	15418.95
276.108	15465.61
276.177	15493.08
276.245	15493.18
276.314	15513.71
276.383	15571.7
276.451	15513.82
276.52	15560.91
276.588	15623.95
276.657	15673.6
276.725	15675.24
276.794	15697.89
276.863	15773.04
276.931	15750.53
277	15810.68
277.068	15861.34
277.137	15939.09
277.205	15977.41
277.274	16064.02
277.342	16125.14
277.411	16113.18
277.48	16109.9
277.548	16112.46
277.617	16149.67
277.685	16176.51
277.754	16228.57
277.822	16236.33
277.89	16298.26
277.959	16310.6
278.027	16306.74
278.096	16310.94
278.164	16417.3
278.233	16436.34
278.301	16436.2
278.37	16484.68
278.438	16487.04
278.507	16528.3
278.575	16499.29
278.643	16516.06
278.712	16496.15
278.78	16491.09
278.849	16549.94
278.917	16613.8
278.985	16643.06
279.054	16681.9
279.122	16740.22
279.191	16768.56
279.259	16794.25
279.327	16771.79
279.396	16855.36
279.464	16880.61
279.532	16938.35
279.601	16966.54
279.669	16996.04
279.737	17066.45
279.806	17108.33
279.874	17166.4
279.942	17209.34
280.011	17235.85
280.079	17291.52
280.147	17378.26
280.215	17423.66
280.284	17448.24
280.352	17450.99
280.42	17499.42
280.488	17514.07
280.557	17532.24
280.625	17579.76
280.693	17622.22
280.761	17676.1
280.83	17660.29
280.898	17725.98
280.966	17704.48
281.034	17640.58
281.102	17634.99
281.171	17654.27
281.239	17710.27
281.307	17720
281.375	17720.58
281.443	17826.84
281.512	17849.25
281.58	17897.34
281.648	17891.03
281.716	17937.49
281.784	17962.45
281.852	17985.2
281.92	18018.5
281.989	18086.3
282.057	18076.52
282.125	18194.1
282.193	18222
282.261	18262
282.329	18285.57
282.397	18334.15
282.465	18385.66
282.533	18465.85
282.601	18474.24
282.67	18441.18
282.738	18458
282.806	18524.55
282.874	18511.2
282.942	18560.69
283.01	18567.58
283.078	18627.29
283.146	18644.35
283.214	18714.47
283.282	18751.81
283.35	18819.33
283.418	18834.6
283.486	18879.9
283.554	18837.4
283.622	18869.4
283.69	18901.59
283.758	18921.3
283.826	18974.98
283.894	19041.1
283.962	19132.42
284.03	19215.11
284.098	19268.8
284.165	19294.58
284.233	19323.54
284.301	19343.64
284.369	19350.86
284.437	19373.08
284.505	19390.28
284.573	19472.78
284.641	19474.52
284.709	19539.82
284.777	19530.85
284.845	19583.33
284.912	19640.97
284.98	19690.61
285.048	19709.79
285.116	19761.06
285.184	19839.85
285.252	19873.63
285.319	19861.1
285.387	19867.13
285.455	19853.11
285.523	19907.37
285.591	19939.61
285.659	19982.02
285.726	20055.75
285.794	20063.99
285.862	20091.84
285.93	20132.76
285.997	20149.24
286.065	20174.59
286.133	20178.68
286.201	20206.39
286.269	20218.01
286.336	20221.77
286.404	20250.68
286.472	20316.76
286.539	20294.49
286.607	20274.93
286.675	20309.82
286.743	20368.71
286.81	20395.84
286.878	20463.12
286.946	20476.61
287.013	20513.29
287.081	20548.08
287.149	20549.48
287.216	20643.36
287.284	20672.57
287.352	20711.03
287.419	20745.01
287.487	20825.54
287.555	20870.17
287.622	20897.16
287.69	20944.92
287.758	21016.93
287.825	21032.45
287.893	21029.65
287.96	21080.78
288.028	21148.64
288.096	21193.81
288.163	21237.18
288.231	21242.39
288.298	21275.65
288.366	21350.4
288.433	21378.12
288.501	21380.82
288.569	21415.81
288.636	21426.12
288.704	21492.25
288.771	21549.47
288.839	21546.67
288.906	21563.16
288.974	21626.79
289.041	21666.46
289.109	21669.78
289.176	21726.86
289.244	21771.59
289.311	21838.3
289.379	21909.54
289.446	21960.98
289.514	21999.59
289.581	22042.69
289.649	22085.69
289.716	22125.94
289.783	22141.61
289.851	22233.15
289.918	22282.07
289.986	22351.73
290.053	22400.95
290.121	22431.57
290.188	22473.17
290.255	22599.59
290.323	22619.35
290.39	22641.53
290.458	22698.61
290.525	22773.53
290.592	22789.68
290.66	22837.94
290.727	22869.37
290.794	22936.83
290.862	22962.43
290.929	23002.07
290.996	23032.44
291.064	23094.35
291.131	23159.55
291.198	23214.57
291.266	23244.12
291.333	23283.71
291.4	23333.57
291.468	23415.27
291.535	23440.83
291.602	23482.78
291.669	23492.38
291.737	23538.86
291.804	23570.35
291.871	23635.99
291.938	23683.54
292.006	23788.8
292.073	23862.25
292.14	23922.68
292.207	23944.14
292.275	23983.84
292.342	24046.06
292.409	24151.6
292.476	24242.01
292.543	24263.38
292.611	24301.44
292.678	24379.82
292.745	24480.54
292.812	24539.64
292.879	24550.06
292.946	24603.7
293.014	24673.94
293.081	24737.43
293.148	24810.03
293.215	24889.01
293.282	24910.05
293.349	24974.99
293.416	24965.05
293.484	25032.99
293.551	25098.91
293.618	25172.59
293.685	25281.51
293.752	25293.14
293.819	25319.1
293.886	25330.78
293.953	25381.93
294.02	25469.43
294.087	25526.77
294.154	25542.7
294.221	25618.63
294.288	25669.89
294.356	25748.69
294.423	25801.89
294.49	25815.02
294.557	25891.09
294.624	25901.04
294.691	26000.71
294.758	26038.36
294.825	26094.55
294.892	26108.31
294.959	26145.92
295.026	26212.45
295.093	26228.82
295.16	26281.76
295.226	26321.31
295.293	26426.2
295.36	26469.45
295.427	26518.76
295.494	26588.51
295.561	26661.66
295.628	26754.91
295.695	26829.43
295.762	26882.84
295.829	26946.74
295.896	27030.09
295.963	27092.98
296.03	27169.86
296.096	27223.62
296.163	27299.75
296.23	27376.84
296.297	27460.93
296.364	27501.55
296.431	27554.41
296.498	27584.02
296.564	27687.77
296.631	27749.76
296.698	27751.06
296.765	27854.55
296.832	27878.8
296.899	27887.26
296.965	27973.76
297.032	27961.33
297.099	28054.57
297.166	28106.81
297.233	28146.59
297.299	28167.6
297.366	28206.71
297.433	28253
297.5	28314.63
297.566	28359.83
297.633	28411.02
297.7	28450.46
297.767	28490.23
297.833	28552.5
297.9	28610.39
297.967	28609.91
298.033	28684.37
298.1	28803.66
298.167	28819.13
298.234	28868.34
298.3	28934.47
298.367	28958.94
298.434	29003.48
298.5	29010.1
298.567	29036.21
298.634	29057.58
298.7	29153.21
298.767	29206.7
298.834	29276.62
298.9	29296.26
298.967	29309.46
299.033	29371.28
299.1	29449.83
299.167	29529.42
299.233	29548.14
299.3	29613.33
299.366	29690.07
299.433	29751.57
299.5	29716.74
299.566	29761.33
299.633	29851.94
299.699	29918.42
299.766	29950.44
299.832	30011.26
299.899	30079.44
299.965	30162.59
300.032	30201.29
300.099	30257.57
300.165	30304.94
300.232	30337.61
300.298	30383.23
300.365	30467.76
300.431	30507.45
300.498	30525.55
300.564	30577.91
300.631	30647.36
300.697	30732.36
300.763	30784.28
300.83	30822.68
300.896	30905.87
300.963	30978.81
301.029	31013.76
301.096	31055.69
301.162	31124.32
301.229	31160.63
301.295	31168.57
301.361	31215.34
301.428	31268.57
301.494	31264.12
301.561	31304.06
301.627	31354.7
301.693	31396.13
301.76	31443.64
301.826	31468.43
301.892	31545.96
301.959	31610.41
302.025	31629.88
302.092	31644.56
302.158	31706.44
302.224	31747.42
302.291	31753.77
302.357	31789.65
302.423	31820.79
302.49	31834.55
302.556	31897.18
302.622	31929.29
302.688	31992.35
302.755	32068.02
302.821	32126.67
302.887	32196.55
302.954	32238.16
303.02	32295.7
303.086	32365.89
303.152	32386.72
303.219	32417.38
303.285	32454.11
303.351	32512.95
303.417	32570.16
303.483	32596.08
303.55	32605.96
303.616	32640.7
303.682	32685.51
303.748	32706.39
303.815	32784.61
303.881	32857.53
303.947	32861.26
304.013	32903.46
304.079	32926.77
304.145	32904.77
304.212	32941.98
304.278	32957.58
304.344	32987.82
304.41	32992.32
304.476	33000.85
304.542	33038.26
304.608	33091.28
304.674	33093.75
304.741	33105.14
304.807	33145.18
304.873	33197.23
304.939	33275.6
305.005	33272.69
305.071	33315.68
305.137	33359.97
305.203	33321.78
305.269	33345
305.335	33422.08
305.401	33457.8
305.467	33482.38
305.533	33542.53
305.599	33598.96
305.666	33661
305.732	33697.07
305.798	33766.39
305.864	33870.35
305.93	33922.32
305.996	33961.4
306.062	34005.12
306.128	34030.39
306.194	34037.37
306.259	34063.79
306.325	34081.59
306.391	34135.31
306.457	34181.32
306.523	34215.64
306.589	34327.02
306.655	34351.22
306.721	34331.34
306.787	34334.39
306.853	34418.67
306.919	34410
306.985	34419.36
307.051	34432.84
307.117	34448.64
307.183	34469.64
307.248	34426.86
307.314	34472.75
307.38	34499.42
307.446	34545.16
307.512	34550.69
307.578	34594.72
307.644	34620.52
307.709	34642.59
307.775	34662.47
307.841	34683.76
307.907	34722.86
307.973	34698.5
308.039	34725.28
308.104	34770.72
308.17	34813.05
308.236	34799.28
308.302	34845.15
308.368	34847.72
308.433	34886.57
308.499	34909.95
308.565	34901.66
308.631	34939.39
308.696	34903.54
308.762	34911.4
308.828	34928.48
308.894	34921.01
308.959	34888.18
309.025	34893.71
309.091	34925.19
309.156	34945.42
309.222	34992.67
309.288	34986.8
309.354	34951.06
309.419	34983.66
309.485	34968
309.551	35004.91
309.616	34996.38
309.682	35010.83
309.748	35029.8
309.813	35045.61
309.879	35046.78
309.945	35046.58
310.01	35065.5
310.076	35109.74
310.141	35126.09
310.207	35121.19
310.273	35154.75
310.338	35212.76
310.404	35204.03
310.469	35191.32
310.535	35202.38
310.601	35158.19
310.666	35214.13
310.732	35279.08
310.797	35270.05
310.863	35292.12
310.928	35300.61
310.994	35342.43
311.059	35377.99
311.125	35405.94
311.191	35456.7
311.256	35452.91
311.322	35509.92
311.387	35481.39
311.453	36519.82
311.518	36517.35
311.584	36550.97
311.649	36601.97
311.715	36591.83
311.78	36627.24
311.846	36632.82
311.911	36674.6
311.976	36711.57
312.042	36679.74
312.107	36668.14
312.173	36672.61
312.238	36683.81
312.304	36699.2
312.369	36704.15
312.434	36695.85
312.5	36699.2
312.565	36646.11
312.631	36686.61
312.696	36687.88
312.761	36731.3
312.827	35729.26
312.892	35825.65
312.958	35833.32
313.023	35843.56
313.088	35879.03
313.154	35870.58
313.219	35870.44
313.284	35859.32
313.35	35889.41
313.415	35908.29
313.48	35932.84
313.546	35975.49
313.611	36015.04
313.676	36020.09
313.741	36032.7
313.807	36073.23
313.872	36106.08
313.937	36150.58
314.003	36218.48
314.068	36243.47
314.133	36280.84
314.198	36271.14
314.264	36241.04
314.329	36240.21
314.394	36260.11
314.459	36266.61
314.525	36338.49
314.59	36363.04
314.655	36363.04
314.72	36393.47
314.785	36413.95
314.851	36424.58
314.916	36406.48
314.981	36408.08
315.046	36402.3
315.111	36397.11
315.176	36392.06
315.242	36428.08
315.307	36445.65
315.372	36412.3
315.437	36431.33
315.502	36433.17
315.567	36484.77
315.632	36456.33
315.698	36494.14
315.763	36500.98
315.828	36506.03
315.893	36512.73
315.958	36525.15
316.023	36525.83
316.088	36490.25
316.153	36459.15
316.218	36453.67
316.283	36416.98
316.348	36382.43
316.413	36393.59
316.479	36368.8
316.544	36283.06
316.609	36194.98
316.674	36096.29
316.739	36003.43
316.804	35893.97
316.869	35794.84
316.934	35682.17
316.999	35597.03
317.064	35442.02
317.129	35305.1
317.194	35192.71
317.259	35051.29
317.324	34890.04
317.389	34739.4
317.454	34615.33
317.518	34497.05
317.583	34403.34
317.648	34304.47
317.713	34181.3
317.778	33991.31
317.843	33871.11
317.908	33747.7
317.973	33618.99
318.038	33511.76
318.103	33377.72
318.168	33257.57
318.233	33131.51
318.297	32959.33
318.362	32822.05
318.427	32678.81
318.492	32584.16
318.557	32417.98
318.622	32289.15
318.687	32185.65
318.751	32045.13
318.816	31908.2
318.881	31767.77
318.946	31561.27
319.011	31387.59
319.075	31213.01
319.14	31065.68
319.205	30887.83
319.27	30735.92
319.335	30551.54
319.399	30373.45
319.464	30238.5
319.529	30030.44
319.594	29860.61
319.658	29725.7
319.723	29547.51
319.788	29406.01
319.853	29183.98
319.917	29036.62
319.982	28834.49
320.047	28665.55
320.112	28519.43
320.176	28314.42
320.241	28148.52
320.306	27996.54
320.37	27826.79
320.435	27681.54
320.5	27528.91
320.564	27360.46
320.629	27179.43
320.694	27027.44
320.758	26859.51
320.823	26668.07
320.888	26524.98
320.952	26318.29
321.017	26123.23
321.082	25933.1
321.146	25757.09
321.211	25575.62
321.275	25383.65
321.34	25181.23
321.405	24982.03
321.469	24790.95
321.534	24595.63
321.598	24380.41
321.663	24222.78
321.727	24056.79
321.792	23845.71
321.857	23647.76
321.921	23451.04
321.986	23250.01
322.05	23011.23
322.115	22813.58
322.179	22618.93
322.244	22389.59
322.308	22216.47
322.373	22015.25
322.437	21832.22
322.502	21677.17
322.566	21480.79
322.631	21300.81
322.695	21115.4
322.76	20913.25
322.824	20727.11
322.889	20525.37
322.953	20314.04
323.018	20044.14
323.082	19779.26
323.146	19552.95
323.211	19326.1
323.275	19125.1
323.34	18920.57
323.404	18734.65
323.468	18521.45
323.533	18302.36
323.597	18089.16
323.662	17867.71
323.726	17676.63
323.79	17460.05
323.855	17187.8
323.919	16971.5
323.983	16758
324.048	16441.91
324.112	16634.6
324.177	15977.41
324.241	15115.55
324.305	14268.93
324.37	13438.08
324.434	12626.13
324.498	12401.8
324.562	12152.9
324.627	11867.91
324.691	11588.09
324.755	11282.09
324.82	10931.91
324.884	10563.08
324.948	10195.21
325.012	9730.25
325.077	9159.42
