Data from 20250626_urea_1M_exp2_MAYP1162681_17-24-00-549.txt Node
Date: Thu Jun 26 17:24:00 BST 2025
User: adleo
Spectrometer: MAYP116268
Trigger mode: 0
Integration Time (sec): 3.000000E0
Scans to average: 1
Electric dark correction enabled: true
Nonlinearity correction enabled: true
Boxcar width: 10
XAxis mode: Wavelengths
Number of Pixels in Spectrum: 2068
>>>>>Begin Spectral Data<<<<<
179.565	3305.46
179.642	3470.55
179.718	3596
179.795	3722.64
179.871	3823.01
179.948	3884.93
180.024	3950.45
180.101	4018.31
180.177	4060.7
180.254	4127.93
180.33	4193.79
180.407	4425.91
180.483	4688.03
180.56	4946.67
180.636	5191.2
180.712	5158.13
180.789	5185.06
180.865	5223.56
180.942	5249.28
181.018	5278.32
181.095	5317.59
181.171	5331.72
181.248	5338.24
181.324	5388.44
181.4	5402.25
181.477	5431.11
181.553	5465.79
181.63	5522.27
181.706	5568.06
181.782	5597.62
181.859	5602.84
181.935	5617.46
182.011	5611.85
182.088	5651.04
182.164	5708.52
182.24	5741.93
182.317	5769.63
182.393	5762.05
182.469	5799.89
182.546	5839.6
182.622	5849.29
182.698	5837.92
182.775	5876.48
182.851	5915.43
182.927	5896.53
183.003	5888.62
183.08	5873.18
183.156	5899.27
183.232	5894.09
183.308	5860.95
183.385	5878.06
183.461	5919.99
183.537	5927
183.613	5962.07
183.69	5938.61
183.766	5904.34
183.842	5928.9
183.918	5944.59
183.995	5981.57
184.071	5991.5
184.147	5976.05
184.223	5946
184.299	5981.22
184.375	5946.49
184.452	5964.64
184.528	6077.53
184.604	6114.08
184.68	6151.35
184.756	6172.23
184.832	6182.55
184.908	6196.83
184.985	6200.38
185.061	6156.35
185.137	6181.5
185.213	6144.03
185.289	6144.99
185.365	6129.45
185.441	6120.57
185.517	6162.82
185.593	6153.37
185.669	6146.69
185.745	6175.78
185.822	6223.73
185.898	6197.04
185.974	6226.49
186.05	6206.28
186.126	6130.97
186.202	6102.9
186.278	6091.29
186.354	6061.34
186.43	6080.59
186.506	6075.42
186.582	6073.64
186.658	6092.34
186.734	6033.25
186.81	6040.25
186.886	6054.78
186.962	6082.84
187.038	6068.88
187.114	6043.43
187.19	6061.57
187.266	6036.05
187.341	6040.9
187.417	6019.02
187.493	6022.53
187.569	6029.97
187.645	6010.63
187.721	5982.51
187.797	6006.2
187.873	6017.43
187.949	5998.35
188.025	5977.42
188.101	5989.36
188.176	6001.54
188.252	5990.27
188.328	6014.34
188.404	6014.43
188.48	5998.46
188.556	5978.26
188.632	5980.95
188.707	5985.51
188.783	5982.44
188.859	5964.61
188.935	5926.12
189.011	5948.67
189.086	5928.57
189.162	5902.9
189.238	5899.69
189.314	5890.33
189.39	5871.29
189.465	5852.48
189.541	5905.21
189.617	5865.64
189.693	5850
189.768	5857.73
189.844	5926.32
189.92	5902.79
189.996	5927.25
190.071	5958.44
190.147	5959.21
190.223	5982.91
190.298	5961.41
190.374	5920.92
190.45	5957.22
190.526	5982.27
190.601	5970.13
190.677	5973.34
190.753	6052.09
190.828	6063.27
190.904	6102.28
190.98	6146
191.055	6173.17
191.131	6146.86
191.207	6202.37
191.282	6230.67
191.358	6208.17
191.433	6166.34
191.509	6204.17
191.585	6192.51
191.66	6195.49
191.736	6222.26
191.811	6200
191.887	6245.13
191.963	6316.01
192.038	6327.53
192.114	6328.25
192.189	6337.85
192.265	6332.14
192.34	6268.88
192.416	6261.4
192.491	6254.82
192.567	6266.54
192.642	6271.92
192.718	6274.32
192.793	6246.15
192.869	6233.38
192.944	6238.9
193.02	6266.03
193.095	6274.09
193.171	6295.49
193.246	6298.18
193.322	6287.29
193.397	6290.16
193.473	6249.4
193.548	6200.19
193.624	6219.49
193.699	6216.8
193.775	6258.82
193.85	6262.37
193.925	6288
194.001	6286.56
194.076	6263.33
194.152	6221.8
194.227	6201.07
194.302	6177.52
194.378	6185.72
194.453	6176.56
194.529	6212.85
194.604	6165.62
194.679	6148.54
194.755	6096.16
194.83	6128.39
194.905	6121
194.981	6142.45
195.056	6122.69
195.131	6137.66
195.207	6133.62
195.282	6101.24
195.357	6045.75
195.433	6087.39
195.508	6051.68
195.583	6077.4
195.659	6118.45
195.734	6146.05
195.809	6147.05
195.884	6167.05
195.96	6165.9
196.035	6210.34
196.11	6200.74
196.185	6235.96
196.261	6246.99
196.336	6335.83
196.411	6291.84
196.486	6309.17
196.561	6294.14
196.637	6320.58
196.712	6365.58
196.787	6371.82
196.862	6425.28
196.937	6454.02
197.013	6479.77
197.088	6509.43
197.163	6569.29
197.238	6616.97
197.313	6615.53
197.388	6654.27
197.464	6738.15
197.539	6771.76
197.614	6750.78
197.689	6784.31
197.764	6833.46
197.839	6890.7
197.914	6873.26
197.989	6941.86
198.065	6979.32
198.14	7123.41
198.215	7197.4
198.29	7227.45
198.365	7265.03
198.44	7293.71
198.515	7374.02
198.59	7409.74
198.665	7482.98
198.74	7508.38
198.815	7505.3
198.89	7570.81
198.965	7653.14
199.04	7644.77
199.115	7686.06
199.19	7807.96
199.265	7813
199.34	7838.68
199.415	7933.8
199.49	7994.23
199.565	8016.59
199.64	8089.55
199.715	8078.67
199.79	8094.16
199.865	8113.16
199.94	8104.31
200.015	8193.55
200.09	8213.33
200.165	8231.8
200.24	8253.31
200.315	8356.96
200.39	8408.3
200.464	8425.42
200.539	8429.08
200.614	8473.24
200.689	8545.71
200.764	8560.58
200.839	8612.43
200.914	8626.28
200.989	8592.63
201.063	8632.72
201.138	8579.55
201.213	8578.3
201.288	8522.43
201.363	8539.51
201.438	8540.67
201.512	8588.71
201.587	8539.33
201.662	8544.68
201.737	8581.92
201.812	8602.62
201.886	8512.44
201.961	8541.37
202.036	8504
202.111	8497.93
202.186	8417.59
202.26	8367.2
202.335	8313.54
202.41	8295.5
202.485	8247.22
202.559	8194.79
202.634	8117.82
202.709	8147.62
202.784	8093.21
202.858	8097.16
202.933	8038.43
203.008	8018.9
203.082	7961.49
203.157	7956.68
203.232	7835.36
203.306	7769.69
203.381	7676.77
203.456	7613.73
203.53	7540.57
203.605	7486.76
203.68	7416.59
203.754	7395.85
203.829	7350.41
203.904	7287.83
203.978	7256.34
204.053	7268.5
204.127	7237.22
204.202	7225.49
204.277	7177.87
204.351	7155.62
204.426	7131.1
204.5	7111.4
204.575	7009.29
204.65	7036.79
204.724	7015
204.799	7041.74
204.873	7027.99
204.948	7023.96
205.022	6986.4
205.097	6961.83
205.171	7001.27
205.246	7027.61
205.32	7026.56
205.395	7025.45
205.469	7003.08
205.544	7018.56
205.618	6968.25
205.693	6995.69
205.767	6968.46
205.842	7028.24
205.916	7011.96
205.991	6983.03
206.065	6997.45
206.14	7043.66
206.214	7026.64
206.289	6999.49
206.363	7027.59
206.438	7039.32
206.512	7061.86
206.586	7122.77
206.661	7147.87
206.735	7082.76
206.81	7084.35
206.884	7129.12
206.958	7090.55
207.033	7137.08
207.107	7149.82
207.181	7235.73
207.256	7222.32
207.33	7270.75
207.405	7303.94
207.479	7355.85
207.553	7377.8
207.628	7336.4
207.702	7369.51
207.776	7356.82
207.851	7373.73
207.925	7423.32
207.999	7408.03
208.073	7401.06
208.148	7401.11
208.222	7370.39
208.296	7467.47
208.371	7514.09
208.445	7544.52
208.519	7625.12
208.593	7658.58
208.668	7649.34
208.742	7660.17
208.816	7665.5
208.89	7706.63
208.965	7706.29
209.039	7729.91
209.113	7774.19
209.187	7833.42
209.261	7823.76
209.336	7879.88
209.41	7933.17
209.484	7931.34
209.558	8004.45
209.632	8041.71
209.707	8075.91
209.781	8138
209.855	8177.89
209.929	8224.78
210.003	8239.26
210.077	8240.99
210.151	8373.54
210.226	8472.83
210.3	8546.5
210.374	8604.74
210.448	8618.74
210.522	8647.72
210.596	8675.01
210.67	8703.49
210.744	8841.41
210.818	8930.44
210.892	8992.59
210.966	8978.35
211.041	9025.13
211.115	9006.94
211.189	9079.96
211.263	9123.85
211.337	9138.87
211.411	9180.33
211.485	9162.56
211.559	9194.66
211.633	9203.56
211.707	9115.28
211.781	9135.03
211.855	9038.69
211.929	9023.3
212.003	8971.58
212.077	8996.33
212.151	9032.83
212.225	9059.74
212.299	9024.19
212.373	8995.12
212.447	8978.07
212.52	9059.53
212.594	9067.18
212.668	9105.69
212.742	9060.82
212.816	9045.75
212.89	9034.25
212.964	9029.1
213.038	9039.02
213.112	9070.89
213.186	9107.86
213.26	9049.7
213.333	8914.64
213.407	8926.05
213.481	8932.35
213.555	8961.49
213.629	8922.2
213.703	8868.48
213.777	8857.74
213.85	8796.02
213.924	8884.14
213.998	8876.24
214.072	8851.54
214.146	8803.78
214.219	8789.44
214.293	8773.56
214.367	8775.92
214.441	8794.74
214.515	8749.87
214.588	8670.12
214.662	8566.32
214.736	8502.28
214.81	8516.46
214.883	8538.43
214.957	8502.5
215.031	8452.21
215.105	8375.78
215.178	8324.1
215.252	8292.93
215.326	8211.96
215.4	8146.57
215.473	7997.33
215.547	7934.06
215.621	7878.51
215.694	7875.24
215.768	7788.86
215.842	7736.35
215.915	7678.56
215.989	7581.45
216.063	7537.92
216.136	7525.75
216.21	7509.51
216.284	7520.62
216.357	7502.35
216.431	7462.59
216.504	7455.96
216.578	7504.23
216.652	7518.84
216.725	7500.57
216.799	7512.54
216.873	7494.91
216.946	7500.24
217.02	7469.21
217.093	7441.18
217.167	7359.86
217.24	7291.92
217.314	7262.43
217.387	7223.62
217.461	7186.37
217.535	7206.46
217.608	7152.64
217.682	7133.37
217.755	7143.6
217.829	7097.11
217.902	7082.12
217.976	7070.3
218.049	7029.61
218.123	6966.96
218.196	6961.34
218.27	6930.88
218.343	6865.41
218.417	6868.34
218.49	6846.77
218.563	6879.15
218.637	6886.6
218.71	6946.57
218.784	6971.65
218.857	7000.62
218.931	7022.37
219.004	7022.37
219.077	7043.72
219.151	7056.2
219.224	7043.9
219.298	7037.22
219.371	7068.51
219.444	7035.85
219.518	7041.71
219.591	7058.33
219.665	7148.35
219.738	7162.72
219.811	7149.75
219.885	7186.32
219.958	7212.42
220.031	7217.7
220.105	7237.84
220.178	7246.69
220.251	7222.89
220.325	7240.68
220.398	7255.96
220.471	7267.16
220.544	7303.11
220.618	7277.43
220.691	7308.43
220.764	7326.4
220.838	7353.99
220.911	7347.6
220.984	7417.37
221.057	7455.25
221.131	7477.02
221.204	7397.22
221.277	7460.41
221.35	7568.1
221.424	7566.61
221.497	7578.25
221.57	7599.01
221.643	7630.22
221.716	7665.47
221.79	7675.61
221.863	7691.25
221.936	7700.19
222.009	7716.53
222.082	7742.55
222.155	7751.49
222.229	7808.88
222.302	7826.9
222.375	7827.43
222.448	7857.78
222.521	7865.38
222.594	7859.42
222.667	7838.61
222.74	7891.07
222.814	7876.59
222.887	7860.18
222.96	7902.59
223.033	7938.05
223.106	7953.96
223.179	7981.54
223.252	7992.6
223.325	8016.21
223.398	8019.58
223.471	8049.35
223.544	8062.28
223.617	8073.73
223.69	8096.05
223.763	8058.57
223.837	8081.85
223.91	8111.77
223.983	8070.37
224.056	8045.65
224.129	8065.08
224.202	8109.64
224.275	8093.47
224.348	8069.48
224.42	8039.31
224.493	7998.58
224.566	7979.52
224.639	8004.48
224.712	7973.97
224.785	7962.09
224.858	7960.02
224.931	7949.92
225.004	7905.92
225.077	7910.29
225.15	7832.69
225.223	7831.87
225.296	7906.9
225.369	7859.88
225.442	7830.15
225.514	7848.42
225.587	7862.12
225.66	7877.03
225.733	7879.82
225.806	7888.05
225.879	7877.33
225.952	7852.57
226.025	7887.87
226.097	7930.27
226.17	7925.55
226.243	7873.77
226.316	7869.97
226.389	7872.86
226.461	7890.13
226.534	7913.83
226.607	7905.7
226.68	7973.06
226.753	7969.83
226.825	7902.79
226.898	7951.11
226.971	7953.81
227.044	7968.72
227.117	7973.09
227.189	7988.92
227.262	8016.01
227.335	8031.02
227.407	8041.84
227.48	8074.24
227.553	8093.54
227.626	8082.56
227.698	8088.29
227.771	8124.77
227.844	8112.51
227.916	8132.62
227.989	8102.55
228.062	8099.62
228.134	8176.75
228.207	8181.66
228.28	8174.01
228.352	8181.61
228.425	8196.82
228.498	8232.27
228.57	8218.81
228.643	8268.08
228.716	8269.72
228.788	8265.68
228.861	8263.75
228.934	8315.61
229.006	8327.16
229.079	8331.87
229.151	8314.55
229.224	8285.12
229.296	8306.33
229.369	8392.39
229.442	8434.17
229.514	8428.98
229.587	8473.19
229.659	8406.06
229.732	8424.01
229.804	8463.94
229.877	8529.07
229.949	8550.1
230.022	8598.58
230.094	8598.63
230.167	8589.05
230.239	8549.79
230.312	8541.85
230.384	8605.06
230.457	8601.07
230.529	8610.3
230.602	8603.9
230.674	8619.3
230.747	8657.35
230.819	8685.26
230.892	8587.37
230.964	8579.33
231.037	8597.51
231.109	8585.86
231.181	8625.79
231.254	8592.4
231.326	8573.88
231.399	8560.2
231.471	8537.48
231.544	8472.88
231.616	8514.25
231.688	8523.35
231.761	8512.82
231.833	8502.43
231.905	8426.71
231.978	8432.58
232.05	8410.79
232.122	8416.42
232.195	8391.73
232.267	8421.81
232.339	8400.64
232.412	8460.39
232.484	8442.48
232.556	8418.49
232.629	8483.33
232.701	8502.25
232.773	8506.92
232.846	8505.52
232.918	8507.3
232.99	8524.87
233.062	8565.44
233.135	8576.95
233.207	8552.5
233.279	8591.75
233.351	8622.01
233.424	8630.86
233.496	8610.03
233.568	8689.2
233.64	8659.03
233.713	8676.79
233.785	8677.89
233.857	8692.96
233.929	8645.42
234.001	8705.8
234.074	8770.85
234.146	8705.56
234.218	8698.63
234.29	8699.45
234.362	8690.98
234.434	8650.74
234.507	8624.56
234.579	8575.62
234.651	8557.47
234.723	8577.64
234.795	8590.58
234.867	8586.3
234.939	8637.23
235.012	8649.88
235.084	8652.53
235.156	8683.76
235.228	8667.54
235.3	8648.24
235.372	8660.76
235.444	8717.92
235.516	8651.43
235.588	8651.96
235.66	8671.59
235.732	8649.45
235.804	8822.51
235.876	8863.65
235.948	8923.59
236.02	8934.8
236.092	8953.56
236.164	8967.57
236.236	8974.4
236.308	8980.28
236.38	9000.69
236.452	8986.19
236.524	8995.39
236.596	9051.94
236.668	9077.99
236.74	9106.96
236.812	9136.42
236.884	9168.44
236.956	9180.53
237.028	9168.74
237.1	9154.1
237.172	9211.45
237.244	9278.62
237.316	9182.97
237.388	9165.02
237.46	9140.75
237.532	9192.02
237.604	9185.38
237.675	9251.64
237.747	9289.87
237.819	9277.6
237.891	9289.25
237.963	9282.85
238.035	9289.73
238.107	9193.65
238.178	9260.41
238.25	9262.86
238.322	9337.81
238.394	9299.63
238.466	9293.27
238.538	9334.24
238.609	9372.6
238.681	9332.92
238.753	9322.13
238.825	9335.04
238.897	9368.54
238.968	9442.87
239.04	9428.13
239.112	9527.08
239.184	9497.89
239.255	9493.94
239.327	9539.39
239.399	9561.01
239.471	9606.04
239.542	9643.74
239.614	9704.22
239.686	9629.51
239.758	9678.34
239.829	9653.58
239.901	9707.42
239.973	9730.39
240.044	9763.38
240.116	9780.19
240.188	9792.27
240.259	9799.35
240.331	9791.6
240.403	9824.1
240.474	9785.41
240.546	9779.73
240.618	9729.21
240.689	9730.17
240.761	9751.22
240.833	9796.16
240.904	9798.95
240.976	9794.28
241.048	9808.06
241.119	9845.11
241.191	9890.62
241.262	9946.75
241.334	9950.41
241.405	9956
241.477	9956.15
241.549	9971.37
241.62	9996.42
241.692	10046.37
241.763	10108.09
241.835	10132.9
241.906	10151.25
241.978	10129.29
242.049	10193.88
242.121	10247.68
242.192	10307.08
242.264	10281.94
242.335	10248.02
242.407	10280.25
242.478	10288.39
242.55	10305.25
242.621	10287.91
242.693	10288.97
242.764	10293.79
242.836	10295.28
242.907	10327.27
242.979	10361.67
243.05	10379.2
243.122	10396.94
243.193	10390.48
243.264	10330.06
243.336	10334.21
243.407	10364.66
243.479	10438.41
243.55	10452.24
243.622	10470.89
243.693	10469.45
243.764	10533.86
243.836	10516.91
243.907	10516.81
243.978	10524.08
244.05	10547.89
244.121	10512.19
244.192	10545.77
244.264	10495.37
244.335	10519.12
244.407	10479.28
244.478	10486.75
244.549	10484.05
244.62	10445.7
244.692	10447.48
244.763	10486.75
244.834	10478.17
244.906	10457.79
244.977	10474.51
245.048	10523.19
245.119	10502.66
245.191	10480.55
245.262	10429.04
245.333	10495.28
245.405	10512.05
245.476	10538.69
245.547	10555.17
245.618	10597.42
245.689	10607.68
245.761	10642.28
245.832	10639
245.903	10682.8
245.974	10718.51
246.045	10733.97
246.117	10816.18
246.188	10805.14
246.259	10794.45
246.33	10818.83
246.401	10834.15
246.473	10802.87
246.544	10796.71
246.615	10850.68
246.686	10867.16
246.757	10936.39
246.828	10922.37
246.899	10982.62
246.97	10962.57
247.042	10960.74
247.113	11007.78
247.184	11090.1
247.255	11093.43
247.326	11118.82
247.397	11127.69
247.468	11137.14
247.539	11147.79
247.61	11102.83
247.681	11141.03
247.752	11182.86
247.823	11162.14
247.894	11176.98
247.965	11157.86
248.037	11141.9
248.108	11098.19
248.179	11106.24
248.25	11095.2
248.321	11119.63
248.392	11082.57
248.463	11146.75
248.534	11146.71
248.605	11157.89
248.675	11130.85
248.746	11144.29
248.817	11167.72
248.888	11180.34
248.959	11129.89
249.03	11150.47
249.101	11164.2
249.172	11150.95
249.243	11096.31
249.314	11154.86
249.385	11162.42
249.456	11196.25
249.527	11194.66
249.598	11214.32
249.669	11207.77
249.739	11218.51
249.81	11232.78
249.881	11197.07
249.952	11192.64
250.023	11183.87
250.094	11146.85
250.165	11122.75
250.235	11114.7
250.306	11115.18
250.377	11094.46
250.448	11121.35
250.519	11070.75
250.59	11120.05
250.66	11124.29
250.731	11186.94
250.802	11187.51
250.873	11204.77
250.944	11218.84
251.014	11211.23
251.085	11295.87
251.156	11325.74
251.227	11365.56
251.297	11412.79
251.368	11456.36
251.439	11492.94
251.51	11548.22
251.58	11538.2
251.651	11540.32
251.722	11595.51
251.792	11559.55
251.863	11564.03
251.934	11616.42
252.005	11713.97
252.075	11727.28
252.146	11774.75
252.217	11813.98
252.287	11844.11
252.358	11853.6
252.429	11923.16
252.499	11921.04
252.57	11926.1
252.641	11962.63
252.711	11977.82
252.782	11937.28
252.852	12014.45
252.923	12016.86
252.994	12025.39
253.064	12071.9
253.135	12047.47
253.205	12022.88
253.276	12085.35
253.347	12139.43
253.417	12122.32
253.488	12108.87
253.558	12103.52
253.629	12099.85
253.699	12112.87
253.77	12144.1
253.841	12137.65
253.911	12138.66
253.982	12152.97
254.052	12180.45
254.123	12193.75
254.193	12187.34
254.264	12307.85
254.334	12275.36
254.405	12251.12
254.475	12223.26
254.546	12226.15
254.616	12292.13
254.687	12331.85
254.757	12351.23
254.827	12354.03
254.898	12374.37
254.968	12377.6
255.039	12361.59
255.109	12391.43
255.18	12373.11
255.25	12306.98
255.321	12333.73
255.391	12305.48
255.461	12383.38
255.532	12314.93
255.602	12306.64
255.673	12271.79
255.743	12242.96
255.813	12177.55
255.884	12218.09
255.954	12263.36
256.024	12327.85
256.095	12334.7
256.165	12300.76
256.235	12325.54
256.306	12320.62
256.376	12363.19
256.446	12407.1
256.517	12437.13
256.587	12487.22
256.657	12504.62
256.728	12531.52
256.798	12541.25
256.868	12541.11
256.938	12518.16
257.009	12564.83
257.079	12590.18
257.149	12675.6
257.219	12627.78
257.29	12666.38
257.36	12621.94
257.43	12651.92
257.5	12594.56
257.571	12584.15
257.641	12617.6
257.711	12581.3
257.781	12606.37
257.852	12619.34
257.922	12557.83
257.992	12557.63
258.062	12547.66
258.132	12580.48
258.202	12582.27
258.273	12596.49
258.343	12664.7
258.413	12656.84
258.483	12660.02
258.553	12644.79
258.623	12623.68
258.693	12649.9
258.764	12711.79
258.834	12774.7
258.904	12785.35
258.974	12773.21
259.044	12785.4
259.114	12818.09
259.184	12844.55
259.254	12849.8
259.324	12808.73
259.394	12859.3
259.464	12932.86
259.535	12941.54
259.605	12947.66
259.675	12944.48
259.745	12981.45
259.815	12964.49
259.885	12968.34
259.955	13066.25
260.025	13061.28
260.095	13077.72
260.165	13102.79
260.235	13153.21
260.305	13144.54
260.375	13123.61
260.445	13208.89
260.515	13266.16
260.585	13300.09
260.655	13309.06
260.725	13347.14
260.795	13381.85
260.865	13435.84
260.934	13407.26
261.004	13433.82
261.074	13430.93
261.144	13486.07
261.214	13516.73
261.284	13510.99
261.354	13540.16
261.424	13493.98
261.494	13561.32
261.564	13564.41
261.634	13593.04
261.703	13541.22
261.773	13559.88
261.843	13583.74
261.913	13580.56
261.983	13532.25
262.053	13547.82
262.123	13544.06
262.192	13514.61
262.262	13552.07
262.332	13516.11
262.402	13545.8
262.472	13547.92
262.541	13500.63
262.611	13538.81
262.681	13514.52
262.751	13557.95
262.821	13560.02
262.89	13538.43
262.96	13551.35
263.03	13613.68
263.1	13628.09
263.169	13645.88
263.239	13675.14
263.309	13731.64
263.379	13756.66
263.448	13775.17
263.518	13803.7
263.588	13827.18
263.657	13890.09
263.727	13924.41
263.797	13936.46
263.867	13932.75
263.936	13904.94
264.006	13959.41
264.076	13957.87
264.145	13958.59
264.215	13930.29
264.285	13969.39
264.354	13931.55
264.424	13919.01
264.494	13882.23
264.563	13875.72
264.633	13935.06
264.702	13954.68
264.772	13911.25
264.842	13907.88
264.911	13942.83
264.981	13903.93
265.05	13913.66
265.12	13902.58
265.19	13911.11
265.259	13946.06
265.329	13979.7
265.398	14004.82
265.468	14090.96
265.537	14089.66
265.607	14117.09
265.676	14165.39
265.746	14194.99
265.815	14253.32
265.885	14263.2
265.955	14252.45
266.024	14253.66
266.094	14204.59
266.163	14257.66
266.232	14311.84
266.302	14315.41
266.371	14335.03
266.441	14355.37
266.51	14398.47
266.58	14404.64
266.649	14388.05
266.719	14431.49
266.788	14460.7
266.858	14521
266.927	14466.87
266.996	14487.79
267.066	14517.68
267.135	14491.55
267.205	14515.84
267.274	14528.42
267.343	14583.09
267.413	14597.36
267.482	14655.64
267.552	14718.26
267.621	14672.65
267.69	14632.69
267.76	14658.43
267.829	14679.55
267.898	14694.4
267.968	14677.81
268.037	14710.83
268.106	14753.06
268.176	14729.1
268.245	14732.72
268.314	14722.02
268.384	14766.51
268.453	14784.73
268.522	14801.22
268.592	14850.96
268.661	14847.01
268.73	14869.62
268.799	14859.16
268.869	14932.38
268.938	14891.26
269.007	14872.85
269.076	14898.25
269.146	14945.83
269.215	14966.8
269.284	15024.74
269.353	15019.39
269.422	15022.18
269.492	15014.28
269.561	14946.94
269.63	14971.23
269.699	14962.22
269.768	14978.12
269.838	15000.87
269.907	15035.1
269.976	15015.19
270.045	14973.69
270.114	14991.76
270.183	15006.71
270.253	15023.72
270.322	14981.11
270.391	14997.02
270.46	15062.38
270.529	15098.68
270.598	15137.48
270.667	15150.73
270.736	15120.41
270.806	15151.94
270.875	15209.54
270.944	15223.52
271.013	15329.13
271.082	15349.67
271.151	15384.13
271.22	15356.17
271.289	15361.67
271.358	15370.34
271.427	15408.23
271.496	15433.63
271.565	15441.4
271.634	15461.69
271.703	15568.3
271.772	15620.21
271.841	15636.6
271.91	15601.03
271.979	15621.03
272.048	15597.61
272.117	15634.48
272.186	15634.19
272.255	15672.75
272.324	15701.53
272.393	15729.92
272.462	15723.94
272.531	15748.38
272.6	15759.42
272.669	15827.24
272.738	15833.36
272.807	15859.63
272.876	15844.49
272.945	15969.04
273.013	16012.71
273.082	16059.17
273.151	15983.45
273.22	16014.3
273.289	16034.35
273.358	16109.16
273.427	16117.54
273.496	16160.05
273.564	16186.13
273.633	16241.32
273.702	16229.6
273.771	16239.92
273.84	16273.56
273.909	16312.21
273.977	16344.7
274.046	16353.66
274.115	16390.77
274.184	16391.06
274.253	16412.46
274.322	16475.75
274.39	16423.12
274.459	16415.7
274.528	16377.43
274.597	16399.07
274.665	16419.84
274.734	16484.57
274.803	16494.31
274.872	16509.2
274.94	16507.27
275.009	16694.59
275.078	16687.41
275.147	16722.26
275.215	16746.74
275.284	16808
275.353	16813.87
275.421	16774.93
275.49	16858.31
275.559	16863.9
275.627	16887.9
275.696	16897.83
275.765	16927.47
275.833	16944.48
275.902	16984.15
275.971	17058.9
276.039	17133.65
276.108	17185.65
276.177	17211.63
276.245	17213.5
276.314	17238.66
276.383	17291.34
276.451	17155.25
276.52	17199.2
276.588	17266.48
276.657	17317.56
276.725	17313.85
276.794	17347.49
276.863	17426.58
276.931	17396.22
277	17458.82
277.068	17511.3
277.137	17594.77
277.205	17630
277.274	17711.98
277.342	17773.81
277.411	17748.55
277.48	17750.67
277.548	17751.35
277.617	17785.71
277.685	17805.52
277.754	17863.92
277.822	17881.95
277.89	17952.93
277.959	17974.81
278.027	17958.96
278.096	17959.54
278.164	18070.66
278.233	18091
278.301	18093.02
278.37	18137.17
278.438	18132.54
278.507	18182.13
278.575	18142.13
278.643	18167.77
278.712	18150.42
278.78	18150.61
278.849	18224.44
278.917	18293.5
278.985	18322.32
279.054	18365.21
279.122	18434.5
279.191	18451.27
279.259	18471.95
279.327	18451.52
279.396	18529.58
279.464	18555.51
279.532	18610.93
279.601	18631.17
279.669	18655.46
279.737	18740.18
279.806	18798.53
279.874	18864.94
279.942	18887.88
280.011	18920.89
280.079	18978.48
280.147	19055.53
280.215	19097.02
280.284	19111.91
280.352	19103.38
280.42	19156.01
280.488	19164.34
280.557	19183.91
280.625	19229.3
280.693	19267.95
280.761	19307.32
280.83	19291.85
280.898	19368.62
280.966	19356.48
281.034	19298.17
281.102	19286.99
281.171	19286.26
281.239	19339.23
281.307	19345.54
281.375	19363.47
281.443	19467.46
281.512	19481.58
281.58	19545.58
281.648	19537.68
281.716	19579.26
281.784	19611.7
281.852	19632.8
281.92	19658.63
281.989	19717.23
282.057	19708.71
282.125	19824.95
282.193	19862.25
282.261	19901.67
282.329	19909.47
282.397	19954.29
282.465	20013.47
282.533	20102.28
282.601	20116.69
282.67	20079.92
282.738	20090.57
282.806	20143.82
282.874	20149.65
282.942	20192.64
283.01	20206.86
283.078	20270.57
283.146	20291.29
283.214	20354.66
283.282	20397.32
283.35	20475.34
283.418	20495.34
283.486	20548.07
283.554	20498.71
283.622	20535.77
283.69	20570.76
283.758	20607.68
283.826	20662.47
283.894	20724.74
283.962	20810.92
284.03	20894.97
284.098	20947.02
284.165	20986.15
284.233	21032.66
284.301	21038.78
284.369	21056.81
284.437	21075.27
284.505	21094.06
284.573	21177.49
284.641	21182.79
284.709	21236.54
284.777	21227.09
284.845	21283.97
284.912	21338.96
284.98	21393.28
285.048	21406.58
285.116	21460.22
285.184	21527.56
285.252	21567.37
285.319	21551.42
285.387	21564.92
285.455	21551.33
285.523	21605.65
285.591	21634.13
285.659	21666.86
285.726	21742.73
285.794	21740.22
285.862	21761.05
285.93	21798.83
285.997	21824.14
286.065	21849.45
286.133	21855.57
286.201	21883.86
286.269	21881.02
286.336	21890.66
286.404	21919.34
286.472	21979.5
286.539	21960.27
286.607	21951.4
286.675	21982.49
286.743	22048.92
286.81	22064.97
286.878	22141.81
286.946	22153.96
287.013	22194.26
287.081	22223.91
287.149	22218.7
287.216	22312.61
287.284	22331.79
287.352	22373.59
287.419	22397.31
287.487	22475.32
287.555	22523.72
287.622	22555.11
287.69	22616.14
287.758	22690.05
287.825	22707.02
287.893	22714.69
287.96	22761.11
288.028	22824.41
288.096	22871.81
288.163	22916.13
288.231	22927.7
288.298	22954.51
288.366	23038.99
288.433	23063
288.501	23082.48
288.569	23124.13
288.636	23143.95
288.704	23226.36
288.771	23294.74
288.839	23304.19
288.906	23313.26
288.974	23373.4
289.041	23401.7
289.109	23405.37
289.176	23453.89
289.244	23507.51
289.311	23575.51
289.379	23651.6
289.446	23692.98
289.514	23718.49
289.581	23757.8
289.649	23802.55
289.716	23849.97
289.783	23859.81
289.851	23954.19
289.918	24003.86
289.986	24076.94
290.053	24123.53
290.121	24159.57
290.188	24190.44
290.255	24314.32
290.323	24348.51
290.39	24370.71
290.458	24430.03
290.525	24502.14
290.592	24529.84
290.66	24571.08
290.727	24592.64
290.794	24662.36
290.862	24707.66
290.929	24755.57
290.996	24780.71
291.064	24842.26
291.131	24910.93
291.198	24983.02
291.266	25009.18
291.333	25053.08
291.4	25101.82
291.468	25196.17
291.535	25217.7
291.602	25263.92
291.669	25272.13
291.737	25323.66
291.804	25364.1
291.871	25440.69
291.938	25498.89
292.006	25603.13
292.073	25673.25
292.14	25743.85
292.207	25757.46
292.275	25791.3
292.342	25855.4
292.409	25963.24
292.476	26071.2
292.543	26077.67
292.611	26113.21
292.678	26200.64
292.745	26294.09
292.812	26353.39
292.879	26360.63
292.946	26402.87
293.014	26473.46
293.081	26543.28
293.148	26607.2
293.215	26689.58
293.282	26711.45
293.349	26773.27
293.416	26757.43
293.484	26826.34
293.551	26894.92
293.618	26995.9
293.685	27098.44
293.752	27121.24
293.819	27154.86
293.886	27146.17
293.953	27200.68
294.02	27269.81
294.087	27322.67
294.154	27346.58
294.221	27424.71
294.288	27467.75
294.356	27562.96
294.423	27612.34
294.49	27619.44
294.557	27705.54
294.624	27714.52
294.691	27796.74
294.758	27843.28
294.825	27914.06
294.892	27940.64
294.959	27980.07
295.026	28020.91
295.093	28052.53
295.16	28101.22
295.226	28139.31
295.293	28250.68
295.36	28304.7
295.427	28376.93
295.494	28455.84
295.561	28520.55
295.628	28626.83
295.695	28704.94
295.762	28754.49
295.829	28833.94
295.896	28923.26
295.963	28985.4
296.03	29061.2
296.096	29132.03
296.163	29198.18
296.23	29281.94
296.297	29359.93
296.364	29404.17
296.431	29465.83
296.498	29496.92
296.564	29602.58
296.631	29655.53
296.698	29669.75
296.765	29777.22
296.832	29785.49
296.899	29781.04
296.965	29870.97
297.032	29847.11
297.099	29943.69
297.166	30019.31
297.233	30044.9
297.299	30070.92
297.366	30109.63
297.433	30158.78
297.5	30230.12
297.566	30286.93
297.633	30328.36
297.7	30372.24
297.767	30409.2
297.833	30459.92
297.9	30512.89
297.967	30504.52
298.033	30584.67
298.1	30701.54
298.167	30717.99
298.234	30777.56
298.3	30851.31
298.367	30875.76
298.434	30947.6
298.5	30964.31
298.567	30983.48
298.634	31025.01
298.7	31112.95
298.767	31161.8
298.834	31238.2
298.9	31256.01
298.967	31261.34
299.033	31323.47
299.1	31419.25
299.167	31502.37
299.233	31542.76
299.3	31625.55
299.366	31726.92
299.433	31807.05
299.5	31766.55
299.566	31825.15
299.633	31914.12
299.699	31975.97
299.766	32007.1
299.832	32054.39
299.899	32117.6
299.965	32190.84
300.032	32220.91
300.099	32282.63
300.165	32330.29
300.232	32356.6
300.298	32398.64
300.365	32487.18
300.431	32530.16
300.498	32545.96
300.564	32606.47
300.631	32680.56
300.697	32747.58
300.763	32781.15
300.83	32830.11
300.896	32912.08
300.963	32979.39
301.029	33024.32
301.096	33085.15
301.162	33169.99
301.229	33197.62
301.295	33203.87
301.361	33249.43
301.428	33311.11
301.494	33310.96
301.561	33370.24
301.627	33424.32
301.693	33479.18
301.76	33525.91
301.826	33563.82
301.892	33639.21
301.959	33694.81
302.025	33726.18
302.092	33747.9
302.158	33813.58
302.224	33843.31
302.291	33864.54
302.357	33894.21
302.423	33927.67
302.49	33932.81
302.556	34002.64
302.622	34044.14
302.688	34116.91
302.755	34196.5
302.821	34258.31
302.887	34341.99
302.954	34382.1
303.02	34442.03
303.086	34497.12
303.152	34532.81
303.219	34556.28
303.285	34597.02
303.351	34651.59
303.417	34678.9
303.483	34705.57
303.55	34721.52
303.616	34759.17
303.682	34803.29
303.748	34818.03
303.815	34887.55
303.881	34980.78
303.947	34988.93
304.013	35043.21
304.079	35064.31
304.145	35038.06
304.212	35076.87
304.278	35081.28
304.344	35112.77
304.41	35123.97
304.476	35152.06
304.542	35177.14
304.608	35225.84
304.674	35223.37
304.741	35247.14
304.807	35308.61
304.873	35364.3
304.939	35445.67
305.005	35432.76
305.071	35470.01
305.137	35527.01
305.203	35500.13
305.269	35512.07
305.335	35570.89
305.401	35586.99
305.467	35622.85
305.533	35692.86
305.599	35735.76
305.666	35799.27
305.732	35835.46
305.798	35893.74
305.864	35984.01
305.93	36032.05
305.996	36069.61
306.062	36113.72
306.128	36145.66
306.194	36134.98
306.259	36165.51
306.325	36184.1
306.391	36246.65
306.457	36304.98
306.523	36346.67
306.589	36454.37
306.655	36466.65
306.721	36459.61
306.787	36473.15
306.853	36551.39
306.919	36537.71
306.985	36552.08
307.051	36572.31
307.117	36578.04
307.183	36600.08
307.248	36563.96
307.314	36629.11
307.38	36674.45
307.446	36724.83
307.512	36729.35
307.578	36783.27
307.644	36798.51
307.709	36827.3
307.775	36844
307.841	36850.36
307.907	36887.64
307.973	36857.73
308.039	36884.48
308.104	36928.02
308.17	36959.18
308.236	36951.9
308.302	37007.87
308.368	37015.39
308.433	37049.23
308.499	37073.88
308.565	37075.1
308.631	37114.22
308.696	37067.18
308.762	37068.05
308.828	37087.91
308.894	37073.5
308.959	37039.03
309.025	37058.89
309.091	37086.81
309.156	37099.97
309.222	37159.2
309.288	37143.47
309.354	37116.97
309.419	37158.24
309.485	37145.23
309.551	37182.32
309.616	37175.76
309.682	37189.84
309.748	37211.01
309.813	37218.19
309.879	37235.28
309.945	37240.62
310.01	37266.41
310.076	37307.38
310.141	37324.52
310.207	37317.82
310.273	37364.47
310.338	37417.87
310.404	37398.16
310.469	37387.47
310.535	37401.31
310.601	37347.08
310.666	37390.44
310.732	37450.2
310.797	37454.18
310.863	37468.7
310.928	37491.28
310.994	37525.41
311.059	37554.21
311.125	37578.82
311.191	37635.98
311.256	37636.95
311.322	37697.6
311.387	37668.27
311.453	38635.66
311.518	38629.01
311.584	38656
311.649	38677.13
311.715	38678.24
311.78	38723.35
311.846	38722.42
311.911	38763.22
311.976	38794.14
312.042	38788.8
312.107	38777
312.173	38779.28
312.238	38802.93
312.304	38823.43
312.369	38827.99
312.434	38820.9
312.5	38824.15
312.565	38775.98
312.631	38807.01
312.696	38783.65
312.761	38820.74
312.827	37885.12
312.892	37983.33
312.958	38008.68
313.023	38049.77
313.088	38085.21
313.154	38069.53
313.219	38076.57
313.284	38095.47
313.35	38140.48
313.415	38151.12
313.48	38167.82
313.546	38194.87
313.611	38251.26
313.676	38247.13
313.741	38261.56
313.807	38301.67
313.872	38341.79
313.937	38383.36
314.003	38441.88
314.068	38500.17
314.133	38538.68
314.198	38531.49
314.264	38506.13
314.329	38499.87
314.394	38509.29
314.459	38527.5
314.525	38608.76
314.59	38641.97
314.655	38625.41
314.72	38649.36
314.785	38673.25
314.851	38691.75
314.916	38668.25
314.981	38633.32
315.046	38640.03
315.111	38633.47
315.176	38635.22
315.242	38673.59
315.307	38693.22
315.372	38672.23
315.437	38671.84
315.502	38679.23
315.567	38746.79
315.632	38734.02
315.698	38767.63
315.763	38785.85
315.828	38782.64
315.893	38786.77
315.958	38792.6
316.023	38786.92
316.088	38769.43
316.153	38724.17
316.218	38720.72
316.283	38689.5
316.348	38660.8
316.413	38661.48
316.479	38628.6
316.544	38533.77
316.609	38437.31
316.674	38334.76
316.739	38234.92
316.804	38126.44
316.869	38006.41
316.934	37894.66
316.999	37783.07
317.064	37618.48
317.129	37464.02
317.194	37342.7
317.259	37190.91
317.324	37010.2
317.389	36863.8
317.454	36730
317.518	36609.54
317.583	36517.78
317.648	36413.38
317.713	36290.06
317.778	36078.26
317.843	35962.27
317.908	35816.39
317.973	35673.68
318.038	35560.83
318.103	35421.6
318.168	35290.33
318.233	35172.01
318.297	34974.73
318.362	34817.82
318.427	34663.05
318.492	34540.77
318.557	34360.99
318.622	34229.36
318.687	34122.57
318.751	33944.88
318.816	33777.46
318.881	33632.28
318.946	33411.35
319.011	33230.28
319.075	33051.78
319.14	32909.58
319.205	32720.87
319.27	32578.35
319.335	32399.97
319.399	32219.32
319.464	32059.68
319.529	31851.2
319.594	31658.38
319.658	31503.74
319.723	31330.74
319.788	31174.35
319.853	30962.14
319.917	30797.32
319.982	30570.12
320.047	30389.4
320.112	30253.64
320.176	30044.63
320.241	29853.67
320.306	29691.37
320.37	29514.68
320.435	29333.89
320.5	29164.14
320.564	28979.85
320.629	28781.3
320.694	28600.4
320.758	28399.9
320.823	28205.89
320.888	28041.94
320.952	27836
321.017	27637.27
321.082	27437.36
321.146	27261.76
321.211	27075.55
321.275	26886.3
321.34	26685.24
321.405	26481.99
321.469	26264.47
321.534	26065.4
321.598	25850.45
321.663	25679.19
321.727	25493.54
321.792	25284.13
321.857	25078
321.921	24867.28
321.986	24653.71
322.05	24404.12
322.115	24209.13
322.179	23986.49
322.244	23733.97
322.308	23545.83
322.373	23330.84
322.437	23129.42
322.502	22962.2
322.566	22745.46
322.631	22554.82
322.695	22356.77
322.76	22133.95
322.824	21939.38
322.889	21723.87
322.953	21504.27
323.018	21211.03
323.082	20934.27
323.146	20692.75
323.211	20444.19
323.275	20234.49
323.34	20013.43
323.404	19828.22
323.468	19600.27
323.533	19387.93
323.597	19179.31
323.662	18936.32
323.726	18742.2
323.79	18514.98
323.855	18234.35
323.919	18003.98
323.983	17772.66
324.048	17434.94
324.112	17590.82
324.177	16899.78
324.241	15983.18
324.305	15080.91
324.37	14204.23
324.434	13346.05
324.498	13107.7
324.562	12847.67
324.627	12539.91
324.691	12247.02
324.755	11907.97
324.82	11534.51
324.884	11134.51
324.948	10725.38
325.012	10235.99
325.077	9620.26
