Data from 20250626_urea_1M_exp2_MAYP1162681_10-03-58-704.txt Node
Date: Fri Jun 27 10:03:58 BST 2025
User: adleo
Spectrometer: MAYP116268
Trigger mode: 0
Integration Time (sec): 3.000000E0
Scans to average: 1
Electric dark correction enabled: true
Nonlinearity correction enabled: true
Boxcar width: 10
XAxis mode: Wavelengths
Number of Pixels in Spectrum: 2068
>>>>>Begin Spectral Data<<<<<
179.565	3122.83
179.642	3286.69
179.718	3406.77
179.795	3528.67
179.871	3625.12
179.948	3678.17
180.024	3740.82
180.101	3805.45
180.177	3842.64
180.254	3906.67
180.33	3972.13
180.407	4194.09
180.483	4437.37
180.56	4685.9
180.636	4912.24
180.712	4881.67
180.789	4906.67
180.865	4937.97
180.942	4964.4
181.018	4994.95
181.095	5036.21
181.171	5047.95
181.248	5050.96
181.324	5095.86
181.4	5108.18
181.477	5134.72
181.553	5169.96
181.63	5226.03
181.706	5263.6
181.782	5295.53
181.859	5296.2
181.935	5313.46
182.011	5299.56
182.088	5344.71
182.164	5399.48
182.24	5435.84
182.317	5459.07
182.393	5453.47
182.469	5491.62
182.546	5529.53
182.622	5539.98
182.698	5526.17
182.775	5566.01
182.851	5607.29
182.927	5587.01
183.003	5577.76
183.08	5561.51
183.156	5582.75
183.232	5573.39
183.308	5548.85
183.385	5568.89
183.461	5613.67
183.537	5612.76
183.613	5648.33
183.69	5618.41
183.766	5584.88
183.842	5609.91
183.918	5626.4
183.995	5664.04
184.071	5670.95
184.147	5651.77
184.223	5623.98
184.299	5656.16
184.375	5622.74
184.452	5635.89
184.528	5744.06
184.604	5772.91
184.68	5811.36
184.756	5836.69
184.832	5848.83
184.908	5862.01
184.985	5860.47
185.061	5816.07
185.137	5842.65
185.213	5806.83
185.289	5813.4
185.365	5794.42
185.441	5784.58
185.517	5821.1
185.593	5810.69
185.669	5805.75
185.745	5839.47
185.822	5883.42
185.898	5857.85
185.974	5882.83
186.05	5861.43
186.126	5797.96
186.202	5780.7
186.278	5761.57
186.354	5737.63
186.43	5758.22
186.506	5754.53
186.582	5751.51
186.658	5773.22
186.734	5717.46
186.81	5728.48
186.886	5742.29
186.962	5773.84
187.038	5760.94
187.114	5736.07
187.19	5754.78
187.266	5734.74
187.341	5732.58
187.417	5713.4
187.493	5712.88
187.569	5722.9
187.645	5705.02
187.721	5673.98
187.797	5696.18
187.873	5713.15
187.949	5690.39
188.025	5671.29
188.101	5678
188.176	5687.54
188.252	5674.74
188.328	5696.87
188.404	5692.32
188.48	5676.98
188.556	5657.13
188.632	5660.82
188.707	5663.65
188.783	5656.69
188.859	5640.78
188.935	5612.77
189.011	5635.7
189.086	5620.55
189.162	5595.52
189.238	5592.31
189.314	5582.33
189.39	5566.51
189.465	5543.73
189.541	5596.2
189.617	5551.47
189.693	5539.44
189.768	5556.52
189.844	5620.95
189.92	5592.78
189.996	5623.66
190.071	5645.67
190.147	5644.04
190.223	5666.58
190.298	5643.13
190.374	5604.2
190.45	5636.93
190.526	5656.64
190.601	5642.21
190.677	5647.57
190.753	5730.32
190.828	5738.8
190.904	5780.01
190.98	5818.96
191.055	5852.1
191.131	5823.41
191.207	5884.7
191.282	5908.86
191.358	5879.99
191.433	5843.03
191.509	5883.18
191.585	5868.03
191.66	5879.64
191.736	5899.87
191.811	5874.84
191.887	5921.52
191.963	5988.87
192.038	5998.27
192.114	6002.59
192.189	6013.95
192.265	6009.78
192.34	5940.56
192.416	5935.09
192.491	5921.17
192.567	5931.16
192.642	5933.03
192.718	5934.09
192.793	5900.74
192.869	5892.97
192.944	5900.98
193.02	5921.57
193.095	5929.14
193.171	5951.4
193.246	5948.86
193.322	5942.48
193.397	5942.29
193.473	5907.21
193.548	5863.59
193.624	5881.63
193.699	5878.56
193.775	5922.24
193.85	5923.68
193.925	5950.74
194.001	5952.94
194.076	5937.35
194.152	5904.14
194.227	5886.63
194.302	5865.3
194.378	5872.64
194.453	5865.21
194.529	5894.32
194.604	5856.33
194.679	5843.43
194.755	5785.95
194.83	5826.32
194.905	5819.28
194.981	5843.69
195.056	5825.23
195.131	5838.71
195.207	5825.85
195.282	5798.42
195.357	5742.89
195.433	5782.7
195.508	5752.28
195.583	5776.79
195.659	5816.61
195.734	5830.53
195.809	5832.64
195.884	5854.4
195.96	5853.3
196.035	5891.62
196.11	5883.99
196.185	5912.15
196.261	5915.17
196.336	6001.12
196.411	5948.8
196.486	5963.62
196.561	5948.7
196.637	5971.24
196.712	6013.82
196.787	6030.66
196.862	6077.34
196.937	6101.51
197.013	6121.34
197.088	6149.83
197.163	6202.12
197.238	6245.6
197.313	6249.83
197.388	6283.61
197.464	6368.46
197.539	6399.27
197.614	6382.38
197.689	6410.42
197.764	6455.7
197.839	6519.68
197.914	6505.28
197.989	6572.97
198.065	6607.92
198.14	6745.83
198.215	6812.77
198.29	6843.81
198.365	6880.03
198.44	6905.24
198.515	6985.52
198.59	7027.61
198.665	7096.31
198.74	7122.99
198.815	7126.98
198.89	7188.66
198.965	7268.6
199.04	7257.21
199.115	7302.84
199.19	7420.85
199.265	7433.92
199.34	7459.01
199.415	7541.15
199.49	7599
199.565	7622.85
199.64	7697.07
199.715	7688.84
199.79	7712.06
199.865	7726.82
199.94	7724.61
200.015	7810.98
200.09	7821.99
200.165	7838.92
200.24	7856.38
200.315	7961.45
200.39	8003
200.464	8025.12
200.539	8027.67
200.614	8065.51
200.689	8129.88
200.764	8142.72
200.839	8190.27
200.914	8201.71
200.989	8177.31
201.063	8216.42
201.138	8169.18
201.213	8161.44
201.288	8107.81
201.363	8119.16
201.438	8118.77
201.512	8160.89
201.587	8108.36
201.662	8122.36
201.737	8155.41
201.812	8180.09
201.886	8090.27
201.961	8117.07
202.036	8078.27
202.111	8069.18
202.186	7986.91
202.26	7936.87
202.335	7879.34
202.41	7856.55
202.485	7816.32
202.559	7758.86
202.634	7685.72
202.709	7710.71
202.784	7660.32
202.858	7665.75
202.933	7613.07
203.008	7596.96
203.082	7543.6
203.157	7543.17
203.232	7423.87
203.306	7357.12
203.381	7268.79
203.456	7206.07
203.53	7140.54
203.605	7084.45
203.68	7023.21
203.754	7012.75
203.829	6972.47
203.904	6919.97
203.978	6891.95
204.053	6909.2
204.127	6876.64
204.202	6871.26
204.277	6822.47
204.351	6805.12
204.426	6781.38
204.5	6763.61
204.575	6664.24
204.65	6690.77
204.724	6668.75
204.799	6689.91
204.873	6679.82
204.948	6675.79
205.022	6644.63
205.097	6618.25
205.171	6661.6
205.246	6680.77
205.32	6681.35
205.395	6677.22
205.469	6651.79
205.544	6670.29
205.618	6615
205.693	6650.11
205.767	6610.84
205.842	6665.31
205.916	6645.1
205.991	6614.41
206.065	6626.03
206.14	6669.58
206.214	6650.21
206.289	6627.92
206.363	6660.87
206.438	6672.2
206.512	6693.73
206.586	6741.02
206.661	6767.31
206.735	6704.91
206.81	6714.77
206.884	6753.8
206.958	6722.12
207.033	6767.57
207.107	6778.68
207.181	6869.64
207.256	6854.27
207.33	6911.89
207.405	6948.05
207.479	7004.45
207.553	7026.34
207.628	6985.49
207.702	7019.2
207.776	7007.14
207.851	7024.82
207.925	7069.62
207.999	7058.09
208.073	7044.35
208.148	7052.76
208.222	7019.17
208.296	7112.52
208.371	7152.1
208.445	7182.28
208.519	7263.52
208.593	7298.45
208.668	7289.08
208.742	7292.16
208.816	7298.26
208.89	7337.15
208.965	7337.78
209.039	7361.29
209.113	7404.31
209.187	7464.81
209.261	7456.5
209.336	7514.03
209.41	7566.97
209.484	7568.6
209.558	7636.88
209.632	7677.63
209.707	7704.07
209.781	7764.02
209.855	7802.35
209.929	7845.87
210.003	7857.69
210.077	7856.01
210.151	7986.93
210.226	8090.62
210.3	8167.35
210.374	8225.19
210.448	8233.12
210.522	8253.81
210.596	8272.19
210.67	8304.51
210.744	8430.88
210.818	8521.47
210.892	8574.22
210.966	8558.01
211.041	8593.18
211.115	8582.69
211.189	8647.21
211.263	8699.61
211.337	8719.09
211.411	8760.68
211.485	8743.49
211.559	8779.29
211.633	8782.03
211.707	8698.82
211.781	8712.16
211.855	8612.34
211.929	8590.65
212.003	8542.37
212.077	8576.12
212.151	8615.68
212.225	8634.45
212.299	8601.56
212.373	8565.71
212.447	8553.49
212.52	8626.44
212.594	8636.74
212.668	8663.4
212.742	8622.45
212.816	8605.26
212.89	8586.02
212.964	8574.8
213.038	8589.15
213.112	8623.52
213.186	8658.06
213.26	8593.62
213.333	8464.67
213.407	8476.98
213.481	8484.25
213.555	8515.49
213.629	8474.29
213.703	8426.4
213.777	8419.14
213.85	8358.45
213.924	8441.73
213.998	8440.76
214.072	8423.43
214.146	8384.84
214.219	8373.24
214.293	8361.65
214.367	8359.92
214.441	8381.09
214.515	8339.36
214.588	8260.89
214.662	8155.2
214.736	8094.7
214.81	8109.79
214.883	8126.8
214.957	8081.32
215.031	8037.78
215.105	7965.36
215.178	7914.96
215.252	7879.81
215.326	7805.85
215.4	7744.47
215.473	7599.58
215.547	7523.11
215.621	7466.04
215.694	7460.89
215.768	7384.01
215.842	7324.7
215.915	7268.15
215.989	7172.28
216.063	7132.8
216.136	7117.42
216.21	7094.56
216.284	7108.5
216.357	7083.75
216.431	7052.37
216.504	7054.2
216.578	7103.76
216.652	7110.81
216.725	7090.05
216.799	7097.99
216.873	7077.09
216.946	7078.63
217.02	7051.65
217.093	7025.66
217.167	6947.45
217.24	6879.1
217.314	6847.18
217.387	6808.92
217.461	6774.77
217.535	6794.65
217.608	6740.71
217.682	6722.65
217.755	6735.23
217.829	6687.09
217.902	6675.08
217.976	6657.41
218.049	6618.13
218.123	6553.11
218.196	6550.42
218.27	6524.53
218.343	6466.45
218.417	6462.66
218.49	6447.05
218.563	6485.18
218.637	6497.33
218.71	6557.85
218.784	6583.11
218.857	6609.13
218.931	6632.55
219.004	6634.18
219.077	6652.83
219.151	6669.44
219.224	6661.99
219.298	6660.51
219.371	6690.72
219.444	6659.28
219.518	6669.22
219.591	6685.68
219.665	6766.92
219.738	6776.76
219.811	6764.28
219.885	6804.39
219.958	6830.57
220.031	6832.73
220.105	6847.05
220.178	6851.66
220.251	6828.01
220.325	6845.41
220.398	6857.71
220.471	6871.73
220.544	6904.64
220.618	6886.33
220.691	6908.81
220.764	6923.89
220.838	6945.56
220.911	6940.42
220.984	7011.16
221.057	7041.72
221.131	7062.47
221.204	6983.92
221.277	7042.94
221.35	7148.28
221.424	7141.79
221.497	7153.08
221.57	7175.31
221.643	7201.37
221.716	7233.96
221.79	7245.92
221.863	7255.4
221.936	7261.69
222.009	7273.22
222.082	7295.19
222.155	7300.9
222.229	7354.32
222.302	7375.51
222.375	7375.03
222.448	7400.99
222.521	7406.04
222.594	7405.51
222.667	7380.58
222.74	7432.09
222.814	7420.5
222.887	7401.65
222.96	7441.4
223.033	7479.63
223.106	7498.56
223.179	7522.42
223.252	7532.42
223.325	7545.64
223.398	7555.07
223.471	7578.81
223.544	7595.82
223.617	7609.33
223.69	7627.84
223.763	7597.35
223.837	7620.72
223.91	7647.45
223.983	7613.71
224.056	7588.47
224.129	7602.56
224.202	7652
224.275	7643.15
224.348	7623.92
224.42	7596.37
224.493	7552.34
224.566	7526.95
224.639	7541.85
224.712	7514.19
224.785	7505.34
224.858	7500.39
224.931	7481.69
225.004	7445.83
225.077	7449.78
225.15	7371.44
225.223	7371.49
225.296	7429.02
225.369	7379.08
225.442	7356.39
225.514	7361.58
225.587	7373.45
225.66	7382.63
225.733	7377.73
225.806	7379.17
225.879	7370.91
225.952	7343.61
226.025	7384.62
226.097	7429.69
226.17	7422.77
226.243	7373.08
226.316	7373.03
226.389	7377.16
226.461	7398.08
226.534	7422.44
226.607	7414.27
226.68	7482.79
226.753	7477.17
226.825	7420.16
226.898	7462.7
226.971	7461.93
227.044	7485.72
227.117	7489.18
227.189	7503.18
227.262	7539.1
227.335	7550.59
227.407	7550.97
227.48	7575.53
227.553	7578.46
227.626	7560.32
227.698	7567.92
227.771	7602.17
227.844	7583.71
227.916	7599.29
227.989	7569.09
228.062	7564.91
228.134	7630.32
228.207	7631.47
228.28	7622.2
228.352	7626.81
228.425	7638.4
228.498	7680.86
228.57	7663.9
228.643	7710.16
228.716	7713.43
228.788	7696.94
228.861	7696.65
228.934	7748.57
229.006	7757.71
229.079	7758.43
229.151	7743.61
229.224	7714.54
229.296	7729.68
229.369	7810.31
229.442	7855.05
229.514	7842.36
229.587	7880.59
229.659	7823.36
229.732	7831.53
229.804	7866.34
229.877	7931.24
229.949	7954.96
230.022	7994.09
230.094	7997.98
230.167	7989.18
230.239	7954.85
230.312	7947.11
230.384	8005.04
230.457	8006.96
230.529	8014.03
230.602	8015.9
230.674	8030.29
230.747	8063.59
230.819	8089.86
230.892	7997.21
230.964	7993.8
231.037	8015.13
231.109	8008.83
231.181	8039.65
231.254	8010.9
231.326	8000.08
231.399	7983.47
231.471	7953.93
231.544	7888.16
231.616	7925.57
231.688	7932.83
231.761	7915.77
231.833	7906.97
231.905	7835.24
231.978	7828.94
232.05	7813.08
232.122	7822.26
232.195	7796.87
232.267	7824.38
232.339	7807.06
232.412	7860.1
232.484	7832.91
232.556	7807.54
232.629	7861.82
232.701	7877.74
232.773	7886.88
232.846	7883.22
232.918	7885.82
232.99	7904.58
233.062	7935.51
233.135	7941.67
233.207	7910.4
233.279	7947.85
233.351	7973.05
233.424	7978.19
233.496	7958.28
233.568	8036.35
233.64	8003.27
233.713	8022.55
233.785	8024.62
233.857	8032.94
233.929	7985.67
234.001	8042.85
234.074	8098.95
234.146	8037.26
234.218	8034.66
234.29	8031.78
234.362	8016.59
234.434	7977.96
234.507	7951.55
234.579	7909.03
234.651	7892.49
234.723	7918.94
234.795	7936.74
234.867	7933.37
234.939	7975.89
235.012	7987.29
235.084	7986.33
235.156	8018.59
235.228	8001.23
235.3	7981.99
235.372	7996.28
235.444	8051.15
235.516	7989.64
235.588	7999.75
235.66	8011.67
235.732	7986.47
235.804	8156.67
235.876	8192.39
235.948	8244.12
236.02	8251.67
236.092	8266
236.164	8269.75
236.236	8269.08
236.308	8268.74
236.38	8296.69
236.452	8287.6
236.524	8306.16
236.596	8360.63
236.668	8385.79
236.74	8407.15
236.812	8432.02
236.884	8456.03
236.956	8467.77
237.028	8454.31
237.1	8430.84
237.172	8489.5
237.244	8554.7
237.316	8448.68
237.388	8436.8
237.46	8417.69
237.532	8468.36
237.604	8459.32
237.675	8527.13
237.747	8560.34
237.819	8548.6
237.891	8542.1
237.963	8528.59
238.035	8523.49
238.107	8426.44
238.178	8479.59
238.25	8486.71
238.322	8562.88
238.394	8531.17
238.466	8526.35
238.538	8565.51
238.609	8608.28
238.681	8561.35
238.753	8538.87
238.825	8555.19
238.897	8578.62
238.968	8646.65
239.04	8630.62
239.112	8723.31
239.184	8691.05
239.255	8694.13
239.327	8720.16
239.399	8743.79
239.471	8781.95
239.542	8812.26
239.614	8864.91
239.686	8801.17
239.758	8839
239.829	8806.1
239.901	8864.59
239.973	8877.97
240.044	8904.39
240.116	8908.63
240.188	8918.2
240.259	8931.92
240.331	8927.39
240.403	8965.9
240.474	8920.77
240.546	8909.71
240.618	8861.95
240.689	8861.23
240.761	8876.78
240.833	8939.42
240.904	8934.36
240.976	8934.79
241.048	8946.88
241.119	8982.32
241.191	9014.14
241.262	9073.47
241.334	9078.86
241.405	9075.69
241.477	9073.71
241.549	9080.6
241.62	9107.08
241.692	9154.45
241.763	9203.42
241.835	9220.9
241.906	9225.23
241.978	9204.82
242.049	9261.24
242.121	9308.52
242.192	9364.85
242.264	9335
242.335	9292.92
242.407	9330.37
242.478	9335.14
242.55	9356.42
242.621	9346.98
242.693	9343.85
242.764	9333.59
242.836	9336.24
242.907	9359.98
242.979	9390.99
243.05	9407.5
243.122	9424.99
243.193	9419.35
243.264	9361.18
243.336	9359.88
243.407	9392.54
243.479	9458.79
243.55	9477
243.622	9491.88
243.693	9484.17
243.764	9543.74
243.836	9522.99
243.907	9518.03
243.978	9526.89
244.05	9545.1
244.121	9503.49
244.192	9537.73
244.264	9499.39
244.335	9511.15
244.407	9469.25
244.478	9480.91
244.549	9471.27
244.62	9437.62
244.692	9434.44
244.763	9473.87
244.834	9462.84
244.906	9442.13
244.977	9455.52
245.048	9498.79
245.119	9484.29
245.191	9465.51
245.262	9412.88
245.333	9476.43
245.405	9483.8
245.476	9503.97
245.547	9512.79
245.618	9551.35
245.689	9568.07
245.761	9593.74
245.832	9592.39
245.903	9630.91
245.974	9656.54
246.045	9672.48
246.117	9737.54
246.188	9718.19
246.259	9706.78
246.33	9722.72
246.401	9731.48
246.473	9702.82
246.544	9686.68
246.615	9728.78
246.686	9743.27
246.757	9805.78
246.828	9779.63
246.899	9840.62
246.97	9815.05
247.042	9810.33
247.113	9853.49
247.184	9920.23
247.255	9911.85
247.326	9937.48
247.397	9942.01
247.468	9944.8
247.539	9958.77
247.61	9922.78
247.681	9966.03
247.752	10003.01
247.823	9986.55
247.894	10001.48
247.965	9980.43
248.037	9973.98
248.108	9935.39
248.179	9937.32
248.25	9925.95
248.321	9958.26
248.392	9919.43
248.463	9988.79
248.534	9987.24
248.605	10000.01
248.675	9980.4
248.746	10003.13
248.817	10018.26
248.888	10035.65
248.959	9995.48
249.03	10012.05
249.101	10018.89
249.172	10005.45
249.243	9953.44
249.314	10013.94
249.385	10021.6
249.456	10049.29
249.527	10037.63
249.598	10056.42
249.669	10051.41
249.739	10058.3
249.81	10066.44
249.881	10038.21
249.952	10029.78
250.023	10028.92
250.094	9985.89
250.165	9959.63
250.235	9950.43
250.306	9958.67
250.377	9934.87
250.448	9951.63
250.519	9906.16
250.59	9954.29
250.66	9954.44
250.731	10006.74
250.802	10001.97
250.873	10020.42
250.944	10032.07
251.014	10031.21
251.085	10101.32
251.156	10126.51
251.227	10172.57
251.297	10218.58
251.368	10260.49
251.439	10298.02
251.51	10339.17
251.58	10326.6
251.651	10323.76
251.722	10373.57
251.792	10325.88
251.863	10325.01
251.934	10382.39
252.005	10468.68
252.075	10477.11
252.146	10520.41
252.217	10562.33
252.287	10589.65
252.358	10590.23
252.429	10655.14
252.499	10650.13
252.57	10656.78
252.641	10698.21
252.711	10701.78
252.782	10663.09
252.852	10726.89
252.923	10723.9
252.994	10740.24
253.064	10777.77
253.135	10754.21
253.205	10733.68
253.276	10792.5
253.347	10843.09
253.417	10818.32
253.488	10796.69
253.558	10786.28
253.629	10782.04
253.699	10792.25
253.77	10816.16
253.841	10810.14
253.911	10814.76
253.982	10825.31
254.052	10848.45
254.123	10853.07
254.193	10857.94
254.264	10966.23
254.334	10938.18
254.405	10910.76
254.475	10875.73
254.546	10884.41
254.616	10944.78
254.687	10971.43
254.757	10989.35
254.827	10991.47
254.898	11013.01
254.968	11025.35
255.039	11009.79
255.109	11037.54
255.18	11016.1
255.25	10961.26
255.321	10985.11
255.391	10954.07
255.461	11030.31
255.532	10968.04
255.602	10960.91
255.673	10918.55
255.743	10890.16
255.813	10825.41
255.884	10871.72
255.954	10909.59
256.024	10961.4
256.095	10962.99
256.165	10931.67
256.235	10950.85
256.306	10941.84
256.376	10984.59
256.446	11021.5
256.517	11050.37
256.587	11095.38
256.657	11111.14
256.728	11127.14
256.798	11141.69
256.868	11138.61
256.938	11112.63
257.009	11148.87
257.079	11173.2
257.149	11250.21
257.219	11204.19
257.29	11239.55
257.36	11190.59
257.43	11215.89
257.5	11170.06
257.571	11160.57
257.641	11194.49
257.711	11163.6
257.781	11188.61
257.852	11198.05
257.922	11142.92
257.992	11137.91
258.062	11126.63
258.132	11161.14
258.202	11168.37
258.273	11174.78
258.343	11244.37
258.413	11227.65
258.483	11229.14
258.553	11210.88
258.623	11195.12
258.693	11211.79
258.764	11261.23
258.834	11315.64
258.904	11327.64
258.974	11317.33
259.044	11327.35
259.114	11355.94
259.184	11381.67
259.254	11388.08
259.324	11344.27
259.394	11387.02
259.464	11457.19
259.535	11466.01
259.605	11462.01
259.675	11458.64
259.745	11488.57
259.815	11458.88
259.885	11467.74
259.955	11567.82
260.025	11557.99
260.095	11565.41
260.165	11594.76
260.235	11650.92
260.305	11637.66
260.375	11616.02
260.445	11687.73
260.515	11738.05
260.585	11771.46
260.655	11779.94
260.725	11815.03
260.795	11846.26
260.865	11901.16
260.934	11874.74
261.004	11897.5
261.074	11895.38
261.144	11946.8
261.214	11978.81
261.284	11977.21
261.354	12009.7
261.424	11965.16
261.494	12025.11
261.564	12027.18
261.634	12049.21
261.703	11992.96
261.773	12020.29
261.843	12054.37
261.913	12047.86
261.983	12001.2
262.053	12013.06
262.123	12013.25
262.192	11975.37
262.262	12006.36
262.332	11959.7
262.402	11988.53
262.472	12000.05
262.541	11955.47
262.611	11990.9
262.681	11971.81
262.751	12010.27
262.821	12008.59
262.89	11982.07
262.96	12005.65
263.03	12067.11
263.1	12088.94
263.169	12100.56
263.239	12123.45
263.309	12167.56
263.379	12191.62
263.448	12214.03
263.518	12237.12
263.588	12254.13
263.657	12325.18
263.727	12360.08
263.797	12373.48
263.867	12368.47
263.936	12330.39
264.006	12383.69
264.076	12372.51
264.145	12370.48
264.215	12358.38
264.285	12389.23
264.354	12346.43
264.424	12335.78
264.494	12296.64
264.563	12283.14
264.633	12351.97
264.702	12368.12
264.772	12322.18
264.842	12315
264.911	12337.7
264.981	12303.04
265.05	12307.77
265.12	12294.32
265.19	12301.31
265.259	12344.11
265.329	12376.65
265.398	12407.74
265.468	12494.27
265.537	12488.49
265.607	12518.42
265.676	12554.53
265.746	12574
265.815	12636.08
265.885	12637.87
265.955	12626.68
266.024	12633.29
266.094	12581.8
266.163	12634.35
266.232	12697.5
266.302	12714.9
266.371	12734.81
266.441	12751.97
266.51	12789.47
266.58	12796.41
266.649	12786.34
266.719	12819.26
266.788	12845.87
266.858	12888.68
266.927	12827.8
266.996	12858.26
267.066	12886.22
267.135	12861.54
267.205	12894.66
267.274	12905.22
267.343	12947.35
267.413	12972.65
267.482	13026.5
267.552	13082.95
267.621	13045.83
267.69	13002.88
267.76	13020.47
267.829	13046.6
267.898	13066.08
267.968	13053.69
268.037	13094.42
268.106	13130.05
268.176	13109.41
268.245	13112.4
268.314	13116.5
268.384	13164.08
268.453	13174.3
268.522	13186.83
268.592	13241.26
268.661	13228.82
268.73	13255.86
268.799	13241.93
268.869	13303.25
268.938	13252.15
269.007	13240.68
269.076	13249.89
269.146	13302.19
269.215	13336.22
269.284	13395.42
269.353	13396.19
269.422	13400.53
269.492	13384.86
269.561	13323.54
269.63	13354.11
269.699	13346.73
269.768	13361.15
269.838	13376.38
269.907	13417.4
269.976	13389.64
270.045	13345.86
270.114	13380.28
270.183	13387.9
270.253	13416.1
270.322	13377.54
270.391	13407.33
270.46	13461.17
270.529	13507.74
270.598	13539.32
270.667	13535.07
270.736	13504.66
270.806	13528.04
270.875	13578.56
270.944	13596.97
271.013	13705.29
271.082	13728.96
271.151	13760.58
271.22	13728.67
271.289	13737.83
271.358	13744.39
271.427	13777.6
271.496	13799.29
271.565	13793.36
271.634	13810.43
271.703	13917.78
271.772	13967.38
271.841	13977.89
271.91	13950.42
271.979	13965.84
272.048	13937.64
272.117	13976.3
272.186	13977.65
272.255	14019.45
272.324	14052.56
272.393	14078.31
272.462	14068.62
272.531	14084.38
272.6	14088.33
272.669	14149.75
272.738	14148.45
272.807	14173.51
272.876	14159.68
272.945	14271.42
273.013	14329.17
273.082	14381.42
273.151	14305.6
273.22	14334.09
273.289	14349.56
273.358	14422.88
273.427	14431.94
273.496	14475.47
273.564	14507.92
273.633	14557.71
273.702	14544.65
273.771	14553.66
273.84	14572.61
273.909	14605.39
273.977	14638.16
274.046	14656.34
274.115	14703.05
274.184	14712.11
274.253	14724.88
274.322	14792.18
274.39	14746.43
274.459	14731.54
274.528	14688.35
274.597	14711.73
274.665	14735.3
274.734	14798.78
274.803	14805.48
274.872	14819.8
274.94	14820.62
275.009	15000.63
275.078	14994.51
275.147	15030.23
275.215	15049.22
275.284	15108.8
275.353	15118.92
275.421	15083.73
275.49	15161.19
275.559	15164.32
275.627	15190.07
275.696	15203.42
275.765	15233.69
275.833	15248.58
275.902	15292.35
275.971	15369.33
276.039	15442.41
276.108	15491.86
276.177	15518.85
276.245	15517.07
276.314	15539.87
276.383	15589.18
276.451	15455.2
276.52	15507.07
276.588	15566.45
276.657	15618.94
276.725	15629.5
276.794	15658.03
276.863	15736.7
276.931	15705.27
277	15762.34
277.068	15820.08
277.137	15904.77
277.205	15938.22
277.274	16013.8
277.342	16073.37
277.411	16051.97
277.48	16056.07
277.548	16051.87
277.617	16090.38
277.685	16120.17
277.754	16174.92
277.822	16189.67
277.89	16262.98
277.959	16280.91
278.027	16266.98
278.096	16270.5
278.164	16374.31
278.233	16394.99
278.301	16388.29
278.37	16449.02
278.438	16445.88
278.507	16494.32
278.575	16460.73
278.643	16480.92
278.712	16470.51
278.78	16463.09
278.849	16533.32
278.917	16588.45
278.985	16619.54
279.054	16655.44
279.122	16715.5
279.191	16740.46
279.259	16759.79
279.327	16732.32
279.396	16802.34
279.464	16835.02
279.532	16890.3
279.601	16910.88
279.669	16926.4
279.737	17012.81
279.806	17047.27
279.874	17112.91
279.942	17137.01
280.011	17162.26
280.079	17221.49
280.147	17304.1
280.215	17357.11
280.284	17377.45
280.352	17371.9
280.42	17421.78
280.488	17438.6
280.557	17463.04
280.625	17501.45
280.693	17542.51
280.761	17584.34
280.83	17574.17
280.898	17637.69
280.966	17622.41
281.034	17568.82
281.102	17577.64
281.171	17590.7
281.239	17650.99
281.307	17662.56
281.375	17665.21
281.443	17770.7
281.512	17786.99
281.58	17842.69
281.648	17845.2
281.716	17874.84
281.784	17916.48
281.852	17938.35
281.92	17965.29
281.989	18032.09
282.057	18027.46
282.125	18136.51
282.193	18174.44
282.261	18202.63
282.329	18221.72
282.397	18265.47
282.465	18319.93
282.533	18402.87
282.601	18406.1
282.67	18380.46
282.738	18388.51
282.806	18454.82
282.874	18446.77
282.942	18493.23
283.01	18501.47
283.078	18536.31
283.146	18569.32
283.214	18621.12
283.282	18662.08
283.35	18723.81
283.418	18733.5
283.486	18786.03
283.554	18754.51
283.622	18792.24
283.69	18838.99
283.758	18864.96
283.826	18917.54
283.894	18968.72
283.962	19044.91
284.03	19122.06
284.098	19167.6
284.165	19198.87
284.233	19235.5
284.301	19256.94
284.369	19274.77
284.437	19291.88
284.505	19318.91
284.573	19404.21
284.641	19409.94
284.709	19466.23
284.777	19464.21
284.845	19523.92
284.912	19570.85
284.98	19620.49
285.048	19637.64
285.116	19681.21
285.184	19757.21
285.252	19797.54
285.319	19790.02
285.387	19800.38
285.455	19791.18
285.523	19839.03
285.591	19866.31
285.659	19904.48
285.726	19978.88
285.794	19972.72
285.862	20005.97
285.93	20047.8
285.997	20062.93
286.065	20097.96
286.133	20104.23
286.201	20137.34
286.269	20122.01
286.336	20138.4
286.404	20162.97
286.472	20218.68
286.539	20202.78
286.607	20181.62
286.675	20217.29
286.743	20282.54
286.81	20301.19
286.878	20373.14
286.946	20395.84
287.013	20435.6
287.081	20470.54
287.149	20473.38
287.216	20570.4
287.284	20597.39
287.352	20640.95
287.419	20661.1
287.487	20742.89
287.555	20800.43
287.622	20831.62
287.69	20900.73
287.758	20970.66
287.825	20995.53
287.893	20997.5
287.96	21047.24
288.028	21132.45
288.096	21168.07
288.163	21210.48
288.231	21224.32
288.298	21260.95
288.366	21335.61
288.433	21365.54
288.501	21376.05
288.569	21409.98
288.636	21424.34
288.704	21491.24
288.771	21541.61
288.839	21559.59
288.906	21565.23
288.974	21622.11
289.041	21651.56
289.109	21654.94
289.176	21705.17
289.244	21750.67
289.311	21827.31
289.379	21897.01
289.446	21930.8
289.514	21969.51
289.581	22002.19
289.649	22044.76
289.716	22084.53
289.783	22089.4
289.851	22182.05
289.918	22232.18
289.986	22301.6
290.053	22346.14
290.121	22383.12
290.188	22426.12
290.255	22549.55
290.323	22567.14
290.39	22584.11
290.458	22638.88
290.525	22714.08
290.592	22738.67
290.66	22775.65
290.727	22785
290.794	22855.45
290.862	22883.9
290.929	22939.87
290.996	22979.22
291.064	23041.94
291.131	23112.59
291.198	23186.8
291.266	23218.68
291.333	23253.48
291.4	23297.42
291.468	23384.47
291.535	23412.58
291.602	23457.04
291.669	23456.32
291.737	23516.11
291.804	23553.72
291.871	23641.44
291.938	23692.81
292.006	23797.92
292.073	23863.51
292.14	23937.73
292.207	23947.95
292.275	23988.56
292.342	24045.28
292.409	24147.07
292.476	24239.01
292.543	24241.81
292.611	24277.85
292.678	24357.3
292.745	24453.23
292.812	24510.26
292.879	24520.2
292.946	24561.39
293.014	24633.46
293.081	24701.34
293.148	24767.33
293.215	24838.64
293.282	24854.47
293.349	24916.18
293.416	24905.37
293.484	24982.81
293.551	25045.78
293.618	25138.04
293.685	25238.7
293.752	25255.78
293.819	25286.62
293.886	25291.5
293.953	25361.89
294.02	25430.57
294.087	25472.56
294.154	25497.66
294.221	25575.76
294.288	25619.82
294.356	25699.35
294.423	25756.17
294.49	25768.67
294.557	25845.9
294.624	25858.21
294.691	25941.18
294.758	25986.46
294.825	26034.49
294.892	26043.9
294.959	26080.83
295.026	26124.23
295.093	26146.49
295.16	26190.7
295.226	26228.85
295.293	26333.83
295.36	26372.16
295.427	26432.04
295.494	26513.76
295.561	26575.56
295.628	26674.13
295.695	26754.53
295.762	26816.78
295.829	26878.94
295.896	26966.15
295.963	27029.72
296.03	27102.49
296.096	27161.9
296.163	27232.38
296.23	27320.05
296.297	27411.19
296.364	27454.46
296.431	27522.62
296.498	27548.17
296.564	27658.21
296.631	27705.79
296.698	27709.27
296.765	27812.42
296.832	27825.32
296.899	27827.16
296.965	27913.46
297.032	27889.48
297.099	27981.22
297.166	28036.55
297.233	28066.66
297.299	28084.1
297.366	28126.73
297.433	28173.02
297.5	28241.56
297.566	28276.32
297.633	28314.02
297.7	28352.49
297.767	28394
297.833	28443.17
297.9	28505.69
297.967	28490.47
298.033	28572.41
298.1	28693.05
298.167	28711.18
298.234	28775.42
298.3	28844.69
298.367	28866.01
298.434	28933.18
298.5	28948.85
298.567	28981.29
298.634	29008.75
298.7	29094.46
298.767	29131.07
298.834	29219.51
298.9	29242.83
298.967	29267.1
299.033	29331.62
299.1	29407.12
299.167	29484.97
299.233	29515.73
299.3	29588.85
299.366	29678.21
299.433	29741.01
299.5	29707.68
299.566	29752.66
299.633	29836.84
299.699	29894.12
299.766	29929.86
299.832	29984.25
299.899	30041
299.965	30099.35
300.032	30131.17
300.099	30202.16
300.165	30265.26
300.232	30290.71
300.298	30328.64
300.365	30401.89
300.431	30451.6
300.498	30471.3
300.564	30536
300.631	30606.9
300.697	30690.45
300.763	30720.89
300.83	30763.59
300.896	30840.92
300.963	30903.21
301.029	30953.22
301.096	31007.01
301.162	31088.22
301.229	31120.86
301.295	31132.33
301.361	31188.77
301.428	31243.6
301.494	31242.44
301.561	31286.55
301.627	31334.04
301.693	31376.54
301.76	31422.3
301.826	31439.1
301.892	31520.3
301.959	31576.24
302.025	31602.73
302.092	31619.53
302.158	31693.37
302.224	31734.15
302.291	31747.47
302.357	31768.58
302.423	31785.83
302.49	31797.4
302.556	31858.63
302.622	31884.83
302.688	31959.37
302.755	32035.96
302.821	32104.24
302.887	32159.2
302.954	32191.71
303.02	32253.71
303.086	32307.19
303.152	32339.79
303.219	32374.13
303.285	32421.08
303.351	32476.23
303.417	32525.93
303.483	32535.48
303.55	32546.09
303.616	32584.56
303.682	32628.2
303.748	32655.47
303.815	32730.2
303.881	32798.13
303.947	32806.22
304.013	32850.84
304.079	32868.48
304.145	32851.37
304.212	32889.99
304.278	32913.63
304.344	32941.5
304.41	32941.93
304.476	32963.98
304.542	32991.16
304.608	33051.69
304.674	33034.78
304.741	33039.24
304.807	33076.51
304.873	33140.14
304.939	33221.46
305.005	33207.99
305.071	33244.91
305.137	33287.55
305.203	33245.87
305.269	33286.64
305.335	33350
305.401	33385.44
305.467	33411.37
305.533	33473.61
305.599	33516.61
305.666	33579.62
305.732	33614.37
305.798	33690.83
305.864	33790.51
305.93	33845.19
305.996	33875.84
306.062	33927.07
306.128	33953.06
306.194	33950.73
306.259	33975.9
306.325	33999.71
306.391	34066.32
306.457	34110.29
306.523	34156.2
306.589	34273.97
306.655	34282.07
306.721	34268.11
306.787	34268.83
306.853	34335.51
306.919	34315
306.985	34332.89
307.051	34333.04
307.117	34358.98
307.183	34355.63
307.248	34314.7
307.314	34350.98
307.38	34391.23
307.446	34437.4
307.512	34450.2
307.578	34493.36
307.644	34514.65
307.709	34532.54
307.775	34534.24
307.841	34564.99
307.907	34601.9
307.973	34569.1
308.039	34610.14
308.104	34654.42
308.17	34697.77
308.236	34697.53
308.302	34743.79
308.368	34738.65
308.433	34780.74
308.499	34790.97
308.565	34808.73
308.631	34855.82
308.696	34839.96
308.762	34825.55
308.828	34844.23
308.894	34832.93
308.959	34824.83
309.025	34836.33
309.091	34859.76
309.156	34892.94
309.222	34934.46
309.288	34927.62
309.354	34908.32
309.419	34922.25
309.485	34910.22
309.551	34945.14
309.616	34932.39
309.682	34946.99
309.748	34960.66
309.813	34981.04
309.879	34987.1
309.945	34983.66
310.01	34987.54
310.076	35019.55
310.141	35040.61
310.207	35026.15
310.273	35063.54
310.338	35098.71
310.404	35083.48
310.469	35078.96
310.535	35075.81
310.601	35046.17
310.666	35086.68
310.732	35152.69
310.797	35144.69
310.863	35155.8
310.928	35169.58
310.994	35217.7
311.059	35251.56
311.125	35288.82
311.191	35337.54
311.256	35338.22
311.322	35384.74
311.387	35363.74
311.453	36227.39
311.518	36221.62
311.584	36256.89
311.649	36299.78
311.715	36294.3
311.78	36331.26
311.846	36334.27
311.911	36380.02
311.976	36403.7
312.042	36404.72
312.107	36393.22
312.173	36400.84
312.238	36426.65
312.304	36457.51
312.369	36453.77
312.434	36443.92
312.5	36459.26
312.565	36406.56
312.631	36453.62
312.696	36458.86
312.761	36499.12
312.827	35662.69
312.892	35768.73
312.958	35788.43
313.023	35795.66
313.088	35827.64
313.154	35826.42
313.219	35843.16
313.284	35839.57
313.35	35871.31
313.415	35867.62
313.48	35886.2
313.546	35935.46
313.611	35982.63
313.676	35968.36
313.741	35979.18
313.807	36020.96
313.872	36046.54
313.937	36086.66
314.003	36144.13
314.068	36159.37
314.133	36193.58
314.198	36201.63
314.264	36163.04
314.329	36151.2
314.394	36178.52
314.459	36198.37
314.525	36263.59
314.59	36279.27
314.655	36276.7
314.72	36298.93
314.785	36333.72
314.851	36341.53
314.916	36308.29
314.981	36289.94
315.046	36292.18
315.111	36297.95
315.176	36298
315.242	36339.02
315.307	36362.21
315.372	36335.18
315.437	36335.91
315.502	36340.71
315.567	36386.05
315.632	36380.95
315.698	36418.22
315.763	36426.82
315.828	36431.04
315.893	36448.37
315.958	36454.97
316.023	36445.41
316.088	36419.49
316.153	36373.59
316.218	36357.14
316.283	36337.05
316.348	36292.65
316.413	36293.91
316.479	36256.46
316.544	36173.49
316.609	36077.25
316.674	35990.01
316.739	35894.78
316.804	35823.75
316.869	35720.17
316.934	35613.46
316.999	35506.63
317.064	35338.84
317.129	35204.45
317.194	35081.74
317.259	34927.02
317.324	34769.89
317.389	34642.73
317.454	34522.06
317.518	34400.98
317.583	34327.64
317.648	34219.65
317.713	34107.12
317.778	33928.43
317.843	33814.93
317.908	33679.6
317.973	33545.56
318.038	33426.27
318.103	33287.29
318.168	33170.81
318.233	33058.42
318.297	32881.07
318.362	32747.52
318.427	32619.8
318.492	32514.7
318.557	32353.51
318.622	32230.26
318.687	32125.17
318.751	31959.67
318.816	31816.06
318.881	31679.28
318.946	31459.75
319.011	31298.8
319.075	31124.82
319.14	30968.29
319.205	30800.66
319.27	30652.1
319.335	30481.95
319.399	30301.89
319.464	30171.64
319.529	29954.23
319.594	29774.1
319.658	29634.17
319.723	29456.08
319.788	29323.63
319.853	29115.78
319.917	28963.12
319.982	28759.88
320.047	28578.43
320.112	28451.46
320.176	28254.29
320.241	28100.29
320.306	27959.91
320.37	27777.26
320.435	27635.68
320.5	27490.6
320.564	27303.12
320.629	27121.19
320.694	26964.69
320.758	26792.15
320.823	26595.99
320.888	26444.5
320.952	26245.3
321.017	26054.89
321.082	25869.54
321.146	25686.73
321.211	25503.95
321.275	25322.84
321.34	25113.34
321.405	24916.34
321.469	24714.74
321.534	24513.19
321.598	24287.42
321.663	24116.57
321.727	23946.88
321.792	23721.29
321.857	23516.77
321.921	23339.88
321.986	23149.85
322.05	22910.73
322.115	22731.02
322.179	22534.51
322.244	22307.1
322.308	22144.06
322.373	21936.86
322.437	21757.73
322.502	21604.18
322.566	21406.55
322.631	21222.47
322.695	21049.59
322.76	20856.71
322.824	20671.97
322.889	20478.52
322.953	20274.47
323.018	20010.11
323.082	19755.36
323.146	19535.21
323.211	19306.93
323.275	19099.46
323.34	18884.23
323.404	18704.53
323.468	18489.01
323.533	18276.29
323.597	18065.73
323.662	17825.15
323.726	17635.37
323.79	17412.14
323.855	17143.03
323.919	16918.34
323.983	16703.2
324.048	16386.48
324.112	16528.22
324.177	15877.78
324.241	15012.93
324.305	14167.47
324.37	13338.26
324.434	12527.32
324.498	12307.9
324.562	12059.42
324.627	11770.62
324.691	11494.23
324.755	11171.65
324.82	10810.44
324.884	10437.32
324.948	10059.67
325.012	9599.5
325.077	9033.86
