Data from 20250702_urea_0.5M_MAYP1162681_17-24-59-573.txt Node
Date: Wed Jul 02 17:24:59 BST 2025
User: adleo
Spectrometer: MAYP116268
Trigger mode: 0
Integration Time (sec): 1.000000E0
Scans to average: 1
Electric dark correction enabled: true
Nonlinearity correction enabled: true
Boxcar width: 10
XAxis mode: Wavelengths
Number of Pixels in Spectrum: 2068
>>>>>Begin Spectral Data<<<<<
179.565	1128.32
179.642	1177.88
179.718	1216.66
179.795	1251.12
179.871	1280.45
179.948	1296.02
180.024	1315.85
180.101	1335.64
180.177	1350.94
180.254	1371.89
180.33	1392.6
180.407	1440.06
180.483	1530.28
180.56	1614.33
180.636	1692.61
180.712	1676.88
180.789	1684.43
180.865	1696.31
180.942	1701.39
181.018	1710.66
181.095	1723.77
181.171	1728.76
181.248	1730.24
181.324	1746.73
181.4	1754.71
181.477	1763.46
181.553	1775.81
181.63	1794.16
181.706	1810.32
181.782	1815.31
181.859	1816.02
181.935	1820.06
182.011	1815.78
182.088	1826.48
182.164	1843.07
182.24	1856.52
182.317	1867.02
182.393	1865.64
182.469	1880.24
182.546	1893.93
182.622	1901.01
182.698	1896.78
182.775	1908.33
182.851	1920.88
182.927	1912.56
183.003	1907.52
183.08	1906.57
183.156	1916.6
183.232	1911.61
183.308	1900.15
183.385	1908.14
183.461	1921.02
183.537	1922.92
183.613	1935.19
183.69	1931.91
183.766	1921.35
183.842	1924.92
183.918	1930.76
183.995	1945.45
184.071	1945.07
184.147	1940.41
184.223	1929.43
184.299	1943.7
184.375	1930.63
184.452	1937.67
184.528	1991.8
184.604	2000.78
184.68	2007.96
184.756	2012.81
184.832	2019.37
184.908	2026.03
184.985	2024.69
185.061	2010.86
185.137	2019.8
185.213	2007.06
185.289	2007.15
185.365	2000.17
185.441	2001.93
185.517	2015.34
185.593	2011.2
185.669	2010.63
185.745	2019.57
185.822	2035.83
185.898	2026.56
185.974	2036.97
186.05	2029.5
186.126	1988.4
186.202	1981.89
186.278	1982.17
186.354	1974.66
186.43	1982.65
186.506	1980.27
186.582	1983.13
186.658	1991.59
186.734	1970.38
186.81	1974.04
186.886	1975.28
186.962	1988.69
187.038	1985.93
187.114	1975.51
187.19	1981.5
187.266	1972.33
187.341	1974.61
187.417	1969.76
187.493	1968.05
187.569	1968.48
187.645	1963.96
187.721	1953.93
187.797	1960.49
187.873	1963.77
187.949	1957.11
188.025	1950.4
188.101	1953.16
188.176	1958.11
188.252	1951.5
188.328	1961.34
188.404	1962.76
188.48	1959.01
188.556	1952.06
188.632	1950.97
188.707	1952.54
188.783	1950.54
188.859	1945.27
188.935	1935.14
189.011	1940.46
189.086	1935.9
189.162	1927.72
189.238	1923.21
189.314	1921.4
189.39	1918.69
189.465	1910.18
189.541	1926.39
189.617	1912.13
189.693	1904.05
189.768	1907.71
189.844	1934.54
189.92	1926.32
189.996	1937.3
190.071	1951.14
190.147	1949.95
190.223	1959.46
190.298	1951.28
190.374	1938.21
190.45	1949.05
190.526	1955.65
190.601	1948.95
190.677	1950.95
190.753	1977.78
190.828	1985
190.904	1996.89
190.98	2011.44
191.055	2020.24
191.131	2014.63
191.207	2031.46
191.282	2041.3
191.358	2027.79
191.433	2011.19
191.509	2024.59
191.585	2018.13
191.66	2015.6
191.736	2023.5
191.811	2012.99
191.887	2028.59
191.963	2050.32
192.038	2055.88
192.114	2056.36
192.189	2061.78
192.265	2056.65
192.34	2036.62
192.416	2035.43
192.491	2032.76
192.567	2035.24
192.642	2038.57
192.718	2036.95
192.793	2026.92
192.869	2027.87
192.944	2034.81
193.02	2041.42
193.095	2045.08
193.171	2051.64
193.246	2053.26
193.322	2049.22
193.397	2051.26
193.473	2039.89
193.548	2025.2
193.624	2030.95
193.699	2030.43
193.775	2043.47
193.85	2047.32
193.925	2054.88
194.001	2052.83
194.076	2047.27
194.152	2038.28
194.227	2031.24
194.302	2021.73
194.378	2025.3
194.453	2017.98
194.529	2029.01
194.604	2017.74
194.679	2012.75
194.755	1994.16
194.83	2001.1
194.905	2000.68
194.981	2009.62
195.056	2002.44
195.131	2006.57
195.207	2005.29
195.282	1996.4
195.357	1979.89
195.433	1991.02
195.508	1980.08
195.583	1985.93
195.659	1997.3
195.734	2003.96
195.809	2002.25
195.884	2009.47
195.96	2011.61
196.035	2026.02
196.11	2019.03
196.185	2030.01
196.261	2030.15
196.336	2060.21
196.411	2050.08
196.486	2054.5
196.561	2046.03
196.637	2054.12
196.712	2071.39
196.787	2074.86
196.862	2089.13
196.937	2098.31
197.013	2105.63
197.088	2117.28
197.163	2139.27
197.238	2156.26
197.313	2153.98
197.388	2167.68
197.464	2198.9
197.539	2210.12
197.614	2205.6
197.689	2220.35
197.764	2232.54
197.839	2252.42
197.914	2246.52
197.989	2265.41
198.065	2279.07
198.14	2329.07
198.215	2353.91
198.29	2363.14
198.365	2374.33
198.44	2385.47
198.515	2410.74
198.59	2425.26
198.665	2449.69
198.74	2458.12
198.815	2462.21
198.89	2483.44
198.965	2511.68
199.04	2506.97
199.115	2521.58
199.19	2563.39
199.265	2564.82
199.34	2577.63
199.415	2612.17
199.49	2636.22
199.565	2645.31
199.64	2668.56
199.715	2665.98
199.79	2675.89
199.865	2682.99
199.94	2683.61
200.015	2713.29
200.09	2720.34
200.165	2729.11
200.24	2734.3
200.315	2771.21
200.39	2785.17
200.464	2791.12
200.539	2793.13
200.614	2809.61
200.689	2831.01
200.764	2836.2
200.839	2855.16
200.914	2858.16
200.989	2845.29
201.063	2854.25
201.138	2841.82
201.213	2840.49
201.288	2821.9
201.363	2823.47
201.438	2825.09
201.512	2838.24
201.587	2819.99
201.662	2823.56
201.737	2833.57
201.812	2844.72
201.886	2813.58
201.961	2820.21
202.036	2809.97
202.111	2807.35
202.186	2779.25
202.26	2759.61
202.335	2740.12
202.41	2731.21
202.485	2715.59
202.559	2698.2
202.634	2674.34
202.709	2682.67
202.784	2664.9
202.858	2664.85
202.933	2647.18
203.008	2639.23
203.082	2623.37
203.157	2623.51
203.232	2584.09
203.306	2563.45
203.381	2531.39
203.456	2509.82
203.53	2487.75
203.605	2467.76
203.68	2443.47
203.754	2436.43
203.829	2424.24
203.904	2405.06
203.978	2394.25
204.053	2399.58
204.127	2389.97
204.202	2386.11
204.277	2368.07
204.351	2359.31
204.426	2351.31
204.5	2345.27
204.575	2311.58
204.65	2318.82
204.724	2311.15
204.799	2316.86
204.873	2315.1
204.948	2314.57
205.022	2302.53
205.097	2296.25
205.171	2308.14
205.246	2315.9
205.32	2317.81
205.395	2317.71
205.469	2309.96
205.544	2315.72
205.618	2299.72
205.693	2310.29
205.767	2300.4
205.842	2323.01
205.916	2320.87
205.991	2309.68
206.065	2311.73
206.14	2328.99
206.214	2326.52
206.289	2320.76
206.363	2330.94
206.438	2333.13
206.512	2341.13
206.586	2359.45
206.661	2367.17
206.735	2349.52
206.81	2354.52
206.884	2368.03
206.958	2356.94
207.033	2371.65
207.107	2381.93
207.181	2414.46
207.256	2410.22
207.33	2431.59
207.405	2442.7
207.479	2464.45
207.553	2478.07
207.628	2469.69
207.702	2485.02
207.776	2483.54
207.851	2495.4
207.925	2519.6
207.999	2525.55
208.073	2528.79
208.148	2544.27
208.222	2544.56
208.296	2589.64
208.371	2617.34
208.445	2643.64
208.519	2688.22
208.593	2715.85
208.668	2730.29
208.742	2755.61
208.816	2777.43
208.89	2814.52
208.965	2840.71
209.039	2874.27
209.113	2919.42
209.187	2969.97
209.261	3000.23
209.336	3052.59
209.41	3105.53
209.484	3146.67
209.558	3207.65
209.632	3266.41
209.707	3322.01
209.781	3390.87
209.855	3456.19
209.929	3523.8
210.003	3585.73
210.077	3647.68
210.151	3758.96
210.226	3858.71
210.3	3948
210.374	4043.94
210.448	4123.88
210.522	4214.37
210.596	4310.08
210.67	4404.69
210.744	4538.82
210.818	4661.24
210.892	4775.36
210.966	4869.55
211.041	4979.88
211.115	5082.94
211.189	5213.04
211.263	5338.62
211.337	5460.67
211.411	5587.77
211.485	5705.84
211.559	5839.81
211.633	5968.17
211.707	6066.51
211.781	6204.74
211.855	6306.97
211.929	6433.52
212.003	6551.77
212.077	6696.2
212.151	6840.92
212.225	6991.09
212.299	7124.28
212.373	7253.38
212.447	7403.65
212.52	7582.91
212.594	7744.76
212.668	7908.2
212.742	8050.42
212.816	8202.81
212.89	8349.96
212.964	8509.09
213.038	8670.41
213.112	8850.72
213.186	9027.65
213.26	9171.28
213.333	9294.83
213.407	9463.71
213.481	9627.01
213.555	9804.72
213.629	9963.05
213.703	10121.13
213.777	10290.75
213.85	10441.59
213.924	10647.4
213.998	10809.83
214.072	10970.2
214.146	11120.21
214.219	11273.69
214.293	11431.22
214.367	11601.73
214.441	11787.57
214.515	11942.19
214.588	12081.82
214.662	12200.97
214.736	12338.54
214.81	12505.02
214.883	12664.56
214.957	12808.78
215.031	12957.53
215.105	13088.45
215.178	13228.63
215.252	13369.68
215.326	13491.5
215.4	13614.9
215.473	13715.08
215.547	13845.04
215.621	13973.46
215.694	14128.96
215.768	14254.35
215.842	14386.43
215.915	14509.35
215.989	14610.53
216.063	14735.71
216.136	14866.82
216.21	14998.37
216.284	15136.71
216.357	15269.7
216.431	15393.92
216.504	15523.1
216.578	15672.95
216.652	15803.96
216.725	15920.42
216.799	16049.88
216.873	16170.47
216.946	16308.85
217.02	16414.79
217.093	16521.5
217.167	16620.98
217.24	16716.45
217.314	16832.75
217.387	16935.12
217.461	17033.53
217.535	17154.93
217.608	17247.51
217.682	17353.54
217.755	17471.95
217.829	17563.03
217.902	17658.45
217.976	17756.86
218.049	17856.86
218.123	17937.05
218.196	18036.86
218.27	18129.33
218.343	18210.87
218.417	18300.85
218.49	18375.59
218.563	18492.12
218.637	18584.69
218.71	18685.89
218.784	18768.53
218.857	18850.94
218.931	18939.8
219.004	19023.85
219.077	19106.78
219.151	19193.47
219.224	19266.58
219.298	19337.66
219.371	19424.93
219.444	19493.7
219.518	19575.57
219.591	19648.97
219.665	19749.21
219.738	19822.36
219.811	19881.39
219.885	19951.66
219.958	20033.92
220.031	20106.16
220.105	20170.06
220.178	20233.29
220.251	20288.61
220.325	20360.76
220.398	20425.43
220.471	20491.21
220.544	20554.49
220.618	20611.02
220.691	20677.58
220.764	20739.03
220.838	20793.05
220.911	20845.63
220.984	20915.81
221.057	20966.89
221.131	21022.7
221.204	21031.72
221.277	21092.88
221.35	21174.81
221.424	21218.19
221.497	21262.82
221.57	21313.19
221.643	21360.95
221.716	21417.54
221.79	21456.82
221.863	21490.75
221.936	21536.69
222.009	21574.62
222.082	21610.29
222.155	21636.6
222.229	21680.08
222.302	21717.77
222.375	21744.04
222.448	21773.11
222.521	21795.38
222.594	21826.85
222.667	21842.81
222.74	21895.35
222.814	21922.83
222.887	21948.66
222.96	21994.55
223.033	22021.94
223.106	22047
223.179	22071.73
223.252	22097.67
223.325	22129.19
223.398	22153.92
223.471	22178.94
223.544	22207.48
223.617	22243.97
223.69	22273.09
223.763	22282.73
223.837	22309.77
223.91	22350.7
223.983	22360.92
224.056	22363.91
224.129	22380.2
224.202	22414.19
224.275	22423.16
224.348	22422.05
224.42	22419.78
224.493	22413.08
224.566	22422.43
224.639	22432.17
224.712	22438.05
224.785	22440.7
224.858	22440.61
224.931	22447.12
225.004	22442.73
225.077	22448.61
225.15	22420.6
225.223	22429.66
225.296	22467.27
225.369	22458.93
225.442	22450.78
225.514	22456.38
225.587	22480.62
225.66	22490.17
225.733	22490.27
225.806	22498.27
225.879	22504.54
225.952	22497.06
226.025	22505.45
226.097	22523.39
226.17	22529.75
226.243	22501.55
226.316	22496.58
226.389	22499.72
226.461	22497.98
226.534	22503.77
226.607	22497.65
226.68	22527.78
226.753	22512.11
226.825	22471.08
226.898	22473.92
226.971	22468.52
227.044	22481.3
227.117	22474.64
227.189	22474.84
227.262	22478.74
227.335	22477.73
227.407	22471.95
227.48	22478.07
227.553	22486.89
227.626	22481.3
227.698	22475.03
227.771	22487.13
227.844	22479.85
227.916	22480.81
227.989	22470.45
228.062	22461.29
228.134	22470.84
228.207	22448.23
228.28	22434.49
228.352	22428.17
228.425	22429.33
228.498	22436.03
228.57	22408.79
228.643	22409.32
228.716	22394.04
228.788	22377.17
228.861	22359.52
228.934	22377.46
229.006	22359.72
229.079	22337.73
229.151	22316.04
229.224	22288.22
229.296	22285.38
229.369	22300.28
229.442	22298.49
229.514	22278.73
229.587	22277.04
229.659	22250.38
229.732	22257.61
229.804	22264.6
229.877	22288.56
229.949	22288.8
230.022	22296.04
230.094	22294.88
230.167	22289.82
230.239	22266.97
230.312	22259.16
230.384	22271.64
230.457	22254.92
230.529	22253.95
230.602	22247.93
230.674	22234.09
230.747	22242.77
230.819	22243.39
230.892	22209.55
230.964	22205.02
231.037	22200.68
231.109	22189.88
231.181	22181.16
231.254	22151.9
231.326	22143.46
231.399	22116.9
231.471	22099.55
231.544	22054.66
231.616	22048.88
231.688	22028.06
231.761	22009.84
231.833	21978.41
231.905	21937.38
231.978	21915.45
232.05	21904.32
232.122	21892.02
232.195	21872.02
232.267	21867.01
232.339	21836.69
232.412	21828.49
232.484	21789.5
232.556	21769.44
232.629	21764.24
232.701	21758.45
232.773	21746.65
232.846	21711.22
232.918	21684.51
232.99	21654.77
233.062	21641.81
233.135	21623.2
233.207	21594.81
233.279	21593.94
233.351	21591
233.424	21567.77
233.496	21540.01
233.568	21521.84
233.64	21481.54
233.713	21454.79
233.785	21425.2
233.857	21406.35
233.929	21367.36
234.001	21363.6
234.074	21352.37
234.146	21318.48
234.218	21282.72
234.29	21255.39
234.362	21232.45
234.434	21195.82
234.507	21161.79
234.579	21131.62
234.651	21102.13
234.723	21084.82
234.795	21051.86
234.867	21009.73
234.939	20989.73
235.012	20956.48
235.084	20934.6
235.156	20924.86
235.228	20903.99
235.3	20867.27
235.372	20841.92
235.444	20826.54
235.516	20783.7
235.588	20752.85
235.66	20725.67
235.732	20701.04
235.804	20725.86
235.876	20708.47
235.948	20690.06
236.02	20654.25
236.092	20616.56
236.164	20582.83
236.236	20545.24
236.308	20517.19
236.38	20498.06
236.452	20459.36
236.524	20436.47
236.596	20427.12
236.668	20402.73
236.74	20373.14
236.812	20342.54
236.884	20324.75
236.956	20298.06
237.028	20253.14
237.1	20220.81
237.172	20209.67
237.244	20186.59
237.316	20117.77
237.388	20077.67
237.46	20041.05
237.532	20036.13
237.604	19992.47
237.675	19972.37
237.747	19947.75
237.819	19907.94
237.891	19878.16
237.963	19841.73
238.035	19806.89
238.107	19722.51
238.178	19700.19
238.25	19662.56
238.322	19660.1
238.394	19607.04
238.466	19567.48
238.538	19548.88
238.609	19521.79
238.681	19455
238.753	19413.36
238.825	19381.27
238.897	19349.56
238.968	19336.79
239.04	19289.9
239.112	19292.31
239.184	19249.08
239.255	19208.65
239.327	19179.35
239.399	19150.2
239.471	19128.75
239.542	19102.64
239.614	19108.76
239.686	19045.53
239.758	19021.39
239.829	18968.43
239.901	18942.21
239.973	18905.73
240.044	18877.2
240.116	18846.31
240.188	18807.67
240.259	18775.52
240.331	18728.01
240.403	18707.33
240.474	18657.12
240.546	18620.69
240.618	18562.91
240.689	18526.91
240.761	18494.87
240.833	18473.42
240.904	18427.45
240.976	18382.82
241.048	18349.76
241.119	18301.72
241.191	18271.55
241.262	18256.61
241.334	18215.02
241.405	18185.15
241.477	18153.68
241.549	18112.47
241.62	18071.08
241.692	18048.33
241.763	18017.44
241.835	17989.2
241.906	17947.9
241.978	17893.49
242.049	17860.72
242.121	17838.46
242.192	17812.39
242.264	17761.55
242.335	17713.02
242.407	17691.43
242.478	17666.9
242.55	17627.96
242.621	17585.74
242.693	17543.04
242.764	17495.09
242.836	17461.36
242.907	17426.18
242.979	17393.26
243.05	17360.25
243.122	17325.6
243.193	17285.69
243.264	17235.67
243.336	17196.25
243.407	17168.34
243.479	17163.19
243.55	17130.7
243.622	17103.43
243.693	17075.43
243.764	17063.04
243.836	17014.07
243.907	16971.9
243.978	16931.08
244.05	16903.61
244.121	16858.69
244.192	16841.2
244.264	16799.27
244.335	16769.77
244.407	16718.11
244.478	16684.66
244.549	16647.98
244.62	16605.18
244.692	16571.16
244.763	16552.79
244.834	16513.27
244.906	16476.84
244.977	16435.05
245.048	16413.46
245.119	16370.27
245.191	16315.91
245.262	16256.43
245.333	16240.43
245.405	16205.58
245.476	16176.04
245.547	16135.45
245.618	16107.84
245.689	16076.94
245.761	16042.87
245.832	16012.74
245.903	15990.38
245.974	15957.22
246.045	15921.5
246.117	15911.38
246.188	15871.28
246.259	15827.56
246.33	15794.01
246.401	15747.16
246.473	15698.38
246.544	15657.8
246.615	15629.75
246.686	15593.16
246.757	15576.87
246.828	15530.69
246.899	15515.94
246.97	15469.67
247.042	15437.52
247.113	15415.25
247.184	15395.25
247.255	15358.47
247.326	15330.71
247.397	15299.09
247.468	15268.53
247.539	15241.87
247.61	15190
247.681	15170.92
247.752	15147.59
247.823	15112.83
247.894	15092.59
247.965	15064
248.037	15028.28
248.108	14981.86
248.179	14952.02
248.25	14922.19
248.321	14909.17
248.392	14870.18
248.463	14864.54
248.534	14827.61
248.605	14807.08
248.675	14774.01
248.746	14749.23
248.817	14723.3
248.888	14697.75
248.959	14653.84
249.03	14627.85
249.101	14603.13
249.172	14562.05
249.243	14508.31
249.314	14497.75
249.385	14469.07
249.456	14446.36
249.527	14417.34
249.598	14398.64
249.669	14377.77
249.739	14352.55
249.81	14328.74
249.881	14282.75
249.952	14258.89
250.023	14236.52
250.094	14187.69
250.165	14151.25
250.235	14133.36
250.306	14101.93
250.377	14069.35
250.448	14041.34
250.519	14006.1
250.59	13992.46
250.66	13968.84
250.731	13972.31
250.802	13930.71
250.873	13912.15
250.944	13889.92
251.014	13863.31
251.085	13856.32
251.156	13831.01
251.227	13822.14
251.297	13806.53
251.368	13798.48
251.439	13774.18
251.51	13760.78
251.58	13735.28
251.651	13699.65
251.722	13674.3
251.792	13632.5
251.863	13599.24
251.934	13598.37
252.005	13591.19
252.075	13563.85
252.146	13550.69
252.217	13524.71
252.287	13519.36
252.358	13483.69
252.429	13468.69
252.499	13437.26
252.57	13417.11
252.641	13396.29
252.711	13368.14
252.782	13329.09
252.852	13318.87
252.923	13290.76
252.994	13269.55
253.064	13257.6
253.135	13230.99
253.205	13202.5
253.276	13197.44
253.347	13188.33
253.417	13155.45
253.488	13126.04
253.558	13099.24
253.629	13074.32
253.699	13059.37
253.77	13043.22
253.841	13024.81
253.911	13007.12
253.982	12992.9
254.052	12974
254.123	12961.56
254.193	12931.34
254.264	12945.08
254.334	12912.87
254.405	12878.99
254.475	12842.21
254.546	12820.32
254.616	12815.98
254.687	12801.81
254.757	12782.14
254.827	12757.51
254.898	12738.32
254.968	12718.27
255.039	12691.42
255.109	12667.41
255.18	12636.85
255.25	12593.03
255.321	12575.49
255.391	12544.35
255.461	12542.47
255.532	12496.53
255.602	12468.28
255.673	12438.73
255.743	12398.96
255.813	12359.05
255.884	12348.54
255.954	12340.01
256.024	12336.83
256.095	12311.47
256.165	12270.93
256.235	12255.31
256.306	12231.45
256.376	12224.22
256.446	12210.15
256.517	12195.74
256.587	12194.72
256.657	12169.71
256.728	12153.13
256.798	12135.97
256.868	12104.73
256.938	12073.06
257.009	12066.27
257.079	12053.3
257.149	12051.71
257.219	12013.97
257.29	11997.24
257.36	11961.24
257.43	11944.03
257.5	11893.95
257.571	11869.8
257.641	11866.04
257.711	11837.41
257.781	11822.03
257.852	11800.73
257.922	11762.02
257.992	11739.18
258.062	11717.87
258.132	11714.5
258.202	11693.05
258.273	11671.5
258.343	11676.61
258.413	11645.77
258.483	11620.85
258.553	11589.66
258.623	11560.79
258.693	11553.03
258.764	11549.95
258.834	11550.05
258.904	11530.09
258.974	11507.25
259.044	11488.55
259.114	11472.55
259.184	11457.65
259.254	11441.89
259.324	11406.08
259.394	11393.55
259.464	11395.14
259.535	11372.25
259.605	11349.5
259.675	11325.94
259.745	11315.72
259.815	11282.13
259.885	11263.09
259.955	11279.04
260.025	11255.14
260.095	11241.17
260.165	11227.43
260.235	11226.51
260.305	11196.64
260.375	11178.47
260.445	11184.15
260.515	11184.97
260.585	11174.75
260.655	11155.24
260.725	11152.2
260.795	11148.3
260.865	11149.16
260.934	11120.63
261.004	11108.83
261.074	11086.08
261.144	11081.84
261.214	11076.59
261.284	11062.32
261.354	11063.91
261.424	11033.79
261.494	11043.67
261.564	11023.67
261.634	11014.08
261.703	10972.78
261.773	10968.3
261.843	10954.71
261.913	10934.67
261.983	10898.38
262.053	10885.37
262.123	10862.48
262.192	10828.22
262.262	10813.71
262.332	10783.21
262.402	10774.59
262.472	10762.68
262.541	10731.17
262.611	10730.21
262.681	10697.11
262.751	10686.6
262.821	10662.41
262.89	10634.95
262.96	10616.97
263.03	10625.74
263.1	10614.85
263.169	10600.06
263.239	10584.4
263.309	10584.79
263.379	10579.78
263.448	10568.4
263.518	10555.15
263.588	10544.07
263.657	10542
263.727	10535.4
263.797	10526.68
263.867	10506.3
263.936	10472.14
264.006	10473.97
264.076	10448.43
264.145	10434.99
264.215	10414.18
264.285	10404.64
264.354	10365.33
264.424	10342.93
264.494	10310.35
264.563	10287.32
264.633	10297.87
264.702	10287.04
264.772	10250.08
264.842	10231.2
264.911	10219.92
264.981	10192.85
265.05	10180.47
265.12	10162.79
265.19	10148.96
265.259	10143.27
265.329	10132.24
265.398	10126.99
265.468	10134.36
265.537	10125.88
265.607	10121.6
265.676	10118.46
265.746	10113.07
265.815	10118.51
265.885	10102.09
265.955	10077.52
266.024	10059.36
266.094	10019.52
266.163	10013.88
266.232	10016
266.302	9992.64
266.371	9981.71
266.441	9971.21
266.51	9969.67
266.58	9953.14
266.649	9932.53
266.719	9923.52
266.788	9920.15
266.858	9921.78
266.927	9886.04
266.996	9868.17
267.066	9851.31
267.135	9830.84
267.205	9829.73
267.274	9821.02
267.343	9823.09
267.413	9813.36
267.482	9810.81
267.552	9809.75
267.621	9783.83
267.69	9757.54
267.76	9749.45
267.829	9741.21
267.898	9727.29
267.968	9696.8
268.037	9690.06
268.106	9687.03
268.176	9660.34
268.245	9646.52
268.314	9627.59
268.384	9619.84
268.453	9610.16
268.522	9605.68
268.592	9601.73
268.661	9573.22
268.73	9564.11
268.799	9541.82
268.869	9551.06
268.938	9521.06
269.007	9507.82
269.076	9502.18
269.146	9499.63
269.215	9496.74
269.284	9504.59
269.353	9488.7
269.422	9477.29
269.492	9461.4
269.561	9422.11
269.63	9416.23
269.699	9392.92
269.768	9382.14
269.838	9380.21
269.907	9375.25
269.976	9353.2
270.045	9327.2
270.114	9319.92
270.183	9307.45
270.253	9300.57
270.322	9263.3
270.391	9253.82
270.46	9258.2
270.529	9257.14
270.598	9252.8
270.667	9241.44
270.736	9213.61
270.806	9201.43
270.875	9205.52
270.944	9193.34
271.013	9211.44
271.082	9201.81
271.151	9201.62
271.22	9173.12
271.289	9160.31
271.358	9147.93
271.427	9138.6
271.496	9123.87
271.565	9108.36
271.634	9092.57
271.703	9114.14
271.772	9122.09
271.841	9114
271.91	9088.29
271.979	9074.42
272.048	9053.48
272.117	9050.01
272.186	9037.26
272.255	9043.85
272.324	9041.68
272.393	9038.51
272.462	9027.63
272.531	9018.48
272.6	9007.31
272.669	9016.36
272.738	9003.75
272.807	8997.2
272.876	8978.96
272.945	9005.91
273.013	9011.16
273.082	9017.61
273.151	8975.63
273.22	8969.32
273.289	8964.03
273.358	8973.37
273.427	8964.75
273.496	8963.31
273.564	8956.13
273.633	8962.25
273.702	8940.92
273.771	8930.47
273.84	8925.95
273.909	8917.52
273.977	8914.44
274.046	8901.64
274.115	8907.56
274.184	8895.38
274.253	8885.76
274.322	8890.43
274.39	8858.27
274.459	8843.39
274.528	8813.02
274.597	8801.91
274.665	8798.73
274.734	8804.84
274.803	8798.87
274.872	8787.71
274.94	8773.22
275.009	8829.37
275.078	8809.06
275.147	8808.58
275.215	8798.66
275.284	8799.82
275.353	8791.87
275.421	8775.46
275.49	8794.14
275.559	8777.72
275.627	8768.53
275.696	8767.86
275.765	8769.78
275.833	8768.53
275.902	8764.78
275.971	8786.39
276.039	8811.22
276.108	8809.73
276.177	8809.3
276.245	8791.01
276.314	8791.44
276.383	8798.8
276.451	8740.97
276.52	8741.21
276.588	8749.73
276.657	8757.67
276.725	8757.24
276.794	8758.54
276.863	8768.84
276.931	8742.79
277	8749.29
277.068	8758.34
277.137	8769.89
277.205	8766.09
277.274	8775.81
277.342	8789.1
277.411	8767.63
277.48	8745.49
277.548	8737.12
277.617	8732.5
277.685	8727.78
277.754	8732.01
277.822	8725.13
277.89	8733.61
277.959	8723.21
278.027	8705.98
278.096	8692.46
278.164	8711.86
278.233	8703.72
278.301	8688.03
278.37	8696.26
278.438	8681.15
278.507	8679.85
278.575	8654.82
278.643	8647.65
278.712	8630.9
278.78	8612.28
278.849	8619.4
278.917	8630.37
278.985	8628.21
279.054	8633.55
279.122	8643.17
279.191	8639.85
279.259	8632.88
279.327	8607.08
279.396	8627.92
279.464	8633.83
279.532	8636
279.601	8626.95
279.669	8625.12
279.737	8639.99
279.806	8641.68
279.874	8649.76
279.942	8648.41
280.011	8643.89
280.079	8656.55
280.147	8673.49
280.215	8679.12
280.284	8676.95
280.352	8663.38
280.42	8667.04
280.488	8656.79
280.557	8649.66
280.625	8651.06
280.693	8655.2
280.761	8657.22
280.83	8640.09
280.898	8641.1
280.966	8628.1
281.034	8597.25
281.102	8580.27
281.171	8574.06
281.239	8581.52
281.307	8573.67
281.375	8565.88
281.443	8590.95
281.512	8585.18
281.58	8589.89
281.648	8569.64
281.716	8564.68
281.784	8563.57
281.852	8559.53
281.92	8552.79
281.989	8562.47
282.057	8547.36
282.125	8593.86
282.193	8595.59
282.261	8597.9
282.329	8595.59
282.397	8598.86
282.465	8597.13
282.533	8608.68
282.601	8599.49
282.67	8572.15
282.738	8574.12
282.806	8583.6
282.874	8574.7
282.942	8576.43
283.01	8563.29
283.078	8568.78
283.146	8567.91
283.214	8579.94
283.282	8583.31
283.35	8597.22
283.418	8590.68
283.486	8594.91
283.554	8544.41
283.622	8541.52
283.69	8535.32
283.758	8528.72
283.826	8535.8
283.894	8551
283.962	8571.27
284.03	8580.79
284.098	8583.73
284.165	8572.23
284.233	8571.7
284.301	8554.04
284.369	8546.34
284.437	8541
284.505	8536.52
284.573	8544.8
284.641	8527.14
284.709	8529.74
284.777	8509.62
284.845	8510.05
284.912	8516.4
284.98	8519.68
285.048	8514.09
285.116	8519.53
285.184	8529.06
285.252	8524.49
285.319	8506.73
285.387	8495.04
285.455	8483.63
285.523	8487.24
285.591	8485.8
285.659	8486.47
285.726	8503.99
285.794	8487.15
285.862	8484.69
285.93	8490.56
285.997	8485.7
286.065	8485.13
286.133	8483.06
286.201	8483.59
286.269	8480.84
286.336	8471.94
286.404	8465.44
286.472	8474.83
286.539	8453.66
286.607	8443.41
286.675	8438.69
286.743	8449.57
286.81	8450.58
286.878	8463.57
286.946	8457.99
287.013	8456.35
287.081	8455.82
287.149	8449.57
287.216	8472.52
287.284	8471.84
287.352	8473.77
287.419	8470.98
287.487	8483.35
287.555	8480.99
287.622	8480.7
287.69	8480.55
287.758	8493.79
287.825	8490.23
287.893	8475.36
287.96	8483.49
288.028	8491.91
288.096	8500.09
288.163	8501.82
288.231	8481.57
288.298	8482
288.366	8494.94
288.433	8491.82
288.501	8482.24
288.569	8478.53
288.636	8468.52
288.704	8471.94
288.771	8474.4
288.839	8468.91
288.906	8463.66
288.974	8470.55
289.041	8467.71
289.109	8457.31
289.176	8457.84
289.244	8462.42
289.311	8478.78
289.379	8485.8
289.446	8487.53
289.514	8484.45
289.581	8484.65
289.649	8491.48
289.716	8492.1
289.783	8486.47
289.851	8506.73
289.918	8512.31
289.986	8515.83
290.053	8516.74
290.121	8527.57
290.188	8527.91
290.255	8560.1
290.323	8553.94
290.39	8549.03
290.458	8555.05
290.525	8569.73
290.592	8564.29
290.66	8570.35
290.727	8565.35
290.794	8582.62
290.862	8581.66
290.929	8587.15
290.996	8584.45
291.064	8597.93
291.131	8604.86
291.198	8616.94
291.266	8616.55
291.333	8612.85
291.4	8621.61
291.468	8643.94
291.535	8631.18
291.602	8640.33
291.669	8628.58
291.737	8636.72
291.804	8640.57
291.871	8657.99
291.938	8666.32
292.006	8699.19
292.073	8707.52
292.14	8716.91
292.207	8708.34
292.275	8713.05
292.342	8724.94
292.409	8750.41
292.476	8770.77
292.543	8765.52
292.611	8761.86
292.678	8779.77
292.745	8802.1
292.812	8811.63
292.879	8806.38
292.946	8813.89
293.014	8826.17
293.081	8837.14
293.148	8850.14
293.215	8861.83
293.282	8853.07
293.349	8861.45
293.416	8839.88
293.484	8852.68
293.551	8866.69
293.618	8889.94
293.685	8907.75
293.752	8903.66
293.819	8898.32
293.886	8888.06
293.953	8890.13
294.02	8908.18
294.087	8912.95
294.154	8915.6
294.221	8930.04
294.288	8930.81
294.356	8949.39
294.423	8953.19
294.49	8945.25
294.557	8948.86
294.624	8939.91
294.691	8963.26
294.758	8961.47
294.825	8967.64
294.892	8960.27
294.959	8958.54
295.026	8960.42
295.093	8958.87
295.16	8954.3
295.226	8960.03
295.293	8983.67
295.36	8990.07
295.427	8993.92
295.494	9003.07
295.561	9004.08
295.628	9020.41
295.695	9033.6
295.762	9033.65
295.829	9043.08
295.896	9057.09
295.963	9072.59
296.03	9087.8
296.096	9090.74
296.163	9104.75
296.23	9118.95
296.297	9137.01
296.364	9141.97
296.431	9146.01
296.498	9141.2
296.564	9165.46
296.631	9165.6
296.698	9149.28
296.765	9169.41
296.832	9159.68
296.899	9145
296.965	9159.97
297.032	9137.87
297.099	9155.59
297.166	9168.68
297.233	9161.51
297.299	9154.48
297.366	9155.2
297.433	9157.71
297.5	9165.17
297.566	9167.72
297.633	9170.08
297.7	9167
297.767	9156.41
297.833	9161.94
297.9	9165.46
297.967	9151.88
298.033	9171.19
298.1	9200.42
298.167	9196.28
298.234	9202.92
298.3	9215.1
298.367	9215.53
298.434	9224.97
298.5	9215.2
298.567	9207.2
298.634	9210.57
298.7	9233.83
298.767	9236.72
298.834	9243.75
298.9	9241.63
298.967	9237.87
299.033	9248.52
299.1	9264.45
299.167	9281.69
299.233	9284.05
299.3	9299.36
299.366	9315.25
299.433	9325.07
299.5	9302.3
299.566	9305.76
299.633	9326.9
299.699	9339.81
299.766	9333.84
299.832	9342.94
299.899	9350.4
299.965	9364.56
300.032	9362.58
300.099	9366
300.165	9371.44
300.232	9371.64
300.298	9375.63
300.365	9385.6
300.431	9384.15
300.498	9378.57
300.564	9384.4
300.631	9394.03
300.697	9406.11
300.763	9411.7
300.83	9408.14
300.896	9422.05
300.963	9431.87
301.029	9434.09
301.096	9437.65
301.162	9456.29
301.229	9450.8
301.295	9442.13
301.361	9446.75
301.428	9450.32
301.494	9436.83
301.561	9436.55
301.627	9437.56
301.693	9437.46
301.76	9441.41
301.826	9435.97
301.892	9454.65
301.959	9464.19
302.025	9456.24
302.092	9449.98
302.158	9454.56
302.224	9457.93
302.291	9452.25
302.357	9442.13
302.423	9432.17
302.49	9422.39
302.556	9430.91
302.622	9430.48
302.688	9443.96
302.755	9457.16
302.821	9472.91
302.887	9484.22
302.954	9486.29
303.02	9496.6
303.086	9500.55
303.152	9494.53
303.219	9491.06
303.285	9486.97
303.351	9489.42
303.417	9496.89
303.483	9488.75
303.55	9477.63
303.616	9474.45
303.682	9466.65
303.748	9465.15
303.815	9483.45
303.881	9492.56
303.947	9480.9
304.013	9482.2
304.079	9474.69
304.145	9453.35
304.212	9445.75
304.278	9432.79
304.344	9428.56
304.41	9414.49
304.476	9404.96
304.542	9402.22
304.608	9406.21
304.674	9393.55
304.741	9391.33
304.807	9384.35
304.873	9396.92
304.939	9411.12
305.005	9392.68
305.071	9397.49
305.137	9399.04
305.203	9371.25
305.269	9365.9
305.335	9373.61
305.401	9371.15
305.467	9368.89
305.533	9378.71
305.599	9384.35
305.666	9393.83
305.732	9394.07
305.798	9405.63
305.864	9431.44
305.93	9435.2
305.996	9438.28
306.062	9441.94
306.128	9439.2
306.194	9440.3
306.259	9435.68
306.325	9425.18
306.391	9440.98
306.457	9447.91
306.523	9448.73
306.589	9468.91
306.655	9460.91
306.721	9440.64
306.787	9431.25
306.853	9447.05
306.919	9426.82
306.985	9420.56
307.051	9413.29
307.117	9402.02
307.183	9398.99
307.248	9370.29
307.314	9373.76
307.38	9372.46
307.446	9369.32
307.512	9355.36
307.578	9347.75
307.644	9336.92
307.709	9342.65
307.775	9332.2
307.841	9332.73
307.907	9332.49
307.973	9315.3
308.039	9318.47
308.104	9328.83
308.17	9325.02
308.236	9305.91
308.302	9312.16
308.368	9299.45
308.433	9299.21
308.499	9300.37
308.565	9293.05
308.631	9296.66
308.696	9272.44
308.762	9258.86
308.828	9255.25
308.894	9237.77
308.959	9223.28
309.025	9215.58
309.091	9206.67
309.156	9201.57
309.222	9192.13
309.288	9181.39
309.354	9160.02
309.419	9158.57
309.485	9139.27
309.551	9147.4
309.616	9130.36
309.682	9123.62
309.748	9119.05
309.813	9115
309.879	9104.99
309.945	9086.98
310.01	9081.83
310.076	9087.56
310.141	9084
310.207	9075.47
310.273	9081.68
310.338	9082.45
310.404	9066.47
310.469	9058.77
310.535	9049.62
310.601	9032.58
310.666	9033.97
310.732	9048.66
310.797	9032.53
310.863	9025.4
310.928	9014.09
310.994	9020.15
311.059	9018.71
311.125	9013.7
311.191	9019.58
311.256	9013.99
311.322	9015.63
311.387	8992.04
311.453	9310.07
311.518	9285.76
311.584	9282.2
311.649	9280.81
311.715	9267.9
311.78	9278.64
311.846	9264.05
311.911	9269.11
311.976	9270.12
312.042	9260.92
312.107	9245.04
312.173	9237.96
312.238	9233.39
312.304	9225.35
312.369	9218.42
312.434	9202.29
312.5	9194.25
312.565	9163.16
312.631	9164.41
312.696	9162.63
312.761	9166.86
312.827	8842.67
312.892	8879.35
312.958	8868.81
313.023	8869.44
313.088	8876.22
313.154	8852.98
313.219	8845.9
313.284	8832.28
313.35	8831.07
313.415	8813.02
313.48	8811.34
313.546	8815
313.611	8820.73
313.676	8820.44
313.741	8804.55
313.807	8817.46
313.872	8823.81
313.937	8831.51
314.003	8839.5
314.068	8835.65
314.133	8840.85
314.198	8823.04
314.264	8801.57
314.329	8792.08
314.394	8782.31
314.459	8771.92
314.525	8790.64
314.59	8793.96
314.655	8784.96
314.72	8787.08
314.785	8796.03
314.851	8789.19
314.916	8770.52
314.981	8753.1
315.046	8738.71
315.111	8736.88
315.176	8723.93
315.242	8723.64
315.307	8713.44
315.372	8686.67
315.437	8674.88
315.502	8662.51
315.567	8674.11
315.632	8657.31
315.698	8661.6
315.763	8662.51
315.828	8658.52
315.893	8648.8
315.958	8637.39
316.023	8632.29
316.088	8609.23
316.153	8587.87
316.218	8575.79
316.283	8557.84
316.348	8538.31
316.413	8531.67
316.479	8515.65
316.544	8483.89
316.609	8452.9
316.674	8427.88
316.739	8404.11
316.804	8371.78
316.869	8338.49
316.934	8299.22
316.999	8269.06
317.064	8215.28
317.129	8170.58
317.194	8131.32
317.259	8084.9
317.324	8033.34
317.389	7986.59
317.454	7950.17
317.518	7915.26
317.583	7891.21
317.648	7867.83
317.713	7836.43
317.778	7781.41
317.843	7750.2
317.908	7710.48
317.973	7674.71
318.038	7641.05
318.103	7598.31
318.168	7576.67
318.233	7546.96
318.297	7500.13
318.362	7462.97
318.427	7426.02
318.492	7399.24
318.557	7351.13
318.622	7324.45
318.687	7304.03
318.751	7261.07
318.816	7228.68
318.881	7196.14
318.946	7140.3
319.011	7096.04
319.075	7053.28
319.14	7020.13
319.205	6972.42
319.27	6935.48
319.335	6889.74
319.399	6844.54
319.464	6816.06
319.529	6755.78
319.594	6717.59
319.658	6688.49
319.723	6649.92
319.788	6622.79
319.853	6566.7
319.917	6539.04
319.982	6487.38
320.047	6449.68
320.112	6425.97
320.176	6376.66
320.241	6338.21
320.306	6305.95
320.37	6263.04
320.435	6235.69
320.5	6207.8
320.564	6172.29
320.629	6132.9
320.694	6101.27
320.758	6066.16
320.823	6022.74
320.888	6000.24
320.952	5946.61
321.017	5904.92
321.082	5860.41
321.146	5823.52
321.211	5790.86
321.275	5750.29
321.34	5705.66
321.405	5662.17
321.469	5613.5
321.534	5570.22
321.598	5521.89
321.663	5493.41
321.727	5459.14
321.792	5409.81
321.857	5362.93
321.921	5325.84
321.986	5280.95
322.05	5221.78
322.115	5189.15
322.179	5144.99
322.244	5086.26
322.308	5054.17
322.373	5006.33
322.437	4967.92
322.502	4947.12
322.566	4900.43
322.631	4862.32
322.695	4829.58
322.76	4784.86
322.824	4752.84
322.889	4712.21
322.953	4666.56
323.018	4602.14
323.082	4545.63
323.146	4492.82
323.211	4442.11
323.275	4392.6
323.34	4352.28
323.404	4320.44
323.468	4270.16
323.533	4230.9
323.597	4186.98
323.662	4139.07
323.726	4105.32
323.79	4059.43
323.855	3988.89
323.919	3943.96
323.983	3900.04
324.048	3831.84
324.112	3968.74
324.177	3842.65
324.241	3643.06
324.305	3448.92
324.37	3256.87
324.434	3069.85
324.498	3030.67
324.562	2982.88
324.627	2928.55
324.691	2874.92
324.755	2810.19
324.82	2738.43
324.884	2661.01
324.948	2593.2
325.012	2502.65
325.077	2382.95
