Data from 20250702_urea_0.5M_MAYP1162681_03-14-59-708.txt Node
Date: Thu Jul 03 03:14:59 BST 2025
User: adleo
Spectrometer: MAYP116268
Trigger mode: 0
Integration Time (sec): 1.000000E0
Scans to average: 1
Electric dark correction enabled: true
Nonlinearity correction enabled: true
Boxcar width: 10
XAxis mode: Wavelengths
Number of Pixels in Spectrum: 2068
>>>>>Begin Spectral Data<<<<<
179.565	1182.92
179.642	1234.09
179.718	1276.78
179.795	1313.23
179.871	1349.01
179.948	1366.4
180.024	1387.68
180.101	1408.54
180.177	1419.95
180.254	1442.95
180.33	1464.66
180.407	1517.54
180.483	1611.66
180.56	1700.69
180.636	1781.16
180.712	1767.76
180.789	1777.16
180.865	1787.38
180.942	1795.7
181.018	1807.34
181.095	1819.04
181.171	1822.55
181.248	1826.83
181.324	1839.24
181.4	1848.37
181.477	1857.07
181.553	1871.42
181.63	1889.15
181.706	1907.98
181.782	1917.2
181.859	1914.68
181.935	1920.15
182.011	1915.96
182.088	1932.84
182.164	1952.11
182.24	1969.93
182.317	1980.82
182.393	1980.48
182.469	1996.94
182.546	2009.35
182.622	2014.24
182.698	2010.72
182.775	2024.52
182.851	2038.5
182.927	2034.26
183.003	2029.27
183.08	2021.33
183.156	2026.71
183.232	2025.14
183.308	2011.16
183.385	2018.29
183.461	2038.4
183.537	2040.78
183.613	2051.72
183.69	2043.25
183.766	2030.22
183.842	2034.83
183.918	2042.11
183.995	2054.19
184.071	2056.42
184.147	2054.14
184.223	2043.58
184.299	2057.24
184.375	2045.73
184.452	2050.39
184.528	2109.4
184.604	2121.24
184.68	2136.13
184.756	2142.79
184.832	2146.26
184.908	2150.97
184.985	2152.77
185.061	2136.89
185.137	2146.07
185.213	2135.37
185.289	2135.37
185.365	2129.28
185.441	2126.95
185.517	2140.7
185.593	2138.09
185.669	2134.47
185.745	2143.37
185.822	2156.25
185.898	2144.5
185.974	2154.34
186.05	2146.4
186.126	2102.18
186.202	2095.76
186.278	2088.49
186.354	2082.16
186.43	2091.06
186.506	2089.54
186.582	2088.11
186.658	2093.91
186.734	2072.18
186.81	2074.17
186.886	2079.31
186.962	2092.1
187.038	2088.58
187.114	2078.78
187.19	2085.96
187.266	2075.83
187.341	2074.93
187.417	2071.22
187.493	2071.55
187.569	2071.03
187.645	2062.99
187.721	2052.43
187.797	2059.85
187.873	2067.41
187.949	2057.67
188.025	2050.48
188.101	2054.29
188.176	2059.9
188.252	2055.29
188.328	2064.65
188.404	2063.6
188.48	2058.14
188.556	2052.57
188.632	2052.95
188.707	2053.05
188.783	2047.48
188.859	2044.39
188.935	2034.4
189.011	2040.92
189.086	2034.12
189.162	2028.12
189.238	2030.74
189.314	2030.36
189.39	2023.84
189.465	2018.28
189.541	2037.82
189.617	2022.51
189.693	2016.19
189.768	2019.38
189.844	2043.4
189.92	2034.84
189.996	2044.64
190.071	2053.63
190.147	2051.59
190.223	2059.67
190.298	2054.2
190.374	2045.26
190.45	2056.58
190.526	2065.47
190.601	2061.9
190.677	2063.57
190.753	2092.31
190.828	2092.79
190.904	2105.21
190.98	2118.81
191.055	2126.99
191.131	2118.48
191.207	2137.74
191.282	2150.77
191.358	2142.68
191.433	2127.5
191.509	2140.05
191.585	2135.96
191.66	2137.82
191.736	2147.48
191.811	2140.96
191.887	2155.76
191.963	2176.74
192.038	2181.16
192.114	2182.16
192.189	2185.58
192.265	2183.16
192.34	2159.22
192.416	2157.6
192.491	2151.99
192.567	2154.03
192.642	2156.46
192.718	2156.46
192.793	2143.76
192.869	2137.24
192.944	2139.34
193.02	2149.18
193.095	2152.66
193.171	2157.65
193.246	2158.08
193.322	2153.51
193.397	2151.32
193.473	2137.76
193.548	2119.49
193.624	2125.44
193.699	2122.02
193.775	2135.67
193.85	2137.34
193.925	2146.04
194.001	2147.04
194.076	2142.33
194.152	2133.96
194.227	2127.39
194.302	2117.98
194.378	2124.07
194.453	2122.97
194.529	2134.29
194.604	2118.26
194.679	2111.32
194.755	2095.01
194.83	2105.76
194.905	2105.19
194.981	2115.94
195.056	2107.86
195.131	2114.76
195.207	2113.95
195.282	2103.48
195.357	2084.69
195.433	2099.82
195.508	2089.87
195.583	2098.58
195.659	2112.33
195.734	2120.04
195.809	2119.23
195.884	2128.31
195.96	2128.83
196.035	2141.34
196.11	2139.11
196.185	2151
196.261	2155.47
196.336	2187.25
196.411	2173.06
196.486	2178.77
196.561	2172.26
196.637	2182.39
196.712	2199.76
196.787	2202.38
196.862	2219.31
196.937	2232.15
197.013	2238.72
197.088	2247.33
197.163	2265.94
197.238	2284.23
197.313	2284.47
197.388	2297.37
197.464	2326.45
197.539	2336.54
197.614	2330.69
197.689	2342.4
197.764	2359.15
197.839	2379.43
197.914	2372.38
197.989	2394.56
198.065	2407.89
198.14	2458.29
198.215	2483.24
198.29	2496.14
198.365	2511.29
198.44	2523.38
198.515	2549.72
198.59	2566.43
198.665	2593.2
198.74	2602.48
198.815	2602.44
198.89	2624.06
198.965	2653.93
199.04	2651.93
199.115	2665.45
199.19	2706.51
199.265	2707.65
199.34	2715.65
199.415	2750.93
199.49	2772.4
199.565	2781.6
199.64	2805.33
199.715	2801.56
199.79	2807.33
199.865	2811.38
199.94	2807.28
200.015	2834.64
200.09	2839.31
200.165	2842.79
200.24	2847.41
200.315	2887.19
200.39	2899.54
200.464	2905.3
200.539	2907.02
200.614	2921.46
200.689	2948.11
200.764	2960.31
200.839	2979.61
200.914	2985
200.989	2969.26
201.063	2982.94
201.138	2965.36
201.213	2964.03
201.288	2947.01
201.363	2954.35
201.438	2952.97
201.512	2968.98
201.587	2955.25
201.662	2957.92
201.737	2969.79
201.812	2980.13
201.886	2947.64
201.961	2960.04
202.036	2946.23
202.111	2939.55
202.186	2911.83
202.26	2895.28
202.335	2865.68
202.41	2859.34
202.485	2843.52
202.559	2826.65
202.634	2799.54
202.709	2811.4
202.784	2790.67
202.858	2787.86
202.933	2771.18
203.008	2766.61
203.082	2749.02
203.157	2747.69
203.232	2706.07
203.306	2684.81
203.381	2653.93
203.456	2631.25
203.53	2608.37
203.605	2590.46
203.68	2571.41
203.754	2564.84
203.829	2550.74
203.904	2537.36
203.978	2525.26
204.053	2529.12
204.127	2516.4
204.202	2515.36
204.277	2496.26
204.351	2492.69
204.426	2488.64
204.5	2480.02
204.575	2444.94
204.65	2453.56
204.724	2448.18
204.799	2455.56
204.873	2452.08
204.948	2448.65
205.022	2438.75
205.097	2428.41
205.171	2441.55
205.246	2448.65
205.32	2449.79
205.395	2446.08
205.469	2434.47
205.544	2438.18
205.618	2421.61
205.693	2435.47
205.767	2427.14
205.842	2451.9
205.916	2444.04
205.991	2432.9
206.065	2437.33
206.14	2455.03
206.214	2451.84
206.289	2445.74
206.363	2457.88
206.438	2461.4
206.512	2471.31
206.586	2488.68
206.661	2496.31
206.735	2473.99
206.81	2475.61
206.884	2486.51
206.958	2475.08
207.033	2493.03
207.107	2503.17
207.181	2538
207.256	2533.19
207.33	2547.52
207.405	2560.82
207.479	2582.91
207.553	2592.05
207.628	2575.44
207.702	2588.58
207.776	2585.3
207.851	2586.73
207.925	2607.79
207.999	2610.22
208.073	2611.98
208.148	2620.32
208.222	2615.51
208.296	2653.88
208.371	2671.8
208.445	2695.24
208.519	2733.59
208.593	2753.64
208.668	2757.84
208.742	2769.05
208.816	2782.24
208.89	2810.32
208.965	2819.71
209.039	2841.46
209.113	2871.15
209.187	2909.39
209.261	2922.74
209.336	2960.88
209.41	3000.26
209.484	3023.73
209.558	3068.18
209.632	3104.99
209.707	3138.19
209.781	3186.12
209.855	3227.97
209.929	3273.56
210.003	3306.15
210.077	3336.65
210.151	3416.46
210.226	3486.37
210.3	3551.69
210.374	3610.49
210.448	3655.71
210.522	3705.87
210.596	3755.31
210.67	3809.18
210.744	3900.79
210.818	3976.63
210.892	4045.42
210.966	4092.72
211.041	4160.32
211.115	4206.79
211.189	4279.99
211.263	4357.98
211.337	4422.5
211.411	4498.14
211.485	4557.01
211.559	4631.16
211.633	4698.07
211.707	4734.52
211.781	4808.86
211.855	4836.49
211.929	4899.09
212.003	4952.03
212.077	5033.71
212.151	5122
212.225	5210.78
212.299	5276.8
212.373	5349.63
212.447	5423.51
212.52	5534.82
212.594	5617.69
212.668	5719.81
212.742	5802.64
212.816	5877.66
212.89	5958.96
212.964	6041.4
213.038	6134.9
213.112	6238.42
213.186	6348.13
213.26	6418.47
213.333	6466.81
213.407	6573.36
213.481	6669.74
213.555	6778.08
213.629	6865.42
213.703	6947.62
213.777	7038.39
213.85	7118.59
213.924	7245.28
213.998	7341.51
214.072	7430.26
214.146	7512.37
214.219	7600.21
214.293	7692.19
214.367	7788.65
214.441	7891.17
214.515	7981.93
214.588	8052.92
214.662	8115.83
214.736	8185.01
214.81	8285.81
214.883	8390.71
214.957	8462.29
215.031	8544.66
215.105	8612.83
215.178	8683.72
215.252	8759.23
215.326	8826.61
215.4	8896.74
215.473	8939.06
215.547	9005.59
215.621	9081.43
215.694	9173.06
215.768	9238.4
215.842	9304.7
215.915	9381.13
215.989	9448.55
216.063	9516.17
216.136	9596.54
216.21	9676.63
216.284	9770.26
216.357	9858.26
216.431	9936.73
216.504	10033.93
216.578	10140.49
216.652	10236.01
216.725	10322.29
216.799	10419.8
216.873	10504.07
216.946	10590.78
217.02	10664.11
217.093	10743.03
217.167	10798.16
217.24	10855.5
217.314	10926.62
217.387	10995.96
217.461	11062.99
217.535	11148.92
217.608	11219.13
217.682	11299.33
217.755	11388.44
217.829	11455.04
217.902	11527.05
217.976	11597.75
218.049	11663.98
218.123	11718.3
218.196	11796.57
218.27	11864.54
218.343	11919.78
218.417	11993.23
218.49	12069.05
218.563	12158.76
218.637	12244.65
218.71	12335.52
218.784	12424.06
218.857	12512.57
218.931	12589.5
219.004	12670.24
219.077	12745.01
219.151	12820.45
219.224	12891.89
219.298	12957.69
219.371	13045.37
219.444	13104.14
219.518	13176.98
219.591	13246.01
219.665	13341.79
219.738	13406.44
219.811	13468.09
219.885	13550.81
219.958	13623.17
220.031	13679.14
220.105	13752.8
220.178	13813.39
220.251	13876.78
220.325	13951.89
220.398	14029.07
220.471	14103.79
220.544	14177.3
220.618	14227.77
220.691	14303.41
220.764	14357.93
220.838	14424.3
220.911	14475.35
220.984	14562.07
221.057	14626.72
221.131	14689.62
221.204	14723.95
221.277	14808.16
221.35	14898.97
221.424	14952.72
221.497	15021.65
221.57	15087.55
221.643	15145.48
221.716	15206.8
221.79	15259
221.863	15308.02
221.936	15354.34
222.009	15404.72
222.082	15462.94
222.155	15519.77
222.229	15583.54
222.302	15645.19
222.375	15704.38
222.448	15760.49
222.521	15807.34
222.594	15863.83
222.667	15908.61
222.74	15974.78
222.814	16014.88
222.887	16059.32
222.96	16117.84
223.033	16170.66
223.106	16225.9
223.179	16284.07
223.252	16332.56
223.325	16381.28
223.398	16430.4
223.471	16481.24
223.544	16535.61
223.617	16578.8
223.69	16628.78
223.763	16656.01
223.837	16712.2
223.91	16758.23
223.983	16786.28
224.056	16815.73
224.129	16861.56
224.202	16918.96
224.275	16949.04
224.348	16972.41
224.42	16994.92
224.493	17024.07
224.566	17047.93
224.639	17087.64
224.712	17105.19
224.785	17142.29
224.858	17178.83
224.931	17206.49
225.004	17233.28
225.077	17266.59
225.15	17277.33
225.223	17319.98
225.296	17378.44
225.369	17399.89
225.442	17418.92
225.514	17453.19
225.587	17489
225.66	17518.54
225.733	17555.5
225.806	17591.84
225.879	17626.15
225.952	17654.3
226.025	17695.88
226.097	17749.09
226.17	17791.45
226.243	17809.47
226.316	17843.49
226.389	17875.01
226.461	17913.32
226.534	17947.64
226.607	17983.64
226.68	18042.62
226.753	18066.91
226.825	18078.57
226.898	18119.92
226.971	18152.26
227.044	18198.81
227.117	18237.31
227.189	18267.38
227.262	18294.27
227.335	18324.63
227.407	18356.68
227.48	18386.37
227.553	18410.61
227.626	18427.23
227.698	18447.62
227.771	18483.04
227.844	18493.54
227.916	18523.23
227.989	18531.85
228.062	18542.07
228.134	18581.87
228.207	18593.29
228.28	18611.22
228.352	18627.7
228.425	18641.39
228.498	18673.24
228.57	18677.34
228.643	18704.9
228.716	18724.27
228.788	18737.24
228.861	18749.48
228.934	18783.45
229.006	18808.46
229.079	18827.64
229.151	18836.07
229.224	18841.13
229.296	18869.57
229.369	18917.23
229.442	18948.02
229.514	18967.82
229.587	19012.88
229.659	19020.5
229.732	19044.35
229.804	19068.78
229.877	19112.78
229.949	19151.19
230.022	19186.41
230.094	19196.39
230.167	19210.32
230.239	19209.74
230.312	19219.42
230.384	19258.36
230.457	19273.25
230.529	19289.11
230.602	19303.32
230.674	19330.98
230.747	19358.5
230.819	19386.98
230.892	19371.41
230.964	19391.51
231.037	19403.56
231.109	19416.57
231.181	19427.41
231.254	19430.64
231.326	19439.27
231.399	19448.81
231.471	19449.87
231.544	19439.99
231.616	19475.7
231.688	19496.52
231.761	19515.7
231.833	19527.74
231.905	19518.78
231.978	19523.12
232.05	19525.72
232.122	19542.49
232.195	19536.8
232.267	19556.22
232.339	19547.89
232.412	19575.69
232.484	19568.27
232.556	19574.1
232.629	19593.23
232.701	19607.5
232.773	19612.89
232.846	19614.73
232.918	19607.98
232.99	19617.95
233.062	19627.4
233.135	19629.86
233.207	19613.18
233.279	19618.15
233.351	19627.83
233.424	19627.88
233.496	19617.28
233.568	19645.37
233.64	19627.06
233.713	19633.09
233.785	19620.89
233.857	19623.93
233.929	19611.35
234.001	19624.56
234.074	19637.42
234.146	19606.97
234.218	19592.61
234.29	19586.63
234.362	19574.49
234.434	19551.84
234.507	19527.98
234.579	19500.66
234.651	19483.94
234.723	19485.53
234.795	19485.34
234.867	19479.41
234.939	19482.15
235.012	19479.84
235.084	19461.77
235.156	19469.29
235.228	19446.06
235.3	19435.65
235.372	19430.25
235.444	19422.59
235.516	19388.81
235.588	19382.93
235.66	19377.44
235.732	19367.8
235.804	19411.46
235.876	19420.81
235.948	19434.06
236.02	19414.79
236.092	19408.91
236.164	19395.27
236.236	19377.05
236.308	19352.86
236.38	19336.09
236.452	19318.74
236.524	19310.74
236.596	19310.31
236.668	19291.76
236.74	19280.58
236.812	19260.82
236.884	19245.01
236.956	19229.98
237.028	19213.93
237.1	19174.9
237.172	19167.62
237.244	19160.15
237.316	19104.06
237.388	19067.53
237.46	19041.27
237.532	19041.75
237.604	19015.68
237.675	19014.09
237.747	19007.49
237.819	18993.7
237.891	18970.86
237.963	18934
238.035	18902.87
238.107	18843.83
238.178	18838.82
238.25	18816.08
238.322	18823.88
238.394	18790.1
238.466	18761.43
238.538	18740.22
238.609	18737.14
238.681	18693.05
238.753	18666.83
238.825	18645.58
238.897	18622.06
238.968	18618.21
239.04	18586.45
239.112	18591.41
239.184	18559.56
239.255	18530.36
239.327	18500.14
239.399	18483.52
239.471	18472.67
239.542	18457.06
239.614	18455.81
239.686	18405.06
239.758	18397.02
239.829	18363.62
239.901	18350.85
239.973	18325.45
240.044	18305.84
240.116	18278.13
240.188	18258.47
240.259	18218.33
240.331	18185.65
240.403	18172.83
240.474	18118.19
240.546	18083.49
240.618	18034
240.689	17999.68
240.761	17973.08
240.833	17972.6
240.904	17934.19
240.976	17902.24
241.048	17880.7
241.119	17856.41
241.191	17835.45
241.262	17819.45
241.334	17781.62
241.405	17751.93
241.477	17732.85
241.549	17699.11
241.62	17664.42
241.692	17647.21
241.763	17638.34
241.835	17613.67
241.906	17588.22
241.978	17546.83
242.049	17532.71
242.121	17522.15
242.192	17497.33
242.264	17457.14
242.335	17403.69
242.407	17389.72
242.478	17360.66
242.55	17328.9
242.621	17285.72
242.693	17249.62
242.764	17208.95
242.836	17172.22
242.907	17148.13
242.979	17107.79
243.05	17083.45
243.122	17065.13
243.193	17028.12
243.264	16969.71
243.336	16939.97
243.407	16915.4
243.479	16915.68
243.55	16893.32
243.622	16862.29
243.693	16833.61
243.764	16820.26
243.836	16781.22
243.907	16741.84
243.978	16707.34
244.05	16683.72
244.121	16642.7
244.192	16629.45
244.264	16585.21
244.335	16553.49
244.407	16504.14
244.478	16476.67
244.549	16436.04
244.62	16388.66
244.692	16356.51
244.763	16339.93
244.834	16299.21
244.906	16252.84
244.977	16215.92
245.048	16201.12
245.119	16169.22
245.191	16139.72
245.262	16080.87
245.333	16068
245.405	16040.77
245.476	16016.28
245.547	15989.63
245.618	15970.3
245.689	15929.48
245.761	15910.2
245.832	15883.11
245.903	15867.35
245.974	15844.07
246.045	15813.99
246.117	15799.63
246.188	15757.26
246.259	15717.2
246.33	15688.72
246.401	15659.07
246.473	15617.09
246.544	15562.29
246.615	15537.61
246.686	15502.09
246.757	15491.43
246.828	15449.45
246.899	15430.07
246.97	15375.85
247.042	15329.14
247.113	15310.77
247.184	15295.69
247.255	15257.75
247.326	15227.72
247.397	15188.68
247.468	15164.91
247.539	15147.22
247.61	15101.43
247.681	15080.95
247.752	15067.4
247.823	15023.05
247.894	15005.99
247.965	14970.08
248.037	14944.82
248.108	14895.94
248.179	14865.72
248.25	14833.03
248.321	14815.3
248.392	14774.08
248.463	14783.24
248.534	14752.97
248.605	14731.08
248.675	14705.83
248.746	14681.58
248.817	14662.2
248.888	14639.3
248.959	14590.86
249.03	14556.25
249.101	14531.61
249.172	14502.21
249.243	14449.04
249.314	14443.3
249.385	14410.96
249.456	14401.36
249.527	14372.15
249.598	14349.3
249.669	14315.75
249.739	14291.6
249.81	14265.47
249.881	14234.28
249.952	14197.55
250.023	14178.6
250.094	14136.76
250.165	14106.44
250.235	14073.32
250.306	14040.88
250.377	14002.08
250.448	13980.33
250.519	13938.06
250.59	13927.11
250.66	13901.85
250.731	13897.32
250.802	13864.54
250.873	13844.54
250.944	13812.05
251.014	13783.56
251.085	13791.85
251.156	13775.7
251.227	13761.28
251.297	13748.03
251.368	13730.62
251.439	13707.73
251.51	13689.5
251.58	13652.24
251.651	13611.65
251.722	13604.03
251.792	13568.31
251.863	13550.33
251.934	13538.47
252.005	13542.52
252.075	13513.21
252.146	13493.98
252.217	13481.11
252.287	13465.3
252.358	13441.29
252.429	13434.97
252.499	13396.94
252.57	13363.72
252.641	13349.41
252.711	13327.71
252.782	13290.31
252.852	13283.85
252.923	13263.89
252.994	13244.17
253.064	13236.17
253.135	13205.7
253.205	13172.34
253.276	13170.66
253.347	13160.53
253.417	13135.27
253.488	13114.26
253.558	13095.7
253.629	13073.33
253.699	13052.17
253.77	13042.09
253.841	13012.11
253.911	12996.2
253.982	12983.18
254.052	12964.77
254.123	12938.06
254.193	12915.36
254.264	12926.54
254.334	12899.35
254.405	12867.92
254.475	12836.11
254.546	12816.92
254.616	12810.94
254.687	12799.33
254.757	12782.5
254.827	12756.95
254.898	12746.49
254.968	12720.32
255.039	12692.94
255.109	12676.26
255.18	12637.94
255.25	12588.91
255.321	12574.26
255.391	12529.81
255.461	12525.04
255.532	12482.52
255.602	12467.05
255.673	12423.33
255.743	12394.79
255.813	12346.83
255.884	12337.82
255.954	12320.51
256.024	12315.45
256.095	12296.65
256.165	12260.35
256.235	12239.77
256.306	12213.11
256.376	12193.83
256.446	12183.76
256.517	12167.71
256.587	12160.28
256.657	12147.9
256.728	12138.35
256.798	12122.25
256.868	12098.49
256.938	12069.62
257.009	12062.19
257.079	12042.62
257.149	12051.59
257.219	12008.16
257.29	11992.73
257.36	11954.46
257.43	11944.49
257.5	11897.01
257.571	11875.9
257.641	11865.63
257.711	11830.11
257.781	11822.06
257.852	11797.72
257.922	11759.83
257.992	11736.65
258.062	11715.34
258.132	11707.92
258.202	11687.34
258.273	11663.96
258.343	11666.23
258.413	11639.91
258.483	11617.69
258.553	11592.44
258.623	11565.83
258.693	11549.01
258.764	11558.99
258.834	11553.06
258.904	11528.24
258.974	11505.68
259.044	11478.26
259.114	11464.23
259.184	11452.23
259.254	11426.21
259.324	11397.58
259.394	11381.72
259.464	11377.96
259.535	11346.2
259.605	11318.63
259.675	11291.07
259.745	11269.43
259.815	11240.56
259.885	11220.9
259.955	11233.14
260.025	11203.36
260.095	11184.9
260.165	11179.65
260.235	11172.08
260.305	11145.86
260.375	11125.14
260.445	11131.94
260.515	11132.51
260.585	11128.47
260.655	11108.95
260.725	11108.18
260.795	11100.8
260.865	11103.41
260.934	11074.68
261.004	11076.23
261.074	11059.89
261.144	11055.55
261.214	11055.79
261.284	11034.21
261.354	11027.8
261.424	10999.89
261.494	11011.07
261.564	10990.2
261.634	10980.47
261.703	10937.44
261.773	10936.33
261.843	10920.09
261.913	10895.75
261.983	10860.67
262.053	10850.84
262.123	10831.52
262.192	10792.73
262.262	10784.64
262.332	10755.39
262.402	10752.88
262.472	10731
262.541	10699.3
262.611	10694.29
262.681	10670.87
262.751	10668.27
262.821	10654.34
262.89	10621.38
262.96	10602.16
263.03	10617.48
263.1	10600.9
263.169	10588.81
263.239	10567.66
263.309	10573.83
263.379	10572.28
263.448	10561.06
263.518	10541.74
263.588	10528.39
263.657	10532.05
263.727	10521.11
263.797	10505.79
263.867	10485.6
263.936	10462.33
264.006	10459.83
264.076	10446.53
264.145	10427.36
264.215	10407.94
264.285	10399.94
264.354	10370.65
264.424	10347.24
264.494	10303.29
264.563	10283.11
264.633	10285.47
264.702	10281.95
264.772	10248.61
264.842	10228.86
264.911	10221.1
264.981	10192.48
265.05	10180.1
265.12	10163.24
265.19	10155.39
265.259	10151.44
265.329	10144.02
265.398	10131.74
265.468	10140.26
265.537	10120.9
265.607	10116.37
265.676	10107.36
265.746	10093.49
265.815	10093.73
265.885	10082.5
265.955	10064.78
266.024	10046.28
266.094	10010.78
266.163	10010.2
266.232	10010.83
266.302	9985.78
266.371	9980.67
266.441	9971.23
266.51	9964.25
266.58	9945.66
266.649	9919.35
266.719	9911.45
266.788	9907.21
266.858	9913.19
266.927	9877.16
266.996	9864.68
267.066	9853.36
267.135	9830.72
267.205	9825.14
267.274	9807.46
267.343	9806.3
267.413	9793.2
267.482	9790.65
267.552	9800.38
267.621	9771.48
267.69	9739.31
267.76	9737.33
267.829	9724.28
267.898	9717.44
267.968	9699.24
268.037	9694.42
268.106	9692.35
268.176	9669.52
268.245	9650.2
268.314	9629.93
268.384	9630.55
268.453	9616.01
268.522	9604.69
268.592	9605.94
268.661	9587.16
268.73	9582.97
268.799	9561.64
268.869	9577.14
268.938	9552.97
269.007	9529.66
269.076	9512.76
269.146	9514.92
269.215	9508.42
269.284	9512.9
269.353	9493.98
269.422	9480.49
269.492	9471.39
269.561	9429.88
269.63	9428.73
269.699	9413.46
269.768	9405.9
269.838	9396.66
269.907	9395.74
269.976	9372.15
270.045	9342
270.114	9340.22
270.183	9328.81
270.253	9326.4
270.322	9286.29
270.391	9279.74
270.46	9284.94
270.529	9288.56
270.598	9287.5
270.667	9272.14
270.736	9249.94
270.806	9243.77
270.875	9248.06
270.944	9235.44
271.013	9256.96
271.082	9243.92
271.151	9237.51
271.22	9206.12
271.289	9198.61
271.358	9181.42
271.427	9178.73
271.496	9168.86
271.565	9149.21
271.634	9141.89
271.703	9136.65
271.772	9142.04
271.841	9125.33
271.91	9097.7
271.979	9089.42
272.048	9065.78
272.117	9064.62
272.186	9048.54
272.255	9047.77
272.324	9046.28
272.393	9039.73
272.462	9026.83
272.531	9018.3
272.6	9005.21
272.669	9014.11
272.738	9002.95
272.807	9004.1
272.876	8987.01
272.945	9015.9
273.013	9018.83
273.082	9017.01
273.151	9002.32
273.22	9001.46
273.289	8996.59
273.358	9009.54
273.427	8998.76
273.496	8996.45
273.564	8993.47
273.633	8993.71
273.702	8971.08
273.771	8959.67
273.84	8950.04
273.909	8942.2
273.977	8939.65
274.046	8929.97
274.115	8934.4
274.184	8912.45
274.253	8902.63
274.322	8912.11
274.39	8880.53
274.459	8865.13
274.528	8836.73
274.597	8825.47
274.665	8818.58
274.734	8828.84
274.803	8813.77
274.872	8805.44
274.94	8787.68
275.009	8842.87
275.078	8829.25
275.147	8831.8
275.215	8818.32
275.284	8824.87
275.353	8814.67
275.421	8792.28
275.49	8805.09
275.559	8789.59
275.627	8785.79
275.696	8776.93
275.765	8768.31
275.833	8758.79
275.902	8751.18
275.971	8764.99
276.039	8781.07
276.108	8780.01
276.177	8771.35
276.245	8765.23
276.314	8757.92
276.383	8768.17
276.451	8702.05
276.52	8709.42
276.588	8715.82
276.657	8724.43
276.725	8715
276.794	8718.18
276.863	8728.72
276.931	8707.63
277	8712.54
277.068	8720.15
277.137	8736.13
277.205	8732.61
277.274	8749.75
277.342	8771.26
277.411	8750.43
277.48	8735.99
277.548	8729.34
277.617	8734.88
277.685	8724.29
277.754	8729.44
277.822	8723.28
277.89	8739.12
277.959	8726.89
278.027	8710.96
278.096	8702.92
278.164	8727.62
278.233	8719.1
278.301	8708.75
278.37	8715.4
278.438	8701.97
278.507	8705.67
278.575	8681.42
278.643	8679.92
278.712	8659.85
278.78	8639.11
278.849	8653.21
278.917	8662.35
278.985	8657.64
279.054	8653.3
279.122	8669.23
279.191	8663.27
279.259	8659.9
279.327	8637.56
279.396	8653.01
279.464	8652.39
279.532	8658.93
279.601	8654.65
279.669	8656.14
279.737	8668.75
279.806	8667.64
279.874	8681.55
279.942	8682.18
280.011	8677.17
280.079	8689.83
280.147	8705.04
280.215	8706.96
280.284	8701.28
280.352	8684.58
280.42	8689.35
280.488	8684.68
280.557	8670.19
280.625	8676.84
280.693	8674.48
280.761	8672.89
280.83	8654.41
280.898	8662.69
280.966	8632.95
281.034	8598.96
281.102	8577.89
281.171	8566.53
281.239	8577.75
281.307	8567.06
281.375	8550.75
281.443	8580.11
281.512	8568.75
281.58	8571.73
281.648	8560.42
281.716	8556.91
281.784	8560.18
281.852	8553.78
281.92	8550.8
281.989	8569.38
282.057	8550.51
282.125	8600.24
282.193	8599.23
282.261	8607.36
282.329	8602.55
282.397	8618.28
282.465	8624.97
282.533	8646.53
282.601	8642.06
282.67	8620.73
282.738	8612.02
282.806	8629.44
282.874	8608.79
282.942	8611.73
283.01	8607.59
283.078	8615.77
283.146	8614.62
283.214	8622.03
283.282	8622.46
283.35	8628.29
283.418	8620.2
283.486	8628.14
283.554	8578.02
283.622	8579.52
283.69	8568.26
283.758	8560.36
283.826	8563.35
283.894	8570.66
283.962	8584.19
284.03	8595.06
284.098	8592.47
284.165	8588.57
284.233	8584.57
284.301	8577.84
284.369	8570.76
284.437	8562.82
284.505	8551.66
284.573	8565.47
284.641	8555.75
284.709	8562.87
284.777	8552.19
284.845	8551.17
284.912	8555.75
284.98	8562.82
285.048	8555.94
285.116	8563.01
285.184	8575.91
285.252	8569.12
285.319	8554.83
285.387	8545.25
285.455	8530.77
285.523	8545.45
285.591	8537.65
285.659	8539.58
285.726	8554.11
285.794	8543.91
285.862	8541.65
285.93	8542.75
285.997	8539.34
286.065	8534.19
286.133	8523.94
286.201	8521.44
286.269	8512.24
286.336	8501.27
286.404	8492.47
286.472	8499.92
286.539	8479.48
286.607	8466.58
286.675	8471.25
286.743	8478.03
286.81	8475.53
286.878	8490.73
286.946	8472.35
287.013	8484.14
287.081	8480.87
287.149	8465.23
287.216	8481.73
287.284	8479.13
287.352	8482.12
287.419	8476.2
287.487	8492.51
287.555	8496.27
287.622	8490.64
287.69	8497.42
287.758	8522.88
287.825	8521.58
287.893	8510.9
287.96	8518.26
288.028	8524.51
288.096	8525.43
288.163	8525.91
288.231	8515.9
288.298	8506.85
288.366	8525.62
288.433	8517.15
288.501	8507.53
288.569	8513.01
288.636	8508.44
288.704	8517.59
288.771	8521.05
288.839	8516.09
288.906	8501.56
288.974	8512.82
289.041	8514.94
289.109	8506.76
289.176	8501.13
289.244	8502.04
289.311	8516.96
289.379	8526.01
289.446	8530.19
289.514	8531.06
289.581	8533.42
289.649	8530.05
289.716	8537.94
289.783	8527.31
289.851	8543.67
289.918	8545.16
289.986	8550.93
290.053	8554.11
290.121	8553.05
290.188	8560.99
290.255	8590.64
290.323	8589.1
290.39	8581.25
290.458	8583.03
290.525	8592.22
290.592	8590.54
290.66	8592.42
290.727	8587.75
290.794	8605.31
290.862	8606.37
290.929	8610.8
290.996	8611.38
291.064	8623.84
291.131	8632.6
291.198	8648.82
291.266	8645.16
291.333	8648.15
291.4	8662.49
291.468	8676.4
291.535	8680.88
291.602	8684.1
291.669	8671.54
291.737	8673.51
291.804	8677.46
291.871	8697.43
291.938	8705.57
292.006	8727.13
292.073	8744.12
292.14	8752.69
292.207	8744.07
292.275	8749.66
292.342	8761.4
292.409	8787.54
292.476	8813.34
292.543	8806.36
292.611	8805.69
292.678	8828.07
292.745	8857.43
292.812	8860.51
292.879	8856.71
292.946	8859.21
293.014	8870.72
293.081	8883.95
293.148	8901.76
293.215	8914.28
293.282	8904.51
293.349	8913.65
293.416	8901.66
293.484	8908.79
293.551	8917.36
293.618	8933.1
293.685	8957.22
293.752	8949.37
293.819	8942.29
293.886	8922.65
293.953	8927.42
294.02	8931.46
294.087	8938.49
294.154	8929.53
294.221	8946.82
294.288	8947.01
294.356	8962.22
294.423	8968.39
294.49	8964.58
294.557	8979.17
294.624	8967.81
294.691	8991.44
294.758	8991.78
294.825	8995.87
294.892	8990.53
294.959	8992.74
295.026	8996.5
295.093	8987.01
295.16	8983.02
295.226	8987.74
295.293	9013.64
295.36	9024.95
295.427	9040.79
295.494	9053.84
295.561	9060.63
295.628	9081.58
295.695	9099.44
295.762	9096.84
295.829	9111.28
295.896	9122.84
295.963	9128.52
296.03	9144.02
296.096	9149.84
296.163	9160.39
296.23	9177.62
296.297	9193.9
296.364	9190.53
296.431	9197.99
296.498	9195.15
296.564	9220.33
296.631	9224.51
296.698	9215.51
296.765	9232.89
296.832	9217.77
296.899	9202.41
296.965	9218.69
297.032	9198.56
297.099	9214.06
297.166	9228.17
297.233	9217.24
297.299	9213.34
297.366	9209.3
297.433	9214.21
297.5	9223.21
297.566	9228.99
297.633	9225.28
297.7	9227.79
297.767	9234.57
297.833	9247.72
297.9	9249.55
297.967	9243.15
298.033	9254.36
298.1	9288.75
298.167	9281.43
298.234	9293.9
298.3	9305.7
298.367	9301.12
298.434	9309.69
298.5	9298.04
298.567	9294.96
298.634	9299.68
298.7	9317.11
298.767	9329.72
298.834	9345.13
298.9	9344.12
298.967	9330.83
299.033	9343.78
299.1	9357.41
299.167	9371.18
299.233	9361.5
299.3	9373.73
299.366	9383.84
299.433	9399.54
299.5	9365.26
299.566	9373.73
299.633	9388.9
299.699	9397.33
299.766	9393.09
299.832	9395.02
299.899	9410.43
299.965	9416.59
300.032	9413.07
300.099	9411.58
300.165	9409.9
300.232	9401.76
300.298	9400.84
300.365	9421.35
300.431	9418.13
300.498	9413.12
300.564	9418.51
300.631	9429.01
300.697	9452.51
300.763	9458.72
300.83	9453.62
300.896	9472.93
300.963	9479.24
301.029	9484.73
301.096	9488.34
301.162	9504.81
301.229	9501.63
301.295	9486.65
301.361	9496.67
301.428	9498.93
301.494	9494.55
301.561	9502.83
301.627	9503.17
301.693	9510.88
301.76	9516.94
301.826	9515.35
301.892	9525.03
301.959	9526.72
302.025	9524.89
302.092	9511.02
302.158	9512.95
302.224	9516.75
302.291	9505.14
302.357	9499.08
302.423	9492.48
302.49	9487.18
302.556	9492
302.622	9488.15
302.688	9494.79
302.755	9506.06
302.821	9517.38
302.887	9527.2
302.954	9523.88
303.02	9529.13
303.086	9532.35
303.152	9527.83
303.219	9521.66
303.285	9524.6
303.351	9539.63
303.417	9542.18
303.483	9535.97
303.55	9533.61
303.616	9532.02
303.682	9530.19
303.748	9527.73
303.815	9540.59
303.881	9550.61
303.947	9540.45
304.013	9544.49
304.079	9545.36
304.145	9525.23
304.212	9523.21
304.278	9515.07
304.344	9513.43
304.41	9505.53
304.476	9489.74
304.542	9474.81
304.608	9477.17
304.674	9464.17
304.741	9453.09
304.807	9456.27
304.873	9462.19
304.939	9475.34
305.005	9455.5
305.071	9450.15
305.137	9449.33
305.203	9424
305.269	9420.82
305.335	9429.83
305.401	9429.78
305.467	9421.55
305.533	9424.63
305.599	9431.42
305.666	9433.11
305.732	9430.6
305.798	9445.39
305.864	9475.44
305.93	9485.4
305.996	9487.76
306.062	9486.99
306.128	9485.6
306.194	9473.89
306.259	9471.54
306.325	9456.22
306.391	9469.94
306.457	9487.95
306.523	9490.55
306.589	9512.27
306.655	9497.44
306.721	9481.31
306.787	9463.25
306.853	9483.72
306.919	9474.14
306.985	9462.87
307.051	9457.47
307.117	9455.6
307.183	9443.8
307.248	9411.72
307.314	9417.26
307.38	9427.81
307.446	9434.07
307.512	9425.98
307.578	9429.06
307.644	9421.69
307.709	9426.6
307.775	9419.09
307.841	9409.8
307.907	9410.28
307.973	9389.04
308.039	9393.42
308.104	9396.75
308.17	9399.78
308.236	9379.12
308.302	9381.24
308.368	9372.33
308.433	9374.98
308.499	9364.15
308.565	9355.62
308.631	9362.12
308.696	9339.44
308.762	9324.18
308.828	9317.63
308.894	9296.64
308.959	9272.52
309.025	9263.85
309.091	9255.37
309.156	9247.14
309.222	9252.44
309.288	9235.34
309.354	9219.12
309.419	9211.66
309.485	9202.89
309.551	9209.34
309.616	9194.95
309.682	9186.33
309.748	9177.13
309.813	9171.65
309.879	9160.28
309.945	9150.61
310.01	9142.33
310.076	9139.77
310.141	9132.45
310.207	9120.42
310.273	9120.66
310.338	9130.58
310.404	9118.2
310.469	9107.37
310.535	9098.61
310.601	9072.8
310.666	9080.55
310.732	9085.75
310.797	9075.59
310.863	9063.36
310.928	9054.31
310.994	9061.49
311.059	9051.95
311.125	9046.08
311.191	9061.01
311.256	9061.49
311.322	9069.19
311.387	9054.89
311.453	9470.56
311.518	9442.6
311.584	9440.48
311.649	9448.47
311.715	9431.86
311.78	9428.49
311.846	9421.95
311.911	9422.72
311.976	9426.62
312.042	9405.72
312.107	9393.5
312.173	9389.93
312.238	9386.85
312.304	9379.39
312.369	9368.8
312.434	9369.38
312.5	9368.65
312.565	9331.1
312.631	9333.75
312.696	9319.79
312.761	9311.61
312.827	8892.18
312.892	8934.83
312.958	8932.57
313.023	8924.48
313.088	8928.14
313.154	8919.19
313.219	8910.38
313.284	8903.88
313.35	8900.13
313.415	8893.77
313.48	8896.95
313.546	8897.82
313.611	8905.37
313.676	8900.13
313.741	8886.55
313.807	8889.97
313.872	8887.85
313.937	8891.37
314.003	8903.07
314.068	8905.86
314.133	8922.46
314.198	8913.08
314.264	8889.24
314.329	8875.77
314.394	8879.18
314.459	8875.67
314.525	8893.24
314.59	8887.32
314.655	8875.14
314.72	8877.11
314.785	8883.85
314.851	8870.71
314.916	8846.79
314.981	8833.65
315.046	8826.96
315.111	8823.4
315.176	8808.48
315.242	8816.56
315.307	8814.45
315.372	8789.8
315.437	8781.38
315.502	8766.89
315.567	8771.12
315.632	8755.57
315.698	8758.41
315.763	8747.01
315.828	8733.58
315.893	8731.89
315.958	8729.63
316.023	8721.55
316.088	8700.99
316.153	8677.7
316.218	8669.14
316.283	8660.81
316.348	8642.72
316.413	8638
316.479	8623.23
316.544	8595.75
316.609	8558.12
316.674	8524.92
316.739	8486.96
316.804	8452.99
316.869	8414.3
316.934	8380.13
316.999	8349.34
317.064	8295.5
317.129	8253.16
317.194	8221.6
317.259	8165.16
317.324	8116.49
317.389	8077.23
317.454	8038.27
317.518	8004.79
317.583	7978
317.648	7951.5
317.713	7913.02
317.778	7854.91
317.843	7823.75
317.908	7789.07
317.973	7761.04
318.038	7730.98
318.103	7699.73
318.168	7667.56
318.233	7639.91
318.297	7589.67
318.362	7555.34
318.427	7522.18
318.492	7496.5
318.557	7446.08
318.622	7422.43
318.687	7398.83
318.751	7359.95
318.816	7325.63
318.881	7286.75
318.946	7231.34
319.011	7186.64
319.075	7146.76
319.14	7109.33
319.205	7063.88
319.27	7023.66
319.335	6969.28
319.399	6928.82
319.464	6898.08
319.529	6845.48
319.594	6804.74
319.658	6775.44
319.723	6730.53
319.788	6700.52
319.853	6647.15
319.917	6620.6
319.982	6566.72
320.047	6531.18
320.112	6499.68
320.176	6452.24
320.241	6421.81
320.306	6397.28
320.37	6355.56
320.435	6325.85
320.5	6300.02
320.564	6261.34
320.629	6215.28
320.694	6190.85
320.758	6151.35
320.823	6104.52
320.888	6083.08
320.952	6035.72
321.017	5994.94
321.082	5953.45
321.146	5916.36
321.211	5882.11
321.275	5839.81
321.34	5798.48
321.405	5750.33
321.469	5706.88
321.534	5664.69
321.598	5615.26
321.663	5583.32
321.727	5552.2
321.792	5501.05
321.857	5453.59
321.921	5415.96
321.986	5383.38
322.05	5324.1
322.115	5287.06
322.179	5247.39
322.244	5190.76
322.308	5163.93
322.373	5117.75
322.437	5077.56
322.502	5052.64
322.566	5006.81
322.631	4973.33
322.695	4931.77
322.76	4893.61
322.824	4856.55
322.889	4819.65
322.953	4777.67
323.018	4712
323.082	4651.08
323.146	4599.84
323.211	4551.84
323.275	4508.96
323.34	4460.41
323.404	4427.89
323.468	4379.9
323.533	4339.3
323.597	4291.49
323.662	4234.96
323.726	4196.56
323.79	4152.67
323.855	4087.81
323.919	4042.16
323.983	3996.5
324.048	3935.12
324.112	4070.14
324.177	3943.03
324.241	3735.84
324.305	3534.43
324.37	3339.81
324.434	3149.63
324.498	3110.27
324.562	3058.84
324.627	2998.68
324.691	2945.92
324.755	2879.34
324.82	2806.76
324.884	2726.33
324.948	2658.67
325.012	2566.37
325.077	2450.26
