Data from 20250702_urea_0.5M_MAYP1162681_18-35-00-189.txt Node
Date: Wed Jul 02 18:35:00 BST 2025
User: adleo
Spectrometer: MAYP116268
Trigger mode: 0
Integration Time (sec): 1.000000E0
Scans to average: 1
Electric dark correction enabled: true
Nonlinearity correction enabled: true
Boxcar width: 10
XAxis mode: Wavelengths
Number of Pixels in Spectrum: 2068
>>>>>Begin Spectral Data<<<<<
179.565	1143.8
179.642	1194.18
179.718	1236.57
179.795	1270.63
179.871	1299.21
179.948	1314
180.024	1331.68
180.101	1352.61
180.177	1367.5
180.254	1387.88
180.33	1410.75
180.407	1460.83
180.483	1550.62
180.56	1634.24
180.636	1714.61
180.712	1700.83
180.789	1711.19
180.865	1722.3
180.942	1729.81
181.018	1742.02
181.095	1753.05
181.171	1756.04
181.248	1758.56
181.324	1771.58
181.4	1781.09
181.477	1793.92
181.553	1806.42
181.63	1826.43
181.706	1842.26
181.782	1846.63
181.859	1847.15
181.935	1850.57
182.011	1845.39
182.088	1859.7
182.164	1878.1
182.24	1887.08
182.317	1896.16
182.393	1893.12
182.469	1906.9
182.546	1916.98
182.622	1921.4
182.698	1916.51
182.775	1929.44
182.851	1941.37
182.927	1934.57
183.003	1928.92
183.08	1921.45
183.156	1932.58
183.232	1929.06
183.308	1916.84
183.385	1927.25
183.461	1944.7
183.537	1946.84
183.613	1958.87
183.69	1956.59
183.766	1946.55
183.842	1956.01
183.918	1961.34
183.995	1974.13
184.071	1976.84
184.147	1972.84
184.223	1962.58
184.299	1975.18
184.375	1964.2
184.452	1970.47
184.528	2023.22
184.604	2032.97
184.68	2045.19
184.756	2052.37
184.832	2057.03
184.908	2062.02
184.985	2062.31
185.061	2046.04
185.137	2055.32
185.213	2043.91
185.289	2042.96
185.365	2036.35
185.441	2033.69
185.517	2046.86
185.593	2043.15
185.669	2041.39
185.745	2051.71
185.822	2068.4
185.898	2060.22
185.974	2069.92
186.05	2062.69
186.126	2022.54
186.202	2017.07
186.278	2013.93
186.354	2004.47
186.43	2013.17
186.506	2012.18
186.582	2010.32
186.658	2017.98
186.734	1997.2
186.81	2000.86
186.886	2000.91
186.962	2011.56
187.038	2007.89
187.114	1998.66
187.19	2006.46
187.266	1996.58
187.341	1996.58
187.417	1985.69
187.493	1986.26
187.569	1984.78
187.645	1977.22
187.721	1968.52
187.797	1975.37
187.873	1977.79
187.949	1972.33
188.025	1965.33
188.101	1966.33
188.176	1971.42
188.252	1966.9
188.328	1975.55
188.404	1973.79
188.48	1972.56
188.556	1966.76
188.632	1967.99
188.707	1972.8
188.783	1965.9
188.859	1961.81
188.935	1952.49
189.011	1963.57
189.086	1956.82
189.162	1949.97
189.238	1950.64
189.314	1948.69
189.39	1941.08
189.465	1936.61
189.541	1951.69
189.617	1935.52
189.693	1930.82
189.768	1935
189.844	1958.6
189.92	1948.61
189.996	1956.6
190.071	1963.16
190.147	1964.92
190.223	1974.34
190.298	1964.54
190.374	1956.37
190.45	1966.35
190.526	1974.1
190.601	1968.68
190.677	1970.91
190.753	1997.7
190.828	1998.88
190.904	2015.25
190.98	2032.8
191.055	2044.02
191.131	2035.17
191.207	2055.57
191.282	2064.32
191.358	2054.52
191.433	2040.49
191.509	2051.42
191.585	2053.22
191.66	2056.17
191.736	2062.12
191.811	2050.56
191.887	2064.12
191.963	2086.38
192.038	2094.03
192.114	2094.7
192.189	2097.98
192.265	2095.51
192.34	2075.86
192.416	2077.43
192.491	2069.81
192.567	2070.77
192.642	2072.34
192.718	2075.09
192.793	2064.2
192.869	2063.97
192.944	2066.39
193.02	2072.48
193.095	2078.47
193.171	2079.52
193.246	2079.95
193.322	2077.47
193.397	2078.09
193.473	2066.48
193.548	2049.41
193.624	2054.78
193.699	2052.88
193.775	2067.96
193.85	2068.77
193.925	2077.66
194.001	2074
194.076	2068.77
194.152	2058.12
194.227	2049.7
194.302	2037.48
194.378	2043.33
194.453	2039.38
194.529	2050.7
194.604	2036.77
194.679	2029.16
194.755	2011.09
194.83	2020.47
194.905	2017.99
194.981	2027.5
195.056	2022.61
195.131	2028.84
195.207	2026.93
195.282	2016.33
195.357	1997.02
195.433	2011.33
195.508	1999.87
195.583	2010.23
195.659	2023.41
195.734	2032.26
195.809	2031.54
195.884	2040.2
195.96	2038.39
196.035	2052.8
196.11	2050.37
196.185	2060.07
196.261	2066.35
196.336	2098.12
196.411	2082.61
196.486	2088.65
196.561	2083.75
196.637	2089.65
196.712	2103.35
196.787	2106.35
196.862	2123.37
196.937	2135.17
197.013	2140.69
197.088	2148.77
197.163	2168.05
197.238	2182.28
197.313	2180.66
197.388	2193.46
197.464	2222.25
197.539	2232.72
197.614	2225.49
197.689	2234.62
197.764	2251.33
197.839	2269.27
197.914	2260.56
197.989	2286.87
198.065	2299.58
198.14	2347.68
198.215	2373.42
198.29	2385.8
198.365	2397.94
198.44	2406.03
198.515	2433.46
198.59	2448.22
198.665	2476.35
198.74	2484.31
198.815	2487.36
198.89	2509.45
198.965	2539.69
199.04	2537.12
199.115	2554.74
199.19	2598.97
199.265	2601.64
199.34	2612.88
199.415	2647.76
199.49	2670.8
199.565	2677.66
199.64	2701.67
199.715	2698.05
199.79	2704.81
199.865	2709.81
199.94	2707.1
200.015	2744.27
200.09	2746.55
200.165	2753.6
200.24	2759.18
200.315	2799.57
200.39	2811.63
200.464	2817.01
200.539	2816.25
200.614	2831.73
200.689	2848.32
200.764	2851.42
200.839	2873.04
200.914	2875.71
200.989	2862.07
201.063	2876.37
201.138	2858.27
201.213	2855.56
201.288	2839.07
201.363	2846.41
201.438	2847.5
201.512	2865.13
201.587	2842.53
201.662	2847.59
201.737	2859.22
201.812	2866.41
201.886	2832.36
201.961	2841.8
202.036	2828.51
202.111	2826.84
202.186	2799.6
202.26	2784.87
202.335	2767.43
202.41	2757.61
202.485	2740.56
202.559	2723.46
202.634	2695.92
202.709	2706.97
202.784	2689.39
202.858	2689.01
202.933	2670.81
203.008	2665.81
203.082	2644.76
203.157	2645.47
203.232	2604.28
203.306	2582.84
203.381	2550.59
203.456	2528.3
203.53	2506.9
203.605	2489.29
203.68	2464.76
203.754	2458.1
203.829	2446.15
203.904	2422.49
203.978	2413.39
204.053	2418.72
204.127	2406.68
204.202	2407.16
204.277	2391.31
204.351	2384.97
204.426	2375.69
204.5	2366.93
204.575	2333.47
204.65	2345.28
204.724	2336.66
204.799	2346.94
204.873	2342.84
204.948	2343.65
205.022	2332.61
205.097	2327.33
205.171	2343.46
205.246	2349.79
205.32	2347.46
205.395	2346.13
205.469	2338.37
205.544	2341.95
205.618	2329.76
205.693	2341.99
205.767	2326.96
205.842	2345.05
205.916	2340.48
205.991	2335.1
206.065	2339.57
206.14	2354.94
206.214	2350.08
206.289	2344.22
206.363	2354.79
206.438	2359.74
206.512	2366.41
206.586	2386.92
206.661	2393.16
206.735	2370.7
206.81	2376.27
206.884	2392.69
206.958	2380.13
207.033	2398.25
207.107	2409.83
207.181	2438.69
207.256	2435.88
207.33	2460.63
207.405	2477.45
207.479	2498.83
207.553	2508.73
207.628	2499.5
207.702	2515.02
207.776	2514.02
207.851	2526.21
207.925	2550.7
207.999	2552.89
208.073	2556.99
208.148	2568.75
208.222	2568.71
208.296	2611.22
208.371	2639.77
208.445	2663.26
208.519	2708.61
208.593	2738.05
208.668	2748.92
208.742	2770.28
208.816	2789.53
208.89	2821.37
208.965	2840.07
209.039	2872.25
209.113	2912.82
209.187	2965.57
209.261	2992.45
209.336	3044.14
209.41	3094.27
209.484	3125.96
209.558	3188.41
209.632	3247.32
209.707	3297.18
209.781	3363.03
209.855	3427.72
209.929	3492.23
210.003	3552.82
210.077	3608.93
210.151	3711.27
210.226	3804.07
210.3	3890.61
210.374	3983.58
210.448	4059.05
210.522	4147.19
210.596	4235.08
210.67	4324.55
210.744	4446.38
210.818	4561.74
210.892	4664.35
210.966	4749.71
211.041	4861.16
211.115	4953.04
211.189	5072.54
211.263	5192.32
211.337	5299.05
211.411	5419.65
211.485	5523.6
211.559	5647.74
211.633	5760.99
211.707	5847.69
211.781	5976.75
211.855	6068.82
211.929	6184.97
212.003	6294.93
212.077	6428.84
212.151	6568.91
212.225	6706.06
212.299	6827.91
212.373	6950.11
212.447	7085.18
212.52	7247.68
212.594	7387.18
212.668	7541.08
212.742	7674.84
212.816	7813.18
212.89	7955.03
212.964	8103.06
213.038	8252.87
213.112	8413.44
213.186	8575.8
213.26	8709.65
213.333	8815.44
213.407	8969.68
213.481	9125.48
213.555	9291.11
213.629	9432.97
213.703	9575.56
213.777	9741.24
213.85	9885.35
213.924	10078.93
213.998	10232.46
214.072	10384.89
214.146	10523.3
214.219	10678.97
214.293	10828.72
214.367	10997.42
214.441	11158.51
214.515	11301.35
214.588	11438.98
214.662	11558.22
214.736	11696.29
214.81	11853.35
214.883	12010.71
214.957	12151.39
215.031	12284.52
215.105	12408.97
215.178	12540.32
215.252	12676.73
215.326	12791.99
215.4	12908.98
215.473	12998.93
215.547	13120.65
215.621	13247.24
215.694	13393.97
215.768	13506.05
215.842	13624.59
215.915	13737.54
215.989	13851.25
216.063	13968.06
216.136	14086.06
216.21	14211.44
216.284	14343.28
216.357	14463.22
216.431	14580.5
216.504	14704.96
216.578	14849
216.652	14983.68
216.725	15102.5
216.799	15227.19
216.873	15341.05
216.946	15465.07
217.02	15568.27
217.093	15681.59
217.167	15773.22
217.24	15865.14
217.314	15966.07
217.387	16061.84
217.461	16146.38
217.535	16264.9
217.608	16352.14
217.682	16460.05
217.755	16573.41
217.829	16664.6
217.902	16770.53
217.976	16864.85
218.049	16949.48
218.123	17023.6
218.196	17115.95
218.27	17198.07
218.343	17262.7
218.417	17347.85
218.49	17426.36
218.563	17534.12
218.637	17620.87
218.71	17725.06
218.784	17819.61
218.857	17915.37
218.931	18006.83
219.004	18098.35
219.077	18175.65
219.151	18267.64
219.224	18342.15
219.298	18411.25
219.371	18499.63
219.444	18556.64
219.518	18631.34
219.591	18711.72
219.665	18813.64
219.738	18879.13
219.811	18935.66
219.885	19023.7
219.958	19109.82
220.031	19179.02
220.105	19252.46
220.178	19318.33
220.251	19374.33
220.325	19441.7
220.398	19506.81
220.471	19573.26
220.544	19639.67
220.618	19689.79
220.691	19756.19
220.764	19812.38
220.838	19873.15
220.911	19913.1
220.984	19988.86
221.057	20052.81
221.131	20108.18
221.204	20128.08
221.277	20198.1
221.35	20281.86
221.424	20324.7
221.497	20358.58
221.57	20409.57
221.643	20447.5
221.716	20503.45
221.79	20541.52
221.863	20576.46
221.936	20608.71
222.009	20644.32
222.082	20686.68
222.155	20730.11
222.229	20779.17
222.302	20823.22
222.375	20854.5
222.448	20903.85
222.521	20939.03
222.594	20969.06
222.667	20985.11
222.74	21024.92
222.814	21056.48
222.887	21097.21
222.96	21135.43
223.033	21176.88
223.106	21201.94
223.179	21245.37
223.252	21269.04
223.325	21305.18
223.398	21331.98
223.471	21370.59
223.544	21402.69
223.617	21425.97
223.69	21456
223.763	21462.65
223.837	21495.76
223.91	21533.84
223.983	21540.92
224.056	21542.76
224.129	21566.42
224.202	21618.14
224.275	21641.66
224.348	21643.78
224.42	21639.2
224.493	21652.84
224.566	21678.15
224.639	21704.08
224.712	21709.87
224.785	21734.21
224.858	21738.55
224.931	21748.09
225.004	21748.57
225.077	21769.97
225.15	21771.61
225.223	21779.76
225.296	21815.96
225.369	21793.4
225.442	21788.05
225.514	21814.95
225.587	21834.33
225.66	21847.92
225.733	21853.65
225.806	21861.17
225.879	21875.35
225.952	21875.68
226.025	21883.44
226.097	21894.24
226.17	21901.86
226.243	21887.64
226.316	21876.17
226.389	21887.54
226.461	21895.98
226.534	21909.76
226.607	21899.5
226.68	21915.16
226.753	21928.51
226.825	21900.46
226.898	21932.9
226.971	21941.96
227.044	21941.67
227.117	21943.74
227.189	21958.25
227.262	21959.36
227.335	21963.03
227.407	21962.59
227.48	21970.4
227.553	21980.28
227.626	21972.04
227.698	21961.44
227.771	21972.38
227.844	21965.1
227.916	21968.67
227.989	21960.18
228.062	21959.27
228.134	21983.71
228.207	21984.53
228.28	21962.11
228.352	21962.01
228.425	21953.58
228.498	21946.49
228.57	21928.71
228.643	21949.05
228.716	21935.94
228.788	21923.21
228.861	21918.49
228.934	21922.34
229.006	21913.43
229.079	21907.25
229.151	21899.45
229.224	21884.7
229.296	21881.95
229.369	21908.75
229.442	21919.16
229.514	21909.91
229.587	21908.66
229.659	21875.15
229.732	21871.15
229.804	21885.9
229.877	21907.55
229.949	21924.13
230.022	21940.66
230.094	21941.15
230.167	21937.24
230.239	21927.12
230.312	21917.77
230.384	21935.22
230.457	21940.76
230.529	21950.31
230.602	21934.93
230.674	21926.3
230.747	21939.7
230.819	21953.97
230.892	21917.48
230.964	21899.4
231.037	21897.91
231.109	21884.84
231.181	21892.75
231.254	21869.56
231.326	21843.78
231.399	21821.55
231.471	21791.23
231.544	21761.97
231.616	21757.68
231.688	21729.05
231.761	21706.49
231.833	21691.74
231.905	21648.89
231.978	21619.73
232.05	21589.7
232.122	21580.35
232.195	21557.46
232.267	21554.9
232.339	21524.44
232.412	21523.47
232.484	21506.99
232.556	21492.14
232.629	21493.97
232.701	21487.23
232.773	21480.04
232.846	21462.69
232.918	21445.97
232.99	21434.83
233.062	21426.59
233.135	21414.78
233.207	21395.46
233.279	21393.96
233.351	21382.06
233.424	21359.11
233.496	21327.88
233.568	21331.93
233.64	21311.45
233.713	21305.86
233.785	21281.37
233.857	21261.13
233.929	21221.61
234.001	21227.63
234.074	21221.46
234.146	21178.33
234.218	21150.23
234.29	21122.51
234.362	21098.08
234.434	21065.45
234.507	21029.06
234.579	20996.77
234.651	20962.7
234.723	20943.71
234.795	20913.2
234.867	20889.58
234.939	20881.29
235.012	20862.88
235.084	20834.54
235.156	20807.17
235.228	20764.13
235.3	20733.19
235.372	20713.53
235.444	20708.52
235.516	20650.39
235.588	20624.65
235.66	20601.38
235.732	20557.33
235.804	20585.57
235.876	20579.84
235.948	20564.46
236.02	20538.2
236.092	20506.73
236.164	20480.7
236.236	20456.22
236.308	20435.35
236.38	20418.15
236.452	20377.38
236.524	20352.51
236.596	20350.92
236.668	20332.27
236.74	20303.98
236.812	20288.22
236.884	20266.3
236.956	20237.91
237.028	20197.14
237.1	20152.56
237.172	20139.07
237.244	20130.4
237.316	20060.76
237.388	20012.95
237.46	19979.65
237.532	19967.36
237.604	19925.48
237.675	19910.06
237.747	19882.11
237.819	19836.57
237.891	19800.62
237.963	19775.03
238.035	19740.14
238.107	19670.8
238.178	19643.04
238.25	19615.09
238.322	19592.44
238.394	19539.09
238.466	19506.08
238.538	19484.2
238.609	19463.53
238.681	19417.85
238.753	19369.03
238.825	19343.97
238.897	19313.85
238.968	19297.66
239.04	19253.61
239.112	19253.33
239.184	19211.21
239.255	19164.61
239.327	19139.36
239.399	19107.5
239.471	19080.18
239.542	19059.12
239.614	19040.9
239.686	18982.31
239.758	18965.92
239.829	18920.24
239.901	18907.61
239.973	18872.92
240.044	18848.63
240.116	18814.65
240.188	18775.72
240.259	18751.91
240.331	18703.77
240.403	18676.93
240.474	18628.16
240.546	18584.4
240.618	18532.6
240.689	18491.88
240.761	18466.72
240.833	18446.58
240.904	18414.48
240.976	18373.57
241.048	18339.07
241.119	18311.16
241.191	18294.01
241.262	18263.94
241.334	18225.39
241.405	18175.7
241.477	18128.43
241.549	18081.78
241.62	18042.6
241.692	18018.45
241.763	17998.55
241.835	17965.64
241.906	17925.88
241.978	17868.53
242.049	17841.21
242.121	17815.23
242.192	17790.36
242.264	17742.8
242.335	17690.94
242.407	17665.4
242.478	17624.44
242.55	17593.88
242.621	17541.64
242.693	17496.78
242.764	17455.86
242.836	17423.96
242.907	17405.02
242.979	17378.51
243.05	17358.56
243.122	17336.39
243.193	17296.78
243.264	17244.63
243.336	17215.91
243.407	17197.5
243.479	17195.43
243.55	17173.74
243.622	17140.44
243.693	17104.44
243.764	17089.06
243.836	17045.5
243.907	16997.83
243.978	16969.49
244.05	16935.03
244.121	16890.65
244.192	16868.67
244.264	16821.73
244.335	16787.31
244.407	16730.06
244.478	16704.76
244.549	16670.92
244.62	16622.44
244.692	16593.13
244.763	16564.07
244.834	16522.53
244.906	16476.5
244.977	16443.49
245.048	16424.54
245.119	16377.5
245.191	16331.43
245.262	16274.94
245.333	16263.71
245.405	16237.59
245.476	16209.87
245.547	16182.64
245.618	16162.98
245.689	16140.18
245.761	16110.83
245.832	16075.98
245.903	16060.22
245.974	16036.07
246.045	15987.92
246.117	15965.99
246.188	15908.92
246.259	15859.56
246.33	15818.64
246.401	15789.19
246.473	15737.09
246.544	15693.13
246.615	15675.01
246.686	15645.51
246.757	15626.61
246.828	15573.74
246.899	15557.78
246.97	15506.25
247.042	15463.84
247.113	15442.97
247.184	15421.52
247.255	15378.47
247.326	15353.41
247.397	15315.42
247.468	15271.42
247.539	15256.47
247.61	15220.42
247.681	15213.48
247.752	15204.61
247.823	15164.36
247.894	15135.49
247.965	15091.14
248.037	15055.42
248.108	15008.66
248.179	14979.36
248.25	14948.41
248.321	14929.99
248.392	14881.12
248.463	14878.9
248.534	14846.31
248.605	14823.08
248.675	14788.95
248.746	14773.96
248.817	14746
248.888	14720.17
248.959	14675.82
249.03	14642.94
249.101	14609.25
249.172	14574.06
249.243	14523.49
249.314	14521.66
249.385	14490.08
249.456	14477.65
249.527	14450.65
249.598	14431.61
249.669	14404.52
249.739	14381.67
249.81	14362.2
249.881	14316.54
249.952	14292.2
250.023	14265.3
250.094	14218.06
250.165	14178.53
250.235	14145.37
250.306	14118.57
250.377	14081.88
250.448	14063.56
250.519	14013.52
250.59	14001.86
250.66	13964.74
250.731	13947.05
250.802	13921.64
250.873	13897.49
250.944	13868.37
251.014	13828.27
251.085	13828.8
251.156	13809.66
251.227	13796.79
251.297	13784.83
251.368	13781.22
251.439	13757.16
251.51	13748.87
251.58	13718.79
251.651	13689.05
251.722	13681.62
251.792	13638.96
251.863	13611.77
251.934	13597.7
252.005	13610.33
252.075	13589.74
252.146	13581.88
252.217	13580.44
252.287	13563.61
252.358	13541.05
252.429	13539.9
252.499	13516.61
252.57	13491.83
252.641	13472.12
252.711	13446.52
252.782	13404.15
252.852	13385.73
252.923	13359.36
252.994	13331.74
253.064	13318.58
253.135	13288.84
253.205	13256.59
253.276	13248
253.347	13246.32
253.417	13216.82
253.488	13176.76
253.558	13147.69
253.629	13123.49
253.699	13101.26
253.77	13079.38
253.841	13053.06
253.911	13028.81
253.982	13007.36
254.052	12984.27
254.123	12961.85
254.193	12940.93
254.264	12956.4
254.334	12933.02
254.405	12901.55
254.475	12867.71
254.546	12839.75
254.616	12829.72
254.687	12814.63
254.757	12800.94
254.827	12775.3
254.898	12756.06
254.968	12738.13
255.039	12705.69
255.109	12689.44
255.18	12651.41
255.25	12608.75
255.321	12593.95
255.391	12551.29
255.461	12549.46
255.532	12504.92
255.602	12476.72
255.673	12429.43
255.743	12392.16
255.813	12342.52
255.884	12332.39
255.954	12319.86
256.024	12321.4
256.095	12301.83
256.165	12266.69
256.235	12244.52
256.306	12218.68
256.376	12213.38
256.446	12199.64
256.517	12183.97
256.587	12175.44
256.657	12161.56
256.728	12144.4
256.798	12118.42
256.868	12108.25
256.938	12086.51
257.009	12079.57
257.079	12071.13
257.149	12083.67
257.219	12042.31
257.29	12037.39
257.36	11996.04
257.43	11982.54
257.5	11938.48
257.571	11910.72
257.641	11899.01
257.711	11865.22
257.781	11847.63
257.852	11829.12
257.922	11794.61
257.992	11775.04
258.062	11750.6
258.132	11740.43
258.202	11719.03
258.273	11707.99
258.343	11705.2
258.413	11671.84
258.483	11654.25
258.553	11622.3
258.623	11586.92
258.693	11575.45
258.764	11570.34
258.834	11569.52
258.904	11552.79
258.974	11529.9
259.044	11515.25
259.114	11501.08
259.184	11488.45
259.254	11468.98
259.324	11428.35
259.394	11419.43
259.464	11413.27
259.535	11389.75
259.605	11365.26
259.675	11340.73
259.745	11326.95
259.815	11291.48
259.885	11274.95
259.955	11282.51
260.025	11257.7
260.095	11241.31
260.165	11223.53
260.235	11222.03
260.305	11192.25
260.375	11165.12
260.445	11171.14
260.515	11171.67
260.585	11164.68
260.655	11154.95
260.725	11142.71
260.795	11131.96
260.865	11130.9
260.934	11108.2
261.004	11099.77
261.074	11083.33
261.144	11090.66
261.214	11079.33
261.284	11064.49
261.354	11059.48
261.424	11029.21
261.494	11035.62
261.564	11028.2
261.634	11021.79
261.703	10987.58
261.773	10981.84
261.843	10972.64
261.913	10947.19
261.983	10908.64
262.053	10902.91
262.123	10877.8
262.192	10856.55
262.262	10855.54
262.332	10821.66
262.402	10810.97
262.472	10791.6
262.541	10754.54
262.611	10741.82
262.681	10711.32
262.751	10701.3
262.821	10676.63
262.89	10650.22
262.96	10638.22
263.03	10636.63
263.1	10623.48
263.169	10600.59
263.239	10591.24
263.309	10589.51
263.379	10581.66
263.448	10564.84
263.518	10543.16
263.588	10531.98
263.657	10532.85
263.727	10519.59
263.797	10512.03
263.867	10497.72
263.936	10477.44
264.006	10479.56
264.076	10464.62
264.145	10450.41
264.215	10431.38
264.285	10429.06
264.354	10395.73
264.424	10372.02
264.494	10341.62
264.563	10324.66
264.633	10335.07
264.702	10324.76
264.772	10291.37
264.842	10272.77
264.911	10265.98
264.981	10241.55
265.05	10226.76
265.12	10204.26
265.19	10196.41
265.259	10189.14
265.329	10182.92
265.398	10172.23
265.468	10177.86
265.537	10156.71
265.607	10155.61
265.676	10155.37
265.746	10142.17
265.815	10140.91
265.885	10127.76
265.955	10097.27
266.024	10079.83
266.094	10045.58
266.163	10048.81
266.232	10049.97
266.302	10033.49
266.371	10024.48
266.441	10012.92
266.51	10008.06
266.58	9990.04
266.649	9969.91
266.719	9961.81
266.788	9947.6
266.858	9944.66
266.927	9909.21
266.996	9893.32
267.066	9877.76
267.135	9849.05
267.205	9839.85
267.274	9831.47
267.343	9828.73
267.413	9824.97
267.482	9825.16
267.552	9823.52
267.621	9785.71
267.69	9753.2
267.76	9748.19
267.829	9738.56
267.898	9725.41
267.968	9705.71
268.037	9703.93
268.106	9699.79
268.176	9673.73
268.245	9657.02
268.314	9643.1
268.384	9638.14
268.453	9632.02
268.522	9627.06
268.592	9626.63
268.661	9608.81
268.73	9599.27
268.799	9573.99
268.869	9575.87
268.938	9543.84
269.007	9525.3
269.076	9525.49
269.146	9535.03
269.215	9531.32
269.284	9538.3
269.353	9526.99
269.422	9509.12
269.492	9496.89
269.561	9457.74
269.63	9454.37
269.699	9446.04
269.768	9433.23
269.838	9435.4
269.907	9428.65
269.976	9406.21
270.045	9375.69
270.114	9367.55
270.183	9355.13
270.253	9356.09
270.322	9323.3
270.391	9316.61
270.46	9320.7
270.529	9314.44
270.598	9305.82
270.667	9288.05
270.736	9261.42
270.806	9244.28
270.875	9248.76
270.944	9231.76
271.013	9251.6
271.082	9241.15
271.151	9237.83
271.22	9209.71
271.289	9191.75
271.358	9181.88
271.427	9173.98
271.496	9164.07
271.565	9152.61
271.634	9139.76
271.703	9157.81
271.772	9166.48
271.841	9157.24
271.91	9134.32
271.979	9124.45
272.048	9101.82
272.117	9101.34
272.186	9090.26
272.255	9096.14
272.324	9092.67
272.393	9091.9
272.462	9072.5
272.531	9063.35
272.6	9045.73
272.669	9050.35
272.738	9039.08
272.807	9033.69
272.876	9015.01
272.945	9048.71
273.013	9049.68
273.082	9059.06
273.151	9019.15
273.22	9016.02
273.289	9009.86
273.358	9021.32
273.427	9010.05
273.496	9007.4
273.564	8998.93
273.633	8993.73
273.702	8973.08
273.771	8961.29
273.84	8955.51
273.909	8956.9
273.977	8952.86
274.046	8942.61
274.115	8950.12
274.184	8933.13
274.253	8924.94
274.322	8933.75
274.39	8900.53
274.459	8883.59
274.528	8855.72
274.597	8848.06
274.665	8843.49
274.734	8847.78
274.803	8836.7
274.872	8827.03
274.94	8809.12
275.009	8864.94
275.078	8854.83
275.147	8851.08
275.215	8845.78
275.284	8848.28
275.353	8834.18
275.421	8819.64
275.49	8833.03
275.559	8820.37
275.627	8817.96
275.696	8810.74
275.765	8807.52
275.833	8796.78
275.902	8801.84
275.971	8811.7
276.039	8829.56
276.108	8829.22
276.177	8825.81
276.245	8812.57
276.314	8807.18
276.383	8818.39
276.451	8750.5
276.52	8747.32
276.588	8760.6
276.657	8764.26
276.725	8754.11
276.794	8757.38
276.863	8763.49
276.931	8739.76
277	8749
277.068	8758.53
277.137	8770.9
277.205	8766.67
277.274	8780.62
277.342	8782.55
277.411	8762.63
277.48	8744.72
277.548	8734.32
277.617	8731.24
277.685	8728.98
277.754	8732.98
277.822	8723.4
277.89	8737.41
277.959	8732.98
278.027	8719.45
278.096	8711.27
278.164	8735.39
278.233	8720.76
278.301	8709.59
278.37	8714.84
278.438	8695.58
278.507	8692.41
278.575	8665.46
278.643	8660.26
278.712	8645.72
278.78	8632.01
278.849	8642.98
278.917	8653.18
278.985	8646.68
279.054	8647.55
279.122	8651.64
279.191	8652.12
279.259	8646.54
279.327	8627.19
279.396	8640.57
279.464	8627.34
279.532	8632.68
279.601	8623.53
279.669	8623.87
279.737	8635.56
279.806	8640.96
279.874	8653.18
279.942	8657.66
280.011	8654.34
280.079	8668.34
280.147	8683.65
280.215	8687.11
280.284	8685.52
280.352	8668.53
280.42	8677.63
280.488	8666.56
280.557	8659.2
280.625	8660.06
280.693	8661.22
280.761	8664.78
280.83	8652.84
280.898	8671.47
280.966	8656.02
281.034	8626.23
281.102	8612.22
281.171	8608.85
281.239	8617.81
281.307	8611.02
281.375	8592.74
281.443	8621.27
281.512	8616.8
281.58	8616.12
281.648	8604.57
281.716	8602.17
281.784	8607.22
281.852	8602.99
281.92	8605.63
281.989	8614.58
282.057	8596.73
282.125	8644.29
282.193	8641.84
282.261	8643.52
282.329	8634.28
282.397	8634.81
282.465	8641.11
282.533	8651.99
282.601	8639.67
282.67	8612.67
282.738	8602.61
282.806	8621.28
282.874	8606.55
282.942	8605.64
283.01	8596.93
283.078	8600.73
283.146	8596.21
283.214	8599.05
283.282	8598.23
283.35	8604.44
283.418	8604.72
283.486	8607.42
283.554	8563.37
283.622	8557.84
283.69	8545.42
283.758	8542.58
283.826	8548.12
283.894	8557.26
283.962	8578.24
284.03	8589.75
284.098	8592.92
284.165	8587.73
284.233	8581.95
284.301	8575.31
284.369	8565.97
284.437	8564
284.505	8558.66
284.573	8569.29
284.641	8558.46
284.709	8567.8
284.777	8556.64
284.845	8563.04
284.912	8565.93
284.98	8565.69
285.048	8562.89
285.116	8577.76
285.184	8593.79
285.252	8591.72
285.319	8574.93
285.387	8568.86
285.455	8553.99
285.523	8562.17
285.591	8559.62
285.659	8558.95
285.726	8572.09
285.794	8559.96
285.862	8555.97
285.93	8554.04
285.997	8551.44
286.065	8548.07
286.133	8532.14
286.201	8531.95
286.269	8509.43
286.336	8499.71
286.404	8500.09
286.472	8510.34
286.539	8482.44
286.607	8463.76
286.675	8458.81
286.743	8466.12
286.81	8458.95
286.878	8472.47
286.946	8459.24
287.013	8456.26
287.081	8458.9
287.149	8437.06
287.216	8451.97
287.284	8448.22
287.352	8450.24
287.419	8448.07
287.487	8453.75
287.555	8460.97
287.622	8460.39
287.69	8475.94
287.758	8490.61
287.825	8479.69
287.893	8468.14
287.96	8482
288.028	8495.71
288.096	8506.01
288.163	8509.76
288.231	8496.24
288.298	8494.65
288.366	8507.84
288.433	8510.1
288.501	8497.93
288.569	8507.36
288.636	8503.6
288.704	8518.28
288.771	8526.7
288.839	8514.58
288.906	8516.89
288.974	8526.9
289.041	8521.61
289.109	8506.01
289.176	8516.51
289.244	8521.85
289.311	8531.04
289.379	8544.9
289.446	8539.22
289.514	8535.7
289.581	8531.23
289.649	8539.26
289.716	8540.32
289.783	8535.46
289.851	8552.79
289.918	8555.29
289.986	8563.37
290.053	8570.98
290.121	8566.84
290.188	8567.13
290.255	8598.12
290.323	8592.15
290.39	8581.8
290.458	8590.85
290.525	8602.79
290.592	8596.96
290.66	8600.62
290.727	8594.36
290.794	8598.12
290.862	8600.47
290.929	8599.22
290.996	8601.44
291.064	8606.49
291.131	8613.85
291.198	8627.33
291.266	8627.09
291.333	8629.54
291.4	8634.74
291.468	8646.2
291.535	8644.08
291.602	8649.57
291.669	8642.01
291.737	8644.51
291.804	8647.35
291.871	8663.04
291.938	8670.55
292.006	8696.02
292.073	8705.69
292.14	8720.61
292.207	8712.81
292.275	8714.16
292.342	8724.75
292.409	8751.7
292.476	8772.21
292.543	8768.55
292.611	8766.92
292.678	8781.88
292.745	8805.32
292.812	8813.6
292.879	8812.5
292.946	8817.65
293.014	8829.82
293.081	8840.41
293.148	8851.48
293.215	8869.34
293.282	8863.61
293.349	8873.58
293.416	8853.89
293.484	8866.36
293.551	8873.62
293.618	8894.51
293.685	8921.86
293.752	8916.47
293.819	8916.51
293.886	8907.42
293.953	8914.49
294.02	8926.86
294.087	8937.84
294.154	8930.33
294.221	8946.03
294.288	8946.46
294.356	8962.34
294.423	8970.19
294.49	8959.65
294.557	8978.13
294.624	8963.84
294.691	8976.21
294.758	8976.74
294.825	8982.27
294.892	8978.33
294.959	8977.7
295.026	8985.55
295.093	8976.06
295.16	8982.7
295.226	8976.49
295.293	8997.68
295.36	9002.59
295.427	9019.87
295.494	9024.5
295.561	9034.12
295.628	9055.07
295.695	9071.63
295.762	9076.06
295.829	9081.74
295.896	9094.74
295.963	9102.54
296.03	9120.83
296.096	9130.85
296.163	9141.92
296.23	9157.76
296.297	9168.54
296.364	9169.55
296.431	9174.23
296.498	9173.26
296.564	9194.44
296.631	9200.13
296.698	9191.51
296.765	9204.41
296.832	9186.02
296.899	9176.48
296.965	9192.08
297.032	9172.77
297.099	9187.99
297.166	9200.89
297.233	9197.43
297.299	9190.21
297.366	9189.19
297.433	9185.44
297.5	9193.38
297.566	9193.19
297.633	9192.66
297.7	9197.04
297.767	9200.22
297.833	9208.07
297.9	9211.34
297.967	9202.29
298.033	9214.04
298.1	9238.26
298.167	9235.81
298.234	9241.73
298.3	9251.21
298.367	9247.75
298.434	9254.58
298.5	9243.22
298.567	9234.6
298.634	9235.56
298.7	9256.65
298.767	9259.06
298.834	9277.11
298.9	9280.2
298.967	9276.3
299.033	9288.09
299.1	9301.09
299.167	9316.12
299.233	9312.17
299.3	9325.41
299.366	9341.15
299.433	9356.18
299.5	9329.31
299.566	9330.99
299.633	9352.09
299.699	9359.12
299.766	9356.66
299.832	9361.38
299.899	9370.77
299.965	9379.39
300.032	9373.95
300.099	9382.04
300.165	9391.72
300.232	9386.32
300.298	9376.93
300.365	9394.85
300.431	9391.43
300.498	9387.53
300.564	9394.08
300.631	9405.2
300.697	9419.7
300.763	9421.09
300.83	9421
300.896	9438.47
300.963	9447.67
301.029	9450.08
301.096	9462.94
301.162	9478.3
301.229	9472.66
301.295	9459.28
301.361	9466.5
301.428	9471.94
301.494	9458.94
301.561	9458.51
301.627	9462.65
301.693	9468.76
301.76	9459.28
301.826	9454.32
301.892	9465.63
301.959	9474.69
302.025	9472.18
302.092	9462.55
302.158	9462.5
302.224	9461.88
302.291	9455.67
302.357	9457.98
302.423	9451.14
302.49	9437.61
302.556	9441.46
302.622	9441.31
302.688	9452.77
302.755	9461.88
302.821	9473
302.887	9483.02
302.954	9486.1
303.02	9493.42
303.086	9506.08
303.152	9517.35
303.219	9521.49
303.285	9525.83
303.351	9530.02
303.417	9528.14
303.483	9522.55
303.55	9518.99
303.616	9513.89
303.682	9517.21
303.748	9508.11
303.815	9525.01
303.881	9532.52
303.947	9519.96
304.013	9521.59
304.079	9516.78
304.145	9496.31
304.212	9495.2
304.278	9481.72
304.344	9473.87
304.41	9459.09
304.476	9445.12
304.542	9428.89
304.608	9428.6
304.674	9413.1
304.741	9400
304.807	9402.02
304.873	9407.7
304.939	9420.51
305.005	9407.85
305.071	9401.35
305.137	9403.27
305.203	9372.31
305.269	9367.49
305.335	9379.1
305.401	9380.73
305.467	9375.73
305.533	9388.39
305.599	9394.03
305.666	9404.04
305.732	9408.66
305.798	9421.18
305.864	9442.37
305.93	9452.87
305.996	9452.58
306.062	9454.7
306.128	9453.55
306.194	9443
306.259	9442.9
306.325	9434.19
306.391	9446.66
306.457	9448.97
306.523	9453.54
306.589	9478.73
306.655	9475.74
306.721	9462.69
306.787	9445.75
306.853	9460.38
306.919	9448.25
306.985	9440.88
307.051	9434.38
307.117	9429.61
307.183	9426
307.248	9398.99
307.314	9400.38
307.38	9405.39
307.446	9405.78
307.512	9399.47
307.578	9406.5
307.644	9402.5
307.709	9406.31
307.775	9397.73
307.841	9398.79
307.907	9400.33
307.973	9378.33
308.039	9378.04
308.104	9384.73
308.17	9387.52
308.236	9373.41
308.302	9372.98
308.368	9364.17
308.433	9364.17
308.499	9356.18
308.565	9339.95
308.631	9344.33
308.696	9317.46
308.762	9304.22
308.828	9305.33
308.894	9284.87
308.959	9264.55
309.025	9258
309.091	9249.96
309.156	9240.14
309.222	9236.14
309.288	9222.56
309.354	9195.55
309.419	9189.34
309.485	9173.16
309.551	9179.04
309.616	9165.65
309.682	9154.34
309.748	9143.55
309.813	9141.39
309.879	9127.09
309.945	9117.61
310.01	9110.24
310.076	9117.12
310.141	9110.38
310.207	9092.66
310.273	9099.26
310.338	9097.72
310.404	9078.7
310.469	9065.46
310.535	9057.28
310.601	9038.31
310.666	9038.26
310.732	9057.47
310.797	9047.07
310.863	9034.12
310.928	9028.77
310.994	9035.51
311.059	9040.18
311.125	9035.13
311.191	9042.54
311.256	9035.37
311.322	9042.4
311.387	9022.9
311.453	9407.06
311.518	9381.45
311.584	9378.27
311.649	9379.09
311.715	9369.32
311.78	9368.84
311.846	9359.98
311.911	9366.29
311.976	9372.64
312.042	9357.43
312.107	9338.65
312.173	9328.16
312.238	9325.71
312.304	9313.48
312.369	9297.74
312.434	9284.78
312.5	9281.22
312.565	9250.56
312.631	9257.01
312.696	9245.41
312.761	9250.65
312.827	8856.63
312.892	8893.26
312.958	8893.55
313.023	8893.26
313.088	8897.4
313.154	8884.41
313.219	8874.64
313.284	8866.36
313.35	8860.68
313.415	8856.68
313.48	8856.3
313.546	8860.77
313.611	8865.59
313.676	8861.78
313.741	8854.42
313.807	8859.71
313.872	8863.03
313.937	8866.55
314.003	8875.26
314.068	8875.36
314.133	8874.44
314.198	8863.81
314.264	8844.55
314.329	8831.46
314.394	8819.18
314.459	8813.69
314.525	8828.42
314.59	8825.87
314.655	8809.17
314.72	8812.49
314.785	8811.77
314.851	8805.51
314.916	8785.58
314.981	8772.06
315.046	8760.46
315.111	8754.88
315.176	8739.18
315.242	8743.71
315.307	8744.43
315.372	8725.18
315.437	8719.4
315.502	8715.31
315.567	8724.89
315.632	8715.21
315.698	8713.38
315.763	8711.89
315.828	8698.85
315.893	8691.77
315.958	8689.08
316.023	8677.67
316.088	8661.07
316.153	8636.24
316.218	8631.19
316.283	8612.52
316.348	8596.73
316.413	8589.32
316.479	8571.04
316.544	8539.33
316.609	8505.69
316.674	8465.51
316.739	8425.44
316.804	8394.64
316.869	8358.08
316.934	8323.14
316.999	8288.93
317.064	8237.79
317.129	8194.63
317.194	8157.74
317.259	8114.2
317.324	8063.11
317.389	8021.61
317.454	7986.3
317.518	7955.23
317.583	7924.05
317.648	7901.88
317.713	7869.61
317.778	7813.77
317.843	7781.55
317.908	7747.41
317.973	7709.61
318.038	7684.66
318.103	7648.7
318.168	7613.79
318.233	7577.73
318.297	7529.65
318.362	7489.27
318.427	7454.04
318.492	7433.27
318.557	7388.62
318.622	7357.66
318.687	7331.42
318.751	7294.28
318.816	7254
318.881	7218.05
318.946	7165.57
319.011	7119.87
319.075	7073.36
319.14	7038.19
319.205	6995.91
319.27	6955.13
319.335	6902.67
319.399	6862.65
319.464	6838.01
319.529	6788.39
319.594	6756.3
319.658	6720.42
319.723	6676.82
319.788	6646.04
319.853	6588.45
319.917	6558.59
319.982	6506.48
320.047	6468.41
320.112	6443.92
320.176	6391.45
320.241	6356.02
320.306	6326.21
320.37	6287.14
320.435	6255.75
320.5	6228.97
320.564	6188.94
320.629	6152.34
320.694	6128.15
320.758	6086.69
320.823	6040.77
320.888	6012.61
320.952	5959.12
321.017	5920.17
321.082	5885.92
321.146	5848.7
321.211	5814.12
321.275	5772.26
321.34	5729.92
321.405	5687.39
321.469	5636.85
321.534	5597.35
321.598	5550.03
321.663	5517.61
321.727	5488.27
321.792	5438.57
321.857	5393.36
321.921	5353.59
321.986	5309.99
322.05	5252.16
322.115	5214.11
322.179	5170.57
322.244	5112.47
322.308	5084.01
322.373	5037.51
322.437	4993.59
322.502	4969.63
322.566	4926.29
322.631	4895.59
322.695	4857.49
322.76	4813.83
322.824	4781.51
322.889	4737.53
322.953	4693.17
323.018	4628.03
323.082	4564.43
323.146	4518.37
323.211	4466.55
323.275	4425.5
323.34	4384.47
323.404	4352.19
323.468	4304.88
323.533	4259.88
323.597	4221.07
323.662	4170.04
323.726	4135.43
323.79	4092.16
323.855	4029.51
323.919	3978.27
323.983	3929.08
324.048	3864.47
324.112	3978.94
324.177	3851.89
324.241	3654.08
324.305	3456.87
324.37	3264.35
324.434	3077.48
324.498	3033.29
324.562	2984.57
324.627	2924.4
324.691	2867.67
324.755	2801.21
324.82	2726.62
324.884	2654
324.948	2577.6
325.012	2478.95
325.077	2356.79
