Data from 20250702_urea_0.5M_MAYP1162681_08-55-00-075.txt Node
Date: Thu Jul 03 08:55:00 BST 2025
User: adleo
Spectrometer: MAYP116268
Trigger mode: 0
Integration Time (sec): 1.000000E0
Scans to average: 1
Electric dark correction enabled: true
Nonlinearity correction enabled: true
Boxcar width: 10
XAxis mode: Wavelengths
Number of Pixels in Spectrum: 2068
>>>>>Begin Spectral Data<<<<<
179.565	1161.96
179.642	1218.12
179.718	1258.58
179.795	1294.83
179.871	1324.45
179.948	1345.32
180.024	1363.38
180.101	1387.86
180.177	1401.88
180.254	1425.78
180.33	1449.35
180.407	1498.2
180.483	1591.13
180.56	1679.97
180.636	1760.34
180.712	1748.89
180.789	1761.67
180.865	1770.7
180.942	1781.68
181.018	1795.17
181.095	1807.49
181.171	1814.71
181.248	1815.33
181.324	1830.92
181.4	1841.52
181.477	1853.69
181.553	1863.76
181.63	1888.63
181.706	1904.32
181.782	1912.87
181.859	1909.45
181.935	1914.06
182.011	1914.3
182.088	1929.61
182.164	1947.06
182.24	1960.04
182.317	1969.4
182.393	1966.79
182.469	1981.57
182.546	1993.18
182.622	1997.12
182.698	1992.8
182.775	2002.88
182.851	2015.86
182.927	2010.72
183.003	2002.69
183.08	1997.79
183.156	2006.83
183.232	2000.64
183.308	1986.14
183.385	1994.32
183.461	2013.29
183.537	2014.29
183.613	2023.56
183.69	2016.67
183.766	2006.53
183.842	2015.9
183.918	2022.27
183.995	2037.44
184.071	2041.77
184.147	2035.59
184.223	2023.8
184.299	2035.69
184.375	2026.51
184.452	2032.89
184.528	2083.46
184.604	2095.3
184.68	2105.57
184.756	2111.8
184.832	2116.46
184.908	2123.35
184.985	2122.97
185.061	2108.71
185.137	2118.84
185.213	2109.95
185.289	2109.9
185.365	2103.1
185.441	2101.01
185.517	2110.62
185.593	2105.53
185.669	2103.91
185.745	2115.37
185.822	2129.06
185.898	2121.88
185.974	2128.82
186.05	2121.97
186.126	2084.87
186.202	2077.45
186.278	2074.21
186.354	2067.41
186.43	2072.98
186.506	2070.79
186.582	2071.74
186.658	2075.64
186.734	2053.67
186.81	2055.38
186.886	2058.76
186.962	2069.27
187.038	2067.6
187.114	2062.94
187.19	2072.5
187.266	2062.56
187.341	2060.66
187.417	2056.33
187.493	2056.95
187.569	2063.99
187.645	2057.9
187.721	2046.72
187.797	2053.33
187.873	2059.85
187.949	2053.19
188.025	2049.34
188.101	2053.19
188.176	2057.14
188.252	2054.95
188.328	2062.41
188.404	2062.65
188.48	2059.66
188.556	2053.95
188.632	2050.1
188.707	2049.91
188.783	2043.63
188.859	2039.73
188.935	2030.74
189.011	2038.16
189.086	2031.36
189.162	2023.65
189.238	2021.04
189.314	2020.61
189.39	2015.28
189.465	2007.29
189.541	2025.13
189.617	2011
189.693	2006.87
189.768	2009.82
189.844	2032.8
189.92	2025.33
189.996	2035.42
190.071	2044.26
190.147	2043.79
190.223	2055.54
190.298	2046.45
190.374	2034.8
190.45	2044.31
190.526	2051.78
190.601	2048.68
190.677	2050.78
190.753	2075.38
190.828	2078.38
190.904	2089.7
190.98	2106.06
191.055	2115.53
191.131	2106.58
191.207	2126.56
191.282	2135.07
191.358	2125.13
191.433	2108.81
191.509	2123.59
191.585	2119.46
191.66	2121.88
191.736	2129.73
191.811	2120.55
191.887	2139.01
191.963	2162.56
192.038	2167.6
192.114	2168.84
192.189	2168.84
192.265	2165.89
192.34	2143.62
192.416	2143.62
192.491	2141.14
192.567	2142
192.642	2146.85
192.718	2143.76
192.793	2132.15
192.869	2126.45
192.944	2130.3
193.02	2139.24
193.095	2143.52
193.171	2148.57
193.246	2146.9
193.322	2145.38
193.397	2146.28
193.473	2132.58
193.548	2115.54
193.624	2122.49
193.699	2120.82
193.775	2140.14
193.85	2141.52
193.925	2149.71
194.001	2145.76
194.076	2139.05
194.152	2130.49
194.227	2118.55
194.302	2111.7
194.378	2112.27
194.453	2111.08
194.529	2123.31
194.604	2110.94
194.679	2102.14
194.755	2083.36
194.83	2093.21
194.905	2090.92
194.981	2098.16
195.056	2090.36
195.131	2095.02
195.207	2093.92
195.282	2085.55
195.357	2063.05
195.433	2080.17
195.508	2068.37
195.583	2078.64
195.659	2092.25
195.734	2099.67
195.809	2103.15
195.884	2109.8
195.96	2113.18
196.035	2126.45
196.11	2122.45
196.185	2133.87
196.261	2137.25
196.336	2169.5
196.411	2156.75
196.486	2160.98
196.561	2155.8
196.637	2163.07
196.712	2176.73
196.787	2179.3
196.862	2193.57
196.937	2205.56
197.013	2207.37
197.088	2218.78
197.163	2241.2
197.238	2258.3
197.313	2257.53
197.388	2271.24
197.464	2302.99
197.539	2313.22
197.614	2306.8
197.689	2321.55
197.764	2337.26
197.839	2359.82
197.914	2352.06
197.989	2376.39
198.065	2389.43
198.14	2440.06
198.215	2466.15
198.29	2482.15
198.365	2494.48
198.44	2505.29
198.515	2529.14
198.59	2545.09
198.665	2572.48
198.74	2577
198.815	2579.62
198.89	2600.19
198.965	2626.49
199.04	2621.92
199.115	2638.68
199.19	2681.78
199.265	2681.35
199.34	2693.07
199.415	2723.05
199.49	2743.53
199.565	2749.62
199.64	2772.3
199.715	2768.72
199.79	2777.97
199.865	2780.02
199.94	2777.45
200.015	2810.28
200.09	2819.19
200.165	2824.48
200.24	2829.96
200.315	2874.42
200.39	2886.67
200.464	2896.58
200.539	2899.58
200.614	2916.5
200.689	2935.9
200.764	2942.86
200.839	2960.44
200.914	2964.02
200.989	2952.34
201.063	2968.69
201.138	2955.59
201.213	2955.4
201.288	2934.33
201.363	2939.29
201.438	2939.76
201.512	2958.2
201.587	2940.37
201.662	2943.66
201.737	2958.29
201.812	2966.21
201.886	2931.33
201.961	2940.35
202.036	2927.91
202.111	2924.62
202.186	2896.32
202.26	2880.64
202.335	2858.43
202.41	2852.09
202.485	2831.79
202.559	2818.21
202.634	2787.48
202.709	2794.57
202.784	2777.18
202.858	2779.23
202.933	2757.03
203.008	2751.26
203.082	2731.87
203.157	2729.39
203.232	2687.25
203.306	2666.04
203.381	2632.78
203.456	2609.96
203.53	2588.03
203.605	2570.56
203.68	2549.88
203.754	2543.17
203.829	2528.5
203.904	2509.88
203.978	2499.45
204.053	2505.07
204.127	2491.35
204.202	2491.73
204.277	2476.26
204.351	2472.54
204.426	2464.26
204.5	2459.64
204.575	2428.13
204.65	2435.7
204.724	2426.65
204.799	2430.6
204.873	2426.12
204.948	2426.31
205.022	2415.27
205.097	2406.65
205.171	2417.41
205.246	2423.22
205.32	2422.41
205.395	2421.08
205.469	2410.75
205.544	2416.75
205.618	2399.66
205.693	2408.95
205.767	2399.09
205.842	2418.14
205.916	2409.43
205.991	2399.19
206.065	2403.67
206.14	2419.18
206.214	2414.89
206.289	2411.46
206.363	2428.46
206.438	2431.79
206.512	2439.22
206.586	2459.69
206.661	2468.22
206.735	2447.04
206.81	2445.04
206.884	2461.89
206.958	2452.04
207.033	2469.74
207.107	2476.69
207.181	2510.37
207.256	2506.65
207.33	2527.03
207.405	2543.28
207.479	2564.14
207.553	2574.9
207.628	2563.57
207.702	2573.05
207.776	2567.57
207.851	2570.19
207.925	2585.58
207.999	2584.05
208.073	2584.34
208.148	2588.87
208.222	2581.2
208.296	2618.76
208.371	2643.78
208.445	2659.32
208.519	2692.32
208.593	2708.8
208.668	2711.52
208.742	2719.29
208.816	2728.34
208.89	2750.46
208.965	2753.85
209.039	2772.29
209.113	2799.98
209.187	2830.46
209.261	2842.71
209.336	2874.44
209.41	2909.19
209.484	2923.83
209.558	2961.45
209.632	2991
209.707	3017.99
209.781	3061.14
209.855	3092.86
209.929	3127.9
210.003	3154.61
210.077	3178.08
210.151	3245.05
210.226	3299.99
210.3	3355.44
210.374	3404.85
210.448	3436.69
210.522	3478.8
210.596	3517.28
210.67	3555.18
210.744	3632.22
210.818	3697.09
210.892	3760.53
210.966	3789.46
211.041	3843.97
211.115	3879.65
211.189	3940.7
211.263	3997.41
211.337	4044.34
211.411	4101.08
211.485	4137.9
211.559	4195.98
211.633	4242.62
211.707	4267.44
211.781	4330.48
211.855	4343.92
211.929	4391.06
212.003	4425.01
212.077	4488.28
212.151	4555.56
212.225	4619.97
212.299	4663.79
212.373	4713.47
212.447	4763.42
212.52	4853.9
212.594	4916.74
212.668	4987.07
212.742	5040.52
212.816	5100.44
212.89	5157.24
212.964	5222.57
213.038	5292.44
213.112	5367.79
213.186	5445.64
213.26	5490.25
213.333	5508.89
213.407	5583.89
213.481	5652.09
213.555	5730.39
213.629	5788.1
213.703	5841.92
213.777	5914.85
213.85	5966.85
213.924	6071.05
213.998	6139.58
214.072	6202.04
214.146	6261.94
214.219	6329.57
214.293	6394.26
214.367	6466.95
214.441	6545.01
214.515	6605.05
214.588	6659.12
214.662	6702.34
214.736	6751.9
214.81	6831.98
214.883	6914.28
214.957	6973.83
215.031	7032.96
215.105	7079.97
215.178	7137.83
215.252	7202.94
215.326	7246.72
215.4	7300.87
215.473	7316.69
215.547	7367.02
215.621	7421.36
215.694	7495.45
215.768	7542.18
215.842	7593.04
215.915	7645.17
215.989	7687.29
216.063	7739.38
216.136	7800.6
216.21	7865.62
216.284	7946.9
216.357	8013.86
216.431	8071.24
216.504	8140.46
216.578	8237.56
216.652	8324.33
216.725	8382.21
216.799	8451.7
216.873	8517.77
216.946	8591.2
217.02	8656.97
217.093	8724.4
217.167	8768.1
217.24	8812.39
217.314	8875.82
217.387	8939.5
217.461	8997.5
217.535	9079.87
217.608	9139.67
217.682	9196.96
217.755	9266.44
217.829	9319.36
217.902	9384.41
217.976	9446.77
218.049	9501.76
218.123	9536.25
218.196	9599.19
218.27	9664.98
218.343	9716.37
218.417	9785.1
218.49	9844.73
218.563	9921.42
218.637	9984.81
218.71	10075.47
218.784	10149.7
218.857	10220.18
218.931	10291.09
219.004	10356.99
219.077	10423.44
219.151	10489.49
219.224	10559.54
219.298	10626.57
219.371	10700.43
219.444	10751.7
219.518	10816.32
219.591	10886.71
219.665	10980.64
219.738	11041.26
219.811	11093.16
219.885	11160.58
219.958	11227.37
220.031	11287.95
220.105	11349.4
220.178	11409.54
220.251	11458.37
220.325	11520.83
220.398	11586.81
220.471	11657.47
220.544	11730.59
220.618	11780.47
220.691	11845.11
220.764	11905.45
220.838	11971.3
220.911	12031.11
220.984	12110.4
221.057	12185.7
221.131	12244.12
221.204	12273.62
221.277	12350.89
221.35	12441.65
221.424	12500.56
221.497	12562.12
221.57	12627.29
221.643	12698.2
221.716	12770.26
221.79	12821.79
221.863	12882.77
221.936	12939.8
222.009	12996.11
222.082	13058.44
222.155	13120.14
222.229	13190.04
222.302	13254.01
222.375	13305.11
222.448	13362.95
222.521	13413.14
222.594	13454.93
222.667	13506.71
222.74	13571.06
222.814	13624.38
222.887	13667.23
222.96	13733.23
223.033	13790.93
223.106	13844.15
223.179	13898.38
223.252	13944.42
223.325	14005.3
223.398	14060.35
223.471	14119.21
223.544	14167.71
223.617	14216.4
223.69	14266.24
223.763	14300.61
223.837	14348.77
223.91	14408.11
223.983	14443.16
224.056	14480.37
224.129	14539.18
224.202	14593.56
224.275	14633.13
224.348	14663.02
224.42	14704.28
224.493	14730.99
224.566	14763.77
224.639	14818.48
224.712	14848.8
224.785	14901.53
224.858	14940.77
224.931	14963.67
225.004	14990.52
225.077	15032.5
225.15	15055.2
225.223	15096.42
225.296	15165.54
225.369	15190.36
225.442	15212.87
225.514	15260.26
225.587	15314.15
225.66	15356.81
225.733	15401.83
225.806	15450.85
225.879	15485.12
225.952	15512.98
226.025	15561.08
226.097	15623.26
226.17	15660.13
226.243	15684.67
226.316	15719.81
226.389	15757.84
226.461	15814.62
226.534	15870.09
226.607	15911.59
226.68	15969.58
226.753	16007.27
226.825	16030.74
226.898	16091.47
226.971	16133.6
227.044	16174.95
227.117	16207.49
227.189	16244.02
227.262	16286.43
227.335	16329.09
227.407	16369.38
227.48	16412.18
227.553	16460.86
227.626	16478.93
227.698	16515.18
227.771	16562.27
227.844	16593.98
227.916	16636.05
227.989	16659.14
228.062	16682.85
228.134	16729.84
228.207	16758.47
228.28	16788.21
228.352	16809.27
228.425	16844.45
228.498	16891.35
228.57	16919.78
228.643	16972.75
228.716	17007.54
228.788	17030.68
228.861	17056.12
228.934	17102.44
229.006	17136.41
229.079	17156.22
229.151	17185.14
229.224	17191.69
229.296	17219.89
229.369	17262.78
229.442	17310.97
229.514	17329.96
229.587	17365.57
229.659	17371.89
229.732	17400.27
229.804	17446.92
229.877	17504.8
229.949	17541.28
230.022	17579.35
230.094	17611.21
230.167	17637.96
230.239	17650.1
230.312	17681.33
230.384	17729.09
230.457	17755.93
230.529	17791.25
230.602	17819.93
230.674	17857.32
230.747	17902.91
230.819	17944.99
230.892	17945.37
230.964	17961.9
231.037	17995.2
231.109	18016.7
231.181	18060.69
231.254	18079.25
231.326	18088.5
231.399	18104.79
231.471	18113.22
231.544	18101.27
231.616	18127.78
231.688	18141.22
231.761	18163.58
231.833	18171.34
231.905	18160.11
231.978	18171.68
232.05	18180.06
232.122	18201.51
232.195	18207.34
232.267	18242.42
232.339	18255.63
232.412	18297.89
232.484	18309.5
232.556	18326.22
232.629	18365.79
232.701	18378.32
232.773	18400.39
232.846	18413.79
232.918	18421.69
232.99	18441.01
233.062	18474.84
233.135	18490.7
233.207	18485.2
233.279	18508.96
233.351	18532.53
233.424	18544.24
233.496	18544.81
233.568	18578.31
233.64	18571.42
233.713	18581.82
233.785	18575.46
233.857	18579.37
233.929	18554.98
234.001	18575.03
234.074	18592.67
234.146	18576.96
234.218	18579.99
234.29	18570.07
234.362	18558.55
234.434	18545.3
234.507	18535.32
234.579	18518.31
234.651	18510.12
234.723	18523.95
234.795	18519.95
234.867	18520.86
234.939	18537.15
235.012	18551.71
235.084	18553.63
235.156	18559.51
235.228	18558.79
235.3	18554.21
235.372	18564.43
235.444	18581.39
235.516	18552.14
235.588	18543.22
235.66	18539.71
235.732	18529.83
235.804	18583.37
235.876	18596.38
235.948	18611.41
236.02	18595.9
236.092	18597
236.164	18591.75
236.236	18583.8
236.308	18568.19
236.38	18559.27
236.452	18540.57
236.524	18527.85
236.596	18535.18
236.668	18539.66
236.74	18527.95
236.812	18521.01
236.884	18505.78
236.956	18493.25
237.028	18481.25
237.1	18463.32
237.172	18472.48
237.244	18472.96
237.316	18421.06
237.388	18403.52
237.46	18381.26
237.532	18389.93
237.604	18369.88
237.675	18367.33
237.747	18350.22
237.819	18334.27
237.891	18324.92
237.963	18307.57
238.035	18285.31
238.107	18220.2
238.178	18214.04
238.25	18202.66
238.322	18215.77
238.394	18185.31
238.466	18169.41
238.538	18161.75
238.609	18163.73
238.681	18122.67
238.753	18100.4
238.825	18089.56
238.897	18071.1
238.968	18068.5
239.04	18044.21
239.112	18055.73
239.184	18028.65
239.255	18016.02
239.327	18001.71
239.399	17978.09
239.471	17970
239.542	17970.34
239.614	17968.31
239.686	17920.17
239.758	17910.87
239.829	17872.94
239.901	17868.46
239.973	17843.79
240.044	17835.59
240.116	17803.88
240.188	17778.34
240.259	17756.46
240.331	17726.54
240.403	17712.94
240.474	17668.61
240.546	17626.73
240.618	17578.83
240.689	17549.48
240.761	17535.45
240.833	17534.1
240.904	17506.73
240.976	17478.34
241.048	17445.28
241.119	17432.56
241.191	17419.55
241.262	17398.68
241.334	17368.27
241.405	17336.9
241.477	17301.04
241.549	17260.56
241.62	17231.21
241.692	17215.93
241.763	17201.14
241.835	17177.96
241.906	17155.21
241.978	17125.72
242.049	17122.87
242.121	17107.45
242.192	17094.82
242.264	17044.65
242.335	17002.34
242.407	16989.61
242.478	16961.66
242.55	16936.07
242.621	16894.62
242.693	16858.91
242.764	16827.73
242.836	16797.99
242.907	16773.8
242.979	16764.26
243.05	16741.56
243.122	16732.25
243.193	16700.54
243.264	16648.59
243.336	16617.79
243.407	16596.53
243.479	16590.12
243.55	16566.89
243.622	16542.27
243.693	16521.4
243.764	16518.26
243.836	16471.27
243.907	16430.93
243.978	16398.11
244.05	16374.54
244.121	16337.91
244.192	16323.93
244.264	16282.1
244.335	16251.68
244.407	16212.93
244.478	16183.24
244.549	16155.09
244.62	16106.66
244.692	16083.23
244.763	16067.81
244.834	16035.13
244.906	16000.81
244.977	15975.46
245.048	15962.64
245.119	15926.2
245.191	15878.44
245.262	15818.14
245.333	15814.09
245.405	15791.53
245.476	15769.36
245.547	15739.09
245.618	15718.51
245.689	15689.44
245.761	15667.17
245.832	15641.24
245.903	15621.05
245.974	15596.08
246.045	15562.82
246.117	15546.38
246.188	15503.05
246.259	15468.25
246.33	15434.27
246.401	15398.93
246.473	15352.13
246.544	15309.72
246.615	15288.84
246.686	15263.63
246.757	15253.41
246.828	15209.36
246.899	15189.06
246.97	15145.83
247.042	15111.17
247.113	15090.15
247.184	15079.16
247.255	15042.96
247.326	15019.2
247.397	14985.21
247.468	14956.82
247.539	14928.05
247.61	14886.35
247.681	14867.6
247.752	14845.13
247.823	14812.5
247.894	14792.16
247.965	14751.67
248.037	14716.72
248.108	14680.57
248.179	14641.09
248.25	14613.71
248.321	14593.99
248.392	14561.64
248.463	14557.4
248.534	14527.71
248.605	14509.82
248.675	14476.32
248.746	14453.76
248.817	14425.32
248.888	14402.62
248.959	14354.7
249.03	14333.88
249.101	14311.65
249.172	14281.14
249.243	14235.1
249.314	14218.71
249.385	14188.01
249.456	14170.31
249.527	14141.05
249.598	14111.02
249.669	14095.4
249.739	14072.89
249.81	14052.69
249.881	14008.53
249.952	13982.26
250.023	13959.03
250.094	13912.27
250.165	13883.87
250.235	13860.2
250.306	13828.87
250.377	13791.94
250.448	13772.03
250.519	13728.65
250.59	13715.25
250.66	13686.9
250.731	13679.57
250.802	13653.59
250.873	13633.1
250.944	13615.99
251.014	13590.44
251.085	13596.22
251.156	13577.04
251.227	13563.54
251.297	13548.31
251.368	13542.33
251.439	13523.43
251.51	13513.12
251.58	13483.86
251.651	13441.63
251.722	13419.16
251.792	13388.74
251.863	13363.72
251.934	13362.28
252.005	13367.39
252.075	13346.71
252.146	13335.62
252.217	13323.18
252.287	13310.46
252.358	13277.43
252.429	13271.07
252.499	13239.4
252.57	13207.87
252.641	13194.04
252.711	13168.54
252.782	13128.53
252.852	13123.32
252.923	13097.58
252.994	13076.22
253.064	13063.49
253.135	13037.32
253.205	13019.39
253.276	13021.8
253.347	13018.23
253.417	12981.79
253.488	12955.32
253.558	12928.04
253.629	12900.85
253.699	12878.05
253.77	12859.54
253.841	12842.42
253.911	12816.44
253.982	12797.16
254.052	12786.55
254.123	12761.15
254.193	12738.3
254.264	12760.38
254.334	12720.66
254.405	12687.63
254.475	12648.59
254.546	12623.91
254.616	12622.46
254.687	12599.23
254.757	12576.28
254.827	12550.54
254.898	12528.95
254.968	12508.75
255.039	12482.62
255.109	12475.92
255.18	12445.99
255.25	12413.4
255.321	12392.24
255.391	12359.27
255.461	12353.29
255.532	12311.74
255.602	12285.71
255.673	12242.08
255.743	12213.93
255.813	12177.64
255.884	12166.5
255.954	12156.57
256.024	12158.11
256.095	12136.81
256.165	12105.57
256.235	12084.56
256.306	12056.75
256.376	12050.62
256.446	12036.55
256.517	12020.26
256.587	12006.28
256.657	11986.08
256.728	11962.51
256.798	11945.3
256.868	11922.41
256.938	11898.07
257.009	11886.26
257.079	11870.64
257.149	11883.13
257.219	11837.29
257.29	11820.95
257.36	11783.02
257.43	11779.01
257.5	11732.36
257.571	11708.64
257.641	11699.29
257.711	11668.69
257.781	11655.24
257.852	11642.03
257.922	11603.81
257.992	11580.15
258.062	11559.28
258.132	11547.18
258.202	11528.14
258.273	11515.27
258.343	11515.76
258.413	11488.81
258.483	11465.44
258.553	11436.67
258.623	11406.01
258.693	11392.9
258.764	11394.01
258.834	11387.55
258.904	11361.57
258.974	11339.79
259.044	11312.9
259.114	11300.42
259.184	11285.48
259.254	11266.68
259.324	11230.97
259.394	11219.74
259.464	11220.7
259.535	11202.05
259.605	11187.07
259.675	11159.16
259.745	11143.26
259.815	11111.64
259.885	11094.3
259.955	11109.24
260.025	11087.99
260.095	11072.42
260.165	11062.69
260.235	11056.9
260.305	11038.25
260.375	11009.72
260.445	11019.75
260.515	11024.76
260.585	11010.3
260.655	10996.09
260.725	10988.33
260.795	10982.74
260.865	10983.99
260.934	10954.69
261.004	10938.69
261.074	10919.8
261.144	10923.75
261.214	10913.87
261.284	10897.54
261.354	10890.46
261.424	10859.47
261.494	10866.5
261.564	10846.21
261.634	10831.95
261.703	10796.2
261.773	10784.58
261.843	10777.02
261.913	10754.66
261.983	10715.68
262.053	10711.15
262.123	10691.88
262.192	10664.46
262.262	10650.1
262.332	10623.07
262.402	10615.5
262.472	10602.16
262.541	10563.28
262.611	10556.72
262.681	10539.86
262.751	10530.9
262.821	10510.85
262.89	10479.92
262.96	10462.33
263.03	10469.37
263.1	10461.61
263.169	10449.32
263.239	10439.25
263.309	10443.16
263.379	10437.95
263.448	10427.79
263.518	10413
263.588	10395.99
263.657	10396.09
263.727	10386.79
263.797	10366.94
263.867	10346.03
263.936	10315.05
264.006	10314.14
264.076	10294.72
264.145	10274.78
264.215	10249.82
264.285	10246.69
264.354	10218.56
264.424	10202.56
264.494	10170.52
264.563	10142.15
264.633	10143.74
264.702	10133.62
264.772	10096.72
264.842	10071.71
264.911	10068.2
264.981	10042.57
265.05	10026.19
265.12	10011.11
265.19	10002.44
265.259	10000.8
265.329	9997.33
265.398	9988.28
265.468	10004.27
265.537	9987.36
265.607	9979.56
265.676	9984.57
265.746	9969.06
265.815	9968.34
265.885	9948.4
265.955	9927.97
266.024	9907.84
266.094	9871.09
266.163	9870.46
266.232	9880.05
266.302	9864.3
266.371	9851.29
266.441	9839.3
266.51	9833.14
266.58	9810.84
266.649	9786.9
266.719	9781.93
266.788	9770.04
266.858	9778.42
266.927	9741.33
266.996	9731.46
267.066	9723.61
267.135	9694.85
267.205	9687.77
267.274	9672.31
267.343	9675.11
267.413	9665.04
267.482	9669.09
267.552	9675.83
267.621	9652.85
267.69	9616.59
267.76	9613.7
267.829	9602.04
267.898	9592.84
267.968	9570.65
268.037	9570.26
268.106	9566.84
268.176	9543.24
268.245	9531.83
268.314	9509.53
268.384	9509
268.453	9495.32
268.522	9480.49
268.592	9480.06
268.661	9468.93
268.73	9462.24
268.799	9435.8
268.869	9441.44
268.938	9414.85
269.007	9395.69
269.076	9382.54
269.146	9379.99
269.215	9366.7
269.284	9375.13
269.353	9356.11
269.422	9346.96
269.492	9330.49
269.561	9295.05
269.63	9289.47
269.699	9273.05
269.768	9268.33
269.838	9261.15
269.907	9261.78
269.976	9247.62
270.045	9219.03
270.114	9212.09
270.183	9201.79
270.253	9200.97
270.322	9172.71
270.391	9163.27
270.46	9169.1
270.529	9162.89
270.598	9158.7
270.667	9148.3
270.736	9123.84
270.806	9117.77
270.875	9122.49
270.944	9106.31
271.013	9121.09
271.082	9110.65
271.151	9104.87
271.22	9071.79
271.289	9062.45
271.358	9047.14
271.427	9035.88
271.496	9027.94
271.565	9013.69
271.634	9003.05
271.703	9004.97
271.772	9003.82
271.841	8995.35
271.91	8972.67
271.979	8960.15
272.048	8937.29
272.117	8940.9
272.186	8924.77
272.255	8925.69
272.324	8918.37
272.393	8918.42
272.462	8903.49
272.531	8899.5
272.6	8891.46
272.669	8898.68
272.738	8882.98
272.807	8878.55
272.876	8856.8
272.945	8884.34
273.013	8883.18
273.082	8892.52
273.151	8869.17
273.22	8862.48
273.289	8854.44
273.358	8854.64
273.427	8849.82
273.496	8852.81
273.564	8843.13
273.633	8841.4
273.702	8820.27
273.771	8814.39
273.84	8813.58
273.909	8817.43
273.977	8810.64
274.046	8797.07
274.115	8804.48
274.184	8785.86
274.253	8773.1
274.322	8779.89
274.39	8751.87
274.459	8740.8
274.528	8711.73
274.597	8704.89
274.665	8709.18
274.734	8713.99
274.803	8711.34
274.872	8702.58
274.94	8692.72
275.009	8741.5
275.078	8732.01
275.147	8735.82
275.215	8733.12
275.284	8730.62
275.353	8713.34
275.421	8689.18
275.49	8705.16
275.559	8688.12
275.627	8690.19
275.696	8687.59
275.765	8684.66
275.833	8670.99
275.902	8666.32
275.971	8678.45
276.039	8693.8
276.108	8696.11
276.177	8697.03
276.245	8678.98
276.314	8674.5
276.383	8683.5
276.451	8629
276.52	8631.93
276.588	8641.17
276.657	8640.93
276.725	8628.42
276.794	8630.06
276.863	8641.7
276.931	8615.9
277	8624.42
277.068	8634.58
277.137	8649.79
277.205	8652.34
277.274	8671.1
277.342	8681.26
277.411	8654.7
277.48	8641.03
277.548	8623.17
277.617	8623.8
277.685	8622.64
277.754	8631.4
277.822	8616.1
277.89	8626.35
277.959	8618.94
278.027	8594.2
278.096	8584.68
278.164	8611.97
278.233	8598.25
278.301	8590.55
278.37	8597.19
278.438	8580.16
278.507	8573.56
278.575	8544.93
278.643	8543.92
278.712	8522.98
278.78	8511.39
278.849	8526.11
278.917	8539.1
278.985	8538.43
279.054	8535.69
279.122	8549.64
279.191	8545.5
279.259	8544.49
279.327	8519.03
279.396	8527.98
279.464	8524.33
279.532	8537.95
279.601	8536.79
279.669	8538.24
279.737	8547.91
279.806	8551.52
279.874	8560.32
279.942	8566.82
280.011	8566.77
280.079	8569.23
280.147	8588.04
280.215	8586.12
280.284	8577.79
280.352	8556.09
280.42	8558.06
280.488	8549.64
280.557	8537.75
280.625	8536.36
280.693	8532.03
280.761	8539.39
280.83	8527.55
280.898	8541.79
280.966	8513.74
281.034	8481.83
281.102	8473.79
281.171	8469.56
281.239	8475.62
281.307	8471.1
281.375	8452
281.443	8479.14
281.512	8475.34
281.58	8482.8
281.648	8470.34
281.716	8472.31
281.784	8471.25
281.852	8469.32
281.92	8465.86
281.989	8475.39
282.057	8463.12
282.125	8511.69
282.193	8509.52
282.261	8506.58
282.329	8503.79
282.397	8512.02
282.465	8518.18
282.533	8533.34
282.601	8518.9
282.67	8495.42
282.738	8483.53
282.806	8496.33
282.874	8475.54
282.942	8476.94
283.01	8470.73
283.078	8479.34
283.146	8482.66
283.214	8493.82
283.282	8490.17
283.35	8501.96
283.418	8496.42
283.486	8500.22
283.554	8453.53
283.622	8454.11
283.69	8461.62
283.758	8454.54
283.826	8460.13
283.894	8466.81
283.962	8480.43
284.03	8502.28
284.098	8505.99
284.165	8507.29
284.233	8506.61
284.301	8508.82
284.369	8503.15
284.437	8495.01
284.505	8491.64
284.573	8499.58
284.641	8491.89
284.709	8502.95
284.777	8483.9
284.845	8492.18
284.912	8493.52
284.98	8498.62
285.048	8491.41
285.116	8489.96
285.184	8501.85
285.252	8497.04
285.319	8478.32
285.387	8470.86
285.455	8450.12
285.523	8459.5
285.591	8453.87
285.659	8455.03
285.726	8460.99
285.794	8441.89
285.862	8439.05
285.93	8436.55
285.997	8431.6
286.065	8425.34
286.133	8413.98
286.201	8420.29
286.269	8402.77
286.336	8396.37
286.404	8388.53
286.472	8397.29
286.539	8378.14
286.607	8363.27
286.675	8360.67
286.743	8372.36
286.81	8363.41
286.878	8373.76
286.946	8362.54
287.013	8365.77
287.081	8363.36
287.149	8344.64
287.216	8370.63
287.284	8363.98
287.352	8368.12
287.419	8367.88
287.487	8377.41
287.555	8385.16
287.622	8380.87
287.69	8390.35
287.758	8402.87
287.825	8397.24
287.893	8383.81
287.96	8388.09
288.028	8398.25
288.096	8406.43
288.163	8406.43
288.231	8394.01
288.298	8394.16
288.366	8404.6
288.433	8401.66
288.501	8396.13
288.569	8402.05
288.636	8398.29
288.704	8410.61
288.771	8413.98
288.839	8406.14
288.906	8407.49
288.974	8410.66
289.041	8405.71
289.109	8398.39
289.176	8404.55
289.244	8411.82
289.311	8430.68
289.379	8443.33
289.446	8446.03
289.514	8442.61
289.581	8439
289.649	8449.78
289.716	8450.21
289.783	8441.26
289.851	8459.02
289.918	8460.51
289.986	8475.33
290.053	8474.61
290.121	8474.18
290.188	8478.89
290.255	8509.07
290.323	8501.51
290.39	8490.88
290.458	8498.05
290.525	8507.67
290.592	8505.07
290.66	8509.55
290.727	8501.32
290.794	8517.34
290.862	8515.66
290.929	8520.86
290.996	8527.11
291.064	8534.81
291.131	8548.53
291.198	8564.31
291.266	8560.99
291.333	8566.33
291.4	8569.89
291.468	8586.11
291.535	8579.14
291.602	8582.74
291.669	8572.64
291.737	8577.16
291.804	8588.13
291.871	8609.31
291.938	8618.93
292.006	8642.95
292.073	8655.9
292.14	8664.51
292.207	8653.93
292.275	8656.24
292.342	8668.17
292.409	8688.24
292.476	8708.75
292.543	8705.19
292.611	8707.83
292.678	8730.45
292.745	8748.5
292.812	8761.21
292.879	8757.31
292.946	8764.77
293.014	8779.5
293.081	8786.91
293.148	8803.47
293.215	8816.08
293.282	8809.2
293.349	8815.12
293.416	8797.06
293.484	8811.89
293.551	8822.05
293.618	8843.46
293.685	8867.15
293.752	8855.45
293.819	8858
293.886	8851.22
293.953	8855.02
294.02	8867.97
294.087	8869.41
294.154	8865.42
294.221	8878.37
294.288	8877.36
294.356	8895.12
294.423	8899.16
294.49	8893.43
294.557	8899.35
294.624	8890.54
294.691	8905.23
294.758	8911.2
294.825	8920.68
294.892	8907.83
294.959	8913.17
295.026	8920.63
295.093	8918.9
295.16	8924.91
295.226	8925.2
295.293	8945.09
295.36	8951.06
295.427	8955.73
295.494	8971.66
295.561	8983.17
295.628	8998.67
295.695	9015.33
295.762	9018.26
295.829	9029.58
295.896	9044.84
295.963	9059.67
296.03	9069.49
296.096	9076.42
296.163	9085.28
296.23	9101.5
296.297	9116.33
296.364	9112.04
296.431	9111.47
296.498	9109.59
296.564	9129.47
296.631	9135.68
296.698	9120.8
296.765	9136.55
296.832	9130.53
296.899	9118.88
296.965	9134.19
297.032	9114.97
297.099	9132.98
297.166	9143.72
297.233	9141.7
297.299	9134.48
297.366	9133.66
297.433	9136.55
297.5	9149.88
297.566	9149.16
297.633	9148.29
297.7	9154.02
297.767	9159.13
297.833	9173.76
297.9	9171.93
297.967	9162.5
298.033	9175.88
298.1	9201.74
298.167	9191.82
298.234	9192.79
298.3	9195.67
298.367	9188.98
298.434	9200.78
298.5	9193.75
298.567	9183.73
298.634	9176.99
298.7	9191.44
298.767	9194.76
298.834	9212.38
298.9	9202.27
298.967	9194.61
299.033	9203.28
299.1	9215.03
299.167	9220.81
299.233	9209.35
299.3	9222.54
299.366	9242.13
299.433	9251.48
299.5	9229.81
299.566	9238.04
299.633	9259.32
299.699	9274.44
299.766	9272.23
299.832	9278.39
299.899	9288.41
299.965	9303.96
300.032	9302.52
300.099	9310.99
300.165	9314.84
300.232	9304.25
300.298	9305.36
300.365	9319.66
300.431	9319.51
300.498	9318.31
300.564	9328.28
300.631	9345.61
300.697	9364.78
300.763	9358.66
300.83	9355.19
300.896	9371.32
300.963	9383.51
301.029	9386.78
301.096	9388.51
301.162	9397.81
301.229	9387.69
301.295	9374.6
301.361	9376.81
301.428	9388.22
301.494	9371.37
301.561	9372.38
301.627	9378.98
301.693	9387.21
301.76	9385.62
301.826	9381.48
301.892	9386.1
301.959	9390.54
302.025	9385.86
302.092	9378.93
302.158	9393.28
302.224	9399.83
302.291	9393.42
302.357	9384.56
302.423	9380.61
302.49	9370.65
302.556	9386.35
302.622	9390.73
302.688	9401.9
302.755	9417.74
302.821	9412.98
302.887	9425.78
302.954	9421.88
303.02	9431.71
303.086	9430.65
303.152	9435.8
303.219	9429.01
303.285	9435.75
303.351	9444.47
303.417	9440.14
303.483	9430.79
303.55	9418.52
303.616	9418.71
303.682	9416.25
303.748	9416.01
303.815	9426.99
303.881	9441.87
303.947	9428.19
304.013	9427.38
304.079	9417.07
304.145	9396.03
304.212	9397.09
304.278	9391.26
304.344	9393.04
304.41	9382.4
304.476	9377.01
304.542	9372.58
304.608	9381.29
304.674	9363.67
304.741	9357.12
304.807	9365.88
304.873	9370.74
304.939	9386.06
305.005	9364.53
305.071	9365.01
305.137	9366.17
305.203	9340.41
305.269	9332.89
305.335	9338.24
305.401	9336.31
305.467	9335.16
305.533	9338.29
305.599	9352.25
305.666	9365.73
305.732	9361.21
305.798	9376.14
305.864	9401.66
305.93	9408.69
305.996	9404.84
306.062	9404.21
306.128	9402.62
306.194	9385.38
306.259	9385.24
306.325	9370.41
306.391	9380.18
306.457	9385.67
306.523	9387.98
306.589	9413.46
306.655	9407.1
306.721	9396.56
306.787	9377.01
306.853	9393.57
306.919	9381.39
306.985	9369.88
307.051	9357.03
307.117	9353.94
307.183	9341.33
307.248	9311.76
307.314	9311.9
307.38	9316.86
307.446	9327.94
307.512	9316.72
307.578	9322.5
307.644	9310.36
307.709	9319.32
307.775	9314.79
307.841	9314.17
307.907	9313.16
307.973	9293.51
308.039	9295.82
308.104	9296.74
308.17	9305.79
308.236	9286.67
308.302	9289.17
308.368	9274.3
308.433	9277.23
308.499	9276.17
308.565	9263.51
308.631	9264.33
308.696	9242.04
308.762	9231.92
308.828	9224.7
308.894	9207.37
308.959	9189.89
309.025	9183.92
309.091	9174.34
309.156	9167.12
309.222	9158.88
309.288	9144.01
309.354	9125.23
309.419	9119.74
309.485	9110.11
309.551	9118.2
309.616	9098.9
309.682	9094.18
309.748	9095.24
309.813	9088.88
309.879	9072.8
309.945	9065.97
310.01	9064.04
310.076	9066.64
310.141	9056.68
310.207	9042.28
310.273	9046.32
310.338	9048.92
310.404	9035.25
310.469	9021.82
310.535	9012.58
310.601	8993.42
310.666	9001.5
310.732	9014.5
310.797	9001.74
310.863	8989.47
310.928	8977.58
310.994	8986.43
311.059	8984.41
311.125	8978.63
311.191	8991.15
311.256	8983.55
311.322	8988.31
311.387	8968.58
311.453	9266.07
311.518	9238.06
311.584	9237.1
311.649	9240.32
311.715	9226.51
311.78	9228.43
311.846	9222.46
311.911	9232.72
311.976	9239.46
312.042	9223.76
312.107	9203.02
312.173	9195.94
312.238	9190.21
312.304	9189.2
312.369	9178.08
312.434	9167.11
312.5	9162.34
312.565	9122.96
312.631	9132.06
312.696	9121.37
312.761	9121.95
312.827	8810.35
312.892	8853.67
312.958	8850.11
313.023	8843.66
313.088	8845.15
313.154	8828.74
313.219	8819.74
313.284	8806.31
313.35	8797.5
313.415	8790.76
313.48	8787.83
313.546	8790.47
313.611	8803.71
313.676	8789.51
313.741	8783.4
313.807	8792.02
313.872	8792.74
313.937	8802.07
314.003	8808.04
314.068	8808.72
314.133	8815.94
314.198	8812.28
314.264	8787.58
314.329	8775.12
314.394	8774.68
314.459	8766.02
314.525	8793.98
314.59	8792.88
314.655	8776.7
314.72	8786.23
314.785	8785.03
314.851	8777.19
314.916	8756.49
314.981	8742.15
315.046	8742.58
315.111	8734.69
315.176	8718.71
315.242	8718.13
315.307	8716.45
315.372	8700.95
315.437	8693.25
315.502	8677.84
315.567	8690.41
315.632	8673.13
315.698	8675.49
315.763	8668.36
315.828	8666.78
315.893	8655.46
315.958	8651.18
316.023	8644.54
316.088	8624.28
316.153	8602.29
316.218	8600.02
316.283	8584.53
316.348	8558.36
316.413	8546.71
316.479	8529.63
316.544	8498.26
316.609	8472.27
316.674	8439.84
316.739	8401.55
316.804	8372.82
316.869	8345.45
316.934	8297.85
316.999	8270.91
317.064	8221.6
317.129	8181.24
317.194	8144.82
317.259	8098.39
317.324	8047.5
317.389	8008.44
317.454	7970.49
317.518	7938.99
317.583	7911.86
317.648	7891.66
317.713	7861.6
317.778	7798.27
317.843	7771
317.908	7735.76
317.973	7695.5
318.038	7666.7
318.103	7636.8
318.168	7598.52
318.233	7564.53
318.297	7518.09
318.362	7483.86
318.427	7445.85
318.492	7413.25
318.557	7368.12
318.622	7335.82
318.687	7312.99
318.751	7270.6
318.816	7233.93
318.881	7199.62
318.946	7142.29
319.011	7094.9
319.075	7052
319.14	7020.39
319.205	6978.2
319.27	6944.14
319.335	6900.62
319.399	6858.72
319.464	6827.64
319.529	6778.51
319.594	6741.09
319.658	6714
319.723	6669.48
319.788	6637.36
319.853	6584.87
319.917	6558.32
319.982	6506.8
320.047	6468.72
320.112	6437.9
320.176	6386.2
320.241	6354.27
320.306	6326.29
320.37	6288.46
320.435	6260.05
320.5	6240.03
320.564	6202.5
320.629	6161.81
320.694	6132.64
320.758	6090.27
320.823	6045.11
320.888	6019.21
320.952	5969.51
321.017	5928.59
321.082	5894.19
321.146	5861.48
321.211	5831.79
321.275	5786.47
321.34	5749.84
321.405	5704.62
321.469	5659.74
321.534	5624.7
321.598	5572.25
321.663	5540.36
321.727	5506.33
321.792	5455.52
321.857	5408.97
321.921	5368.47
321.986	5324.87
322.05	5265.41
322.115	5231.48
322.179	5187.55
322.244	5135.53
322.308	5103.53
322.373	5058.55
322.437	5015.59
322.502	4993.35
322.566	4949.72
322.631	4916.06
322.695	4873.4
322.76	4832.04
322.824	4802.55
322.889	4761.82
322.953	4716.02
323.018	4656.28
323.082	4594.03
323.146	4548.68
323.211	4494.04
323.275	4449.26
323.34	4409.75
323.404	4376.85
323.468	4329.25
323.533	4289.6
323.597	4245.43
323.662	4196.85
323.726	4163.9
323.79	4118.53
323.855	4050.71
323.919	4005.06
323.983	3958.64
324.048	3895.17
324.112	4044.2
324.177	3916.99
324.241	3713.57
324.305	3518.33
324.37	3321.89
324.434	3137.21
324.498	3094.87
324.562	3049.02
324.627	2993.23
324.691	2938.19
324.755	2876.65
324.82	2805.1
324.884	2728.13
324.948	2658.61
325.012	2567.05
325.077	2443.71
