Data from 20250702_urea_0.5M_MAYP1162681_23-54-59-664.txt Node
Date: Wed Jul 02 23:54:59 BST 2025
User: adleo
Spectrometer: MAYP116268
Trigger mode: 0
Integration Time (sec): 1.000000E0
Scans to average: 1
Electric dark correction enabled: true
Nonlinearity correction enabled: true
Boxcar width: 10
XAxis mode: Wavelengths
Number of Pixels in Spectrum: 2068
>>>>>Begin Spectral Data<<<<<
179.565	1222.52
179.642	1280.5
179.718	1326.64
179.795	1367.48
179.871	1399.01
179.948	1416
180.024	1436.21
180.101	1460.11
180.177	1474.82
180.254	1498.39
180.33	1521.62
180.407	1575.65
180.483	1672.14
180.56	1762.79
180.636	1847.25
180.712	1833.7
180.789	1846.05
180.865	1857.37
180.942	1864.64
181.018	1876.14
181.095	1889.22
181.171	1893.59
181.248	1893.35
181.324	1906.95
181.4	1914.42
181.477	1924.88
181.553	1937.71
181.63	1960.54
181.706	1976.09
181.782	1983.26
181.859	1980.36
181.935	1985.93
182.011	1981.84
182.088	2000.39
182.164	2019.13
182.24	2033.15
182.317	2041.09
182.393	2038.34
182.469	2051.65
182.546	2066.06
182.622	2070.82
182.698	2067.06
182.775	2079.9
182.851	2095.41
182.927	2086.7
183.003	2081.9
183.08	2077.48
183.156	2087.8
183.232	2082.85
183.308	2070.01
183.385	2079.9
183.461	2098.07
183.537	2099.83
183.613	2112.62
183.69	2100.92
183.766	2091.88
183.842	2098.87
183.918	2106.01
183.995	2121.7
184.071	2124.46
184.147	2119.94
184.223	2112.38
184.299	2120.9
184.375	2109.62
184.452	2114
184.528	2171.58
184.604	2180.81
184.68	2193.61
184.756	2202.79
184.832	2205.88
184.908	2210.64
184.985	2210.45
185.061	2195.18
185.137	2203.93
185.213	2192.85
185.289	2194.8
185.365	2189.33
185.441	2190.09
185.517	2203.7
185.593	2199.61
185.669	2198.09
185.745	2208.7
185.822	2223.97
185.898	2221.44
185.974	2230.1
186.05	2222.2
186.126	2184.36
186.202	2179.18
186.278	2173.71
186.354	2164.1
186.43	2171.38
186.506	2170.76
186.582	2167.81
186.658	2176.85
186.734	2154.4
186.81	2156.87
186.886	2160.86
186.962	2170.85
187.038	2164.15
187.114	2153.63
187.19	2160.48
187.266	2150.25
187.341	2152.16
187.417	2144.69
187.493	2143.55
187.569	2148.26
187.645	2143.12
187.721	2127.27
187.797	2136.46
187.873	2142.31
187.949	2136.6
188.025	2133.65
188.101	2138.36
188.176	2145.21
188.252	2138.74
188.328	2146.49
188.404	2146.68
188.48	2140.92
188.556	2134.17
188.632	2134.55
188.707	2138.69
188.783	2134.5
188.859	2130.03
188.935	2117.23
189.011	2123.75
189.086	2113.67
189.162	2104.63
189.238	2103.01
189.314	2101.54
189.39	2092.36
189.465	2084.36
189.541	2099.44
189.617	2080.04
189.693	2074.57
189.768	2078.38
189.844	2104.5
189.92	2098.46
189.996	2109.36
190.071	2123.91
190.147	2123.44
190.223	2134.57
190.298	2127.01
190.374	2114.69
190.45	2125.58
190.526	2133.09
190.601	2127.67
190.677	2132.76
190.753	2158.13
190.828	2164.07
190.904	2179.06
190.98	2193.43
191.055	2206.51
191.131	2200.99
191.207	2223.83
191.282	2233.05
191.358	2221.92
191.433	2204.45
191.509	2216.25
191.585	2212.82
191.66	2210.63
191.736	2216.39
191.811	2208.87
191.887	2225.81
191.963	2250.79
192.038	2258.84
192.114	2262.79
192.189	2268.26
192.265	2264.78
192.34	2243.7
192.416	2241.13
192.491	2238.13
192.567	2241.6
192.642	2241.27
192.718	2236.32
192.793	2223
192.869	2218.58
192.944	2223.76
193.02	2232.28
193.095	2238.18
193.171	2243.94
193.246	2241.94
193.322	2239.04
193.397	2237.37
193.473	2218.81
193.548	2199.3
193.624	2202.39
193.699	2196.82
193.775	2214.39
193.85	2213.67
193.925	2224.1
194.001	2223.38
194.076	2214.87
194.152	2204.87
194.227	2197.02
194.302	2191.5
194.378	2198.07
194.453	2194.22
194.529	2205.4
194.604	2191.12
194.679	2184.32
194.755	2165.06
194.83	2179.34
194.905	2178.86
194.981	2188.28
195.056	2183.67
195.131	2190.28
195.207	2188.61
195.282	2182.62
195.357	2161.11
195.433	2178.42
195.508	2164.82
195.583	2173.14
195.659	2187.18
195.734	2194.36
195.809	2193.08
195.884	2198.88
195.96	2198.07
196.035	2213.58
196.11	2206.92
196.185	2218.72
196.261	2220.91
196.336	2250.93
196.411	2236.37
196.486	2244.45
196.561	2237.27
196.637	2244.97
196.712	2260.49
196.787	2266.35
196.862	2278.77
196.937	2289
197.013	2292.52
197.088	2303.08
197.163	2323.7
197.238	2341.89
197.313	2344.46
197.388	2362.26
197.464	2394.12
197.539	2407.3
197.614	2401.73
197.689	2416.73
197.764	2436.25
197.839	2457.91
197.914	2453.1
197.989	2476.58
198.065	2489.38
198.14	2539.98
198.215	2567.93
198.29	2579.65
198.365	2590.79
198.44	2605.6
198.515	2636.04
198.59	2653.52
198.665	2680.05
198.74	2689.2
198.815	2690.01
198.89	2709.63
198.965	2739.47
199.04	2734.42
199.115	2748.76
199.19	2792.97
199.265	2795.06
199.34	2804.59
199.415	2838.68
199.49	2861.93
199.565	2869.65
199.64	2892.05
199.715	2890.47
199.79	2896.14
199.865	2904.49
199.94	2904.53
200.015	2933.23
200.09	2935.57
200.165	2939.62
200.24	2945.44
200.315	2986.18
200.39	3001.92
200.464	3007.73
200.539	3008.02
200.614	3024.13
200.689	3047.11
200.764	3051.98
200.839	3073.8
200.914	3076
200.989	3064.55
201.063	3077.37
201.138	3062.08
201.213	3063.7
201.288	3045.44
201.363	3049.83
201.438	3052.02
201.512	3066.79
201.587	3047.53
201.662	3053.78
201.737	3067.51
201.812	3078.57
201.886	3046.6
201.961	3058.29
202.036	3048.37
202.111	3043.08
202.186	3013.68
202.26	2994.47
202.335	2971.44
202.41	2963.95
202.485	2949.56
202.559	2928.82
202.634	2899.7
202.709	2909.56
202.784	2891.35
202.858	2890.78
202.933	2873.39
203.008	2866.57
203.082	2847.7
203.157	2850.94
203.232	2807.4
203.306	2785.71
203.381	2752.77
203.456	2725.37
203.53	2703.05
203.605	2681.95
203.68	2659.32
203.754	2654.84
203.829	2642.12
203.904	2625.07
203.978	2609.54
204.053	2613.92
204.127	2600.92
204.202	2601.54
204.277	2582.39
204.351	2573.73
204.426	2564.2
204.5	2557.1
204.575	2517.96
204.65	2527.16
204.724	2517.72
204.799	2524.91
204.873	2522.86
204.948	2520.19
205.022	2508.1
205.097	2495.29
205.171	2509.28
205.246	2519
205.32	2518.57
205.395	2518.76
205.469	2507.34
205.544	2516.34
205.618	2496.49
205.693	2513.11
205.767	2502.3
205.842	2525.02
205.916	2518.21
205.991	2508.78
206.065	2513.35
206.14	2531.05
206.214	2526.24
206.289	2517.14
206.363	2530.48
206.438	2532.62
206.512	2540.96
206.586	2561.62
206.661	2572.2
206.735	2549.97
206.81	2551.59
206.884	2565.11
206.958	2552.3
207.033	2570.06
207.107	2576.2
207.181	2610.13
207.256	2603.65
207.33	2622.41
207.405	2637.81
207.479	2661.06
207.553	2672.44
207.628	2661.58
207.702	2679.06
207.776	2676.49
207.851	2685.01
207.925	2704.46
207.999	2706.99
208.073	2710.04
208.148	2719.85
208.222	2713.08
208.296	2755.61
208.371	2778.55
208.445	2796.23
208.519	2838.45
208.593	2864.14
208.668	2874.91
208.742	2890.41
208.816	2907
208.89	2936.85
208.965	2949.59
209.039	2974.63
209.113	3009.96
209.187	3045.55
209.261	3060.09
209.336	3104.2
209.41	3148.47
209.484	3174.05
209.558	3222.57
209.632	3264.07
209.707	3305.24
209.781	3361.17
209.855	3408.38
209.929	3459.07
210.003	3505.65
210.077	3544.14
210.151	3631.93
210.226	3704.46
210.3	3777.17
210.374	3844.17
210.448	3894.68
210.522	3952.22
210.596	4013.45
210.67	4076.78
210.744	4183.74
210.818	4276.56
210.892	4357.26
210.966	4415.69
211.041	4494.48
211.115	4560.16
211.189	4652.75
211.263	4736.4
211.337	4811.97
211.411	4900.84
211.485	4971.98
211.559	5063.14
211.633	5141.04
211.707	5191.32
211.781	5285.43
211.855	5335.23
211.929	5418.26
212.003	5490.26
212.077	5595.42
212.151	5700.54
212.225	5799.66
212.299	5882.26
212.373	5966.06
212.447	6060.65
212.52	6189.59
212.594	6294.71
212.668	6411.69
212.742	6504.26
212.816	6607.3
212.89	6709.52
212.964	6811.26
213.038	6926.19
213.112	7046.98
213.186	7172.85
213.26	7262.05
213.333	7321.88
213.407	7437.5
213.481	7550.58
213.555	7677.84
213.629	7775.94
213.703	7874.97
213.777	7997.48
213.85	8090.65
213.924	8235.46
213.998	8344.1
214.072	8448.82
214.146	8547.71
214.219	8649.88
214.293	8755.56
214.367	8866.6
214.441	8989.78
214.515	9094.06
214.588	9180.24
214.662	9256.98
214.736	9352.03
214.81	9478.41
214.883	9606.23
214.957	9702.63
215.031	9798.46
215.105	9885.43
215.178	9979.11
215.252	10079.45
215.326	10156.14
215.4	10245.83
215.473	10303.17
215.547	10398.61
215.621	10487.8
215.694	10600.5
215.768	10681.11
215.842	10771.79
215.915	10868.89
215.989	10946.77
216.063	11039.73
216.136	11146.23
216.21	11253.07
216.284	11355.24
216.357	11443.05
216.431	11536.41
216.504	11651.16
216.578	11773.49
216.652	11877.78
216.725	11984.35
216.799	12080.61
216.873	12175.42
216.946	12281.51
217.02	12369.72
217.093	12451.66
217.167	12524.59
217.24	12592.9
217.314	12684.82
217.387	12768.12
217.461	12839.03
217.535	12939.78
217.608	13015.61
217.682	13090.76
217.755	13178.01
217.829	13256.83
217.902	13348.71
217.976	13422.18
218.049	13482.87
218.123	13545.78
218.196	13635.68
218.27	13702.3
218.343	13772.54
218.417	13850.39
218.49	13911.47
218.563	14005.47
218.637	14091.04
218.71	14192.22
218.784	14283.86
218.857	14372.36
218.931	14454.5
219.004	14538.04
219.077	14618.49
219.151	14694.22
219.224	14772.75
219.298	14847.51
219.371	14930.42
219.444	14987.83
219.518	15066.4
219.591	15152.88
219.665	15250.01
219.738	15317.54
219.811	15379.77
219.885	15456.79
219.958	15540.37
220.031	15619.67
220.105	15695.58
220.178	15766
220.251	15827.17
220.325	15898.07
220.398	15963.28
220.471	16031.73
220.544	16103.35
220.618	16157.72
220.691	16227.51
220.764	16290.6
220.838	16359.81
220.911	16412.97
220.984	16494.42
221.057	16561.71
221.131	16617.18
221.204	16643.74
221.277	16723.21
221.35	16819.75
221.424	16877.97
221.497	16931.17
221.57	16992.04
221.643	17053.59
221.716	17119.52
221.79	17173.49
221.863	17223.18
221.936	17276.82
222.009	17324.92
222.082	17384.25
222.155	17425.93
222.229	17501.16
222.302	17558.8
222.375	17606.41
222.448	17664.92
222.521	17710.6
222.594	17754.32
222.667	17796.1
222.74	17863.04
222.814	17899.9
222.887	17927.32
222.96	17984.53
223.033	18041.78
223.106	18082.26
223.179	18124.86
223.252	18164.47
223.325	18206.49
223.398	18254.68
223.471	18294.87
223.544	18348.75
223.617	18389.23
223.69	18429.57
223.763	18443.83
223.837	18481.37
223.91	18519.63
223.983	18541.37
224.056	18566.96
224.129	18610.67
224.202	18660.4
224.275	18685.94
224.348	18714.52
224.42	18744.83
224.493	18746.37
224.566	18775.62
224.639	18817.5
224.712	18843.47
224.785	18870.99
224.858	18898.5
224.931	18918.79
225.004	18945.49
225.077	18976.91
225.15	18977.92
225.223	19018.74
225.296	19078.2
225.369	19099.84
225.442	19118.78
225.514	19150.73
225.587	19182.73
225.66	19203.74
225.733	19229.28
225.806	19258.63
225.879	19282.29
225.952	19299.39
226.025	19354.67
226.097	19394.04
226.17	19413.27
226.243	19423.82
226.316	19444.16
226.389	19477.46
226.461	19495.43
226.534	19517.74
226.607	19533.07
226.68	19577.02
226.753	19600.1
226.825	19591.52
226.898	19617.11
226.971	19643.95
227.044	19674.36
227.117	19697.64
227.189	19734.99
227.262	19767.47
227.335	19792.86
227.407	19808.57
227.48	19828.14
227.553	19840.81
227.626	19844.38
227.698	19865.15
227.771	19887.51
227.844	19894.4
227.916	19901.97
227.989	19921.58
228.062	19942.25
228.134	19981.43
228.207	20001.96
228.28	20012.47
228.352	20035.12
228.425	20052.76
228.498	20071.02
228.57	20076.71
228.643	20107.07
228.716	20109.91
228.788	20112.37
228.861	20112.27
228.934	20134.58
229.006	20145.52
229.079	20160.27
229.151	20163.55
229.224	20159.74
229.296	20170.87
229.369	20218.01
229.442	20251.26
229.514	20254.97
229.587	20274.34
229.659	20264.66
229.732	20266.68
229.804	20280.8
229.877	20317.04
229.949	20332.46
230.022	20362.44
230.094	20372.17
230.167	20376.37
230.239	20373.23
230.312	20375.98
230.384	20404.99
230.457	20412.37
230.529	20418.39
230.602	20421.38
230.674	20445.86
230.747	20469.47
230.819	20501.19
230.892	20467.26
230.964	20464.75
231.037	20473.86
231.109	20477.52
231.181	20493.86
231.254	20497.18
231.326	20499.26
231.399	20486.53
231.471	20486.34
231.544	20460.32
231.616	20472.32
231.688	20485.28
231.761	20493.86
231.833	20497.62
231.905	20486.73
231.978	20496.75
232.05	20497.33
232.122	20503.59
232.195	20485.42
232.267	20501.23
232.339	20490.58
232.412	20504.27
232.484	20500.8
232.556	20493.28
232.629	20510.73
232.701	20506.49
232.773	20510.73
232.846	20506.34
232.918	20500.85
232.99	20508.8
233.062	20515.93
233.135	20511.16
233.207	20496.36
233.279	20495.74
233.351	20496.08
233.424	20492.94
233.496	20477.52
233.568	20496.32
233.64	20480.94
233.713	20476.08
233.785	20459.59
233.857	20452.22
233.929	20433.57
234.001	20443.11
234.074	20455.74
234.146	20421.52
234.218	20408.17
234.29	20389.42
234.362	20368.89
234.434	20339.79
234.507	20305.76
234.579	20277.09
234.651	20266
234.723	20244.61
234.795	20234.97
234.867	20211.6
234.939	20210.73
235.012	20204.22
235.084	20193.72
235.156	20172.99
235.228	20151.74
235.3	20135.45
235.372	20114.59
235.444	20105.48
235.516	20061.72
235.588	20045.29
235.66	20028.13
235.732	20012.42
235.804	20051.55
235.876	20046.3
235.948	20049.48
236.02	20040.23
236.092	20022.25
236.164	19999.99
236.236	19993.34
236.308	19975.55
236.38	19960.86
236.452	19917.97
236.524	19900.43
236.596	19893.49
236.668	19888.43
236.74	19873.15
236.812	19858.11
236.884	19849.05
236.956	19840.81
237.028	19815.13
237.1	19786.07
237.172	19789.39
237.244	19784.09
237.316	19725.88
237.388	19699.57
237.46	19668.34
237.532	19652.1
237.604	19631.14
237.675	19622.85
237.747	19596.63
237.819	19562.56
237.891	19544.15
237.963	19524.92
238.035	19489.75
238.107	19423.97
238.178	19415.2
238.25	19384.26
238.322	19380.4
238.394	19338.91
238.466	19300.26
238.538	19283.64
238.609	19261.18
238.681	19208.46
238.753	19171.11
238.825	19150.2
238.897	19131.84
238.968	19120.95
239.04	19082.06
239.112	19075.99
239.184	19032.33
239.255	19002.5
239.327	18986.69
239.399	18961.97
239.471	18945.01
239.542	18922.21
239.614	18920.04
239.686	18863.86
239.758	18853.16
239.829	18808.82
239.901	18800.87
239.973	18769.74
240.044	18745.12
240.116	18716.01
240.188	18686.85
240.259	18656.3
240.331	18612.35
240.403	18581.66
240.474	18531.06
240.546	18500.79
240.618	18456.7
240.689	18421.23
240.761	18395.26
240.833	18374.1
240.904	18338.44
240.976	18306.01
241.048	18277.09
241.119	18256.08
241.191	18241.43
241.262	18235.22
241.334	18199.36
241.405	18157.68
241.477	18128.04
241.549	18086.98
241.62	18057.54
241.692	18039.85
241.763	18024.72
241.835	18001.35
241.906	17973.4
241.978	17937.11
242.049	17919.04
242.121	17904.96
242.192	17893.06
242.264	17837.49
242.335	17785.74
242.407	17762.99
242.478	17717.21
242.55	17688.05
242.621	17638.51
242.693	17595.14
242.764	17542.13
242.836	17510.37
242.907	17489.5
242.979	17466.56
243.05	17450.22
243.122	17419.62
243.193	17377.89
243.264	17311.81
243.336	17280.58
243.407	17257.07
243.479	17251.33
243.55	17229.98
243.622	17192.01
243.693	17160.63
243.764	17156.54
243.836	17116
243.907	17077.26
243.978	17053.69
244.05	17018.46
244.121	16973.25
244.192	16954.55
244.264	16910.16
244.335	16874.4
244.407	16813.39
244.478	16785.97
244.549	16743.75
244.62	16704.27
244.692	16675.84
244.763	16664.51
244.834	16620.08
244.906	16574.77
244.977	16543.4
245.048	16523.49
245.119	16491.25
245.191	16448.79
245.262	16388.83
245.333	16375.58
245.405	16344.68
245.476	16308.73
245.547	16283.52
245.618	16263.32
245.689	16233.25
245.761	16205.87
245.832	16172.81
245.903	16163.51
245.974	16134.35
246.045	16102.05
246.117	16089.38
246.188	16042.05
246.259	15992.88
246.33	15964.97
246.401	15932.58
246.473	15884.58
246.544	15835.08
246.615	15808.14
246.686	15766.83
246.757	15751.5
246.828	15719.21
246.899	15706.43
246.97	15668.06
247.042	15629.99
247.113	15603.96
247.184	15581.69
247.255	15539.03
247.326	15520.23
247.397	15478.68
247.468	15445.52
247.539	15414.91
247.61	15369.41
247.681	15347.05
247.752	15338.76
247.823	15298.7
247.894	15276.62
247.965	15233.05
248.037	15200.8
248.108	15154
248.179	15127.63
248.25	15096.3
248.321	15068.63
248.392	15031.51
248.463	15033.78
248.534	15010.01
248.605	14986.88
248.675	14967.55
248.746	14956.46
248.817	14929.18
248.888	14905.22
248.959	14868.78
249.03	14844.63
249.101	14814.6
249.172	14787.17
249.243	14724.79
249.314	14715.2
249.385	14688.25
249.456	14676.2
249.527	14643.04
249.598	14626.84
249.669	14600.47
249.739	14575.98
249.81	14547.25
249.881	14505.12
249.952	14464.15
250.023	14432.53
250.094	14388.37
250.165	14346.19
250.235	14315.77
250.306	14294.81
250.377	14265.54
250.448	14244.29
250.519	14205.29
250.59	14194.78
250.66	14167.64
250.731	14169.47
250.802	14134.42
250.873	14108.78
250.944	14077.73
251.014	14052.52
251.085	14050.88
251.156	14031.7
251.227	14023.65
251.297	14018.87
251.368	14003.26
251.439	13995.88
251.51	13978.77
251.58	13949.99
251.651	13913.25
251.722	13898.02
251.792	13849.04
251.863	13815.73
251.934	13801.03
252.005	13800.6
252.075	13770.61
252.146	13756.58
252.217	13742.7
252.287	13725.59
252.358	13702.06
252.429	13708.09
252.499	13672.22
252.57	13641.27
252.641	13625.66
252.711	13596.97
252.782	13542.26
252.852	13534.88
252.923	13508.18
252.994	13486.48
253.064	13479.44
253.135	13443.05
253.205	13410.12
253.276	13403.42
253.347	13404.48
253.417	13376.57
253.488	13348.23
253.558	13319.88
253.629	13299.2
253.699	13277.56
253.77	13271.24
253.841	13237.83
253.911	13212.86
253.982	13198.74
254.052	13187.36
254.123	13168.46
254.193	13147.35
254.264	13172.8
254.334	13144.41
254.405	13107.1
254.475	13072.1
254.546	13044.29
254.616	13048.05
254.687	13030.69
254.757	13014.4
254.827	12986.73
254.898	12966.91
254.968	12945.56
255.039	12919.62
255.109	12903.52
255.18	12867.18
255.25	12817.53
255.321	12811.79
255.391	12769.75
255.461	12767.01
255.532	12714.51
255.602	12683.32
255.673	12638.44
255.743	12607.78
255.813	12560.3
255.884	12553.79
255.954	12540.68
256.024	12536.78
256.095	12516
256.165	12487.03
256.235	12470.4
256.306	12444.27
256.376	12426.15
256.446	12417.95
256.517	12411.54
256.587	12401.47
256.657	12386.96
256.728	12367.73
256.798	12347.62
256.868	12327.52
256.938	12296.58
257.009	12293.44
257.079	12287.32
257.149	12302.8
257.219	12261.1
257.29	12247.07
257.36	12197.81
257.43	12190.63
257.5	12152.65
257.571	12127.77
257.641	12105.99
257.711	12077.5
257.781	12053.45
257.852	12044.82
257.922	12004.47
257.992	11974.39
258.062	11945.23
258.132	11936.7
258.202	11921.42
258.273	11904.12
258.343	11896.26
258.413	11876.11
258.483	11854.52
258.553	11826.61
258.623	11789.93
258.693	11777.98
258.764	11775.61
258.834	11784.34
258.904	11761.97
258.974	11736.14
259.044	11716.81
259.114	11714.79
259.184	11694.69
259.254	11681.39
259.324	11639.6
259.394	11626.63
259.464	11632.66
259.535	11616.12
259.605	11591.64
259.675	11560.8
259.745	11539.78
259.815	11513.75
259.885	11487.34
259.955	11501.08
260.025	11472.02
260.095	11456.07
260.165	11443.01
260.235	11441.99
260.305	11412.06
260.375	11387.39
260.445	11393.7
260.515	11395.87
260.585	11387.58
260.655	11366.04
260.725	11356.4
260.795	11347.19
260.865	11347.29
260.934	11314.71
261.004	11308.69
261.074	11291.91
261.144	11297.02
261.214	11290.52
261.284	11273.5
261.354	11269.79
261.424	11232.54
261.494	11236.2
261.564	11219.04
261.634	11209.69
261.703	11171.57
261.773	11161.21
261.843	11149.98
261.913	11129.6
261.983	11085.89
262.053	11069.93
262.123	11060.92
262.192	11025.89
262.262	11018.04
262.332	10988.11
262.402	10976.5
262.472	10953.22
262.541	10915.78
262.611	10911.25
262.681	10891.06
262.751	10878.34
262.821	10860.7
262.89	10824.12
262.96	10815.74
263.03	10824.22
263.1	10806.73
263.169	10789.77
263.239	10778.15
263.309	10776.08
263.379	10767.6
263.448	10759.55
263.518	10744.08
263.588	10726.74
263.657	10739.27
263.727	10732.47
263.797	10720.04
263.867	10703.7
263.936	10679.95
264.006	10676.91
264.076	10653.35
264.145	10634.22
264.215	10617.65
264.285	10612.88
264.354	10588.26
264.424	10558.48
264.494	10526.05
264.563	10502.49
264.633	10514.3
264.702	10504.27
264.772	10473.92
264.842	10453.25
264.911	10439.81
264.981	10413.74
265.05	10397.12
265.12	10375.2
265.19	10359.39
265.259	10354.62
265.329	10353.85
265.398	10341.95
265.468	10359.1
265.537	10337.71
265.607	10325.53
265.676	10318.35
265.746	10300.52
265.815	10307.12
265.885	10292.52
265.955	10264.15
266.024	10250.66
266.094	10211.15
266.163	10210.14
266.232	10207.16
266.302	10190.25
266.371	10181.05
266.441	10169.39
266.51	10167.03
266.58	10148.05
266.649	10129.89
266.719	10122.03
266.788	10107.77
266.858	10115.29
266.927	10081.56
266.996	10075.4
267.066	10067.4
267.135	10046.69
267.205	10043.85
267.274	10027.32
267.343	10026.99
267.413	10023.33
267.482	10019.47
267.552	10018.17
267.621	9988.98
267.69	9967.16
267.76	9958.39
267.829	9949.34
267.898	9936.57
267.968	9910.9
268.037	9911.72
268.106	9910.22
268.176	9881.42
268.245	9861.96
268.314	9838.21
268.384	9834.74
268.453	9828.91
268.522	9819.86
268.592	9822.65
268.661	9801.07
268.73	9802.13
268.799	9785.66
268.869	9786.14
268.938	9758.64
269.007	9740.15
269.076	9732.2
269.146	9733.02
269.215	9723.29
269.284	9727
269.353	9712.21
269.422	9695.6
269.492	9677.44
269.561	9631.88
269.63	9625.19
269.699	9612.57
269.768	9602.99
269.838	9592.34
269.907	9584.4
269.976	9558.78
270.045	9521.65
270.114	9523.29
270.183	9500.84
270.253	9490.06
270.322	9462.32
270.391	9452.4
270.46	9464.1
270.529	9461.4
270.598	9453.36
270.667	9442.72
270.736	9423.5
270.806	9413.92
270.875	9424.27
270.944	9411.99
271.013	9435.3
271.082	9435.49
271.151	9429.23
271.22	9401.69
271.289	9384.26
271.358	9371.4
271.427	9366.15
271.496	9365
271.565	9344.14
271.634	9338.85
271.703	9364.33
271.772	9366.44
271.841	9356.33
271.91	9323.11
271.979	9315.84
272.048	9294.75
272.117	9289.21
272.186	9273.37
272.255	9279.39
272.324	9273.46
272.393	9266.19
272.462	9253.58
272.531	9244.23
272.6	9227.72
272.669	9228.2
272.738	9217.17
272.807	9213.37
272.876	9198.21
272.945	9228.93
273.013	9233.5
273.082	9235.81
273.151	9190.35
273.22	9187.27
273.289	9181.69
273.358	9192.04
273.427	9177.79
273.496	9174.66
273.564	9172.59
273.633	9170.52
273.702	9149.33
273.771	9137.87
273.84	9129.59
273.909	9123.09
273.977	9117.03
274.046	9112.41
274.115	9119.82
274.184	9107.3
274.253	9098.64
274.322	9107.01
274.39	9065.75
274.459	9043.17
274.528	9009.67
274.597	9005.48
274.665	8999.56
274.734	9008.75
274.803	8995.61
274.872	8984.58
274.94	8966.92
275.009	9020.28
275.078	9008.25
275.147	9000.83
275.215	8993.08
275.284	9005.94
275.353	8989.95
275.421	8966.99
275.49	8981.87
275.559	8971.61
275.627	8963.96
275.696	8949.52
275.765	8946.39
275.833	8937.87
275.902	8942.54
275.971	8955.68
276.039	8967.24
276.108	8973.59
276.177	8965.41
276.245	8954.87
276.314	8947.98
276.383	8956.98
276.451	8897.26
276.52	8901.35
276.588	8922.58
276.657	8929.76
276.725	8913.15
276.794	8916.33
276.863	8925.47
276.931	8900.15
277	8908.96
277.068	8923.06
277.137	8943.81
277.205	8942.32
277.274	8961.14
277.342	8965.52
277.411	8948.58
277.48	8931.05
277.548	8912.33
277.617	8918.25
277.685	8913.24
277.754	8921.14
277.822	8915.46
277.89	8929.81
277.959	8916.71
278.027	8887.49
278.096	8876.9
278.164	8908.15
278.233	8905.21
278.301	8896.07
278.37	8905.7
278.438	8887.11
278.507	8887.6
278.575	8864.1
278.643	8854.67
278.712	8838.16
278.78	8825.5
278.849	8832.38
278.917	8846.15
278.985	8841.14
279.054	8836.09
279.122	8848.55
279.191	8844.65
279.259	8841.09
279.327	8812.98
279.396	8831.65
279.464	8831.61
279.532	8842.39
279.601	8836.27
279.669	8832.71
279.737	8846.62
279.806	8837.09
279.874	8848.26
279.942	8842.05
280.011	8835.22
280.079	8848.41
280.147	8865.59
280.215	8873.1
280.284	8873.58
280.352	8859.81
280.42	8868.72
280.488	8865.3
280.557	8857.07
280.625	8863.57
280.693	8860.25
280.761	8859.96
280.83	8844.55
280.898	8860.24
280.966	8835.55
281.034	8800.31
281.102	8783.66
281.171	8772.06
281.239	8783.61
281.307	8771.72
281.375	8759.5
281.443	8787.42
281.512	8784.34
281.58	8786.41
281.648	8764.6
281.716	8758.54
281.784	8756.09
281.852	8753.87
281.92	8753.82
281.989	8763.98
282.057	8747.66
282.125	8788.49
282.193	8785.5
282.261	8784.98
282.329	8777.03
282.397	8778.48
282.465	8780.93
282.533	8799.65
282.601	8791.04
282.67	8771.25
282.738	8762.4
282.806	8776.6
282.874	8757.15
282.942	8759.6
283.01	8752.53
283.078	8765.67
283.146	8764.13
283.214	8770.53
283.282	8773.08
283.35	8772.65
283.418	8769.13
283.486	8775.63
283.554	8734.18
283.622	8732.45
283.69	8732.16
283.758	8729.75
283.826	8740.1
283.894	8751.51
283.962	8770.57
284.03	8788.62
284.098	8794.01
284.165	8790.16
284.233	8792.33
284.301	8791.75
284.369	8781.83
284.437	8768.98
284.505	8763.69
284.573	8778.8
284.641	8768.59
284.709	8769.51
284.777	8755.74
284.845	8763.35
284.912	8763.78
284.98	8766.24
285.048	8767.34
285.116	8773.94
285.184	8784.05
285.252	8775.62
285.319	8757.48
285.387	8746.07
285.455	8725.47
285.523	8726.43
285.591	8729.66
285.659	8731.39
285.726	8739.67
285.794	8721.43
285.862	8721.43
285.93	8719.6
285.997	8717.19
286.065	8714.02
286.133	8706.12
286.201	8704.34
286.269	8687.88
286.336	8680.66
286.404	8680.9
286.472	8692.26
286.539	8666.99
286.607	8646.3
286.675	8650.77
286.743	8659.53
286.81	8654.91
286.878	8668.53
286.946	8668.1
287.013	8670.89
287.081	8663.38
287.149	8649.28
287.216	8674.31
287.284	8669.64
287.352	8666.8
287.419	8662.85
287.487	8678.54
287.555	8684.17
287.622	8682.73
287.69	8685.04
287.758	8692.69
287.825	8686.92
287.893	8672.81
287.96	8680.42
288.028	8695.38
288.096	8697.31
288.163	8703.23
288.231	8691.34
288.298	8687.97
288.366	8695.67
288.433	8686.96
288.501	8679.36
288.569	8676.47
288.636	8666.07
288.704	8678.78
288.771	8693.89
288.839	8686.05
288.906	8682.05
288.974	8695.82
289.041	8700.97
289.109	8694.47
289.176	8707.23
289.244	8713.2
289.311	8725.04
289.379	8739.09
289.446	8740.2
289.514	8742.08
289.581	8742.56
289.649	8742.61
289.716	8747.42
289.783	8740.73
289.851	8764.46
289.918	8768.26
289.986	8783.9
290.053	8791.12
290.121	8793.53
290.188	8792.27
290.255	8824.86
290.323	8816.58
290.39	8806.72
290.458	8811.14
290.525	8820.19
290.592	8814.37
290.66	8811.38
290.727	8804.5
290.794	8812.97
290.862	8816.53
290.929	8817.16
290.996	8809.07
291.064	8818.94
291.131	8829.34
291.198	8839.93
291.266	8828.09
291.333	8826.26
291.4	8834.73
291.468	8851.77
291.535	8846.14
291.602	8844.7
291.669	8827.94
291.737	8833.48
291.804	8833.58
291.871	8844.5
291.938	8854.9
292.006	8883.88
292.073	8898.9
292.14	8912.62
292.207	8904.2
292.275	8903.28
292.342	8911.66
292.409	8942.42
292.476	8965.82
292.543	8958.07
292.611	8967.07
292.678	8995.42
292.745	9023.44
292.812	9026.28
292.879	9017.42
292.946	9024.83
293.014	9040.24
293.081	9050.06
293.148	9062.57
293.215	9077.26
293.282	9074.18
293.349	9088.81
293.416	9067.77
293.484	9082.02
293.551	9088.72
293.618	9103.98
293.685	9127.52
293.752	9125.74
293.819	9126.41
293.886	9117.22
293.953	9125.69
294.02	9132.24
294.087	9131.9
294.154	9123.33
294.221	9140.76
294.288	9144.42
294.356	9159.92
294.423	9169.6
294.49	9167.82
294.557	9181.97
294.624	9169.65
294.691	9192.52
294.758	9190.69
294.825	9200.32
294.892	9195.21
294.959	9195.5
295.026	9209.51
295.093	9202.24
295.16	9203.69
295.226	9204.07
295.293	9225.31
295.36	9228.05
295.427	9243.51
295.494	9255.5
295.561	9265.42
295.628	9291.52
295.695	9314.1
295.762	9318.78
295.829	9324.07
295.896	9341.36
295.963	9349.45
296.03	9365.24
296.096	9366.83
296.163	9376.84
296.23	9385.08
296.297	9394.95
296.364	9398.27
296.431	9403.52
296.498	9400.68
296.564	9424.46
296.631	9423.84
296.698	9411.32
296.765	9436.7
296.832	9420.32
296.899	9414.35
296.965	9427.64
297.032	9399.66
297.099	9415.55
297.166	9423.98
297.233	9422.87
297.299	9407.03
297.366	9405.01
297.433	9405.59
297.5	9419.55
297.566	9416.86
297.633	9422.3
297.7	9429.23
297.767	9422.15
297.833	9425.91
297.9	9430.68
297.967	9412.57
298.033	9422.16
298.1	9456.45
298.167	9444.98
298.234	9454.95
298.3	9465.21
298.367	9463.33
298.434	9469.78
298.5	9451.68
298.567	9443.59
298.634	9440.99
298.7	9464.34
298.767	9469.49
298.834	9484.9
298.9	9479.31
298.967	9473.06
299.033	9476.86
299.1	9487.84
299.167	9508.83
299.233	9502.28
299.3	9516.92
299.366	9538.78
299.433	9556.94
299.5	9525.15
299.566	9530.74
299.633	9542.78
299.699	9549.19
299.766	9546.44
299.832	9550.34
299.899	9562.09
299.965	9581.36
300.032	9580.39
300.099	9586.56
300.165	9592.29
300.232	9590.27
300.298	9583.77
300.365	9602.11
300.431	9602.5
300.498	9595.56
300.564	9600.52
300.631	9611.46
300.697	9620.37
300.763	9622.29
300.83	9619.6
300.896	9635.44
300.963	9639.48
301.029	9642.66
301.096	9641.6
301.162	9654.65
301.229	9658.6
301.295	9650.85
301.361	9649.12
301.428	9657.11
301.494	9642.18
301.561	9644.64
301.627	9647.91
301.693	9659.42
301.76	9663.52
301.826	9660.77
301.892	9670.5
301.959	9683.79
302.025	9676.95
302.092	9675.22
302.158	9677.72
302.224	9679.07
302.291	9672.14
302.357	9671.46
302.423	9667.47
302.49	9662.94
302.556	9671.46
302.622	9666.5
302.688	9674.11
302.755	9686.73
302.821	9690.25
302.887	9705.71
302.954	9702.05
303.02	9713.61
303.086	9714.43
303.152	9708.5
303.219	9710.19
303.285	9715.29
303.351	9719.97
303.417	9727.19
303.483	9721.51
303.55	9710.62
303.616	9711.15
303.682	9706.63
303.748	9701.52
303.815	9718.23
303.881	9725.8
303.947	9719.05
304.013	9724.69
304.079	9716.89
304.145	9696.95
304.212	9700.08
304.278	9690.54
304.344	9689.48
304.41	9672.29
304.476	9665.98
304.542	9666.6
304.608	9665.06
304.674	9649.65
304.741	9631.25
304.807	9631.15
304.873	9637.9
304.939	9656.87
305.005	9634.28
305.071	9634.33
305.137	9636.55
305.203	9610.3
305.269	9609.34
305.335	9619.5
305.401	9613.04
305.467	9609.82
305.533	9619.93
305.599	9626.43
305.666	9631.78
305.732	9633.75
305.798	9644.69
305.864	9668.77
305.93	9667.9
305.996	9671.95
306.062	9674.5
306.128	9680.28
306.194	9676.52
306.259	9672.33
306.325	9658.46
306.391	9674.5
306.457	9680.04
306.523	9681.77
306.589	9708.94
306.655	9704.94
306.721	9687.21
306.787	9677.78
306.853	9696.56
306.919	9672.05
306.985	9664.49
307.051	9659.81
307.117	9649.56
307.183	9642.24
307.248	9615.36
307.314	9625.47
307.38	9624.37
307.446	9627.98
307.512	9618.78
307.578	9622.78
307.644	9617.62
307.709	9628.56
307.775	9614.78
307.841	9611.27
307.907	9608.67
307.973	9585.26
308.039	9579.67
308.104	9587.81
308.17	9591.62
308.236	9574.13
308.302	9583.14
308.368	9565.7
308.433	9564.36
308.499	9560.31
308.565	9544.66
308.631	9547.6
308.696	9521.11
308.762	9514.8
308.828	9512.68
308.894	9490.29
308.959	9461.01
309.025	9448.35
309.091	9439.44
309.156	9431.98
309.222	9432.22
309.288	9421.77
309.354	9400.96
309.419	9397.5
309.485	9380.83
309.551	9380.93
309.616	9363.64
309.682	9361.24
309.748	9356.95
309.813	9352.76
309.879	9344.14
309.945	9340.68
310.01	9337.5
310.076	9338.75
310.141	9330.27
310.207	9307.98
310.273	9312.89
310.338	9321.07
310.404	9313.66
310.469	9297.29
310.535	9293.34
310.601	9275.04
310.666	9281.35
310.732	9289.05
310.797	9282.21
310.863	9267.48
310.928	9263.53
310.994	9266.61
311.059	9261.08
311.125	9258.33
311.191	9263.63
311.256	9257.9
311.322	9261.37
311.387	9235.32
311.453	9608.26
311.518	9582.26
311.584	9586.59
311.649	9594.25
311.715	9580.38
311.78	9575.66
311.846	9571.28
311.911	9576.05
311.976	9578.22
312.042	9561.41
312.107	9547.88
312.173	9535.36
312.238	9529.88
312.304	9517.65
312.369	9509.46
312.434	9500.51
312.5	9496.8
312.565	9464.3
312.631	9461.84
312.696	9447.64
312.761	9453.37
312.827	9070.37
312.892	9107.15
312.958	9100.12
313.023	9098.58
313.088	9100.46
313.154	9087.61
313.219	9081.3
313.284	9067.72
313.35	9060.36
313.415	9052.85
313.48	9044.33
313.546	9049.09
313.611	9058.92
313.676	9053.09
313.741	9041.58
313.807	9050.25
313.872	9051.7
313.937	9061.56
314.003	9076.83
314.068	9080.92
314.133	9083.13
314.198	9068.64
314.264	9049.04
314.329	9041.53
314.394	9032.48
314.459	9026.99
314.525	9043.02
314.59	9034.02
314.655	9025.94
314.72	9033.64
314.785	9037.88
314.851	9034.17
314.916	9017.7
314.981	9001.43
315.046	8989.06
315.111	8983.77
315.176	8968.65
315.242	8968.7
315.307	8967.01
315.372	8938.61
315.437	8928.31
315.502	8918.29
315.567	8927.44
315.632	8910.01
315.698	8911.94
315.763	8906.26
315.828	8900.1
315.893	8891.58
315.958	8882.53
316.023	8874.59
316.088	8858.99
316.153	8830.69
316.218	8823.42
316.283	8803.98
316.348	8786.27
316.413	8787.52
316.479	8768.08
316.544	8728.18
316.609	8696.32
316.674	8657.1
316.739	8626.01
316.804	8595.65
316.869	8563.98
316.934	8528.99
316.999	8496.66
317.064	8444.49
317.129	8395.36
317.194	8359.42
317.259	8313.27
317.324	8265.55
317.389	8218.31
317.454	8169.62
317.518	8135.52
317.583	8112.9
317.648	8088.32
317.713	8054.41
317.778	7991.24
317.843	7962.48
317.908	7930.31
317.973	7895.72
318.038	7868.5
318.103	7833.11
318.168	7796.22
318.233	7766.84
318.297	7717.89
318.362	7682.11
318.427	7642.45
318.492	7617.06
318.557	7567.07
318.622	7544.85
318.687	7523.84
318.751	7489.05
318.816	7452.42
318.881	7420.84
318.946	7362.33
319.011	7318.25
319.075	7277.73
319.14	7247.17
319.205	7204.69
319.27	7169.8
319.335	7118.91
319.399	7078.16
319.464	7051.69
319.529	7002.06
319.594	6957.08
319.658	6929.27
319.723	6887.57
319.788	6858.9
319.853	6806.49
319.917	6776.52
319.982	6716
320.047	6675.94
320.112	6646.31
320.176	6604.87
320.241	6569.67
320.306	6541.77
320.37	6496.16
320.435	6460.39
320.5	6433.02
320.564	6392.46
320.629	6351.03
320.694	6321.32
320.758	6275.39
320.823	6230.61
320.888	6205.32
320.952	6157.67
321.017	6112.03
321.082	6070.72
321.146	6037.8
321.211	6010.02
321.275	5971.07
321.34	5931.41
321.405	5888.81
321.469	5841.67
321.534	5794.48
321.598	5746.33
321.663	5715
321.727	5688.1
321.792	5641.64
321.857	5593.44
321.921	5553.41
321.986	5513.58
322.05	5454.02
322.115	5420.22
322.179	5376.37
322.244	5316.91
322.308	5283.89
322.373	5238.48
322.437	5196.32
322.502	5163.63
322.566	5115
322.631	5080.03
322.695	5041.43
322.76	4998.61
322.824	4967.91
322.889	4930.81
322.953	4884.23
323.018	4813.75
323.082	4746.59
323.146	4700.6
323.211	4646.56
323.275	4606.74
323.34	4559.75
323.404	4527.46
323.468	4482.67
323.533	4441.62
323.597	4398.59
323.662	4346.5
323.726	4312.3
323.79	4269.74
323.855	4207.6
323.919	4156.3
323.983	4110
324.048	4045.26
324.112	4201.21
324.177	4066.76
324.241	3856.03
324.305	3650.89
324.37	3451.96
324.434	3259.88
324.498	3213.91
324.562	3166.85
324.627	3103.35
324.691	3049.8
324.755	2986.3
324.82	2909.51
324.884	2827.35
324.948	2758.09
325.012	2665.75
325.077	2542.67
