Data from 20250702_urea_0.5M_MAYP1162681_19-34-59-947.txt Node
Date: Wed Jul 02 19:34:59 BST 2025
User: adleo
Spectrometer: MAYP116268
Trigger mode: 0
Integration Time (sec): 1.000000E0
Scans to average: 1
Electric dark correction enabled: true
Nonlinearity correction enabled: true
Boxcar width: 10
XAxis mode: Wavelengths
Number of Pixels in Spectrum: 2068
>>>>>Begin Spectral Data<<<<<
179.565	1172.31
179.642	1222.28
179.718	1266.55
179.795	1303.01
179.871	1336.99
179.948	1354.57
180.024	1372.9
180.101	1396.45
180.177	1411.12
180.254	1432.75
180.33	1454.13
180.407	1505.78
180.483	1597
180.56	1685.51
180.636	1767.02
180.712	1755.52
180.789	1766.4
180.865	1781.13
180.942	1790.35
181.018	1800.66
181.095	1812.83
181.171	1817.49
181.248	1819.3
181.324	1832.89
181.4	1841.21
181.477	1851.39
181.553	1864.26
181.63	1885.46
181.706	1898.54
181.782	1904.48
181.859	1903.1
181.935	1904.67
182.011	1899.01
182.088	1916.94
182.164	1933.72
182.24	1947.6
182.317	1955.92
182.393	1953.55
182.469	1962.82
182.546	1973.85
182.622	1979.65
182.698	1973.51
182.775	1985.26
182.851	2001.14
182.927	1994.58
183.003	1991.58
183.08	1984.59
183.156	1995.67
183.232	1992.91
183.308	1981.55
183.385	1992.77
183.461	2010.89
183.537	2015.03
183.613	2029.58
183.69	2019.73
183.766	2009.93
183.842	2017.02
183.918	2024.06
183.995	2039.61
184.071	2044.51
184.147	2039.09
184.223	2024.97
184.299	2038.57
184.375	2027.82
184.452	2033.53
184.528	2088.39
184.604	2097.14
184.68	2107.7
184.756	2113.55
184.832	2117.26
184.908	2124.68
184.985	2123.3
185.061	2108.79
185.137	2117.35
185.213	2106.6
185.289	2108.55
185.365	2102.47
185.441	2100.42
185.517	2113.56
185.593	2107.85
185.669	2106.18
185.745	2116.6
185.822	2135.42
185.898	2126.81
185.974	2136.61
186.05	2128.71
186.126	2088.6
186.202	2081.23
186.278	2078.42
186.354	2066.82
186.43	2074.05
186.506	2072.29
186.582	2070.58
186.658	2075.28
186.734	2058.5
186.81	2057.88
186.886	2060.83
186.962	2073.43
187.038	2070.34
187.114	2061.06
187.19	2069.53
187.266	2059.73
187.341	2057.21
187.417	2048.98
187.493	2049.98
187.569	2053.22
187.645	2048.22
187.721	2038.66
187.797	2046.22
187.873	2051.36
187.949	2046.65
188.025	2039.71
188.101	2040.99
188.176	2045.41
188.252	2041.32
188.328	2045.79
188.404	2049.22
188.48	2043.84
188.556	2036.23
188.632	2034.81
188.707	2034.47
188.783	2031.71
188.859	2025.39
188.935	2016.59
189.011	2026.01
189.086	2017.07
189.162	2007.46
189.238	2003.94
189.314	1999.71
189.39	1990.87
189.465	1983.45
189.541	2000.1
189.617	1987.78
189.693	1982.6
189.768	1986.4
189.844	2011.04
189.92	2005.48
189.996	2011.9
190.071	2021.8
190.147	2020.37
190.223	2030.45
190.298	2025.74
190.374	2010.91
190.45	2027.74
190.526	2038.82
190.601	2033.25
190.677	2037.48
190.753	2063.56
190.828	2069.69
190.904	2084.82
190.98	2104.18
191.055	2113.6
191.131	2105.32
191.207	2122.58
191.282	2134.61
191.358	2123.68
191.433	2109.69
191.509	2121.86
191.585	2119.67
191.66	2122.14
191.736	2129.42
191.811	2120.62
191.887	2134.61
191.963	2156.25
192.038	2161.44
192.114	2160.44
192.189	2164.76
192.265	2160.63
192.34	2140.21
192.416	2136.6
192.491	2129.32
192.567	2131.6
192.642	2132.22
192.718	2132.27
192.793	2120
192.869	2115.05
192.944	2118.57
193.02	2126.32
193.095	2133.03
193.171	2138.03
193.246	2137.79
193.322	2134.79
193.397	2137.79
193.473	2122.42
193.548	2106.91
193.624	2112.05
193.699	2110.2
193.775	2124.09
193.85	2127.04
193.925	2135.65
194.001	2132.08
194.076	2127.75
194.152	2116.62
194.227	2113.77
194.302	2104.26
194.378	2108.01
194.453	2105.26
194.529	2116.91
194.604	2101.88
194.679	2093.17
194.755	2073.68
194.83	2088.62
194.905	2086.86
194.981	2092.33
195.056	2089.05
195.131	2093.24
195.207	2090.29
195.282	2082.53
195.357	2063.12
195.433	2077.06
195.508	2065.97
195.583	2078.48
195.659	2092.71
195.734	2097.46
195.809	2094.37
195.884	2102.74
195.96	2106.74
196.035	2120.86
196.11	2118.58
196.185	2131.38
196.261	2134.32
196.336	2168.72
196.411	2151.06
196.486	2156.25
196.561	2152.58
196.637	2161.14
196.712	2176.66
196.787	2177.08
196.862	2187.64
196.937	2198.06
197.013	2202.96
197.088	2212.48
197.163	2233.56
197.238	2250.28
197.313	2252.85
197.388	2268.93
197.464	2296.3
197.539	2305.1
197.614	2297.3
197.689	2309.1
197.764	2324.34
197.839	2342.71
197.914	2334.37
197.989	2356.98
198.065	2372.88
198.14	2418.8
198.215	2445.65
198.29	2460.36
198.365	2475.07
198.44	2490.69
198.515	2517.16
198.59	2534.16
198.665	2560.21
198.74	2569.12
198.815	2568.78
198.89	2591.83
198.965	2620.47
199.04	2619.56
199.115	2633.65
199.19	2676.99
199.265	2679.61
199.34	2691.38
199.415	2724.36
199.49	2747.17
199.565	2755.65
199.64	2778.23
199.715	2773.56
199.79	2777.51
199.865	2783.18
199.94	2779.09
200.015	2809.88
200.09	2815.83
200.165	2820.31
200.24	2827.18
200.315	2864.14
200.39	2879.73
200.464	2884.35
200.539	2882.87
200.614	2896.98
200.689	2919.62
200.764	2924
200.839	2945.4
200.914	2945.35
200.989	2937.62
201.063	2948.59
201.138	2931.44
201.213	2931.58
201.288	2915.76
201.363	2920.72
201.438	2921.05
201.512	2939.96
201.587	2923.28
201.662	2928.04
201.737	2938.77
201.812	2946.11
201.886	2913.34
201.961	2924.07
202.036	2913.78
202.111	2912.35
202.186	2886.48
202.26	2873.75
202.335	2853.92
202.41	2844.3
202.485	2830.39
202.559	2810.23
202.634	2783.59
202.709	2792.16
202.784	2773.68
202.858	2770.96
202.933	2753.14
203.008	2745.42
203.082	2725.27
203.157	2723.17
203.232	2681.69
203.306	2662.96
203.381	2631.61
203.456	2608.32
203.53	2588.53
203.605	2569.49
203.68	2547.52
203.754	2542.48
203.829	2525
203.904	2505.71
203.978	2494.04
204.053	2495.8
204.127	2482.9
204.202	2483.43
204.277	2467.38
204.351	2458.57
204.426	2454.72
204.5	2448.19
204.575	2416.25
204.65	2426.16
204.724	2417.54
204.799	2422.49
204.873	2419.29
204.948	2417.87
205.022	2409.54
205.097	2397.53
205.171	2410.43
205.246	2417.39
205.32	2415.05
205.395	2415.63
205.469	2409.53
205.544	2413.63
205.618	2399.49
205.693	2413.06
205.767	2402.49
205.842	2422.82
205.916	2422.2
205.991	2413.78
206.065	2418.06
206.14	2435.76
206.214	2431.33
206.289	2429
206.363	2445.04
206.438	2447.38
206.512	2456.9
206.586	2474.56
206.661	2483.23
206.735	2461.81
206.81	2465.05
206.884	2481.24
206.958	2468.96
207.033	2487.52
207.107	2498.57
207.181	2530.68
207.256	2523.91
207.33	2541.96
207.405	2558.83
207.479	2579.02
207.553	2586.69
207.628	2575.98
207.702	2589.17
207.776	2590.41
207.851	2594.36
207.925	2612.66
207.999	2617.18
208.073	2620.9
208.148	2631.05
208.222	2628.47
208.296	2672.76
208.371	2695.79
208.445	2716.75
208.519	2759.53
208.593	2781.83
208.668	2789.98
208.742	2806.58
208.816	2827.88
208.89	2859.58
208.965	2876.28
209.039	2905.27
209.113	2945.7
209.187	2989
209.261	3011.27
209.336	3060.34
209.41	3111.66
209.484	3145.73
209.558	3201.89
209.632	3251.98
209.707	3305.81
209.781	3368.8
209.855	3424.37
209.929	3491.41
210.003	3547.7
210.077	3595.07
210.151	3699.61
210.226	3792.17
210.3	3881.1
210.374	3966.47
210.448	4038.79
210.522	4116.72
210.596	4196.38
210.67	4278.57
210.744	4402.28
210.818	4514.19
210.892	4615.94
210.966	4697.04
211.041	4798.27
211.115	4883.96
211.189	4999.36
211.263	5106.49
211.337	5210.15
211.411	5323.76
211.485	5418.98
211.559	5536.44
211.633	5648.61
211.707	5724.02
211.781	5847.59
211.855	5929.73
211.929	6037.92
212.003	6136.63
212.077	6269.3
212.151	6405.98
212.225	6541.46
212.299	6658.06
212.373	6772.69
212.447	6899.58
212.52	7054.7
212.594	7192.43
212.668	7338.31
212.742	7457.37
212.816	7589.91
212.89	7720.67
212.964	7856.97
213.038	7997.41
213.112	8148.8
213.186	8303.48
213.26	8425.51
213.333	8517.13
213.407	8666.19
213.481	8814.39
213.555	8970.97
213.629	9096.09
213.703	9224.11
213.777	9369.67
213.85	9496.8
213.924	9674.8
213.998	9821.56
214.072	9962.31
214.146	10095.31
214.219	10235.64
214.293	10381.64
214.367	10532.44
214.441	10691.19
214.515	10826.4
214.588	10951.78
214.662	11059.43
214.736	11181.87
214.81	11331.39
214.883	11489.26
214.957	11618.51
215.031	11750.08
215.105	11867.91
215.178	12006.19
215.252	12140.67
215.326	12249.46
215.4	12364.03
215.473	12448.29
215.547	12557.23
215.621	12676.73
215.694	12817.15
215.768	12924.84
215.842	13034.75
215.915	13140.61
215.989	13235.86
216.063	13348.81
216.136	13464.5
216.21	13588.15
216.284	13720.76
216.357	13843.25
216.431	13955.96
216.504	14081.68
216.578	14222.29
216.652	14349.79
216.725	14454.93
216.799	14572.16
216.873	14684
216.946	14804.27
217.02	14917.4
217.093	15014.1
217.167	15093.68
217.24	15169.02
217.314	15264.03
217.387	15361.4
217.461	15460.65
217.535	15580.09
217.608	15669.74
217.682	15757.03
217.755	15855.8
217.829	15939.42
217.902	16035.72
217.976	16116.79
218.049	16192.56
218.123	16261.29
218.196	16347.13
218.27	16428.58
218.343	16507.43
218.417	16598.47
218.49	16682.09
218.563	16783.69
218.637	16876.37
218.71	16984.9
218.784	17075.99
218.857	17168.38
218.931	17256.62
219.004	17337.11
219.077	17419.03
219.151	17497.25
219.224	17590.31
219.298	17665.69
219.371	17757.44
219.444	17811.08
219.518	17894.89
219.591	17971.46
219.665	18068.42
219.738	18148.85
219.811	18214.15
219.885	18281.09
219.958	18355.93
220.031	18424.41
220.105	18489.27
220.178	18553.08
220.251	18614.42
220.325	18684.97
220.398	18758.27
220.471	18831.76
220.544	18893.97
220.618	18941.05
220.691	19009.34
220.764	19060.04
220.838	19137.33
220.911	19184.8
220.984	19271.59
221.057	19335.01
221.131	19400.35
221.204	19419.15
221.277	19487.82
221.35	19581.26
221.424	19639.91
221.497	19698.03
221.57	19747.85
221.643	19801.68
221.716	19862.55
221.79	19896.81
221.863	19948.28
221.936	19989.87
222.009	20036.18
222.082	20089.53
222.155	20128.47
222.229	20190.92
222.302	20240.8
222.375	20267.84
222.448	20310.97
222.521	20335.5
222.594	20368.46
222.667	20396.75
222.74	20451.83
222.814	20486.44
222.887	20507.07
222.96	20549.72
223.033	20590.3
223.106	20632.03
223.179	20671.99
223.252	20707.99
223.325	20751.12
223.398	20785.05
223.471	20821.68
223.544	20846.35
223.617	20871.85
223.69	20905.87
223.763	20920.91
223.837	20951.95
223.91	20983.08
223.983	20999.61
224.056	21020.77
224.129	21046.55
224.202	21078.65
224.275	21101.16
224.348	21108.68
224.42	21115.91
224.493	21118.85
224.566	21129.84
224.639	21155.09
224.712	21163.72
224.785	21176.97
224.858	21192.54
224.931	21198.86
225.004	21209.36
225.077	21232.5
225.15	21230.14
225.223	21254.62
225.296	21291.69
225.369	21291.06
225.442	21297.28
225.514	21310.58
225.587	21331.59
225.66	21353.96
225.733	21368.51
225.806	21375.21
225.879	21388.66
225.952	21393.29
226.025	21411.84
226.097	21433.29
226.17	21434.74
226.243	21419.56
226.316	21428.67
226.389	21440.52
226.461	21462.31
226.534	21476
226.607	21476.58
226.68	21513.11
226.753	21516.44
226.825	21489.98
226.898	21517.83
226.971	21533.26
227.044	21546.71
227.117	21551.77
227.189	21560.88
227.262	21571.82
227.335	21588.54
227.407	21589.51
227.48	21607.39
227.553	21611.58
227.626	21607.1
227.698	21611.2
227.771	21628.5
227.844	21624.98
227.916	21633.8
227.989	21621.13
228.062	21612.74
228.134	21639.97
228.207	21635.25
228.28	21628.74
228.352	21636.74
228.425	21635.2
228.498	21641.76
228.57	21631.49
228.643	21649.18
228.716	21641.47
228.788	21634.82
228.861	21624.12
228.934	21627.87
229.006	21615.29
229.079	21618.33
229.151	21609.66
229.224	21587.05
229.296	21592.16
229.369	21616.21
229.442	21620.36
229.514	21615.2
229.587	21631.01
229.659	21611.63
229.732	21610.43
229.804	21624.98
229.877	21647.11
229.949	21646.19
230.022	21667.21
230.094	21664.56
230.167	21659.21
230.239	21644.27
230.312	21633.81
230.384	21660.85
230.457	21677.43
230.529	21684.9
230.602	21685.82
230.674	21687.02
230.747	21706.78
230.819	21711.07
230.892	21665.86
230.964	21670.25
231.037	21672.42
231.109	21661.81
231.181	21648.41
231.254	21634.44
231.326	21611.44
231.399	21591.25
231.471	21584.26
231.544	21545.21
231.616	21546.18
231.688	21531.62
231.761	21522.8
231.833	21509.84
231.905	21468.58
231.978	21446.74
232.05	21422.83
232.122	21405.72
232.195	21383.74
232.267	21379.36
232.339	21363.98
232.412	21376.47
232.484	21349.18
232.556	21331.35
232.629	21341.81
232.701	21343.55
232.773	21334.15
232.846	21312.22
232.918	21304.55
232.99	21294.43
233.062	21295.88
233.135	21282.72
233.207	21258.24
233.279	21250.81
233.351	21238.04
233.424	21219.58
233.496	21201.56
233.568	21222.28
233.64	21193.56
233.713	21184.25
233.785	21166.61
233.857	21153.22
233.929	21115.62
234.001	21113.26
234.074	21107.24
234.146	21063.09
234.218	21043.04
234.29	21012.77
234.362	21000.38
234.434	20964.19
234.507	20923.13
234.579	20878.4
234.651	20852.23
234.723	20837.58
234.795	20824.23
234.867	20810.69
234.939	20802.98
235.012	20769.72
235.084	20738.25
235.156	20720.71
235.228	20689.91
235.3	20651.6
235.372	20617.67
235.444	20605.04
235.516	20559.02
235.588	20535.21
235.66	20514.24
235.732	20481.95
235.804	20524.27
235.876	20510.92
235.948	20505.38
236.02	20486.82
236.092	20461.91
236.164	20431.74
236.236	20405.24
236.308	20366.3
236.38	20346.68
236.452	20311.12
236.524	20293.67
236.596	20279.21
236.668	20265.82
236.74	20243.74
236.812	20224.66
236.884	20212.37
236.956	20200.47
237.028	20159.12
237.1	20113.1
237.172	20109.63
237.244	20099.02
237.316	20023.7
237.388	19984.76
237.46	19948.95
237.532	19937.53
237.604	19906.54
237.675	19906.88
237.747	19882.64
237.819	19847.66
237.891	19813.54
237.963	19774.02
238.035	19738.94
238.107	19678.6
238.178	19659.91
238.25	19626.37
238.322	19620.49
238.394	19564.06
238.466	19517.26
238.538	19503
238.609	19485.36
238.681	19424.06
238.753	19378.19
238.825	19353.85
238.897	19318.86
238.968	19301.76
239.04	19254.05
239.112	19241.42
239.184	19181.91
239.255	19140.9
239.327	19118.49
239.399	19090.06
239.471	19073.63
239.542	19045.53
239.614	19030.3
239.686	18961.73
239.758	18944.14
239.829	18893.2
239.901	18886.12
239.973	18855.18
240.044	18828.39
240.116	18792.78
240.188	18760.01
240.259	18725.65
240.331	18685.6
240.403	18669.55
240.474	18615.53
240.546	18577.17
240.618	18532.79
240.689	18503.06
240.761	18478.43
240.833	18460.51
240.904	18424.51
240.976	18388.94
241.048	18361.47
241.119	18325.72
241.191	18304.42
241.262	18279.6
241.334	18240.66
241.405	18194.5
241.477	18154.59
241.549	18109.68
241.62	18075.95
241.692	18042.4
241.763	18021.88
241.835	17979.32
241.906	17938.36
241.978	17897.88
242.049	17875.47
242.121	17853.5
242.192	17838.36
242.264	17794.22
242.335	17745.59
242.407	17711.19
242.478	17670.94
242.55	17630.56
242.621	17596.2
242.693	17563.86
242.764	17523.09
242.836	17494.95
242.907	17470.61
242.979	17443.29
243.05	17420.92
243.122	17397.74
243.193	17360.54
243.264	17302.08
243.336	17273.07
243.407	17250.75
243.479	17226.56
243.55	17198.56
243.622	17162.75
243.693	17128.97
243.764	17109.31
243.836	17068.05
243.907	17036.24
243.978	16997.2
244.05	16977.35
244.121	16913.83
244.192	16890.4
244.264	16840.91
244.335	16803.6
244.407	16755.02
244.478	16726.59
244.549	16679.94
244.62	16632.17
244.692	16605.52
244.763	16583.78
244.834	16539.78
244.906	16506.09
244.977	16477.13
245.048	16454.47
245.119	16410.66
245.191	16361.36
245.262	16302.8
245.333	16284.63
245.405	16251.47
245.476	16229.15
245.547	16193.87
245.618	16181.53
245.689	16150.54
245.761	16124.8
245.832	16096.13
245.903	16071.83
245.974	16040.55
246.045	16020.31
246.117	16004.11
246.188	15958.57
246.259	15915.19
246.33	15890.03
246.401	15849.2
246.473	15803.27
246.544	15765.82
246.615	15743.21
246.686	15708.46
246.757	15706.53
246.828	15662.81
246.899	15654.81
246.97	15611.72
247.042	15562.99
247.113	15537.97
247.184	15521.05
247.255	15486.73
247.326	15454.05
247.397	15423.88
247.468	15388.5
247.539	15349.26
247.61	15307.81
247.681	15290.46
247.752	15276.82
247.823	15240.71
247.894	15210.06
247.965	15172.17
248.037	15132.3
248.108	15095.43
248.179	15058.6
248.25	15016.09
248.321	14996.85
248.392	14943.16
248.463	14936.41
248.534	14909.17
248.605	14887.34
248.675	14854.32
248.746	14832.82
248.817	14804.09
248.888	14777.14
248.959	14733.23
249.03	14711.49
249.101	14683.29
249.172	14653.98
249.243	14596.91
249.314	14578.01
249.385	14553.38
249.456	14535.64
249.527	14508.11
249.598	14486.37
249.669	14464.92
249.739	14443.42
249.81	14419.17
249.881	14385.04
249.952	14355.54
250.023	14334.86
250.094	14287.91
250.165	14254.41
250.235	14220.57
250.306	14197.91
250.377	14157.18
250.448	14140.88
250.519	14097.79
250.59	14084.92
250.66	14055.27
250.731	14052.76
250.802	14025.09
250.873	14006
250.944	13984.21
251.014	13958.76
251.085	13954.37
251.156	13937.07
251.227	13916.29
251.297	13899.71
251.368	13883.08
251.439	13860.18
251.51	13839.64
251.58	13811.11
251.651	13781.12
251.722	13775.29
251.792	13731.03
251.863	13712.28
251.934	13695.84
252.005	13701.15
252.075	13676.13
252.146	13654.58
252.217	13641.56
252.287	13635.39
252.358	13605.89
252.429	13594.37
252.499	13557.83
252.57	13534.93
252.641	13520.13
252.711	13500.41
252.782	13465.37
252.852	13465.9
252.923	13441.99
252.994	13428.49
253.064	13421.07
253.135	13385.44
253.205	13349.77
253.276	13345.38
253.347	13344.18
253.417	13324.94
253.488	13291.73
253.558	13256.15
253.629	13232
253.699	13208.76
253.77	13182.2
253.841	13154.39
253.911	13135.11
253.982	13112.83
254.052	13091.86
254.123	13067.86
254.193	13042.16
254.264	13049.93
254.334	13007.41
254.405	12972.89
254.475	12933.03
254.546	12909.07
254.616	12902.95
254.687	12887.37
254.757	12872.33
254.827	12838.11
254.898	12820.22
254.968	12799.01
255.039	12771.34
255.109	12759.68
255.18	12733.94
255.25	12696.48
255.321	12681.78
255.391	12644.85
255.461	12651.7
255.532	12603.06
255.602	12580.07
255.673	12537.36
255.743	12506.22
255.813	12463.36
255.884	12457
255.954	12445.33
256.024	12439.98
256.095	12417.42
256.165	12378.67
256.235	12359.92
256.306	12335.04
256.376	12322.08
256.446	12311.42
256.517	12300.53
256.587	12285.06
256.657	12267.17
256.728	12245.05
256.798	12220.61
256.868	12196.56
256.938	12167.73
257.009	12158.72
257.079	12148.35
257.149	12162.81
257.219	12127
257.29	12115.24
257.36	12080.2
257.43	12076.44
257.5	12033.73
257.571	12009.82
257.641	12002.78
257.711	11968.22
257.781	11953.72
257.852	11937.04
257.922	11898.81
257.992	11873.41
258.062	11854.76
258.132	11839.34
258.202	11821.21
258.273	11810.8
258.343	11810.42
258.413	11779.38
258.483	11761.49
258.553	11731.13
258.623	11695.27
258.693	11683.17
258.764	11684.81
258.834	11678.3
258.904	11651.36
258.974	11625.14
259.044	11612.08
259.114	11599.69
259.184	11588.32
259.254	11566.14
259.324	11521.27
259.394	11505.18
259.464	11507.15
259.535	11486.19
259.605	11463.92
259.675	11443
259.745	11419.29
259.815	11388.59
259.885	11368.88
259.955	11376.3
260.025	11343.29
260.095	11326.76
260.165	11315.38
260.235	11307.67
260.305	11282.37
260.375	11253.89
260.445	11258.37
260.515	11248.97
260.585	11240.39
260.655	11226.32
260.725	11226.75
260.795	11224.39
260.865	11223.86
260.934	11193.26
261.004	11185.93
261.074	11172.15
261.144	11165.79
261.214	11164.06
261.284	11149.98
261.354	11140.54
261.424	11114.7
261.494	11124.82
261.564	11105.11
261.634	11095.52
261.703	11059.52
261.773	11045.55
261.843	11037.45
261.913	11016.16
261.983	10979.92
262.053	10970.23
262.123	10946.33
262.192	10908.26
262.262	10901.71
262.332	10876.7
262.402	10876.6
262.472	10855.59
262.541	10821.72
262.611	10813.91
262.681	10789.91
262.751	10776.9
262.821	10764.08
262.89	10731.07
262.96	10714.35
263.03	10720.33
263.1	10697.34
263.169	10684.48
263.239	10679.13
263.309	10679.03
263.379	10672.05
263.448	10660.34
263.518	10644.58
263.588	10633.26
263.657	10633.06
263.727	10619.72
263.797	10601.55
263.867	10578.91
263.936	10555.25
264.006	10548.41
264.076	10527.69
264.145	10507.94
264.215	10492.37
264.285	10491.17
264.354	10459.52
264.424	10432.49
264.494	10399.1
264.563	10379.87
264.633	10393.03
264.702	10377.85
264.772	10345.52
264.842	10329.19
264.911	10316.08
264.981	10288.53
265.05	10274.36
265.12	10259.62
265.19	10253.4
265.259	10252.01
265.329	10250.71
265.398	10239.24
265.468	10247
265.537	10229.61
265.607	10224.31
265.676	10214.86
265.746	10196.7
265.815	10200.02
265.885	10190.49
265.955	10168.57
266.024	10155.8
266.094	10108.06
266.163	10112.74
266.232	10115.05
266.302	10098.62
266.371	10092.21
266.441	10081.28
266.51	10080.6
266.58	10062.11
266.649	10031.32
266.719	10025.4
266.788	10012.05
266.858	10013.93
266.927	9979.88
266.996	9973.86
267.066	9962.39
267.135	9940.38
267.205	9933.1
267.274	9918.85
267.343	9920.15
267.413	9911.77
267.482	9902.62
267.552	9908.97
267.621	9871.83
267.69	9841.44
267.76	9828.53
267.829	9818.75
267.898	9801.42
267.968	9775.31
268.037	9777.91
268.106	9776.32
268.176	9750.6
268.245	9735.96
268.314	9721.36
268.384	9723
268.453	9711.82
268.522	9701.61
268.592	9693.33
268.661	9673.92
268.73	9669.78
268.799	9652.2
268.869	9661.45
268.938	9639.53
269.007	9620.65
269.076	9611.74
269.146	9614.59
269.215	9605.87
269.284	9609.48
269.353	9595.32
269.422	9584.34
269.492	9563.3
269.561	9528.72
269.63	9524.2
269.699	9506.91
269.768	9495.78
269.838	9485.04
269.907	9480.76
269.976	9460.87
270.045	9437.32
270.114	9433.52
270.183	9419.75
270.253	9410.74
270.322	9380.69
270.391	9363.79
270.46	9366.97
270.529	9367.55
270.598	9359.22
270.667	9351.46
270.736	9334.22
270.806	9330.42
270.875	9333.12
270.944	9323.2
271.013	9341.11
271.082	9334.85
271.151	9328.73
271.22	9299.84
271.289	9292.04
271.358	9277.36
271.427	9269.89
271.496	9260.03
271.565	9241.82
271.634	9233.3
271.703	9226.27
271.772	9221.75
271.841	9218.42
271.91	9193.63
271.979	9179.95
272.048	9155.74
272.117	9151.55
272.186	9128.97
272.255	9129.3
272.324	9129.54
272.393	9119.91
272.462	9107.78
272.531	9096.51
272.6	9081.59
272.669	9091.75
272.738	9081.73
272.807	9074.22
272.876	9055.74
272.945	9083.85
273.013	9090.35
273.082	9090.83
273.151	9072.06
273.22	9076.44
273.289	9066.72
273.358	9077.79
273.427	9073.12
273.496	9073.84
273.564	9067.29
273.633	9073.07
273.702	9054.87
273.771	9039.71
273.84	9035.37
273.909	9026.56
273.977	9026.18
274.046	9016.98
274.115	9015.78
274.184	8998.45
274.253	8990.65
274.322	9001.19
274.39	8966.63
274.459	8951.32
274.528	8925.71
274.597	8925.04
274.665	8915.41
274.734	8923.64
274.803	8911.22
274.872	8903.76
274.94	8888.83
275.009	8940.99
275.078	8920.58
275.147	8914.47
275.215	8907.73
275.284	8918.22
275.353	8906.77
275.421	8876.35
275.49	8892.33
275.559	8876.92
275.627	8867.97
275.696	8859.21
275.765	8854.93
275.833	8849.2
275.902	8843.09
275.971	8854.26
276.039	8866.96
276.108	8871.44
276.177	8864.46
276.245	8852.19
276.314	8850.55
276.383	8856.37
276.451	8798.06
276.52	8807.06
276.588	8819.09
276.657	8818.08
276.725	8798.92
276.794	8802.48
276.863	8817.79
276.931	8792.23
277	8799.74
277.068	8808.54
277.137	8826.21
277.205	8827.89
277.274	8849.94
277.342	8861.01
277.411	8837.33
277.48	8820.39
277.548	8806.19
277.617	8804.41
277.685	8799.83
277.754	8792.42
277.822	8786.41
277.89	8797.29
277.959	8788.72
278.027	8769.75
278.096	8762.97
278.164	8789.64
278.233	8782.85
278.301	8767.88
278.37	8777.7
278.438	8767.11
278.507	8771.4
278.575	8744.54
278.643	8737.8
278.712	8712.39
278.78	8696.36
278.849	8709.11
278.917	8720.13
278.985	8716.67
279.054	8722.97
279.122	8733.42
279.191	8734.91
279.259	8729.85
279.327	8708
279.396	8722.15
279.464	8717.96
279.532	8719.99
279.601	8715.07
279.669	8712.28
279.737	8727.78
279.806	8725.71
279.874	8734.76
279.942	8728.12
280.011	8722.82
280.079	8728.75
280.147	8748.09
280.215	8754.45
280.284	8757.72
280.352	8745.69
280.42	8755.12
280.488	8747.95
280.557	8738.9
280.625	8741.4
280.693	8740.1
280.761	8746.94
280.83	8724.51
280.898	8739.52
280.966	8726.92
281.034	8696.01
281.102	8676.48
281.171	8669.11
281.239	8675.47
281.307	8670.6
281.375	8660.93
281.443	8682.78
281.512	8672.48
281.58	8677.49
281.648	8660.11
281.716	8652.08
281.784	8649.09
281.852	8636.82
281.92	8634.27
281.989	8645
282.057	8628.59
282.125	8677.07
282.193	8665.52
282.261	8674.95
282.329	8663.83
282.397	8667.78
282.465	8671.82
282.533	8691.21
282.601	8681.25
282.67	8657.91
282.738	8643.37
282.806	8654.2
282.874	8644.72
282.942	8651.7
283.01	8641.64
283.078	8651.84
283.146	8651.07
283.214	8658.68
283.282	8665.37
283.35	8671.62
283.418	8663.87
283.486	8669.17
283.554	8624.78
283.622	8626.8
283.69	8626.32
283.758	8625.31
283.826	8628.92
283.894	8637.68
283.962	8652.26
284.03	8668.43
284.098	8672.76
284.165	8671.37
284.233	8669.01
284.301	8668.29
284.369	8658.56
284.437	8654.43
284.505	8646.34
284.573	8657.51
284.641	8649.76
284.709	8652.21
284.777	8638.45
284.845	8648.17
284.912	8650.14
284.98	8650.34
285.048	8647.88
285.116	8650.67
285.184	8664.73
285.252	8663.33
285.319	8648.32
285.387	8640.37
285.455	8620.74
285.523	8631.13
285.591	8623.58
285.659	8623.96
285.726	8631.71
285.794	8624.16
285.862	8616.51
285.93	8613.76
285.997	8610.68
286.065	8599.47
286.133	8588.93
286.201	8586.81
286.269	8568.43
286.336	8558.95
286.404	8552.35
286.472	8562.41
286.539	8535.66
286.607	8516.75
286.675	8517.56
286.743	8522.42
286.81	8516.12
286.878	8532.87
286.946	8518.04
287.013	8524.83
287.081	8522.76
287.149	8502.93
287.216	8513.09
287.284	8513.47
287.352	8515.3
287.419	8508.71
287.487	8526.94
287.555	8530.65
287.622	8527.91
287.69	8534.69
287.758	8553.65
287.825	8550.38
287.893	8537.68
287.96	8543.83
288.028	8552.4
288.096	8555.34
288.163	8558.61
288.231	8549.37
288.298	8545.61
288.366	8570.45
288.433	8565.01
288.501	8560.92
288.569	8573.14
288.636	8571.46
288.704	8585.13
288.771	8597.11
288.839	8588.88
288.906	8579.26
288.974	8592.21
289.041	8591.48
289.109	8581.57
289.176	8587.59
289.244	8593.75
289.311	8606.21
289.379	8623.39
289.446	8629.94
289.514	8626.52
289.581	8626.76
289.649	8630.18
289.716	8628.68
289.783	8614.05
289.851	8635.18
289.918	8632.1
289.986	8630.7
290.053	8633.93
290.121	8631.52
290.188	8635.08
290.255	8664.15
290.323	8665.45
290.39	8656.5
290.458	8661.89
290.525	8673.53
290.592	8664.29
290.66	8670.02
290.727	8659.53
290.794	8676.18
290.862	8671.61
290.929	8679.02
290.996	8681.76
291.064	8693.99
291.131	8703.71
291.198	8717.43
291.266	8712.09
291.333	8717.52
291.4	8728.02
291.468	8745.97
291.535	8742.94
291.602	8742.03
291.669	8736.2
291.737	8740.34
291.804	8743.42
291.871	8766.86
291.938	8781.01
292.006	8809.75
292.073	8816.73
292.14	8831.31
292.207	8817.5
292.275	8819.57
292.342	8819.95
292.409	8843.06
292.476	8859.19
292.543	8855.67
292.611	8851.58
292.678	8872.62
292.745	8897.6
292.812	8912.96
292.879	8909.01
292.946	8911.56
293.014	8923.93
293.081	8931.1
293.148	8941.55
293.215	8954.59
293.282	8944.73
293.349	8953.73
293.416	8932.64
293.484	8952.48
293.551	8966.2
293.618	8978.33
293.685	9005.24
293.752	9008.17
293.819	9004.61
293.886	8989.88
293.953	8998.74
294.02	9016.79
294.087	9018.14
294.154	9012.79
294.221	9020.06
294.288	9020.83
294.356	9040.96
294.423	9048.37
294.49	9044.28
294.557	9058.38
294.624	9051.5
294.691	9069.26
294.758	9071.43
294.825	9077.16
294.892	9068.45
294.959	9066.76
295.026	9084
295.093	9071.57
295.16	9071.24
295.226	9069.22
295.293	9102.63
295.36	9106.1
295.427	9112.55
295.494	9124.34
295.561	9128.53
295.628	9151.12
295.695	9165.27
295.762	9168.5
295.829	9178.9
295.896	9198.45
295.963	9206.92
296.03	9219.63
296.096	9226.42
296.163	9231.14
296.23	9251.46
296.297	9264.84
296.364	9265.08
296.431	9270.81
296.498	9274.81
296.564	9301.38
296.631	9310.2
296.698	9296.57
296.765	9316.55
296.832	9306.92
296.899	9296.42
296.965	9314.86
297.032	9295.84
297.099	9312.41
297.166	9312.5
297.233	9310.24
297.299	9297.63
297.366	9296.04
297.433	9297.87
297.5	9311.93
297.566	9313.42
297.633	9311.16
297.7	9311.49
297.767	9314.48
297.833	9318.09
297.9	9321.46
297.967	9305.62
298.033	9313.08
298.1	9338.32
298.167	9327.92
298.234	9332.06
298.3	9337.11
298.367	9333.16
298.434	9343.66
298.5	9332.2
298.567	9335.14
298.634	9326.66
298.7	9346.31
298.767	9349.25
298.834	9363.6
298.9	9351.03
298.967	9345.88
299.033	9356.23
299.1	9368.22
299.167	9378.23
299.233	9371.01
299.3	9385.55
299.366	9402.89
299.433	9418.68
299.5	9396.96
299.566	9401.92
299.633	9420.42
299.699	9437.61
299.766	9440.74
299.832	9443.24
299.899	9450.95
299.965	9451.38
300.032	9454.94
300.099	9459.23
300.165	9463.13
300.232	9458.22
300.298	9463.37
300.365	9473.05
300.431	9473.77
300.498	9469.97
300.564	9473.67
300.631	9487.83
300.697	9499.92
300.763	9495.64
300.83	9491.83
300.896	9504.06
300.963	9519.38
301.029	9520.48
301.096	9522.75
301.162	9533.15
301.229	9524.24
301.295	9518.41
301.361	9530.74
301.428	9534.01
301.494	9520.1
301.561	9529.06
301.627	9532.91
301.693	9535.89
301.76	9536.42
301.826	9532.91
301.892	9542.25
301.959	9553.86
302.025	9547.98
302.092	9538.78
302.158	9549.47
302.224	9553.62
302.291	9542.35
302.357	9532.23
302.423	9525.88
302.49	9518.22
302.556	9530.55
302.622	9533.87
302.688	9540.76
302.755	9557.18
302.821	9560.94
302.887	9573.41
302.954	9573.55
303.02	9578.03
303.086	9579.48
303.152	9585.06
303.219	9578.85
303.285	9581.02
303.351	9584.05
303.417	9586.56
303.483	9578.47
303.55	9569.94
303.616	9567.15
303.682	9571.87
303.748	9568.55
303.815	9589.16
303.881	9595.37
303.947	9578.04
304.013	9579.62
304.079	9571.24
304.145	9549.23
304.212	9551.93
304.278	9542.93
304.344	9539.07
304.41	9524.96
304.476	9521.21
304.542	9517.11
304.608	9522.41
304.674	9502.52
304.741	9497.13
304.807	9499.49
304.873	9505.56
304.939	9520.82
305.005	9506.47
305.071	9497.95
305.137	9502.19
305.203	9477.14
305.269	9477.24
305.335	9488.7
305.401	9490.87
305.467	9492.36
305.533	9495.54
305.599	9502.67
305.666	9508.78
305.732	9506.33
305.798	9524.82
305.864	9550.25
305.93	9554.44
305.996	9554.15
306.062	9557.23
306.128	9550.15
306.194	9536.14
306.259	9539.85
306.325	9529.73
306.391	9537.05
306.457	9553.57
306.523	9556.41
306.589	9581.12
306.655	9570.47
306.721	9551.88
306.787	9531.08
306.853	9544.9
306.919	9530.7
306.985	9521.45
307.051	9517.55
307.117	9507.44
307.183	9504.79
307.248	9471.85
307.314	9467.8
307.38	9468.77
307.446	9477
307.512	9469.39
307.578	9479.22
307.644	9465.49
307.709	9462.31
307.775	9458.08
307.841	9454.32
307.907	9447.96
307.973	9425.86
308.039	9427.83
308.104	9434.23
308.17	9438.28
308.236	9418.05
308.302	9426.38
308.368	9411.55
308.433	9409.92
308.499	9409
308.565	9390.27
308.631	9394.22
308.696	9380.54
308.762	9371.34
308.828	9371.73
308.894	9355.89
308.959	9333.79
309.025	9325.6
309.091	9317.08
309.156	9308.12
309.222	9305.09
309.288	9299.07
309.354	9277.4
309.419	9272.83
309.485	9256.41
309.551	9263.92
309.616	9254.05
309.682	9250.1
309.748	9242.25
309.813	9236.09
309.879	9220.54
309.945	9210.91
310.01	9202.48
310.076	9201.38
310.141	9193.67
310.207	9179.42
310.273	9180.72
310.338	9183.17
310.404	9173.5
310.469	9170.18
310.535	9162.81
310.601	9140.42
310.666	9139.51
310.732	9148.41
310.797	9135.12
310.863	9128.67
310.928	9115.82
310.994	9123.95
311.059	9114.85
311.125	9117.84
311.191	9126.94
311.256	9119.14
311.322	9120.34
311.387	9098.68
311.453	9462.74
311.518	9439.68
311.584	9434
311.649	9437.18
311.715	9421.78
311.78	9424.76
311.846	9412.58
311.911	9415.47
311.976	9417.2
312.042	9401.7
312.107	9385.96
312.173	9377.63
312.238	9371.56
312.304	9367.42
312.369	9350.04
312.434	9338.39
312.5	9331.32
312.565	9298.96
312.631	9303.83
312.696	9300.79
312.761	9309.07
312.827	8930.62
312.892	8964.41
312.958	8953.24
313.023	8947.66
313.088	8945.68
313.154	8927.83
313.219	8917.57
313.284	8914.11
313.35	8910.35
313.415	8908.62
313.48	8900.05
313.546	8905.35
313.611	8905.78
313.676	8899.28
313.741	8894.76
313.807	8904.05
313.872	8904.43
313.937	8912.09
314.003	8922.87
314.068	8918.73
314.133	8920.85
314.198	8915.84
314.264	8895.14
314.329	8889.8
314.394	8887.39
314.459	8888.35
314.525	8908.57
314.59	8912.08
314.655	8891.05
314.72	8894.56
314.785	8888.21
314.851	8884.12
314.916	8866.26
314.981	8856.1
315.046	8843.44
315.111	8832.85
315.176	8822.17
315.242	8823.95
315.307	8821.44
315.372	8798.63
315.437	8790.83
315.502	8785.29
315.567	8789.58
315.632	8776.68
315.698	8781.25
315.763	8778.27
315.828	8764.41
315.893	8759.11
315.958	8747.9
316.023	8746.36
316.088	8724.99
316.153	8704.1
316.218	8698.04
316.283	8677.06
316.348	8660.79
316.413	8660.84
316.479	8646.16
316.544	8609.69
316.609	8583.22
316.674	8546.26
316.739	8510.47
316.804	8476.93
316.869	8442.28
316.934	8410.09
316.999	8376.36
317.064	8322.33
317.129	8274.74
317.194	8242.89
317.259	8193
317.324	8138.21
317.389	8096.02
317.454	8057.39
317.518	8023.73
317.583	7999.33
317.648	7977.69
317.713	7945.85
317.778	7883.65
317.843	7856.14
317.908	7822.19
317.973	7780.5
318.038	7755.97
318.103	7720.68
318.168	7692.36
318.233	7655.76
318.297	7597.78
318.362	7566.15
318.427	7528.03
318.492	7504.85
318.557	7458.09
318.622	7429.96
318.687	7411.27
318.751	7368.54
318.816	7334.89
318.881	7301.25
318.946	7248.67
319.011	7204.35
319.075	7157.98
319.14	7130.54
319.205	7083.78
319.27	7048.52
319.335	7001.43
319.399	6956.65
319.464	6934.6
319.529	6882.15
319.594	6846.06
319.658	6824.31
319.723	6779.59
319.788	6754.37
319.853	6700.1
319.917	6670.42
319.982	6619.42
320.047	6582.82
320.112	6552.38
320.176	6505.33
320.241	6470.95
320.306	6437.15
320.37	6389.3
320.435	6353.97
320.5	6319.45
320.564	6275.68
320.629	6231.48
320.694	6202.4
320.758	6162.66
320.823	6112.76
320.888	6085.74
320.952	6033.88
321.017	5990.5
321.082	5948.19
321.146	5915.95
321.211	5882.51
321.275	5839.74
321.34	5792.65
321.405	5747.47
321.469	5700.38
321.534	5658.96
321.598	5611.2
321.663	5578.49
321.727	5551.88
321.792	5507.35
321.857	5462.96
321.921	5427.39
321.986	5387.48
322.05	5328.93
322.115	5290.83
322.179	5252.4
322.244	5193.29
322.308	5162.24
322.373	5112.57
322.437	5073.58
322.502	5041.66
322.566	4997.4
322.631	4962.92
322.695	4929.16
322.76	4885.6
322.824	4851.94
322.889	4808.48
322.953	4765.69
323.018	4702.83
323.082	4640.81
323.146	4592.34
323.211	4542.96
323.275	4496.02
323.34	4451.34
323.404	4416.19
323.468	4368.83
323.533	4326.11
323.597	4285.19
323.662	4232.78
323.726	4198.3
323.79	4151.45
323.855	4083.29
323.919	4036.87
323.983	3991.36
324.048	3922.38
324.112	4074.87
324.177	3946.72
324.241	3743.26
324.305	3540.31
324.37	3343.49
324.434	3154.75
324.498	3111.34
324.562	3060.03
324.627	3004.13
324.691	2950.81
324.755	2890.94
324.82	2818.08
324.884	2738.04
324.948	2666.36
325.012	2574.63
325.077	2459.1
