Data from 20250702_urea_0.5M_MAYP1162681_07-04-59-585.txt Node
Date: Thu Jul 03 07:04:59 BST 2025
User: adleo
Spectrometer: MAYP116268
Trigger mode: 0
Integration Time (sec): 1.000000E0
Scans to average: 1
Electric dark correction enabled: true
Nonlinearity correction enabled: true
Boxcar width: 10
XAxis mode: Wavelengths
Number of Pixels in Spectrum: 2068
>>>>>Begin Spectral Data<<<<<
179.565	1180.33
179.642	1233.59
179.718	1274.9
179.795	1314.29
179.871	1345.71
179.948	1365.9
180.024	1385.36
180.101	1407.98
180.177	1422.55
180.254	1445.49
180.33	1468.38
180.407	1519.85
180.483	1615.19
180.56	1703.23
180.636	1787.07
180.712	1776.24
180.789	1787.55
180.865	1801.42
180.942	1810.4
181.018	1820.86
181.095	1833.6
181.171	1836.78
181.248	1840.54
181.324	1858.8
181.4	1864.45
181.477	1874.87
181.553	1885.89
181.63	1908.85
181.706	1923.07
181.782	1932.77
181.859	1933.38
181.935	1937.14
182.011	1935.43
182.088	1950.41
182.164	1973.43
182.24	1986.84
182.317	1994.39
182.393	1989.83
182.469	2002.53
182.546	2017.69
182.622	2021.45
182.698	2018.41
182.775	2031.86
182.851	2043.42
182.927	2036.24
183.003	2032.58
183.08	2029.06
183.156	2036.86
183.232	2031.24
183.308	2020.45
183.385	2028.01
183.461	2041.33
183.537	2042.13
183.613	2055.78
183.69	2048.08
183.766	2035.14
183.842	2042.13
183.918	2047.69
183.995	2061.34
184.071	2065.62
184.147	2056.35
184.223	2045.65
184.299	2056.07
184.375	2045.13
184.452	2053.17
184.528	2105.75
184.604	2118.73
184.68	2128.2
184.756	2135.19
184.832	2138.95
184.908	2143.04
184.985	2138.8
185.061	2128.34
185.137	2139.57
185.213	2127.15
185.289	2128.15
185.365	2118.97
185.441	2116.45
185.517	2128.68
185.593	2124.78
185.669	2121.83
185.745	2134.67
185.822	2151.55
185.898	2142.8
185.974	2151.98
186.05	2143.46
186.126	2100.49
186.202	2091.17
186.278	2087.6
186.354	2081.32
186.43	2089.98
186.506	2089.98
186.582	2093.17
186.658	2096.02
186.734	2073.76
186.81	2074.29
186.886	2077.85
186.962	2091.74
187.038	2088.08
187.114	2083.13
187.19	2091.6
187.266	2081.18
187.341	2080.95
187.417	2076.09
187.493	2076.57
187.569	2080.52
187.645	2075.71
187.721	2066.72
187.797	2073.57
187.873	2080.09
187.949	2072.1
188.025	2064.44
188.101	2067.29
188.176	2072.19
188.252	2069.34
188.328	2078.04
188.404	2080.61
188.48	2074.19
188.556	2067.24
188.632	2066.57
188.707	2069.72
188.783	2066.34
188.859	2063.67
188.935	2053.73
189.011	2060.06
189.086	2053.69
189.162	2042.32
189.238	2039.18
189.314	2039.23
189.39	2033.71
189.465	2023.72
189.541	2040.23
189.617	2026.53
189.693	2020.21
189.768	2023.49
189.844	2049.8
189.92	2042.58
189.996	2049.1
190.071	2060.99
190.147	2059.65
190.223	2069.6
190.298	2058.89
190.374	2045.77
190.45	2056.37
190.526	2063.17
190.601	2058.46
190.677	2059.84
190.753	2086.53
190.828	2088.01
190.904	2102.28
190.98	2118.12
191.055	2130.68
191.131	2124.83
191.207	2142.62
191.282	2151.36
191.358	2143.28
191.433	2125.67
191.509	2139.74
191.585	2137.41
191.66	2137.74
191.736	2146.35
191.811	2137.17
191.887	2152.21
191.963	2175.71
192.038	2179.61
192.114	2180.47
192.189	2181.23
192.265	2176.8
192.34	2157.34
192.416	2160.76
192.491	2156.48
192.567	2159.91
192.642	2161.95
192.718	2162.86
192.793	2152.63
192.869	2150.68
192.944	2151.3
193.02	2159.44
193.095	2161.96
193.171	2167.52
193.246	2166.29
193.322	2159.63
193.397	2159.86
193.473	2147.68
193.548	2129.46
193.624	2135.45
193.699	2131.32
193.775	2148.02
193.85	2152.77
193.925	2160.62
194.001	2157.91
194.076	2151.16
194.152	2140.26
194.227	2132.88
194.302	2121.28
194.378	2126.18
194.453	2125.42
194.529	2137.93
194.604	2123.23
194.679	2116.86
194.755	2095.7
194.83	2110.5
194.905	2109.97
194.981	2119.01
195.056	2111.97
195.131	2117.54
195.207	2118.92
195.282	2113.36
195.357	2094.61
195.433	2108.69
195.508	2098.18
195.583	2103.26
195.659	2115.21
195.734	2120.39
195.809	2120.68
195.884	2128.29
195.96	2129.19
196.035	2141.94
196.11	2137.85
196.185	2150.07
196.261	2153.64
196.336	2188.41
196.411	2172.8
196.486	2177.8
196.561	2171.52
196.637	2180.98
196.712	2199.31
196.787	2197.78
196.862	2212.77
196.937	2224.71
197.013	2225.94
197.088	2235.55
197.163	2261.64
197.238	2280.07
197.313	2282.93
197.388	2296.39
197.464	2328.38
197.539	2339.47
197.614	2330.81
197.689	2343.9
197.764	2359.76
197.839	2379.65
197.914	2373.13
197.989	2393.22
198.065	2409.49
198.14	2461.37
198.215	2485.89
198.29	2493.03
198.365	2510.36
198.44	2520.36
198.515	2548.84
198.59	2571.27
198.665	2596.41
198.74	2599.65
198.815	2600.89
198.89	2621.22
198.965	2649.67
199.04	2642.81
199.115	2657.1
199.19	2701.58
199.265	2700.62
199.34	2709.44
199.415	2741.37
199.49	2761.76
199.565	2771.81
199.64	2793.25
199.715	2788
199.79	2795.67
199.865	2808.4
199.94	2804.92
200.015	2835.8
200.09	2840.47
200.165	2844.24
200.24	2853.82
200.315	2894.55
200.39	2911.95
200.464	2920.53
200.539	2920.77
200.614	2938.54
200.689	2962.24
200.764	2971.87
200.839	2989.83
200.914	2996.88
200.989	2988.4
201.063	3002.51
201.138	2989.02
201.213	2988.88
201.288	2973.06
201.363	2977.11
201.438	2975.3
201.512	2993.74
201.587	2976.34
201.662	2978.72
201.737	2993.55
201.812	3000.94
201.886	2970.5
201.961	2976.51
202.036	2962.02
202.111	2958.02
202.186	2929.34
202.26	2911.65
202.335	2889.86
202.41	2888.29
202.485	2871.18
202.559	2853.36
202.634	2826.86
202.709	2833.1
202.784	2816.47
202.858	2816.33
202.933	2797.27
203.008	2790.41
203.082	2767.73
203.157	2768.78
203.232	2726.48
203.306	2702.98
203.381	2669.15
203.456	2646.76
203.53	2625.87
203.605	2608.69
203.68	2585.1
203.754	2580.2
203.829	2566.15
203.904	2543.43
203.978	2529.52
204.053	2534.91
204.127	2519.81
204.202	2519.48
204.277	2501.72
204.351	2495.86
204.426	2487.57
204.5	2480.57
204.575	2445.11
204.65	2456.92
204.724	2446.54
204.799	2456.05
204.873	2453.43
204.948	2455.34
205.022	2441.2
205.097	2430.25
205.171	2443.81
205.246	2454.29
205.32	2454.72
205.395	2450.15
205.469	2443.2
205.544	2447.01
205.618	2426.97
205.693	2439.3
205.767	2426.82
205.842	2449.11
205.916	2439.88
205.991	2427.97
206.065	2433.64
206.14	2449
206.214	2442.33
206.289	2438.91
206.363	2452.62
206.438	2453.09
206.512	2460.67
206.586	2477.23
206.661	2488.09
206.735	2467.06
206.81	2470.06
206.884	2481.43
206.958	2471.2
207.033	2488.24
207.107	2497.01
207.181	2528.44
207.256	2525.16
207.33	2543.58
207.405	2559.5
207.479	2581.65
207.553	2590.6
207.628	2579.41
207.702	2592.93
207.776	2590.17
207.851	2593.69
207.925	2611.37
207.999	2613.71
208.073	2612.99
208.148	2621.61
208.222	2610.7
208.296	2647.22
208.371	2664.91
208.445	2683.06
208.519	2719.59
208.593	2738.51
208.668	2741.46
208.742	2753.29
208.816	2762.38
208.89	2784.12
208.965	2790.8
209.039	2807.91
209.113	2838.03
209.187	2867.27
209.261	2878.52
209.336	2911.93
209.41	2945.11
209.484	2958.71
209.558	2992.13
209.632	3020.11
209.707	3050.63
209.781	3094.97
209.855	3130.56
209.929	3173.77
210.003	3201.48
210.077	3227.06
210.151	3296.53
210.226	3359.26
210.3	3412.66
210.374	3465
210.448	3503.28
210.522	3546.07
210.596	3591.86
210.67	3637.56
210.744	3723.11
210.818	3794.78
210.892	3854.36
210.966	3891.42
211.041	3950.14
211.115	3990.56
211.189	4060.03
211.263	4119.29
211.337	4171.73
211.411	4237.44
211.485	4277.38
211.559	4341.87
211.633	4396.18
211.707	4418.57
211.781	4481.53
211.855	4507.03
211.929	4557.73
212.003	4596.85
212.077	4666.8
212.151	4735.88
212.225	4805.63
212.299	4859.49
212.373	4907.61
212.447	4969.79
212.52	5062.84
212.594	5131.55
212.668	5211.49
212.742	5267.02
212.816	5338.42
212.89	5401.48
212.964	5469.18
213.038	5545.56
213.112	5631.64
213.186	5719.56
213.26	5774.49
213.333	5803.55
213.407	5877.62
213.481	5957.94
213.555	6049.05
213.629	6109.47
213.703	6174.93
213.777	6247.6
213.85	6300.55
213.924	6411.45
213.998	6487.17
214.072	6560.13
214.146	6621.07
214.219	6695.79
214.293	6770.36
214.367	6847.8
214.441	6937.72
214.515	7002.16
214.588	7055.39
214.662	7103.25
214.736	7158.99
214.81	7244.44
214.883	7328.23
214.957	7399.15
215.031	7458.45
215.105	7508.72
215.178	7571.5
215.252	7639.58
215.326	7696.47
215.4	7755.07
215.473	7785.04
215.547	7836.64
215.621	7901.35
215.694	7988.08
215.768	8042.58
215.842	8109.44
215.915	8167.18
215.989	8212.45
216.063	8277.22
216.136	8357.53
216.21	8423.73
216.284	8505.78
216.357	8582.73
216.431	8651.93
216.504	8728.55
216.578	8825.49
216.652	8911.06
216.725	8983.41
216.799	9065.59
216.873	9133.37
216.946	9207.27
217.02	9268.64
217.093	9340.67
217.167	9382.95
217.24	9429.9
217.314	9495.29
217.387	9556.01
217.461	9618.28
217.535	9703.05
217.608	9760.17
217.682	9822.93
217.755	9892.09
217.829	9951.58
217.902	10013.24
217.976	10077.07
218.049	10140.08
218.123	10193.8
218.196	10262.78
218.27	10320.5
218.343	10364.49
218.417	10431.22
218.49	10499.39
218.563	10581.06
218.637	10651.41
218.71	10735.92
218.784	10808.88
218.857	10884.38
218.931	10960.08
219.004	11032.85
219.077	11097.67
219.151	11162.97
219.224	11225.04
219.298	11295.16
219.371	11365.72
219.444	11418.97
219.518	11488.76
219.591	11552.57
219.665	11640.68
219.738	11699.81
219.811	11758.04
219.885	11833.71
219.958	11906.15
220.031	11968.57
220.105	12036.34
220.178	12100.79
220.251	12166.39
220.325	12240
220.398	12305.89
220.471	12367.54
220.544	12431.41
220.618	12487.71
220.691	12551.25
220.764	12622.06
220.838	12694.03
220.911	12752.36
220.984	12842.21
221.057	12905.46
221.131	12969.67
221.204	12993.24
221.277	13069.11
221.35	13159.16
221.424	13213.06
221.497	13275.68
221.57	13336.42
221.643	13402.51
221.716	13468.65
221.79	13522.16
221.863	13579.67
221.936	13636.74
222.009	13700.18
222.082	13759.67
222.155	13813.56
222.229	13896.04
222.302	13943.91
222.375	14000.22
222.448	14064.04
222.521	14106.08
222.594	14163.01
222.667	14206.2
222.74	14276.87
222.814	14330.04
222.887	14384.85
222.96	14453.64
223.033	14514.76
223.106	14579.16
223.179	14639.13
223.252	14686.03
223.325	14737.71
223.398	14791.36
223.471	14842.6
223.544	14881.65
223.617	14935.34
223.69	14990.63
223.763	15019.36
223.837	15074.41
223.91	15116.3
223.983	15145.56
224.056	15184.94
224.129	15235.84
224.202	15295.9
224.275	15334.32
224.348	15370.96
224.42	15397.66
224.493	15422.44
224.566	15454.73
224.639	15499.17
224.712	15532.14
224.785	15575.28
224.858	15614.8
224.931	15654.42
225.004	15679.44
225.077	15719.69
225.15	15734.29
225.223	15773.24
225.296	15836.14
225.369	15863.32
225.442	15897.45
225.514	15939.53
225.587	15988.5
225.66	16028.07
225.733	16067.88
225.806	16118.29
225.879	16165.48
225.952	16198.88
226.025	16251.13
226.097	16305.78
226.17	16339.86
226.243	16369.4
226.316	16401.84
226.389	16435.96
226.461	16477.41
226.534	16533.8
226.607	16571.45
226.68	16630.78
226.753	16667.65
226.825	16688.71
226.898	16745.14
226.971	16785.05
227.044	16838.64
227.117	16873.54
227.189	16915.61
227.262	16965.11
227.335	17003.95
227.407	17030.02
227.48	17067.66
227.553	17100.82
227.626	17123.71
227.698	17155.52
227.771	17186.37
227.844	17208.58
227.916	17244.73
227.989	17259.67
228.062	17279.67
228.134	17338.13
228.207	17369.12
228.28	17396.2
228.352	17418.13
228.425	17441.84
228.498	17481.26
228.57	17493.02
228.643	17538.47
228.716	17555.62
228.788	17572.63
228.861	17581.69
228.934	17613.93
229.006	17632.44
229.079	17652.87
229.151	17674.85
229.224	17689.26
229.296	17715.62
229.369	17769.59
229.442	17812.53
229.514	17832.34
229.587	17879.95
229.659	17882.55
229.732	17916.72
229.804	17959.47
229.877	18012
229.949	18044.77
230.022	18083.17
230.094	18109.39
230.167	18127.41
230.239	18151.85
230.312	18174.64
230.384	18226.01
230.457	18258.44
230.529	18299.79
230.602	18330.05
230.674	18363.02
230.747	18401.33
230.819	18440.51
230.892	18440.6
230.964	18466.14
231.037	18487.11
231.109	18492.7
231.181	18516.55
231.254	18516.65
231.326	18524.31
231.399	18528.98
231.471	18533.95
231.544	18535.15
231.616	18559.59
231.688	18577.22
231.761	18591.29
231.833	18604.84
231.905	18602.52
231.978	18611.77
232.05	18615.87
232.122	18628.4
232.195	18628.11
232.267	18652.64
232.339	18650.9
232.412	18674.08
232.484	18672.16
232.556	18683.96
232.629	18722.76
232.701	18743
232.773	18759.57
232.846	18766.03
232.918	18784.49
232.99	18804.34
233.062	18827.23
233.135	18845.16
233.207	18833.26
233.279	18844.77
233.351	18862.17
233.424	18863.23
233.496	18858.41
233.568	18884.87
233.64	18885.93
233.713	18902.02
233.785	18897.59
233.857	18915.61
233.929	18902.7
234.001	18928.86
234.074	18946.79
234.146	18928.72
234.218	18928.04
234.29	18933.97
234.362	18925.2
234.434	18906.41
234.507	18891.61
234.579	18869.25
234.651	18855.57
234.723	18872.72
234.795	18879.61
234.867	18868.34
234.939	18880.87
235.012	18886.02
235.084	18887.23
235.156	18886.94
235.228	18868.72
235.3	18860.43
235.372	18855.9
235.444	18870.17
235.516	18835.33
235.588	18826.41
235.66	18822.46
235.732	18803.91
235.804	18850.56
235.876	18860.1
235.948	18866.89
236.02	18863.66
236.092	18851.71
236.164	18855.52
236.236	18833.16
236.308	18813.74
236.38	18807.76
236.452	18781.55
236.524	18769.74
236.596	18780.15
236.668	18781.79
236.74	18776.92
236.812	18765.02
236.884	18760.25
236.956	18742.22
237.028	18728.35
237.1	18703.77
237.172	18710.8
237.244	18725.31
237.316	18674.52
237.388	18655.19
237.46	18634.23
237.532	18632.93
237.604	18609.03
237.675	18596.84
237.747	18600.55
237.819	18578.86
237.891	18559.73
237.963	18554.04
238.035	18540.65
238.107	18480.02
238.178	18467.98
238.25	18443.11
238.322	18455.78
238.394	18414.19
238.466	18399.98
238.538	18386.39
238.609	18377.43
238.681	18334.58
238.753	18299.45
238.825	18275.26
238.897	18256.28
238.968	18251.26
239.04	18217.77
239.112	18225.67
239.184	18202.78
239.255	18165.73
239.327	18151.32
239.399	18129
239.471	18102.93
239.542	18082.69
239.614	18079.46
239.686	18038.02
239.758	18029.1
239.829	17989.68
239.901	17990.41
239.973	17968.53
240.044	17951.28
240.116	17938.26
240.188	17910.36
240.259	17895.04
240.331	17869.88
240.403	17850.32
240.474	17817.02
240.546	17790.8
240.618	17756.63
240.689	17717.5
240.761	17705.35
240.833	17695.67
240.904	17673.79
240.976	17656.01
241.048	17637.6
241.119	17616.25
241.191	17601.4
241.262	17592.73
241.334	17564.68
241.405	17528.54
241.477	17496.97
241.549	17470.42
241.62	17439.14
241.692	17426.18
241.763	17408.06
241.835	17383.43
241.906	17366.56
241.978	17326.8
242.049	17316.78
242.121	17296.01
242.192	17288.73
242.264	17246.56
242.335	17200.97
242.407	17185.26
242.478	17140.58
242.55	17114.17
242.621	17080.24
242.693	17046.75
242.764	17010.84
242.836	16984.24
242.907	16960.14
242.979	16945.3
243.05	16922.99
243.122	16905.68
243.193	16869.34
243.264	16815.13
243.336	16785.82
243.407	16752.86
243.479	16737.63
243.55	16706.06
243.622	16682.64
243.693	16654.25
243.764	16642.39
243.836	16609.76
243.907	16567.06
243.978	16554.77
244.05	16529.18
244.121	16487.49
244.192	16470.86
244.264	16435.53
244.335	16400.4
244.407	16359.19
244.478	16318.85
244.549	16276.05
244.62	16227.85
244.692	16198.45
244.763	16182.88
244.834	16145.87
244.906	16110.01
244.977	16086.34
245.048	16072.85
245.119	16028.6
245.191	15983.39
245.262	15931.77
245.333	15912.78
245.405	15888.1
245.476	15861.15
245.547	15829.97
245.618	15802.64
245.689	15764.37
245.761	15725.86
245.832	15696.12
245.903	15671.78
245.974	15650.43
246.045	15625.65
246.117	15609.65
246.188	15561.59
246.259	15527.03
246.33	15498.5
246.401	15470.01
246.473	15421.52
246.544	15386.52
246.615	15373.65
246.686	15343.19
246.757	15332.15
246.828	15298.12
246.899	15279.42
246.97	15234.83
247.042	15197.76
247.113	15177.76
247.184	15174.29
247.255	15144.84
247.326	15122.52
247.397	15091.38
247.468	15059.47
247.539	15030.79
247.61	14993.82
247.681	14982.1
247.752	14954.29
247.823	14909.27
247.894	14886.42
247.965	14854.07
248.037	14814.6
248.108	14770.01
248.179	14744.36
248.25	14715.54
248.321	14691.92
248.392	14652.78
248.463	14649.11
248.534	14617.25
248.605	14595.46
248.675	14556.56
248.746	14532.31
248.817	14507.1
248.888	14488.59
248.959	14451.38
249.03	14436.19
249.101	14407.41
249.172	14376.18
249.243	14330.62
249.314	14325.9
249.385	14300.83
249.456	14280.44
249.527	14252
249.598	14228.23
249.669	14203.45
249.739	14166.87
249.81	14144.79
249.881	14109.84
249.952	14076.24
250.023	14053.58
250.094	14014.49
250.165	13979.44
250.235	13963.97
250.306	13934.18
250.377	13889.87
250.448	13860.61
250.519	13811.54
250.59	13799.44
250.66	13771.34
250.731	13771.05
250.802	13740.48
250.873	13717.15
250.944	13691.12
251.014	13660.65
251.085	13655.83
251.156	13629.56
251.227	13629.66
251.297	13612.06
251.368	13603.24
251.439	13587.67
251.51	13571.76
251.58	13540.81
251.651	13511.31
251.722	13488.99
251.792	13450.38
251.863	13429.55
251.934	13431.48
252.005	13434.85
252.075	13404
252.146	13389.68
252.217	13369.24
252.287	13361.87
252.358	13331.88
252.429	13338.01
252.499	13310.63
252.57	13291.58
252.641	13281.46
252.711	13253.4
252.782	13217.83
252.852	13207.85
252.923	13189.87
252.994	13170.63
253.064	13157.42
253.135	13127.39
253.205	13101.55
253.276	13101.07
253.347	13092.68
253.417	13053.01
253.488	13020.76
253.558	12998.78
253.629	12980.12
253.699	12963.35
253.77	12942.18
253.841	12917.65
253.911	12891.28
253.982	12878.17
254.052	12865.34
254.123	12845.34
254.193	12827.79
254.264	12848.71
254.334	12816.51
254.405	12775.34
254.475	12740.78
254.546	12720.2
254.616	12711.67
254.687	12692.43
254.757	12675.85
254.827	12653.72
254.898	12631.98
254.968	12612.41
255.039	12584.55
255.109	12565.65
255.18	12533.36
255.25	12487.71
255.321	12477.15
255.391	12437.96
255.461	12435.5
255.532	12384.69
255.602	12353.65
255.673	12307.57
255.743	12269.82
255.813	12230.49
255.884	12224.03
255.954	12213.81
256.024	12211.93
256.095	12193.42
256.165	12156.31
256.235	12134.86
256.306	12108.15
256.376	12105.98
256.446	12095.72
256.517	12090.56
256.587	12088.92
256.657	12071.52
256.728	12062.31
256.798	12042.94
256.868	12022.84
256.938	11991.22
257.009	11981.91
257.079	11975.84
257.149	11988.61
257.219	11949.76
257.29	11931.25
257.36	11890.33
257.43	11878.96
257.5	11835.96
257.571	11803.91
257.641	11796.92
257.711	11764.15
257.781	11752.24
257.852	11733.83
257.922	11693.87
257.992	11665.92
258.062	11641.57
258.132	11629.14
258.202	11602.49
258.273	11585.42
258.343	11585.18
258.413	11559.93
258.483	11541.81
258.553	11504.98
258.623	11469.99
258.693	11456.98
258.764	11456.3
258.834	11458.09
258.904	11438.66
258.974	11411.39
259.044	11406.42
259.114	11398.32
259.184	11384.3
259.254	11365.46
259.324	11333.12
259.394	11318.47
259.464	11319.86
259.535	11291.09
259.605	11267.62
259.675	11244.39
259.745	11225.79
259.815	11193.55
259.885	11172.63
259.955	11184.59
260.025	11164.35
260.095	11153.21
260.165	11138.03
260.235	11137.6
260.305	11110.71
260.375	11083
260.445	11093.84
260.515	11078.13
260.585	11060.83
260.655	11043.82
260.725	11039.77
260.795	11025.46
260.865	11032.44
260.934	11006.76
261.004	10998.86
261.074	10988.4
261.144	10985.84
261.214	10978.9
261.284	10963.05
261.354	10956.3
261.424	10922.91
261.494	10925.36
261.564	10905.65
261.634	10901.17
261.703	10861.37
261.773	10852.21
261.843	10839.44
261.913	10819.25
261.983	10789.23
262.053	10776.51
262.123	10759.21
262.192	10730.98
262.262	10722.35
262.332	10690.65
262.402	10680.33
262.472	10665.97
262.541	10624.25
262.611	10620.11
262.681	10600.74
262.751	10588.69
262.821	10565.71
262.89	10540.51
262.96	10530.63
263.03	10534.87
263.1	10512.99
263.169	10502.06
263.239	10494.3
263.309	10503.36
263.379	10492.66
263.448	10485.53
263.518	10478.21
263.588	10465.87
263.657	10464.09
263.727	10466.74
263.797	10449.01
263.867	10429.84
263.936	10401.99
264.006	10406.18
264.076	10390.42
264.145	10366.09
264.215	10347.35
264.285	10342.92
264.354	10315.85
264.424	10294.22
264.494	10262.75
264.563	10247.19
264.633	10251
264.702	10236.5
264.772	10195.59
264.842	10172.71
264.911	10162.55
264.981	10132.77
265.05	10118.03
265.12	10095.44
265.19	10072.79
265.259	10076.12
265.329	10069.61
265.398	10062.29
265.468	10080.02
265.537	10057.09
265.607	10048.85
265.676	10051.5
265.746	10044.18
265.815	10039.75
265.885	10025.16
265.955	10002.71
266.024	9986.81
266.094	9955.36
266.163	9950.83
266.232	9956.03
266.302	9944.09
266.371	9932.67
266.441	9925.69
266.51	9919.38
266.58	9909.31
266.649	9884.5
266.719	9876.46
266.788	9865.38
266.858	9865.81
266.927	9815
266.996	9806.18
267.066	9801.08
267.135	9775.12
267.205	9767.22
267.274	9755.27
267.343	9759.17
267.413	9745.01
267.482	9748.39
267.552	9746.22
267.621	9720.84
267.69	9694.2
267.76	9689.19
267.829	9674.94
267.898	9661.02
267.968	9639.59
268.037	9629.86
268.106	9634.53
268.176	9610.4
268.245	9597.88
268.314	9580.88
268.384	9586.08
268.453	9575.72
268.522	9568.45
268.592	9565.8
268.661	9540.57
268.73	9529.2
268.799	9502.67
268.869	9503.48
268.938	9471.22
269.007	9446.47
269.076	9433.8
269.146	9432.89
269.215	9421.38
269.284	9427.69
269.353	9411.08
269.422	9400.15
269.492	9389.21
269.561	9346.65
269.63	9341.16
269.699	9323.63
269.768	9311.01
269.838	9302.44
269.907	9299.94
269.976	9275.91
270.045	9247.17
270.114	9250.1
270.183	9233.16
270.253	9226.32
270.322	9207.01
270.391	9199.36
270.46	9208.94
270.529	9205.86
270.598	9196.42
270.667	9184.24
270.736	9159.44
270.806	9154.05
270.875	9152.51
270.944	9133.83
271.013	9158.81
271.082	9150.39
271.151	9150.73
271.22	9127.57
271.289	9114.57
271.358	9104.27
271.427	9097.77
271.496	9081.98
271.565	9064.12
271.634	9064.02
271.703	9093.11
271.772	9092.87
271.841	9086.27
271.91	9063.35
271.979	9055.84
272.048	9031.92
272.117	9026.14
272.186	9016.08
272.255	9017.57
272.324	9016.51
272.393	9010.59
272.462	8992.73
272.531	8986.18
272.6	8973.81
272.669	8975.49
272.738	8966.78
272.807	8954.99
272.876	8936.69
272.945	8964.37
273.013	8968.22
273.082	8966.78
273.151	8916.51
273.22	8915.02
273.289	8905.97
273.358	8915.21
273.427	8903.08
273.496	8906.55
273.564	8905.68
273.633	8909.58
273.702	8894.08
273.771	8881.71
273.84	8880.84
273.909	8879.25
273.977	8871.79
274.046	8859.18
274.115	8865.1
274.184	8846.57
274.253	8839.21
274.322	8848.21
274.39	8820.63
274.459	8805.99
274.528	8778.37
274.597	8772.78
274.665	8769.17
274.734	8769.37
274.803	8751.99
274.872	8745.92
274.94	8731.49
275.009	8762.3
275.078	8747.77
275.147	8741.22
275.215	8737.85
275.284	8739.97
275.353	8730.97
275.421	8709.5
275.49	8721.82
275.559	8710.71
275.627	8707.05
275.696	8702
275.765	8697.28
275.833	8691.55
275.902	8692.37
275.971	8705.41
276.039	8719.37
276.108	8713.02
276.177	8719.95
276.245	8723.08
276.314	8719.8
276.383	8726.64
276.451	8688.31
276.52	8689.71
276.588	8699.38
276.657	8700.25
276.725	8695.68
276.794	8691.97
276.863	8700.73
276.931	8678.01
277	8683.88
277.068	8690.96
277.137	8702.84
277.205	8705.2
277.274	8721.57
277.342	8729.8
277.411	8712.86
277.48	8694.76
277.548	8683.93
277.617	8678.64
277.685	8666.03
277.754	8669.54
277.822	8663.77
277.89	8674.45
277.959	8665.26
278.027	8645.63
278.096	8638.41
278.164	8662.57
278.233	8655.74
278.301	8645.92
278.37	8646.26
278.438	8632.59
278.507	8638.56
278.575	8617.96
278.643	8609.58
278.712	8591.01
278.78	8576.52
278.849	8589.32
278.917	8604.19
278.985	8603.37
279.054	8602.7
279.122	8613.19
279.191	8614.78
279.259	8607.08
279.327	8589.27
279.396	8612.66
279.464	8607.61
279.532	8613.62
279.601	8605.25
279.669	8604.14
279.737	8622.96
279.806	8628.68
279.874	8632.92
279.942	8629.07
280.011	8625.22
280.079	8627.87
280.147	8641
280.215	8641.87
280.284	8633.93
280.352	8625.27
280.42	8634.94
280.488	8627.43
280.557	8619.11
280.625	8615.21
280.693	8617.81
280.761	8618.58
280.83	8594.27
280.898	8602.74
280.966	8584.07
281.034	8550.72
281.102	8533.59
281.171	8522.23
281.239	8531.08
281.307	8527.38
281.375	8514.77
281.443	8541.34
281.512	8538.74
281.58	8548.65
281.648	8533.3
281.716	8533.64
281.784	8527.05
281.852	8517.37
281.92	8516.94
281.989	8524.98
282.057	8513.77
282.125	8562.91
282.193	8558.34
282.261	8556.27
282.329	8560.46
282.397	8562.82
282.465	8565.85
282.533	8583.51
282.601	8574.37
282.67	8547.27
282.738	8541.21
282.806	8545.3
282.874	8523.3
282.942	8525.52
283.01	8517.62
283.078	8526.67
283.146	8524.65
283.214	8534.85
283.282	8540.91
283.35	8553.48
283.418	8551.17
283.486	8550.01
283.554	8501.73
283.622	8503.46
283.69	8501.49
283.758	8492.44
283.826	8502.3
283.894	8511.5
283.962	8526.75
284.03	8540.28
284.098	8543.69
284.165	8535.85
284.233	8540.47
284.301	8536.38
284.369	8531.23
284.437	8522.47
284.505	8515.93
284.573	8529.79
284.641	8512.75
284.709	8524.16
284.777	8507.36
284.845	8513.09
284.912	8522.18
284.98	8522.09
285.048	8515.4
285.116	8526.03
285.184	8537.48
285.252	8533.97
285.319	8520.55
285.387	8510.1
285.455	8494.46
285.523	8502.06
285.591	8506.06
285.659	8512.7
285.726	8530.07
285.794	8514.58
285.862	8511.74
285.93	8514.53
285.997	8508.8
286.065	8506.83
286.133	8490.18
286.201	8484.84
286.269	8474.2
286.336	8463.18
286.404	8459.72
286.472	8464.91
286.539	8439.51
286.607	8424.5
286.675	8425.84
286.743	8435.23
286.81	8429.31
286.878	8443.55
286.946	8442.44
287.013	8438.69
287.081	8431.62
287.149	8411.41
287.216	8434.21
287.284	8429.59
287.352	8428.05
287.419	8421.8
287.487	8441.38
287.555	8444.03
287.622	8442.78
287.69	8439.75
287.758	8456.4
287.825	8452.41
287.893	8447.55
287.96	8456.35
288.028	8469.92
288.096	8468.14
288.163	8469.63
288.231	8459.67
288.298	8454.38
288.366	8464.72
288.433	8460.25
288.501	8455.05
288.569	8463.95
288.636	8455.05
288.704	8467.9
288.771	8472.61
288.839	8465.69
288.906	8457.55
288.974	8465.35
289.041	8460.01
289.109	8456.3
289.176	8463.67
289.244	8471.8
289.311	8477.86
289.379	8484.94
289.446	8488.93
289.514	8495.48
289.581	8495.43
289.649	8502.6
289.716	8503.41
289.783	8497.93
289.851	8521.27
289.918	8521.6
289.986	8525.93
290.053	8532.43
290.121	8534.89
290.188	8537.53
290.255	8566.84
290.323	8556.01
290.39	8553.17
290.458	8570.4
290.525	8581.37
290.592	8574.92
290.66	8575.84
290.727	8577.47
290.794	8595.9
290.862	8594.7
290.929	8592.34
290.996	8596.05
291.064	8603.99
291.131	8617.46
291.198	8624.06
291.266	8618.72
291.333	8617.9
291.4	8621.12
291.468	8633.97
291.535	8627.72
291.602	8634.21
291.669	8625.21
291.737	8636.18
291.804	8634.4
291.871	8646.39
291.938	8652.45
292.006	8677.92
292.073	8690.96
292.14	8694.09
292.207	8686.2
292.275	8681.53
292.342	8698.42
292.409	8715.75
292.476	8738.57
292.543	8730.05
292.611	8734.86
292.678	8752.19
292.745	8778.51
292.812	8787.18
292.879	8781.59
292.946	8783.71
293.014	8802.68
293.081	8812.69
293.148	8823.04
293.215	8843.11
293.282	8833.39
293.349	8844.02
293.416	8822.12
293.484	8835.41
293.551	8850.09
293.618	8865.39
293.685	8895.67
293.752	8884.02
293.819	8886.82
293.886	8875.79
293.953	8881.18
294.02	8891.1
294.087	8899.47
294.154	8889.22
294.221	8913.58
294.288	8922.39
294.356	8938.13
294.423	8939.29
294.49	8929.71
294.557	8944.73
294.624	8931.78
294.691	8955.22
294.758	8959.02
294.825	8974.81
294.892	8965.86
294.959	8968.8
295.026	8975.15
295.093	8970.29
295.16	8974.57
295.226	8973.46
295.293	8995.66
295.36	9005.58
295.427	9014.63
295.494	9025.03
295.561	9037.83
295.628	9057.38
295.695	9069.8
295.762	9076.78
295.829	9084.2
295.896	9104.22
295.963	9109.14
296.03	9119.92
296.096	9120.35
296.163	9133.98
296.23	9151.31
296.297	9167.05
296.364	9165.8
296.431	9172.35
296.498	9168.26
296.564	9194.88
296.631	9196.52
296.698	9180.48
296.765	9199.74
296.832	9186.84
296.899	9171.05
296.965	9190.02
297.032	9161.56
297.099	9175.81
297.166	9182.12
297.233	9177.06
297.299	9168.59
297.366	9175.52
297.433	9179.62
297.5	9189.15
297.566	9185.73
297.633	9174.61
297.7	9172.54
297.767	9168.01
297.833	9172.78
297.9	9170.66
297.967	9153.81
298.033	9167.48
298.1	9202.68
298.167	9193.92
298.234	9203.11
298.3	9215.78
298.367	9212.31
298.434	9225.45
298.5	9217.89
298.567	9219.63
298.634	9226.13
298.7	9246.83
298.767	9243.89
298.834	9258.68
298.9	9257.66
298.967	9249.38
299.033	9263.49
299.1	9282.37
299.167	9298.45
299.233	9293.01
299.3	9311.74
299.366	9327
299.433	9344.05
299.5	9316.31
299.566	9318.23
299.633	9332.54
299.699	9342.26
299.766	9339.42
299.832	9341.54
299.899	9349.15
299.965	9357.29
300.032	9352.18
300.099	9359.89
300.165	9366.58
300.232	9363.26
300.298	9363.98
300.365	9380.21
300.431	9380.74
300.498	9370.48
300.564	9375.92
300.631	9395.95
300.697	9404.77
300.763	9404.38
300.83	9400.09
300.896	9418.44
300.963	9431.15
301.029	9438.38
301.096	9445.5
301.162	9456.92
301.229	9450.61
301.295	9439.72
301.361	9446.71
301.428	9452.24
301.494	9437.17
301.561	9446.56
301.627	9444.49
301.693	9452.44
301.76	9453.83
301.826	9443.24
301.892	9457.01
301.959	9466.55
302.025	9461.11
302.092	9455.62
302.158	9462.94
302.224	9463.9
302.291	9448.68
302.357	9444.35
302.423	9441.07
302.49	9425.62
302.556	9436.11
302.622	9436.11
302.688	9450.8
302.755	9462.22
302.821	9469.68
302.887	9478.49
302.954	9470.98
303.02	9480.18
303.086	9474.98
303.152	9475.99
303.219	9481.81
303.285	9486.58
303.351	9488.17
303.417	9488.6
303.483	9482.39
303.55	9478.35
303.616	9479.79
303.682	9481.19
303.748	9477.38
303.815	9491.35
303.881	9507.87
303.947	9488.56
304.013	9494.24
304.079	9482.54
304.145	9458.89
304.212	9453.74
304.278	9450.9
304.344	9447.14
304.41	9440.79
304.476	9435.01
304.542	9424.22
304.608	9419.6
304.674	9402.89
304.741	9406.93
304.807	9412.52
304.873	9419.98
304.939	9429.76
305.005	9410.83
305.071	9413.19
305.137	9411.89
305.203	9383
305.269	9379.97
305.335	9397.16
305.401	9390.46
305.467	9387.09
305.533	9395.09
305.599	9396.34
305.666	9399.95
305.732	9403.08
305.798	9412.18
305.864	9445.41
305.93	9452.88
305.996	9456.54
306.062	9456.78
306.128	9447.38
306.194	9428.12
306.259	9426.24
306.325	9417.82
306.391	9434.43
306.457	9441.85
306.523	9447
306.589	9473.15
306.655	9466.07
306.721	9447.58
306.787	9440.64
306.853	9453.6
306.919	9440.84
306.985	9448.35
307.051	9448.2
307.117	9443.63
307.183	9443.63
307.248	9404.04
307.314	9407.99
307.38	9405.2
307.446	9413.92
307.512	9404.72
307.578	9415.17
307.644	9410.93
307.709	9413.91
307.775	9400.58
307.841	9394.94
307.907	9397.78
307.973	9381.41
308.039	9381.46
308.104	9385.65
308.17	9384.83
308.236	9371.92
308.302	9372.02
308.368	9355.98
308.433	9347.65
308.499	9339.23
308.565	9321.17
308.631	9329.6
308.696	9314.62
308.762	9305.52
308.828	9302.68
308.894	9284.58
308.959	9255.79
309.025	9243.8
309.091	9237.25
309.156	9233.83
309.222	9235.03
309.288	9218.76
309.354	9195.89
309.419	9194.59
309.485	9182.41
309.551	9187.37
309.616	9174.94
309.682	9174.94
309.748	9167.05
309.813	9167.34
309.879	9164.06
309.945	9155.49
310.01	9149.23
310.076	9147.65
310.141	9141.82
310.207	9124.44
310.273	9126.7
310.338	9137.24
310.404	9121.45
310.469	9109.32
310.535	9098.29
310.601	9073.93
310.666	9078.31
310.732	9082.74
310.797	9066.95
310.863	9058.72
310.928	9053.95
310.994	9056.7
311.059	9055.78
311.125	9051.69
311.191	9063.05
311.256	9054.15
311.322	9056.27
311.387	9035.13
311.453	9375.77
311.518	9349.34
311.584	9348.72
311.649	9350.74
311.715	9339.43
311.78	9343.42
311.846	9338.46
311.911	9341.93
311.976	9346.55
312.042	9329.46
312.107	9318.2
312.173	9312.81
312.238	9308.47
312.304	9302.31
312.369	9293.69
312.434	9272.51
312.5	9265.15
312.565	9220.62
312.631	9216.77
312.696	9209.59
312.761	9217.68
312.827	8867.32
312.892	8904
312.958	8895.67
313.023	8894.18
313.088	8898.51
313.154	8887.54
313.219	8872.76
313.284	8865.44
313.35	8863.85
313.415	8857.5
313.48	8853.65
313.546	8853.46
313.611	8857.21
313.676	8850.95
313.741	8843.83
313.807	8854.75
313.872	8858.36
313.937	8869.68
314.003	8880.02
314.068	8880.6
314.133	8879.88
314.198	8871.02
314.264	8856.39
314.329	8849.74
314.394	8843.73
314.459	8831.41
314.525	8844.93
314.59	8847.1
314.655	8836.84
314.72	8837.66
314.785	8837.9
314.851	8828.61
314.916	8809.27
314.981	8795.79
315.046	8780.72
315.111	8770.23
315.176	8758.1
315.242	8762.05
315.307	8760.46
315.372	8742.17
315.437	8731.72
315.502	8725.66
315.567	8732.93
315.632	8715.79
315.698	8712.04
315.763	8711.17
315.828	8702.94
315.893	8700.25
315.958	8697.84
316.023	8689.85
316.088	8673.29
316.153	8653.08
316.218	8650.24
316.283	8634.03
316.348	8616.85
316.413	8612.37
316.479	8597.6
316.544	8567.1
316.609	8534.61
316.674	8498.91
316.739	8461.81
316.804	8432.18
316.869	8399.74
316.934	8363.84
316.999	8332.28
317.064	8284.03
317.129	8241.11
317.194	8209.17
317.259	8162.74
317.324	8106.17
317.389	8057.15
317.454	8014.92
317.518	7981.2
317.583	7953.39
317.648	7929.64
317.713	7899.77
317.778	7845.75
317.843	7817.04
317.908	7779.44
317.973	7739.09
318.038	7712.74
318.103	7678.94
318.168	7649.8
318.233	7616.29
318.297	7562.87
318.362	7531.05
318.427	7494.95
318.492	7468.07
318.557	7419.87
318.622	7390.59
318.687	7370.64
318.751	7330.23
318.816	7302.16
318.881	7269.91
318.946	7213.1
319.011	7166.68
319.075	7120.31
319.14	7083.99
319.205	7040.74
319.27	7010.52
319.335	6967.62
319.399	6923.42
319.464	6895.75
319.529	6839.31
319.594	6797.32
319.658	6772.97
319.723	6727.96
319.788	6698.19
319.853	6644.63
319.917	6615.11
319.982	6562.04
320.047	6524.68
320.112	6501.06
320.176	6447.19
320.241	6413.29
320.306	6389.28
320.37	6353.28
320.435	6324.58
320.5	6300.24
320.564	6262.18
320.629	6218.84
320.694	6188.9
320.758	6151.61
320.823	6108.47
320.888	6086.31
320.952	6044.71
321.017	6000.66
321.082	5961.52
321.146	5928.9
321.211	5894.41
321.275	5855.61
321.34	5811.11
321.405	5768.43
321.469	5722.78
321.534	5682.75
321.598	5630.96
321.663	5595.23
321.727	5563.97
321.792	5515.41
321.857	5469.29
321.921	5429.93
321.986	5381.49
322.05	5326.58
322.115	5287.43
322.179	5244.35
322.244	5191.36
322.308	5152.51
322.373	5107.05
322.437	5068.68
322.502	5044.96
322.566	5002.38
322.631	4968.95
322.695	4932.28
322.76	4884.11
322.824	4851.69
322.889	4812.4
322.953	4770.76
323.018	4707.28
323.082	4645.45
323.146	4594.02
323.211	4541.76
323.275	4499.46
323.34	4462.77
323.404	4429.63
323.468	4384.99
323.533	4346.01
323.597	4297.73
323.662	4249.42
323.726	4216.66
323.79	4171.77
323.855	4102.93
323.919	4053.55
323.983	4005.7
324.048	3943.83
324.112	4095.98
324.177	3966.96
324.241	3760.92
324.305	3558.69
324.37	3364.07
324.434	3173.13
324.498	3133.26
324.562	3085.82
324.627	3025.01
324.691	2970.22
324.755	2903.63
324.82	2831.97
324.884	2752.08
324.948	2683.9
325.012	2591.57
325.077	2468.4
