Data from 20250702_urea_0.5M_MAYP1162681_16-04-59-936.txt Node
Date: Wed Jul 02 16:04:59 BST 2025
User: adleo
Spectrometer: MAYP116268
Trigger mode: 0
Integration Time (sec): 1.000000E0
Scans to average: 1
Electric dark correction enabled: true
Nonlinearity correction enabled: true
Boxcar width: 10
XAxis mode: Wavelengths
Number of Pixels in Spectrum: 2068
>>>>>Begin Spectral Data<<<<<
179.565	1110.99
179.642	1159.01
179.718	1197.34
179.795	1229.27
179.871	1257.41
179.948	1274.05
180.024	1291.84
180.101	1312.15
180.177	1322.65
180.254	1345.12
180.33	1365.4
180.407	1411.54
180.483	1500.66
180.56	1584.85
180.636	1660.61
180.712	1648.26
180.789	1656.62
180.865	1668.3
180.942	1676.19
181.018	1687.35
181.095	1697.72
181.171	1702.32
181.248	1705.03
181.324	1721.05
181.4	1729.41
181.477	1740.68
181.553	1753.88
181.63	1777.08
181.706	1795.14
181.782	1806.59
181.859	1804.54
181.935	1809.82
182.011	1807.25
182.088	1820.89
182.164	1836.54
182.24	1852.03
182.317	1862.67
182.393	1861.86
182.469	1874.6
182.546	1888.1
182.622	1889.62
182.698	1886.72
182.775	1897.28
182.851	1910.3
182.927	1903.31
183.003	1901.93
183.08	1895.85
183.156	1903.65
183.232	1901.08
183.308	1888.81
183.385	1894.8
183.461	1912.53
183.537	1914.63
183.613	1925.66
183.69	1919.81
183.766	1911.44
183.842	1917.05
183.918	1921.14
183.995	1933.26
184.071	1937.59
184.147	1932.45
184.223	1923.57
184.299	1935.26
184.375	1923.47
184.452	1930.23
184.528	1983.69
184.604	1991.67
184.68	2006.51
184.756	2013.31
184.832	2015.54
184.908	2020.82
184.985	2021.96
185.061	2006.6
185.137	2016.26
185.213	2005.7
185.289	2004.42
185.365	1995.82
185.441	1994.87
185.517	2007.28
185.593	2004.19
185.669	2000.77
185.745	2012.56
185.822	2028.1
185.898	2019.49
185.974	2031.14
186.05	2021.39
186.126	1982.24
186.202	1974.87
186.278	1967.03
186.354	1957.52
186.43	1962.65
186.506	1959.52
186.582	1957.52
186.658	1962.51
186.734	1941.59
186.81	1945.21
186.886	1948.72
186.962	1961.04
187.038	1956.71
187.114	1946.15
187.19	1954.57
187.266	1944.35
187.341	1942.35
187.417	1934.74
187.493	1935.26
187.569	1935.26
187.645	1928.85
187.721	1916.29
187.797	1922.76
187.873	1928.61
187.949	1924.52
188.025	1919.1
188.101	1921
188.176	1927.7
188.252	1924.04
188.328	1931.55
188.404	1930.46
188.48	1927.56
188.556	1920.14
188.632	1922.9
188.707	1925.99
188.783	1921.04
188.859	1916.91
188.935	1909.16
189.011	1917.71
189.086	1913.67
189.162	1906.92
189.238	1906.3
189.314	1905.88
189.39	1900.69
189.465	1893.56
189.541	1907.97
189.617	1893.71
189.693	1890.43
189.768	1893.42
189.844	1918.06
189.92	1911.69
189.996	1919.92
190.071	1931.81
190.147	1932.04
190.223	1937.66
190.298	1929.14
190.374	1919.97
190.45	1932.71
190.526	1935.89
190.601	1932.52
190.677	1933.47
190.753	1957.39
190.828	1961.48
190.904	1974.94
190.98	1991.25
191.055	1999.05
191.131	1990.58
191.207	2009.46
191.282	2019.06
191.358	2008.27
191.433	1991.47
191.509	2004.78
191.585	2003.5
191.66	2002.4
191.736	2008.82
191.811	2003.4
191.887	2020.33
191.963	2039.69
192.038	2042.73
192.114	2045.68
192.189	2048.39
192.265	2045.3
192.34	2025.7
192.416	2022.8
192.491	2021.14
192.567	2022.28
192.642	2026.42
192.718	2028.46
192.793	2016.53
192.869	2010.58
192.944	2013.86
193.02	2019.9
193.095	2022.8
193.171	2028.27
193.246	2028.13
193.322	2027.8
193.397	2028.56
193.473	2015.1
193.548	1997.5
193.624	2003.83
193.699	2003.68
193.775	2018.24
193.85	2017.76
193.925	2027.66
194.001	2028.18
194.076	2019.95
194.152	2011.48
194.227	2004.68
194.302	1994.61
194.378	2000.83
194.453	1999.74
194.529	2012.25
194.604	2002.26
194.679	1993.89
194.755	1974.45
194.83	1986.06
194.905	1982.26
194.981	1986.39
195.056	1980.93
195.131	1989.68
195.207	1987.63
195.282	1980.31
195.357	1961.42
195.433	1978.45
195.508	1965.7
195.583	1973.21
195.659	1985.39
195.734	1994.52
195.809	1994.43
195.884	2002.84
195.96	2001.08
196.035	2014.49
196.11	2011.07
196.185	2021.38
196.261	2027.9
196.336	2059.76
196.411	2047.49
196.486	2055.14
196.561	2048.58
196.637	2055.24
196.712	2069.46
196.787	2072.51
196.862	2084.59
196.937	2094.1
197.013	2097.43
197.088	2105.94
197.163	2125.4
197.238	2141.3
197.313	2137.06
197.388	2150.38
197.464	2179.12
197.539	2186.73
197.614	2179.98
197.689	2193.16
197.764	2206.58
197.839	2225.99
197.914	2219.61
197.989	2236.6
198.065	2249.92
198.14	2299.73
198.215	2327.52
198.29	2340.09
198.365	2351.94
198.44	2362.79
198.515	2390.35
198.59	2404.87
198.665	2433.38
198.74	2443.57
198.815	2443.91
198.89	2468.57
198.965	2497.86
199.04	2494.47
199.115	2512.51
199.19	2552.98
199.265	2553.26
199.34	2564.64
199.415	2594.19
199.49	2614.94
199.565	2625.37
199.64	2644.99
199.715	2640.32
199.79	2644.9
199.865	2650.85
199.94	2650.04
200.015	2679.01
200.09	2683.44
200.165	2688.15
200.24	2693.54
200.315	2730.44
200.39	2745.5
200.464	2749.12
200.539	2749.74
200.614	2763.74
200.689	2787.19
200.764	2794.91
200.839	2815.15
200.914	2821.34
200.989	2810.67
201.063	2823.29
201.138	2807.77
201.213	2808.53
201.288	2792.19
201.363	2797.86
201.438	2794.86
201.512	2809.39
201.587	2792.37
201.662	2793.71
201.737	2809.58
201.812	2816.39
201.886	2784.63
201.961	2793.12
202.036	2782.88
202.111	2776.21
202.186	2749.54
202.26	2731.81
202.335	2709.8
202.41	2698.98
202.485	2682.22
202.559	2663.45
202.634	2636.58
202.709	2645.96
202.784	2630
202.858	2628.72
202.933	2609.48
203.008	2604.71
203.082	2586.62
203.157	2586.19
203.232	2547.15
203.306	2524.09
203.381	2496.13
203.456	2473.75
203.53	2453.83
203.605	2435.6
203.68	2417.65
203.754	2411.8
203.829	2396.61
203.904	2378
203.978	2369.57
204.053	2375.76
204.127	2362.62
204.202	2362.86
204.277	2344.54
204.351	2335.02
204.426	2329.92
204.5	2324.07
204.575	2291.76
204.65	2303.81
204.724	2294.52
204.799	2303.84
204.873	2298.7
204.948	2297.08
205.022	2287.24
205.097	2279.52
205.171	2294.46
205.246	2300.27
205.32	2301.37
205.395	2302.56
205.469	2296.47
205.544	2302.04
205.618	2281.24
205.693	2294.23
205.767	2283.38
205.842	2302.75
205.916	2300.18
205.991	2290.71
206.065	2295.28
206.14	2308.84
206.214	2303.26
206.289	2300.41
206.363	2310.26
206.438	2315.54
206.512	2322.35
206.586	2342.67
206.661	2352.48
206.735	2332.35
206.81	2335.59
206.884	2350.96
206.958	2344.21
207.033	2362.24
207.107	2370.96
207.181	2405.47
207.256	2404.24
207.33	2425.18
207.405	2442.48
207.479	2464.71
207.553	2475.8
207.628	2469.09
207.702	2489.51
207.776	2490.03
207.851	2498.84
207.925	2526.09
207.999	2532.66
208.073	2542.05
208.148	2553.48
208.222	2553.57
208.296	2597.04
208.371	2625.11
208.445	2650.03
208.519	2690.43
208.593	2718.63
208.668	2734.98
208.742	2763.12
208.816	2787.46
208.89	2826.22
208.965	2854.6
209.039	2888.22
209.113	2938.23
209.187	2986.12
209.261	3017.53
209.336	3075.62
209.41	3136.2
209.484	3175.81
209.558	3238.93
209.632	3296.8
209.707	3358.22
209.781	3433.73
209.855	3505.27
209.929	3582.73
210.003	3650.4
210.077	3713.45
210.151	3828.67
210.226	3933.51
210.3	4033.87
210.374	4137.62
210.448	4227.11
210.522	4319.67
210.596	4418.16
210.67	4517.78
210.744	4661.22
210.818	4787.54
210.892	4910.95
210.966	5013.17
211.041	5139.67
211.115	5251.66
211.189	5392.73
211.263	5526.77
211.337	5652.75
211.411	5792.66
211.485	5918.41
211.559	6060.33
211.633	6202.49
211.707	6310.42
211.781	6456.22
211.855	6564.99
211.929	6703.6
212.003	6829.4
212.077	6992.71
212.151	7156.5
212.225	7322.59
212.299	7472.28
212.373	7623.22
212.447	7775.99
212.52	7966.33
212.594	8134.64
212.668	8311.8
212.742	8465.57
212.816	8631
212.89	8798.56
212.964	8966.23
213.038	9144.36
213.112	9332.8
213.186	9517.44
213.26	9673.24
213.333	9808.52
213.407	9990.6
213.481	10174.05
213.555	10363.33
213.629	10530.51
213.703	10699.96
213.777	10880.17
213.85	11035.57
213.924	11251.65
213.998	11438.97
214.072	11612.62
214.146	11779.57
214.219	11955.05
214.293	12125.91
214.367	12302.32
214.441	12489.77
214.515	12657.85
214.588	12810.22
214.662	12944.56
214.736	13096.94
214.81	13272.01
214.883	13457.45
214.957	13613.92
215.031	13765.14
215.105	13907.39
215.178	14055.67
215.252	14216.48
215.326	14351.36
215.4	14499.11
215.473	14602.02
215.547	14730.44
215.621	14870.08
215.694	15020.09
215.768	15151.34
215.842	15290.12
215.915	15428.31
215.989	15548.62
216.063	15683.29
216.136	15824.99
216.21	15970.7
216.284	16125.85
216.357	16268.76
216.431	16392.92
216.504	16529.7
216.578	16685.86
216.652	16815.56
216.725	16952.96
216.799	17073.54
216.873	17211.33
216.946	17338.81
217.02	17461.36
217.093	17581.61
217.167	17688.93
217.24	17790.76
217.314	17892.54
217.387	18002.28
217.461	18107.33
217.535	18224.58
217.608	18319.52
217.682	18417.11
217.755	18535.9
217.829	18621.48
217.902	18717.48
217.976	18816.75
218.049	18909.8
218.123	18995.63
218.196	19115.77
218.27	19198.17
218.343	19275.86
218.417	19353.44
218.49	19439.85
218.563	19541.24
218.637	19625.86
218.71	19717.04
218.784	19816.8
218.857	19922.82
218.931	20005.7
219.004	20096.93
219.077	20183
219.151	20271.34
219.224	20352.01
219.298	20426.18
219.371	20511.34
219.444	20582.91
219.518	20661.85
219.591	20737.51
219.665	20828.51
219.738	20895.07
219.811	20954.15
219.885	21038.45
219.958	21110.98
220.031	21174.65
220.105	21242.8
220.178	21307.43
220.251	21368.98
220.325	21439.21
220.398	21500.28
220.471	21570.84
220.544	21629.6
220.618	21669.36
220.691	21724.46
220.764	21780.23
220.838	21831.76
220.911	21877.31
220.984	21952.84
221.057	22007.65
221.131	22049.88
221.204	22060.38
221.277	22128.16
221.35	22204.52
221.424	22237.78
221.497	22283.05
221.57	22320.26
221.643	22361.43
221.716	22399.37
221.79	22433.07
221.863	22456.4
221.936	22489.48
222.009	22523.08
222.082	22562.61
222.155	22600.65
222.229	22645.82
222.302	22676.97
222.375	22706.71
222.448	22747.69
222.521	22768.81
222.594	22786.7
222.667	22806.9
222.74	22847.69
222.814	22863.6
222.887	22873.19
222.96	22908.82
223.033	22943.16
223.106	22977.72
223.179	23005.16
223.252	23043.4
223.325	23059.98
223.398	23073
223.471	23086.55
223.544	23108.2
223.617	23123.77
223.69	23146.29
223.763	23148.6
223.837	23164.9
223.91	23186.21
223.983	23189.3
224.056	23177.73
224.129	23190.41
224.202	23226.91
224.275	23231.83
224.348	23218.95
224.42	23211.58
224.493	23212.44
224.566	23194.8
224.639	23195.57
224.712	23200
224.785	23191.13
224.858	23198.07
224.931	23206.46
225.004	23197.35
225.077	23196.44
225.15	23175.8
225.223	23180.14
225.296	23203.86
225.369	23190.85
225.442	23183.56
225.514	23177.92
225.587	23184.96
225.66	23186.6
225.733	23183.32
225.806	23180.14
225.879	23183.76
225.952	23184.96
226.025	23192.77
226.097	23214.52
226.17	23223.78
226.243	23198.17
226.316	23199.81
226.389	23196.58
226.461	23187.95
226.534	23204.78
226.607	23187.86
226.68	23204.11
226.753	23188.63
226.825	23154.58
226.898	23163.21
226.971	23144.65
227.044	23144.75
227.117	23150.87
227.189	23153.76
227.262	23145.04
227.335	23145.47
227.407	23135.63
227.48	23134.14
227.553	23118.42
227.626	23105.78
227.698	23091.95
227.771	23090.6
227.844	23063.55
227.916	23051.35
227.989	23036.16
228.062	23018.03
228.134	23036.26
228.207	23004.92
228.28	22986.06
228.352	22971.89
228.425	22956.51
228.498	22964.32
228.57	22945.27
228.643	22941.75
228.716	22920.92
228.788	22905.88
228.861	22883.07
228.934	22889.01
229.006	22871.5
229.079	22858.53
229.151	22831.15
229.224	22787.13
229.296	22769.97
229.369	22779.51
229.442	22779.03
229.514	22755.02
229.587	22743.35
229.659	22706.47
229.732	22704.4
229.804	22708.11
229.877	22724.65
229.949	22718.38
230.022	22717.22
230.094	22707.58
230.167	22683.71
230.239	22664.67
230.312	22644.61
230.384	22659.27
230.457	22645.53
230.529	22634.25
230.602	22615.35
230.674	22616.22
230.747	22631.16
230.819	22633.19
230.892	22589.51
230.964	22584.83
231.037	22583.34
231.109	22564.44
231.181	22558.61
231.254	22535.47
231.326	22512.47
231.399	22472.46
231.471	22445.65
231.544	22408.53
231.616	22402.17
231.688	22384.09
231.761	22352.17
231.833	22330
231.905	22279.24
231.978	22241.39
232.05	22216.81
232.122	22204.51
232.195	22170.67
232.267	22156.55
232.339	22132.97
232.412	22135.91
232.484	22096.91
232.556	22069.92
232.629	22072.86
232.701	22044.23
232.773	22024.66
232.846	21995.93
232.918	21978.81
232.99	21955.19
233.062	21935.58
233.135	21905.79
233.207	21865.92
233.279	21852.91
233.351	21837.68
233.424	21813.19
233.496	21777.23
233.568	21766.05
233.64	21729.66
233.713	21698.81
233.785	21666.56
233.857	21631.61
233.929	21586.16
234.001	21575.94
234.074	21556.95
234.146	21509.91
234.218	21483.25
234.29	21456.02
234.362	21427.58
234.434	21389.46
234.507	21354.18
234.579	21308.53
234.651	21265.64
234.723	21244.43
234.795	21219.46
234.867	21182.74
234.939	21171.94
235.012	21166.16
235.084	21145.09
235.156	21121.72
235.228	21087.31
235.3	21051.26
235.372	21021.9
235.444	21009.81
235.516	20959.59
235.588	20939.15
235.66	20906.23
235.732	20880.69
235.804	20899.78
235.876	20874.62
235.948	20857.12
236.02	20833.36
236.092	20801.99
236.164	20782.37
236.236	20751
236.308	20711.05
236.38	20682.08
236.452	20633.89
236.524	20594.9
236.596	20577.31
236.668	20547.28
236.74	20520.1
236.812	20492.44
236.884	20465.89
236.956	20435.72
237.028	20394.13
237.1	20344.15
237.172	20322.61
237.244	20301.02
237.316	20230.7
237.388	20183.91
237.46	20143.38
237.532	20122.27
237.604	20093.98
237.675	20070.42
237.747	20046.23
237.819	20001.84
237.891	19967.92
237.963	19932.93
238.035	19892.4
238.107	19821.37
238.178	19803.25
238.25	19759.2
238.322	19749.27
238.394	19710.72
238.466	19666.05
238.538	19643.4
238.609	19612.99
238.681	19561.19
238.753	19509.87
238.825	19475.12
238.897	19446.83
238.968	19434.11
239.04	19388.18
239.112	19379.7
239.184	19328.86
239.255	19289.49
239.327	19268.77
239.399	19235.62
239.471	19211.91
239.542	19182.8
239.614	19166.66
239.686	19107.72
239.758	19091.34
239.829	19042.57
239.901	19017.41
239.973	18985.56
240.044	18942.38
240.116	18912.55
240.188	18875.2
240.259	18842.63
240.331	18798.25
240.403	18773.33
240.474	18714.15
240.546	18672.32
240.618	18607.7
240.689	18572.19
240.761	18543.03
240.833	18518.02
240.904	18477.59
240.976	18436.92
241.048	18405.88
241.119	18362.51
241.191	18339.67
241.262	18316.34
241.334	18274.08
241.405	18223.1
241.477	18179.1
241.549	18150.38
241.62	18116.74
241.692	18093.61
241.763	18075.39
241.835	18042.67
241.906	17999.2
241.978	17952.02
242.049	17928.84
242.121	17904.6
242.192	17884.99
242.264	17825.09
242.335	17779.3
242.407	17748.03
242.478	17713.28
242.55	17678.15
242.621	17637.52
242.693	17587.16
242.764	17540.71
242.836	17500.75
242.907	17476.95
242.979	17450.44
243.05	17411.21
243.122	17372.66
243.193	17333.72
243.264	17271.5
243.336	17227.45
243.407	17209.33
243.479	17190.05
243.55	17158.49
243.622	17129.57
243.693	17093.76
243.764	17077.38
243.836	17026.48
243.907	16991.98
243.978	16948.79
244.05	16909.56
244.121	16860.84
244.192	16836.16
244.264	16796.06
244.335	16764.49
244.407	16715.09
244.478	16682.42
244.549	16657.16
244.62	16613.79
244.692	16574.75
244.763	16548.87
244.834	16518.98
244.906	16479.03
244.977	16455.99
245.048	16428.38
245.119	16379.17
245.191	16329.81
245.262	16278.34
245.333	16261.56
245.405	16228.16
245.476	16203.29
245.547	16174.04
245.618	16150.85
245.689	16113.74
245.761	16081.98
245.832	16043.23
245.903	16019.08
245.974	15987.46
246.045	15945.67
246.117	15932.47
246.188	15892.65
246.259	15851.73
246.33	15819.97
246.401	15776.49
246.473	15722.46
246.544	15681.2
246.615	15660.81
246.686	15626.35
246.757	15607.74
246.828	15567.59
246.899	15546.29
246.97	15493.36
247.042	15463.72
247.113	15445.45
247.184	15440.49
247.255	15403.66
247.326	15381.49
247.397	15342.78
247.468	15307.59
247.539	15278.19
247.61	15229.46
247.681	15208.59
247.752	15194.41
247.823	15148.67
247.894	15122.01
247.965	15081.91
248.037	15048.55
248.108	14998.95
248.179	14971.28
248.25	14935.18
248.321	14910.93
248.392	14876.51
248.463	14871.74
248.534	14822.19
248.605	14795.15
248.675	14759.48
248.746	14730.89
248.817	14697.63
248.888	14677.24
248.959	14632.89
249.03	14607.01
249.101	14581.55
249.172	14553.26
249.243	14504.04
249.314	14494.54
249.385	14466.58
249.456	14441.47
249.527	14404.4
249.598	14387.77
249.669	14359.66
249.739	14339.13
249.81	14322.59
249.881	14275.98
249.952	14246.86
250.023	14235.05
250.094	14194.99
250.165	14146.4
250.235	14120.42
250.306	14100.61
250.377	14058.86
250.448	14039.48
250.519	13993.49
250.59	13976.53
250.66	13935.79
250.731	13924.32
250.802	13891.44
250.873	13873.61
250.944	13860.73
251.014	13831.52
251.085	13825.35
251.156	13800.86
251.227	13787.22
251.297	13768.61
251.368	13757.62
251.439	13737.71
251.51	13714.62
251.58	13682.71
251.651	13653.83
251.722	13641.59
251.792	13597.33
251.863	13564.41
251.934	13557.27
252.005	13555.35
252.075	13534.57
252.146	13521.31
252.217	13509.26
252.287	13492.58
252.358	13466.89
252.429	13459.41
252.499	13430.3
252.57	13409.28
252.641	13393.56
252.711	13369.36
252.782	13331.91
252.852	13327.96
252.923	13306.6
252.994	13288.86
253.064	13275.46
253.135	13246.97
253.205	13215.92
253.276	13214.77
253.347	13213.95
253.417	13181.07
253.488	13155.95
253.558	13121.78
253.629	13100.76
253.699	13073.33
253.77	13061.13
253.841	13031.68
253.911	13005.89
253.982	12996.15
254.052	12976.68
254.123	12960.38
254.193	12933.72
254.264	12946.98
254.334	12914.3
254.405	12886.34
254.475	12850.38
254.546	12826.8
254.616	12816.29
254.687	12800.15
254.757	12775.27
254.827	12749.14
254.898	12726.78
254.968	12708.17
255.039	12681.22
255.109	12668.31
255.18	12635.62
255.25	12589.78
255.321	12574.98
255.391	12542.73
255.461	12536.47
255.532	12491.06
255.602	12466.62
255.673	12433.07
255.743	12392.14
255.813	12340.71
255.884	12331.16
255.954	12322.63
256.024	12320.17
256.095	12304.51
256.165	12266.67
256.235	12253.6
256.306	12229.94
256.376	12222.42
256.446	12214.03
256.517	12200.05
256.587	12185.4
256.657	12169.83
256.728	12156.81
256.798	12134.98
256.868	12111.36
256.938	12079.79
257.009	12067.3
257.079	12051.78
257.149	12054.24
257.219	12010.28
257.29	12001.32
257.36	11957.55
257.43	11940.44
257.5	11895.66
257.571	11874.5
257.641	11863.85
257.711	11834.54
257.781	11826.15
257.852	11817.77
257.922	11774.39
257.992	11757.47
258.062	11737.03
258.132	11727.78
258.202	11703.63
258.273	11683.82
258.343	11683
258.413	11663.24
258.483	11644.68
258.553	11610.61
258.623	11573.35
258.693	11569.49
258.764	11560.34
258.834	11549.35
258.904	11532.82
258.974	11506.89
259.044	11483.03
259.114	11474.64
259.184	11461.39
259.254	11436.76
259.324	11392.28
259.394	11378.64
259.464	11378.25
259.535	11358.2
259.605	11330.78
259.675	11306.11
259.745	11296.95
259.815	11263.55
259.885	11240.8
259.955	11249.91
260.025	11225.38
260.095	11211.31
260.165	11197.29
260.235	11196.8
260.305	11178.25
260.375	11146.68
260.445	11151.36
260.515	11152.42
260.585	11143.16
260.655	11121.19
260.725	11111.65
260.795	11099.7
260.865	11098.3
260.934	11069.09
261.004	11060.56
261.074	11047.94
261.144	11053.24
261.214	11039.5
261.284	11026.4
261.354	11019.75
261.424	10989.19
261.494	10994.73
261.564	10982.83
261.634	10972.95
261.703	10938.25
261.773	10926.25
261.843	10925.77
261.913	10915.61
261.983	10877.87
262.053	10864.04
262.123	10844.58
262.192	10817.59
262.262	10813.16
262.332	10781.5
262.402	10769.31
262.472	10746.03
262.541	10703.73
262.611	10689.52
262.681	10671.64
262.751	10660.17
262.821	10640.66
262.89	10609.72
262.96	10595.8
263.03	10597.87
263.1	10587.22
263.169	10576.96
263.239	10563.8
263.309	10558.12
263.379	10540.05
263.448	10527.86
263.518	10514.75
263.588	10501.36
263.657	10511.57
263.727	10503.86
263.797	10491.29
263.867	10476.11
263.936	10452.22
264.006	10459.35
264.076	10442.77
264.145	10424.46
264.215	10402.64
264.285	10395.41
264.354	10371.23
264.424	10345.45
264.494	10312.93
264.563	10292.31
264.633	10296.5
264.702	10285.52
264.772	10250.01
264.842	10230.5
264.911	10222.98
264.981	10193.79
265.05	10177.65
265.12	10149.99
265.19	10131.16
265.259	10130.67
265.329	10115.93
265.398	10107.07
265.468	10114.1
265.537	10098.3
265.607	10094.83
265.676	10093.63
265.746	10089.78
265.815	10084.38
265.885	10070.8
265.955	10050.66
266.024	10034.67
266.094	9997.58
266.163	10000.13
266.232	10008.13
266.302	9994.93
266.371	9989
266.441	9978.22
266.51	9977.73
266.58	9963.33
266.649	9946.95
266.719	9941.17
266.788	9937.95
266.858	9935.25
266.927	9905.19
266.996	9895.51
267.066	9880.33
267.135	9858.13
267.205	9850.76
267.274	9834.96
267.343	9837.13
267.413	9822.25
267.482	9815.51
267.552	9821.48
267.621	9789.93
267.69	9755.88
267.76	9752.02
267.829	9735.6
267.898	9730.4
267.968	9703.76
268.037	9697.6
268.106	9693.26
268.176	9660.46
268.245	9645.15
268.314	9631.18
268.384	9625.26
268.453	9608.21
268.522	9590.68
268.592	9584.03
268.661	9558.02
268.73	9558.07
268.799	9537.51
268.869	9546.85
268.938	9524.31
269.007	9498.98
269.076	9490.36
269.146	9489.35
269.215	9472.5
269.284	9484.05
269.353	9458.34
269.422	9447.36
269.492	9434.41
269.561	9395.5
269.63	9399.55
269.699	9383.51
269.768	9371.33
269.838	9365.16
269.907	9367.57
269.976	9356.69
270.045	9330.93
270.114	9332.23
270.183	9316.72
270.253	9308.15
270.322	9273.63
270.391	9257.12
270.46	9267.42
270.529	9265.06
270.598	9262.32
270.667	9253.26
270.736	9219.27
270.806	9219.75
270.875	9219.89
270.944	9204.77
271.013	9227.93
271.082	9212.86
271.151	9205.06
271.22	9180.22
271.289	9161.88
271.358	9144.35
271.427	9134.05
271.496	9122.01
271.565	9103.04
271.634	9100.92
271.703	9104.63
271.772	9110.94
271.841	9107.18
271.91	9078.1
271.979	9068.47
272.048	9047.72
272.117	9047
272.186	9033.81
272.255	9029.67
272.324	9031.74
272.393	9029.09
272.462	9008.77
272.531	9003.86
272.6	8994.43
272.669	8999.82
272.738	8992.88
272.807	8988.89
272.876	8968.38
272.945	8998.66
273.013	9000.49
273.082	9003.29
273.151	8982.3
273.22	8977.19
273.289	8967.09
273.358	8978.69
273.427	8972.09
273.496	8965.26
273.564	8961.55
273.633	8963.81
273.702	8946.68
273.771	8934.01
273.84	8927.56
273.909	8924.82
273.977	8921.45
274.046	8908.21
274.115	8907.44
274.184	8891.8
274.253	8879.43
274.322	8888.14
274.39	8853
274.459	8835.38
274.528	8800.1
274.597	8792.49
274.665	8792.01
274.734	8802.6
274.803	8790.42
274.872	8781.61
274.94	8767.51
275.009	8789.66
275.078	8776.67
275.147	8772.77
275.215	8765.6
275.284	8772.09
275.353	8764.97
275.421	8736.38
275.49	8752.75
275.559	8740.76
275.627	8733.06
275.696	8729.12
275.765	8723.44
275.833	8714.25
275.902	8710.93
275.971	8724.5
276.039	8742.21
276.108	8741.34
276.177	8736.53
276.245	8725.94
276.314	8717.57
276.383	8723.58
276.451	8684.59
276.52	8686.85
276.588	8697.77
276.657	8702.44
276.725	8695.99
276.794	8693.3
276.863	8707.83
276.931	8681.36
277	8688.29
277.068	8699.98
277.137	8722.36
277.205	8719.86
277.274	8735.36
277.342	8744.94
277.411	8725.98
277.48	8704.17
277.548	8695.08
277.617	8690.31
277.685	8680.54
277.754	8690.12
277.822	8686.9
277.89	8702.11
277.959	8692.96
278.027	8678.38
278.096	8664.85
278.164	8682.81
278.233	8682.28
278.301	8672.8
278.37	8678.19
278.438	8664.33
278.507	8665.97
278.575	8630.83
278.643	8630.73
278.712	8613.17
278.78	8599.55
278.849	8608.64
278.917	8617.74
278.985	8615.19
279.054	8618.99
279.122	8636.12
279.191	8630.25
279.259	8624.91
279.327	8603.2
279.396	8622.21
279.464	8612.97
279.532	8623.8
279.601	8613.07
279.669	8604.07
279.737	8620.09
279.806	8627.36
279.874	8637.95
279.942	8632.65
280.011	8629
280.079	8634.58
280.147	8650.56
280.215	8657.05
280.284	8652.72
280.352	8647.38
280.42	8646.23
280.488	8636.74
280.557	8623.89
280.625	8623.22
280.693	8620.81
280.761	8625.58
280.83	8612.39
280.898	8623.17
280.966	8603.63
281.034	8577.26
281.102	8560.9
281.171	8549.83
281.239	8552.48
281.307	8547.86
281.375	8538.9
281.443	8568.07
281.512	8560.56
281.58	8566.05
281.648	8546.94
281.716	8546.61
281.784	8536.45
281.852	8538.91
281.92	8535.3
281.989	8547.09
282.057	8533.52
282.125	8580.16
282.193	8572.22
282.261	8564.62
282.329	8566.59
282.397	8564.96
282.465	8567.02
282.533	8580.54
282.601	8575.3
282.67	8549.99
282.738	8539.83
282.806	8550.42
282.874	8532.71
282.942	8537.28
283.01	8528.13
283.078	8538.24
283.146	8538.38
283.214	8550.51
283.282	8550.17
283.35	8563.7
283.418	8557.3
283.486	8560.47
283.554	8517.53
283.622	8519.41
283.69	8521.34
283.758	8505.46
283.826	8507.48
283.894	8519.03
283.962	8536.88
284.03	8545.78
284.098	8554.83
284.165	8550.55
284.233	8546.55
284.301	8545.49
284.369	8536.59
284.437	8530.77
284.505	8526.77
284.573	8536.35
284.641	8526.44
284.709	8528.75
284.777	8511.42
284.845	8514.5
284.912	8515.9
284.98	8518.93
285.048	8520.13
285.116	8530.14
285.184	8544.92
285.252	8550.11
285.319	8528.89
285.387	8520.81
285.455	8505.6
285.523	8511.52
285.591	8505.6
285.659	8506.42
285.726	8514.65
285.794	8508.73
285.862	8512.15
285.93	8507.33
285.997	8507.14
286.065	8500.36
286.133	8493.48
286.201	8491.6
286.269	8485.82
286.336	8478.12
286.404	8469.85
286.472	8477.5
286.539	8448.05
286.607	8432.51
286.675	8430.97
286.743	8440.45
286.81	8431.98
286.878	8442.61
286.946	8435.88
287.013	8441.6
287.081	8443.96
287.149	8429.76
287.216	8443.05
287.284	8434.14
287.352	8435.11
287.419	8424.57
287.487	8442.28
287.555	8444.59
287.622	8442.18
287.69	8439.49
287.758	8451.8
287.825	8448.48
287.893	8430.25
287.96	8441.5
288.028	8457.09
288.096	8459.55
288.163	8461.33
288.231	8453.44
288.298	8452.86
288.366	8464.55
288.433	8456.18
288.501	8449.2
288.569	8451.95
288.636	8441.31
288.704	8451.75
288.771	8454.21
288.839	8449.11
288.906	8436.74
288.974	8439.34
289.041	8435.88
289.109	8429.33
289.176	8439.15
289.244	8445.5
289.311	8463.59
289.379	8474.81
289.446	8482.6
289.514	8484.34
289.581	8486.74
289.649	8491.36
289.716	8493.48
289.783	8481.11
289.851	8501.99
289.918	8501.32
289.986	8511.57
290.053	8519.03
290.121	8517.83
290.188	8524.37
290.255	8555.8
290.323	8551.95
290.39	8553.01
290.458	8564.31
290.525	8572.93
290.592	8564.7
290.66	8567.29
290.727	8563.01
290.794	8575.96
290.862	8567.05
290.929	8570.57
290.996	8568.55
291.064	8573.6
291.131	8583.46
291.198	8596.99
291.266	8597.9
291.333	8596.65
291.4	8603.05
291.468	8614.65
291.535	8613.3
291.602	8619.85
291.669	8604.16
291.737	8614.17
291.804	8613.49
291.871	8628.89
291.938	8640.11
292.006	8671.64
292.073	8683.33
292.14	8691.8
292.207	8683.96
292.275	8688.82
292.342	8692.43
292.409	8716.4
292.476	8744.85
292.543	8735.65
292.611	8738.54
292.678	8750.86
292.745	8774.2
292.812	8780.9
292.879	8782.87
292.946	8784.55
293.014	8795.14
293.081	8811.99
293.148	8822.67
293.215	8838.46
293.282	8836.2
293.349	8844.19
293.416	8829.99
293.484	8839.37
293.551	8848.62
293.618	8860.84
293.685	8878.51
293.752	8871.05
293.819	8877.79
293.886	8862.43
293.953	8867.77
294.02	8879.04
294.087	8890.45
294.154	8884.48
294.221	8903.26
294.288	8903.64
294.356	8926.75
294.423	8933.53
294.49	8929.87
294.557	8945.09
294.624	8934.98
294.691	8951.87
294.758	8960.2
294.825	8964.3
294.892	8959.63
294.959	8959.24
295.026	8970.7
295.093	8972
295.16	8982.11
295.226	8974.07
295.293	8999.44
295.36	9007.23
295.427	9013.97
295.494	9022.98
295.561	9034.72
295.628	9049.27
295.695	9064.09
295.762	9063.08
295.829	9069.78
295.896	9081.86
295.963	9088.21
296.03	9099.67
296.096	9100.06
296.163	9105.83
296.23	9115.75
296.297	9122.73
296.364	9126.15
296.431	9131.4
296.498	9123.41
296.564	9144.11
296.631	9153.59
296.698	9142.18
296.765	9162.69
296.832	9158.5
296.899	9150.03
296.965	9164.37
297.032	9148.29
297.099	9161.63
297.166	9170.34
297.233	9171.59
297.299	9162.64
297.366	9162.01
297.433	9162.06
297.5	9178.87
297.566	9181.71
297.633	9179.01
297.7	9191.82
297.767	9189.46
297.833	9197.26
297.9	9203.81
297.967	9190.47
298.033	9200.15
298.1	9219.79
298.167	9218.49
298.234	9221.96
298.3	9225.23
298.367	9220.85
298.434	9225.76
298.5	9214.64
298.567	9210.02
298.634	9203.95
298.7	9222.54
298.767	9230.34
298.834	9248.78
298.9	9237.75
298.967	9230.58
299.033	9244.78
299.1	9258.75
299.167	9275.36
299.233	9272.71
299.3	9283.35
299.366	9302.27
299.433	9315.85
299.5	9297.41
299.566	9302.46
299.633	9316.57
299.699	9329.24
299.766	9327.21
299.832	9330.2
299.899	9344.5
299.965	9355
300.032	9356.3
300.099	9360.68
300.165	9355.53
300.232	9350.57
300.298	9357.21
300.365	9370.5
300.431	9368.58
300.498	9358.61
300.564	9362.08
300.631	9370.5
300.697	9384.61
300.763	9381.77
300.83	9376.14
300.896	9392.56
300.963	9396.75
301.029	9405.75
301.096	9411.67
301.162	9417.4
301.229	9417.31
301.295	9403.92
301.361	9408.16
301.428	9412.16
301.494	9400.79
301.561	9407.82
301.627	9412.73
301.693	9413.79
301.76	9410.08
301.826	9403.01
301.892	9413.46
301.959	9418.13
302.025	9407.29
302.092	9397.76
302.158	9408.16
302.224	9410.81
302.291	9403.82
302.357	9404.31
302.423	9395.16
302.49	9386.68
302.556	9404.59
302.622	9404.84
302.688	9419.76
302.755	9433.1
302.821	9443.84
302.887	9451.88
302.954	9448.99
303.02	9458.58
303.086	9462.48
303.152	9463.73
303.219	9464.4
303.285	9466.91
303.351	9467.68
303.417	9478.85
303.483	9471
303.55	9458
303.616	9455.45
303.682	9449.96
303.748	9436.67
303.815	9447.26
303.881	9457.57
303.947	9447.17
304.013	9447.6
304.079	9437.01
304.145	9415.77
304.212	9408.59
304.278	9403.83
304.344	9399.83
304.41	9386.25
304.476	9370.75
304.542	9361.64
304.608	9367.66
304.674	9353.12
304.741	9348.69
304.807	9349.94
304.873	9358.18
304.939	9371.71
305.005	9354.76
305.071	9355.72
305.137	9360.87
305.203	9339.16
305.269	9334.1
305.335	9340.17
305.401	9338
305.467	9333.57
305.533	9343.54
305.599	9348.98
305.666	9357.41
305.732	9363.33
305.798	9369.49
305.864	9400.12
305.93	9409.36
305.996	9409.22
306.062	9412.59
306.128	9411.05
306.194	9397.04
306.259	9395.78
306.325	9383.94
306.391	9390.63
306.457	9399.73
306.523	9400.79
306.589	9424.24
306.655	9415.29
306.721	9395.59
306.787	9382.54
306.853	9402.82
306.919	9385.87
306.985	9381.2
307.051	9373.64
307.117	9367.71
307.183	9363.52
307.248	9333.67
307.314	9336.6
307.38	9338.53
307.446	9338.63
307.512	9332.85
307.578	9334.1
307.644	9325.29
307.709	9335.11
307.775	9331.02
307.841	9323.12
307.907	9323.89
307.973	9304.97
308.039	9307.28
308.104	9314.89
308.17	9314.16
308.236	9298.08
308.302	9298.46
308.368	9289.65
308.433	9286.14
308.499	9282.77
308.565	9267.75
308.631	9270.78
308.696	9245.21
308.762	9227.35
308.828	9227.49
308.894	9213.92
308.959	9195.29
309.025	9191.63
309.091	9181.13
309.156	9179.44
309.222	9179.35
309.288	9167.31
309.354	9151.13
309.419	9145.84
309.485	9125.81
309.551	9129.66
309.616	9109.63
309.682	9113.58
309.748	9103.61
309.813	9099.23
309.879	9086.62
309.945	9080.41
310.01	9070.64
310.076	9075.45
310.141	9070.83
310.207	9054.89
310.273	9054.55
310.338	9059.37
310.404	9041.94
310.469	9030.87
310.535	9020.04
310.601	8997.7
310.666	9004.2
310.732	9006.12
310.797	8993.41
310.863	8993.41
310.928	8983.3
310.994	8993.22
311.059	8985.71
311.125	8982.24
311.191	8990.53
311.256	8984.08
311.322	8989.95
311.387	8973.49
311.453	9384.91
311.518	9366.91
311.584	9364.5
311.649	9362.87
311.715	9351.07
311.78	9350.35
311.846	9339.86
311.911	9345.97
311.976	9348.86
312.042	9330.37
312.107	9315.6
312.173	9309.19
312.238	9307.37
312.304	9310.49
312.369	9289.8
312.434	9274.97
312.5	9270.35
312.565	9238.05
312.631	9239.15
312.696	9225.05
312.761	9230.97
312.827	8804.43
312.892	8836.34
312.958	8831.67
313.023	8833.65
313.088	8832.2
313.154	8822.72
313.219	8813.24
313.284	8797.98
313.35	8791.2
313.415	8778.78
313.48	8779.6
313.546	8777.67
313.611	8779.16
313.676	8763.95
313.741	8763.9
313.807	8770.55
313.872	8770.21
313.937	8776.71
314.003	8784.79
314.068	8786.09
314.133	8788.79
314.198	8787.59
314.264	8765.49
314.329	8755.09
314.394	8749.22
314.459	8746.47
314.525	8758.99
314.59	8758.03
314.655	8747.77
314.72	8761.59
314.785	8769.34
314.851	8762.79
314.916	8750.04
314.981	8732.23
315.046	8723.33
315.111	8711.2
315.176	8703.64
315.242	8706.14
315.307	8705.33
315.372	8684
315.437	8676.54
315.502	8670.38
315.567	8678.13
315.632	8656.76
315.698	8660.66
315.763	8650.84
315.828	8644.2
315.893	8640.83
315.958	8636.55
316.023	8626.44
316.088	8601.18
316.153	8578.7
316.218	8570.62
316.283	8549.93
316.348	8535.45
316.413	8530.49
316.479	8516.25
316.544	8479.73
316.609	8447.83
316.674	8413.33
316.739	8381.81
316.804	8349.53
316.869	8313.69
316.934	8270.67
316.999	8248.54
317.064	8198.51
317.129	8159.01
317.194	8120.67
317.259	8075.78
317.324	8023.93
317.389	7989.11
317.454	7948.13
317.518	7911.72
317.583	7886.27
317.648	7864.2
317.713	7830.97
317.778	7771.53
317.843	7744.02
317.908	7709.02
317.973	7671.37
318.038	7634.54
318.103	7596.8
318.168	7566.56
318.233	7532.03
318.297	7490.55
318.362	7451.08
318.427	7409.27
318.492	7381.05
318.557	7332.36
318.622	7299.92
318.687	7280.5
318.751	7232.45
318.816	7197.22
318.881	7164.21
318.946	7108.84
319.011	7060.41
319.075	7018.22
319.14	6985.75
319.205	6938.42
319.27	6902.92
319.335	6860.89
319.399	6823.13
319.464	6789.95
319.529	6737.69
319.594	6700.99
319.658	6666.32
319.723	6625.93
319.788	6598.95
319.853	6541.8
319.917	6518.8
319.982	6468.58
320.047	6426.23
320.112	6405.44
320.176	6355.76
320.241	6320.67
320.306	6288.6
320.37	6252.65
320.435	6220.69
320.5	6196.07
320.564	6157.53
320.629	6115.84
320.694	6081
320.758	6045.16
320.823	6007.89
320.888	5976.32
320.952	5920.97
321.017	5881.83
321.082	5839.86
321.146	5804.65
321.211	5774.39
321.275	5727.54
321.34	5683.2
321.405	5641.58
321.469	5593.77
321.534	5557.11
321.598	5506.87
321.663	5475.51
321.727	5437.97
321.792	5386.02
321.857	5338.95
321.921	5302.28
321.986	5261.61
322.05	5207.05
322.115	5167.76
322.179	5118.85
322.244	5066.89
322.308	5036.48
322.373	4990.45
322.437	4953.81
322.502	4925.07
322.566	4875.7
322.631	4845.54
322.695	4807.24
322.76	4764.16
322.824	4725.77
322.889	4685.09
322.953	4645.04
323.018	4577.27
323.082	4518.57
323.146	4468.88
323.211	4417.16
323.275	4370.99
323.34	4326.04
323.404	4291.71
323.468	4249.52
323.533	4211.65
323.597	4167.92
323.662	4117.77
323.726	4081.39
323.79	4033.01
323.855	3971.52
323.919	3929.8
323.983	3879.33
324.048	3815.43
324.112	3950.17
324.177	3824.82
324.241	3624.89
324.305	3426.25
324.37	3238.56
324.434	3054.46
324.498	3016.26
324.562	2968.38
324.627	2910.62
324.691	2857.28
324.755	2795.7
324.82	2717.81
324.884	2640.7
324.948	2572.7
325.012	2484.69
325.077	2366.9
