Data from 20250702_urea_0.5M_MAYP1162681_04-55-00-232.txt Node
Date: Thu Jul 03 04:55:00 BST 2025
User: adleo
Spectrometer: MAYP116268
Trigger mode: 0
Integration Time (sec): 1.000000E0
Scans to average: 1
Electric dark correction enabled: true
Nonlinearity correction enabled: true
Boxcar width: 10
XAxis mode: Wavelengths
Number of Pixels in Spectrum: 2068
>>>>>Begin Spectral Data<<<<<
179.565	1165.34
179.642	1217.87
179.718	1258.1
179.795	1295.28
179.871	1329.51
179.948	1346.92
180.024	1368.5
180.101	1388.58
180.177	1403.33
180.254	1425.05
180.33	1448.16
180.407	1498.39
180.483	1591.03
180.56	1679.4
180.636	1761.34
180.712	1749.89
180.789	1759.2
180.865	1772.88
180.942	1780.53
181.018	1790.99
181.095	1806.39
181.171	1809.53
181.248	1812.05
181.324	1828.59
181.4	1835.39
181.477	1845.51
181.553	1857.87
181.63	1876.79
181.706	1893
181.782	1899.65
181.859	1897.89
181.935	1903.36
182.011	1899.8
182.088	1917.39
182.164	1933.7
182.24	1948.68
182.317	1959.85
182.393	1958.33
182.469	1970.4
182.546	1984.05
182.622	1988.71
182.698	1984.81
182.775	2000.74
182.851	2014.96
182.927	2006.64
183.003	2003.45
183.08	1995.51
183.156	2006.92
183.232	2003.36
183.308	1992.28
183.385	2002.98
183.461	2021.52
183.537	2016.81
183.613	2030.46
183.69	2018.48
183.766	2009.96
183.842	2015.86
183.918	2020.62
183.995	2036.69
184.071	2040.68
184.147	2034.79
184.223	2023.76
184.299	2036.79
184.375	2020.81
184.452	2025.33
184.528	2083.05
184.604	2091.03
184.68	2104.02
184.756	2107.68
184.832	2112.1
184.908	2117.47
184.985	2117.81
185.061	2102.16
185.137	2114.91
185.213	2104.16
185.289	2106.35
185.365	2099.69
185.441	2097.98
185.517	2110.63
185.593	2105.31
185.669	2103.36
185.745	2112.11
185.822	2129.56
185.898	2120.42
185.974	2130.98
186.05	2123.22
186.126	2085.06
186.202	2080.11
186.278	2075.07
186.354	2064.61
186.43	2070.94
186.506	2070.46
186.582	2065.9
186.658	2072.41
186.734	2051.54
186.81	2053.01
186.886	2057.72
186.962	2067.51
187.038	2064.47
187.114	2054.71
187.19	2063.37
187.266	2052.24
187.341	2053.62
187.417	2046.68
187.493	2046.49
187.569	2049.3
187.645	2044.78
187.721	2029.46
187.797	2037.97
187.873	2041.44
187.949	2039.45
188.025	2036.02
188.101	2040.21
188.176	2046.34
188.252	2041.21
188.328	2051.52
188.404	2052.85
188.48	2046.91
188.556	2042.82
188.632	2040.63
188.707	2040.73
188.783	2038.11
188.859	2036.3
188.935	2025.65
189.011	2034.11
189.086	2028.93
189.162	2019.94
189.238	2019.04
189.314	2019.09
189.39	2013
189.465	2010.53
189.541	2028.03
189.617	2011.05
189.693	2004.54
189.768	2007.35
189.844	2032.42
189.92	2025.05
189.996	2030.75
190.071	2041.6
190.147	2040.79
190.223	2049.92
190.298	2042.31
190.374	2026.95
190.45	2035.08
190.526	2045.5
190.601	2041.79
190.677	2043.83
190.753	2069.43
190.828	2070.05
190.904	2082.51
190.98	2099.35
191.055	2107.63
191.131	2096.54
191.207	2118.61
191.282	2129.74
191.358	2121.23
191.433	2106.71
191.509	2118.22
191.585	2118.46
191.66	2120.84
191.736	2126.26
191.811	2117.41
191.887	2135.59
191.963	2158.7
192.038	2167.03
192.114	2166.93
192.189	2169.26
192.265	2165.84
192.34	2144.81
192.416	2146.47
192.491	2141.81
192.567	2141.66
192.642	2142.05
192.718	2143.14
192.793	2127.82
192.869	2124.87
192.944	2126.68
193.02	2133.82
193.095	2139.14
193.171	2142.76
193.246	2142.52
193.322	2141.05
193.397	2141.47
193.473	2126.44
193.548	2109.03
193.624	2113.4
193.699	2112.26
193.775	2126.92
193.85	2127.54
193.925	2136.58
194.001	2133.96
194.076	2129.25
194.152	2119.97
194.227	2113.69
194.302	2105.66
194.378	2111.93
194.453	2105.23
194.529	2117.93
194.604	2106.7
194.679	2097.86
194.755	2080.17
194.83	2088.73
194.905	2085.83
194.981	2094.39
195.056	2088.16
195.131	2094.68
195.207	2093.78
195.282	2084.03
195.357	2066.75
195.433	2079.88
195.508	2068.84
195.583	2076.55
195.659	2088.92
195.734	2094.96
195.809	2096.48
195.884	2105.38
195.96	2106.76
196.035	2123.93
196.11	2121.59
196.185	2128.54
196.261	2130.87
196.336	2161.36
196.411	2150.04
196.486	2156.31
196.561	2153.08
196.637	2162.83
196.712	2177.25
196.787	2177.49
196.862	2192.09
196.937	2200.46
197.013	2205.93
197.088	2215.88
197.163	2236.39
197.238	2253.48
197.313	2256.39
197.388	2269.28
197.464	2297.66
197.539	2306.41
197.614	2300.03
197.689	2314.27
197.764	2333.88
197.839	2357.82
197.914	2350.34
197.989	2372.48
198.065	2388.14
198.14	2436.72
198.215	2462.48
198.29	2474
198.365	2487.91
198.44	2497.62
198.515	2525.14
198.59	2542.71
198.665	2566.56
198.74	2579.05
198.815	2579.95
198.89	2602.52
198.965	2632.44
199.04	2628.68
199.115	2646.59
199.19	2687.45
199.265	2689.64
199.34	2699.74
199.415	2728.86
199.49	2752.2
199.565	2760.06
199.64	2776.73
199.715	2772.72
199.79	2777.15
199.865	2784.54
199.94	2782.3
200.015	2813.75
200.09	2820.28
200.165	2824.91
200.24	2833.77
200.315	2870.5
200.39	2885.09
200.464	2888.14
200.539	2888.99
200.614	2902.38
200.689	2925.03
200.764	2929.22
200.839	2942.23
200.914	2946.66
200.989	2938.17
201.063	2949.18
201.138	2933.51
201.213	2936.95
201.288	2919.45
201.363	2928.03
201.438	2927.17
201.512	2945.8
201.587	2928.45
201.662	2932.55
201.737	2943.99
201.812	2950.52
201.886	2916.6
201.961	2924.9
202.036	2913.37
202.111	2909.41
202.186	2882.55
202.26	2866.58
202.335	2847.61
202.41	2842.13
202.485	2824.78
202.559	2806.72
202.634	2782.23
202.709	2792.23
202.784	2775.75
202.858	2774.98
202.933	2757.16
203.008	2754.21
203.082	2732.72
203.157	2733.2
203.232	2690.67
203.306	2672.22
203.381	2644.06
203.456	2620.34
203.53	2599.27
203.605	2580.04
203.68	2560.64
203.754	2555.17
203.829	2535.93
203.904	2517.83
203.978	2505.88
204.053	2510.45
204.127	2497.55
204.202	2498.07
204.277	2481.03
204.351	2470.98
204.426	2462.26
204.5	2452.88
204.575	2416.8
204.65	2426.09
204.724	2416.37
204.799	2421.84
204.873	2418.41
204.948	2415.7
205.022	2407.9
205.097	2397.75
205.171	2411.5
205.246	2418.03
205.32	2416.22
205.395	2418.37
205.469	2409.13
205.544	2416.33
205.618	2396.62
205.693	2407.8
205.767	2393.14
205.842	2412.48
205.916	2407.72
205.991	2399.39
206.065	2403.43
206.14	2418.51
206.214	2414.32
206.289	2412.22
206.363	2426.13
206.438	2427.32
206.512	2434.12
206.586	2453.5
206.661	2464.27
206.735	2443.47
206.81	2443.09
206.884	2458.65
206.958	2446.13
207.033	2460.6
207.107	2471.04
207.181	2504.85
207.256	2500.14
207.33	2521.89
207.405	2536.19
207.479	2560.86
207.553	2569.81
207.628	2554.82
207.702	2568.24
207.776	2566.1
207.851	2567.24
207.925	2583.82
207.999	2584.68
208.073	2589.2
208.148	2590.54
208.222	2583.82
208.296	2621.29
208.371	2643.41
208.445	2664.8
208.519	2701.95
208.593	2725.96
208.668	2726.2
208.742	2739.17
208.816	2754.13
208.89	2779.2
208.965	2787.79
209.039	2804.9
209.113	2835.02
209.187	2873.55
209.261	2884.41
209.336	2919.02
209.41	2958.11
209.484	2978.67
209.558	3021.01
209.632	3052.24
209.707	3089.53
209.781	3130.82
209.855	3170.66
209.929	3212.34
210.003	3240.35
210.077	3269.12
210.151	3343.05
210.226	3409.03
210.3	3467.98
210.374	3524.1
210.448	3562.49
210.522	3612.35
210.596	3662.68
210.67	3710.63
210.744	3797.06
210.818	3871.69
210.892	3937.3
210.966	3978.48
211.041	4041.75
211.115	4089.49
211.189	4161.57
211.263	4228.31
211.337	4289.5
211.411	4356.94
211.485	4408.62
211.559	4478.06
211.633	4534.9
211.707	4566.55
211.781	4632.82
211.855	4658.81
211.929	4714.79
212.003	4763.74
212.077	4840.32
212.151	4918.81
212.225	5002.1
212.299	5060.23
212.373	5126.19
212.447	5196.69
212.52	5296.88
212.594	5373.28
212.668	5459.11
212.742	5531.6
212.816	5603.56
212.89	5672.3
212.964	5747.84
213.038	5828.96
213.112	5926.4
213.186	6020.54
213.26	6079.72
213.333	6122.66
213.407	6209.14
213.481	6296.22
213.555	6393.9
213.629	6461.84
213.703	6533.53
213.777	6618.11
213.85	6689
213.924	6806.22
213.998	6897.03
214.072	6972.14
214.146	7048.58
214.219	7126.52
214.293	7199.51
214.367	7286.25
214.441	7385.39
214.515	7467.65
214.588	7532.16
214.662	7582.88
214.736	7656.49
214.81	7748.87
214.883	7840.44
214.957	7923.38
215.031	7996.28
215.105	8052.73
215.178	8132.67
215.252	8210.61
215.326	8270.7
215.4	8330.2
215.473	8365.53
215.547	8417.6
215.621	8490.56
215.694	8571.18
215.768	8635.52
215.842	8705.45
215.915	8776.88
215.989	8832.57
216.063	8897.47
216.136	8979.84
216.21	9057.1
216.284	9147.91
216.357	9231.01
216.431	9307.8
216.504	9388.7
216.578	9487.32
216.652	9586.75
216.725	9663.57
216.799	9745.07
216.873	9819.67
216.946	9903.95
217.02	9972.1
217.093	10052.3
217.167	10112.23
217.24	10170.95
217.314	10243.88
217.387	10306.31
217.461	10365.42
217.535	10456.14
217.608	10518.68
217.682	10587.39
217.755	10662.02
217.829	10720.47
217.902	10795.79
217.976	10870.38
218.049	10934.86
218.123	10987.58
218.196	11059.82
218.27	11118.37
218.343	11174.61
218.417	11246.27
218.49	11315.91
218.563	11406.66
218.637	11476.21
218.71	11564.31
218.784	11640.85
218.857	11723.41
218.931	11805.97
219.004	11881.74
219.077	11953.71
219.151	12029.09
219.224	12094.35
219.298	12164.73
219.371	12239.15
219.444	12288.13
219.518	12356
219.591	12431.1
219.665	12524.08
219.738	12588.82
219.811	12650.96
219.885	12726.59
219.958	12798.99
220.031	12860.55
220.105	12926.79
220.178	12997.46
220.251	13048.55
220.325	13123.03
220.398	13187.05
220.471	13249.43
220.544	13325.93
220.618	13380.65
220.691	13452.43
220.764	13521.07
220.838	13589.81
220.911	13640.77
220.984	13727.01
221.057	13794.59
221.131	13851.72
221.204	13886.62
221.277	13963.7
221.35	14050.91
221.424	14105.81
221.497	14166.65
221.57	14238.04
221.643	14299.79
221.716	14359.9
221.79	14414.52
221.863	14468.12
221.936	14520.86
222.009	14585.26
222.082	14646.63
222.155	14697.1
222.229	14759.67
222.302	14816.11
222.375	14871.79
222.448	14941.01
222.521	14988.3
222.594	15033.8
222.667	15075.35
222.74	15138.55
222.814	15193.54
222.887	15238.52
222.96	15301.37
223.033	15360.32
223.106	15413.73
223.179	15467.47
223.252	15521.94
223.325	15574.72
223.398	15626.78
223.471	15676.43
223.544	15729.3
223.617	15775.53
223.69	15829.94
223.763	15866.91
223.837	15915.69
223.91	15957.53
223.983	15989.29
224.056	16026.6
224.129	16075.81
224.202	16132.83
224.275	16168.69
224.348	16189.03
224.42	16221.9
224.493	16242.82
224.566	16274.77
224.639	16320.32
224.712	16353.09
224.785	16389.72
224.858	16426.45
224.931	16464.57
225.004	16497.49
225.077	16532.58
225.15	16536.87
225.223	16569.74
225.296	16631.23
225.369	16663.19
225.442	16695.67
225.514	16730.32
225.587	16763.24
225.66	16800.5
225.733	16842.19
225.806	16879.54
225.879	16915.15
225.952	16948.02
226.025	17004.89
226.097	17057.33
226.17	17087.4
226.243	17107.93
226.316	17146.29
226.389	17188.12
226.461	17218.97
226.534	17262.25
226.607	17284.32
226.68	17353.62
226.753	17381.38
226.825	17390.92
226.898	17427.65
226.971	17466.15
227.044	17501.38
227.117	17545.28
227.189	17574.44
227.262	17607.36
227.335	17646.49
227.407	17668.46
227.48	17693.96
227.553	17717.86
227.626	17738.49
227.698	17765.47
227.771	17800.7
227.844	17812.75
227.916	17838.44
227.989	17858.1
228.062	17879.16
228.134	17935.4
228.207	17950.96
228.28	17982.09
228.352	18005.37
228.425	18028.94
228.498	18059.87
228.57	18073.8
228.643	18117.32
228.716	18145.85
228.788	18166.66
228.861	18187
228.934	18233.02
229.006	18260.64
229.079	18279.96
229.151	18293.7
229.224	18299.33
229.296	18332.83
229.369	18385.45
229.442	18417.93
229.514	18428.48
229.587	18462.46
229.659	18458.99
229.732	18481.44
229.804	18505.49
229.877	18548.86
229.949	18583.8
230.022	18627.7
230.094	18659.07
230.167	18663.36
230.239	18670.25
230.312	18688.47
230.384	18729.09
230.457	18748.22
230.529	18772.42
230.602	18807.16
230.674	18828.65
230.747	18869.61
230.819	18889.47
230.892	18870.63
230.964	18891.49
231.037	18921.56
231.109	18930.91
231.181	18961.56
231.254	18975.82
231.326	18993.65
231.399	19001.99
231.471	19007.1
231.544	19000.16
231.616	19023.29
231.688	19048.4
231.761	19063.82
231.833	19077.17
231.905	19064.88
231.978	19083
232.05	19089.65
232.122	19088.73
232.195	19097.84
232.267	19124.68
232.339	19131.24
232.412	19157.98
232.484	19170.22
232.556	19174.41
232.629	19205.5
232.701	19217.54
232.773	19225.06
232.846	19229.16
232.918	19243.42
232.99	19251.47
233.062	19266.17
233.135	19275.85
233.207	19265.3
233.279	19274.55
233.351	19280.67
233.424	19282.89
233.496	19266.89
233.568	19295.9
233.64	19289.78
233.713	19298.6
233.785	19285.68
233.857	19290.7
233.929	19275.13
234.001	19283.37
234.074	19297.01
234.146	19281.59
234.218	19274.5
234.29	19264.19
234.362	19255.9
234.434	19225.06
234.507	19208.97
234.579	19186.12
234.651	19179.86
234.723	19177.26
234.795	19177.93
234.867	19169.31
234.939	19177.88
235.012	19175.86
235.084	19167.28
235.156	19167.81
235.228	19141.69
235.3	19128.39
235.372	19117.31
235.444	19126.27
235.516	19095.58
235.588	19083.29
235.66	19065.89
235.732	19044.64
235.804	19092.78
235.876	19094.28
235.948	19106.95
236.02	19107.67
236.092	19087.29
236.164	19075.53
236.236	19068.16
236.308	19054.81
236.38	19049.22
236.452	19025.75
236.524	19019.68
236.596	19019.92
236.668	19022.18
236.74	19020.3
236.812	19008.26
236.884	19008.16
236.956	18991.92
237.028	18964.93
237.1	18936.84
237.172	18944.26
237.244	18957.27
237.316	18907.59
237.388	18879.88
237.46	18849.47
237.532	18840.7
237.604	18828.41
237.675	18822.34
237.747	18809.71
237.819	18789.19
237.891	18763.11
237.963	18738.97
238.035	18718.83
238.107	18666.25
238.178	18651.8
238.25	18633.92
238.322	18633.15
238.394	18589.68
238.466	18566.69
238.538	18562.84
238.609	18561.49
238.681	18513.68
238.753	18471.81
238.825	18449.01
238.897	18434.89
238.968	18433.5
239.04	18412.05
239.112	18412.2
239.184	18376.73
239.255	18352.83
239.327	18332.78
239.399	18319.62
239.471	18305.84
239.542	18281.7
239.614	18277.36
239.686	18223.87
239.758	18209.07
239.829	18176.59
239.901	18160.55
239.973	18138.52
240.044	18125.22
240.116	18098.62
240.188	18073.51
240.259	18051.78
240.331	18012.45
240.403	17986.72
240.474	17947.16
240.546	17899.64
240.618	17852.99
240.689	17826.63
240.761	17807.35
240.833	17800.32
240.904	17769.71
240.976	17744.94
241.048	17727.79
241.119	17700.9
241.191	17691.84
241.262	17679.89
241.334	17647.98
241.405	17622.78
241.477	17591.4
241.549	17547.45
241.62	17518.3
241.692	17507.55
241.763	17492.56
241.835	17474.49
241.906	17454.59
241.978	17417.28
242.049	17404.61
242.121	17391.41
242.192	17375.12
242.264	17330.01
242.335	17279.6
242.407	17265.57
242.478	17234.1
242.55	17196.41
242.621	17155.02
242.693	17115.59
242.764	17068.8
242.836	17029.33
242.907	17007.64
242.979	16978.19
243.05	16956.99
243.122	16928.7
243.193	16892.84
243.264	16848.84
243.336	16820.93
243.407	16801.56
243.479	16785.27
243.55	16759.24
243.622	16730.23
243.693	16696.4
243.764	16683.72
243.836	16635.23
243.907	16594.85
243.978	16565.74
244.05	16555.09
244.121	16508.38
244.192	16494.84
244.264	16455.51
244.335	16439.89
244.407	16397.82
244.478	16373.57
244.549	16343.45
244.62	16311.93
244.692	16285.76
244.763	16263.25
244.834	16219.58
244.906	16172.98
244.977	16150.52
245.048	16134.76
245.119	16095.72
245.191	16055.28
245.262	15999.41
245.333	15998.84
245.405	15964.9
245.476	15937.91
245.547	15898.39
245.618	15884.94
245.689	15851.01
245.761	15830.72
245.832	15797.32
245.903	15770.61
245.974	15746.99
246.045	15716.68
246.117	15699.85
246.188	15650.74
246.259	15601.57
246.33	15576.07
246.401	15545.37
246.473	15495.14
246.544	15462.85
246.615	15445.55
246.686	15407.76
246.757	15389.15
246.828	15345
246.899	15326.78
246.97	15275.34
247.042	15235.05
247.113	15217.79
247.184	15204.73
247.255	15168.24
247.326	15140.86
247.397	15115.94
247.468	15089.57
247.539	15056.7
247.61	15003.19
247.681	14988.59
247.752	14984.78
247.823	14946.51
247.894	14922.31
247.965	14889.58
248.037	14849.57
248.108	14804.16
248.179	14776.73
248.25	14745.93
248.321	14726.6
248.392	14689.68
248.463	14683.26
248.534	14654.92
248.605	14630.14
248.675	14599.15
248.746	14582.28
248.817	14559.43
248.888	14540.48
248.959	14486.2
249.03	14465.19
249.101	14450.82
249.172	14414.57
249.243	14354.12
249.314	14346.51
249.385	14315.85
249.456	14292.32
249.527	14257.85
249.598	14237.08
249.669	14219.1
249.739	14199.86
249.81	14178.03
249.881	14136.28
249.952	14117.05
250.023	14096.17
250.094	14054.62
250.165	14024.44
250.235	13995.95
250.306	13963.51
250.377	13915.26
250.448	13902.24
250.519	13855.91
250.59	13841.11
250.66	13812.09
250.731	13803.71
250.802	13771.65
250.873	13755.35
250.944	13733.57
251.014	13706.18
251.085	13713.61
251.156	13689.31
251.227	13676.97
251.297	13661.98
251.368	13650.02
251.439	13629.78
251.51	13610.3
251.58	13574.53
251.651	13537.27
251.722	13514.71
251.792	13468.91
251.863	13444.95
251.934	13432.52
252.005	13437.96
252.075	13414.34
252.146	13406.77
252.217	13403.98
252.287	13395.88
252.358	13368.26
252.429	13357.99
252.499	13329.31
252.57	13302.16
252.641	13292.62
252.711	13264.42
252.782	13223.4
252.852	13224.21
252.923	13200.06
252.994	13182.28
253.064	13172.63
253.135	13135.56
253.205	13105.68
253.276	13104.76
253.347	13096.13
253.417	13060.55
253.488	13036.31
253.558	13005.46
253.629	12979.28
253.699	12950.84
253.77	12930.45
253.841	12905.86
253.911	12885.71
253.982	12874.33
254.052	12855.97
254.123	12827.19
254.193	12805.98
254.264	12824.3
254.334	12789.35
254.405	12761.24
254.475	12732.37
254.546	12710.24
254.616	12712.75
254.687	12704.46
254.757	12693.13
254.827	12674.09
254.898	12662.33
254.968	12632.15
255.039	12601.49
255.109	12587.42
255.18	12565.05
255.25	12518.39
255.321	12496.79
255.391	12465.7
255.461	12461.41
255.532	12411.62
255.602	12391.23
255.673	12353.58
255.743	12319.55
255.813	12278.81
255.884	12268.74
255.954	12256.93
256.024	12256.26
256.095	12225.02
256.165	12187.81
256.235	12177.97
256.306	12149.29
256.376	12147.94
256.446	12139.03
256.517	12123.99
256.587	12112.52
256.657	12091.79
256.728	12079.11
256.798	12065.66
256.868	12039.11
256.938	12006.47
257.009	11999.48
257.079	11984.01
257.149	11989.89
257.219	11948.73
257.29	11940.24
257.36	11900.38
257.43	11887.61
257.5	11840.81
257.571	11818.35
257.641	11811.6
257.711	11773.95
257.781	11764.84
257.852	11741.85
257.922	11707.39
257.992	11695.77
258.062	11675.53
258.132	11668.68
258.202	11643.67
258.273	11624.68
258.343	11624.3
258.413	11602.85
258.483	11579.76
258.553	11551.23
258.623	11520.19
258.693	11508.62
258.764	11498.79
258.834	11493.58
258.904	11469
258.974	11449.48
259.044	11437.15
259.114	11417.82
259.184	11402.54
259.254	11371.89
259.324	11334.3
259.394	11324.47
259.464	11316.8
259.535	11293.86
259.605	11271.06
259.675	11246.87
259.745	11241.14
259.815	11216.27
259.885	11190.25
259.955	11207.26
260.025	11177.58
260.095	11157.24
260.165	11139.89
260.235	11138.2
260.305	11107.55
260.375	11077.39
260.445	11082.49
260.515	11075.8
260.585	11069.87
260.655	11050.54
260.725	11049.19
260.795	11043.31
260.865	11043.46
260.934	11025.19
261.004	11016.33
261.074	10996.57
261.144	11001.05
261.214	10993.63
261.284	10971.7
261.354	10966.4
261.424	10935.56
261.494	10946.16
261.564	10930.16
261.634	10926.98
261.703	10889.87
261.773	10886.65
261.843	10874.94
261.913	10858.41
261.983	10826.32
262.053	10813.69
262.123	10793.98
262.192	10769.46
262.262	10763.05
262.332	10727.24
262.402	10712.88
262.472	10694.77
262.541	10659.4
262.611	10652.17
262.681	10617.14
262.751	10610.78
262.821	10587.61
262.89	10555.37
262.96	10542.84
263.03	10553.54
263.1	10534.8
263.169	10515.14
263.239	10506.32
263.309	10513.98
263.379	10497.17
263.448	10487
263.518	10477.94
263.588	10464.55
263.657	10460.41
263.727	10452.12
263.797	10437.18
263.867	10412.37
263.936	10390.16
264.006	10387.85
264.076	10375.56
264.145	10364.96
264.215	10343.38
264.285	10344.54
264.354	10319.39
264.424	10293.47
264.494	10258.88
264.563	10238.06
264.633	10249.82
264.702	10238.35
264.772	10204.05
264.842	10181.26
264.911	10179.09
264.981	10148.98
265.05	10130.1
265.12	10117.72
265.19	10101.15
265.259	10102.45
265.329	10099.07
265.398	10092.67
265.468	10100.62
265.537	10071.23
265.607	10061.02
265.676	10057.65
265.746	10046.76
265.815	10041.03
265.885	10034.04
265.955	10015.88
266.024	9999.99
266.094	9959.38
266.163	9955.48
266.232	9952.49
266.302	9943.58
266.371	9924.8
266.441	9909.72
266.51	9913.57
266.58	9895.32
266.649	9875.42
266.719	9872.39
266.788	9860.3
266.858	9855.09
266.927	9815.21
266.996	9804.43
267.066	9796.96
267.135	9772.78
267.205	9768.45
267.274	9756.07
267.343	9752.17
267.413	9733.72
267.482	9733.96
267.552	9741.96
267.621	9712.58
267.69	9688.59
267.76	9679.97
267.829	9670.19
267.898	9661.48
267.968	9633.45
268.037	9628.73
268.106	9617.75
268.176	9584.23
268.245	9572.96
268.314	9555.71
268.384	9557.4
268.453	9552.68
268.522	9541.75
268.592	9543.48
268.661	9518.05
268.73	9514.39
268.799	9493.73
268.869	9501.97
268.938	9477.36
269.007	9454.53
269.076	9446.49
269.146	9445.38
269.215	9433.63
269.284	9442.3
269.353	9423.81
269.422	9413.8
269.492	9389.77
269.561	9358.42
269.63	9356.64
269.699	9339.31
269.768	9328.23
269.838	9323.27
269.907	9316.24
269.976	9296.93
270.045	9264.53
270.114	9266.84
270.183	9255.57
270.253	9249.02
270.322	9221.24
270.391	9213.78
270.46	9220.18
270.529	9216.33
270.598	9212.77
270.667	9204.68
270.736	9173.91
270.806	9173.23
270.875	9175.06
270.944	9162.4
271.013	9186.72
271.082	9176.89
271.151	9167.99
271.22	9140.02
271.289	9130.1
271.358	9121.05
271.427	9108.29
271.496	9104.68
271.565	9091.15
271.634	9078.63
271.703	9071.41
271.772	9073.48
271.841	9060.29
271.91	9031.41
271.979	9020.76
272.048	8995.3
272.117	8996.36
272.186	8979.46
272.255	8970.12
272.324	8968
272.393	8965.69
272.462	8948.36
272.531	8944.31
272.6	8942.63
272.669	8952.83
272.738	8939.07
272.807	8933.29
272.876	8916.2
272.945	8941.81
273.013	8940.61
273.082	8948.22
273.151	8931.51
273.22	8931.51
273.289	8928.48
273.358	8944.56
273.427	8938.4
273.496	8937.87
273.564	8929.59
273.633	8936.95
273.702	8918.18
273.771	8908.5
273.84	8906.96
273.909	8901.33
273.977	8896.56
274.046	8883.18
274.115	8879.76
274.184	8864.12
274.253	8853.77
274.322	8862.68
274.39	8830.18
274.459	8814.64
274.528	8785.9
274.597	8780.8
274.665	8773.67
274.734	8772.52
274.803	8755.14
274.872	8749.17
274.94	8735.79
275.009	8788.24
275.078	8774.42
275.147	8775.34
275.215	8768.12
275.284	8768.26
275.353	8758.54
275.421	8738.95
275.49	8750.98
275.559	8744.05
275.627	8740.15
275.696	8737.7
275.765	8741.84
275.833	8732.98
275.902	8726.2
275.971	8733.42
276.039	8752.19
276.108	8754.64
276.177	8751.85
276.245	8746.65
276.314	8737.99
276.383	8746.65
276.451	8682.61
276.52	8687.42
276.588	8697.91
276.657	8698.78
276.725	8690.5
276.794	8689.92
276.863	8692.62
276.931	8669.8
277	8672.36
277.068	8681.6
277.137	8691.75
277.205	8684.58
277.274	8702.29
277.342	8716.3
277.411	8699.5
277.48	8681.26
277.548	8670.38
277.617	8675.72
277.685	8666.87
277.754	8664.75
277.822	8648.97
277.89	8660.38
277.959	8647.72
278.027	8632.13
278.096	8624.62
278.164	8654.17
278.233	8638.05
278.301	8624.53
278.37	8629.29
278.438	8617.84
278.507	8625.44
278.575	8600.75
278.643	8596.62
278.712	8578.04
278.78	8560.52
278.849	8565.62
278.917	8578.52
278.985	8572.55
279.054	8574.24
279.122	8588.39
279.191	8588.87
279.259	8588.67
279.327	8567.78
279.396	8590.16
279.464	8582.18
279.532	8588.53
279.601	8577.41
279.669	8584.15
279.737	8605.9
279.806	8611.19
279.874	8620.87
279.942	8610.04
280.011	8609.65
280.079	8616.87
280.147	8627.75
280.215	8633.33
280.284	8630.78
280.352	8611.82
280.42	8620.72
280.488	8606.47
280.557	8595.74
280.625	8596.66
280.693	8597.81
280.761	8600.31
280.83	8580.39
280.898	8596.07
280.966	8575.29
281.034	8546.12
281.102	8528.94
281.171	8518.6
281.239	8522.49
281.307	8510.22
281.375	8499.64
281.443	8519.37
281.512	8517.49
281.58	8532.07
281.648	8517.11
281.716	8520
281.784	8521.25
281.852	8510.18
281.92	8512.2
281.989	8518.65
282.057	8510.56
282.125	8558.03
282.193	8554.37
282.261	8552.06
282.329	8545.8
282.397	8548.83
282.465	8553.45
282.533	8570.68
282.601	8562.69
282.67	8546.14
282.738	8541.95
282.806	8554.36
282.874	8542.86
282.942	8543.87
283.01	8531.65
283.078	8536.07
283.146	8531.26
283.214	8540.98
283.282	8543.63
283.35	8552.53
283.418	8552.92
283.486	8560.47
283.554	8515.18
283.622	8515.8
283.69	8514.36
283.758	8506.56
283.826	8515.46
283.894	8521.14
283.962	8543.33
284.03	8552.57
284.098	8549.83
284.165	8549.3
284.233	8549.39
284.301	8543.86
284.369	8531.49
284.437	8520.91
284.505	8518.36
284.573	8531.88
284.641	8518.11
284.709	8527.31
284.777	8508.11
284.845	8510.61
284.912	8507.29
284.98	8507.77
285.048	8502.91
285.116	8512.05
285.184	8528.51
285.252	8525.81
285.319	8511.86
285.387	8494.72
285.455	8481.15
285.523	8486.88
285.591	8479.28
285.659	8479.33
285.726	8490.01
285.794	8482.5
285.862	8479.95
285.93	8480.39
285.997	8478.13
286.065	8471.97
286.133	8462.2
286.201	8465.57
286.269	8453.68
286.336	8445.16
286.404	8439.24
286.472	8442.8
286.539	8419.66
286.607	8400.84
286.675	8405.13
286.743	8411.29
286.81	8409.6
286.878	8421.63
286.946	8417.44
287.013	8419.8
287.081	8418.84
287.149	8402.14
287.216	8413.11
287.284	8410.51
287.352	8410.9
287.419	8405.75
287.487	8425.29
287.555	8427.69
287.622	8424.33
287.69	8433.08
287.758	8446.17
287.825	8446.75
287.893	8438.62
287.96	8445.4
288.028	8459.02
288.096	8459.26
288.163	8463.16
288.231	8445.06
288.298	8452.96
288.366	8464.94
288.433	8458.83
288.501	8450.26
288.569	8453.58
288.636	8458.16
288.704	8474.76
288.771	8483.28
288.839	8478.08
288.906	8466.53
288.974	8479.38
289.041	8480.1
289.109	8465.67
289.176	8473.8
289.244	8480.54
289.311	8496.99
289.379	8508.97
289.446	8509.12
289.514	8509.46
289.581	8513.11
289.649	8524.85
289.716	8518.12
289.783	8512.82
289.851	8540.01
289.918	8539.67
289.986	8548.62
290.053	8546.84
290.121	8541.79
290.188	8546.02
290.255	8573.94
290.323	8571
290.39	8561.33
290.458	8560.17
290.525	8574.61
290.592	8570.04
290.66	8568.11
290.727	8562.87
290.794	8571.39
290.862	8574.13
290.929	8569.27
290.996	8567.49
291.064	8573.55
291.131	8586.55
291.198	8594.3
291.266	8591.41
291.333	8595.93
291.4	8604.35
291.468	8624.81
291.535	8617.88
291.602	8618.65
291.669	8609.84
291.737	8621.34
291.804	8618.36
291.871	8641.89
291.938	8654.65
292.006	8682.71
292.073	8694.69
292.14	8706.82
292.207	8704.18
292.275	8702.01
292.342	8718.66
292.409	8741.19
292.476	8766.36
292.543	8756.06
292.611	8757.36
292.678	8772.14
292.745	8798.03
292.812	8813.29
292.879	8805.93
292.946	8819.02
293.014	8836.49
293.081	8842.75
293.148	8850.16
293.215	8868.5
293.282	8857.29
293.349	8861.91
293.416	8835.19
293.484	8853.43
293.551	8861.81
293.618	8878.75
293.685	8905.71
293.752	8899.5
293.819	8897.82
293.886	8884.05
293.953	8895.89
294.02	8903.59
294.087	8907.49
294.154	8900.94
294.221	8904.84
294.288	8904.99
294.356	8920.1
294.423	8921.11
294.49	8914.04
294.557	8923.23
294.624	8916.15
294.691	8941.91
294.758	8939.26
294.825	8953.27
294.892	8942.72
294.959	8939.74
295.026	8944.46
295.093	8942.39
295.16	8940.12
295.226	8945.85
295.293	8969.59
295.36	8971.27
295.427	8988.41
295.494	8999.2
295.561	9006.61
295.628	9031.65
295.695	9045.76
295.762	9049.13
295.829	9053.36
295.896	9074.01
295.963	9093.27
296.03	9104.49
296.096	9103.86
296.163	9119.8
296.23	9137.47
296.297	9146.76
296.364	9148.25
296.431	9153.02
296.498	9143.87
296.564	9176.56
296.631	9178.73
296.698	9165.29
296.765	9189.37
296.832	9177.81
296.899	9163.13
296.965	9178.63
297.032	9156.72
297.099	9177.33
297.166	9186.19
297.233	9185.42
297.299	9177.14
297.366	9170.97
297.433	9170.73
297.5	9186.48
297.566	9190.28
297.633	9187.05
297.7	9197.02
297.767	9195.58
297.833	9205.78
297.9	9213.01
297.967	9194.04
298.033	9209.16
298.1	9240.7
298.167	9234.68
298.234	9242.14
298.3	9259.04
298.367	9253.26
298.434	9260.87
298.5	9253.6
298.567	9246.66
298.634	9246.09
298.7	9267.66
298.767	9274.45
298.834	9294.86
298.9	9288.36
298.967	9276.61
299.033	9286.29
299.1	9299.34
299.167	9318.6
299.233	9308.58
299.3	9320.67
299.366	9339.54
299.433	9349.9
299.5	9319.13
299.566	9318.64
299.633	9334.34
299.699	9338.77
299.766	9336.36
299.832	9342.82
299.899	9347.44
299.965	9360.68
300.032	9356.97
300.099	9360.92
300.165	9363.38
300.232	9358.08
300.298	9361.21
300.365	9375.99
300.431	9375.71
300.498	9369.25
300.564	9371.37
300.631	9385.29
300.697	9399.3
300.763	9397.28
300.83	9395.88
300.896	9418.42
300.963	9429.97
301.029	9428.72
301.096	9430.46
301.162	9445.86
301.229	9446.73
301.295	9437.39
301.361	9438.64
301.428	9448.99
301.494	9439.55
301.561	9439.02
301.627	9441.58
301.693	9437.82
301.76	9439.89
301.826	9437.92
301.892	9441.58
301.959	9453.76
302.025	9453.52
302.092	9448.9
302.158	9455.35
302.224	9452.12
302.291	9439.36
302.357	9434.06
302.423	9430.02
302.49	9423.85
302.556	9433.58
302.622	9431.85
302.688	9441.91
302.755	9456.65
302.821	9466.23
302.887	9471.43
302.954	9473.65
303.02	9481.69
303.086	9489.35
303.152	9487.81
303.219	9481.21
303.285	9492.62
303.351	9497.44
303.417	9499.13
303.483	9487.47
303.55	9482.32
303.616	9483.33
303.682	9484
303.748	9480.97
303.815	9499.9
303.881	9507.7
303.947	9496.14
304.013	9498.69
304.079	9493.69
304.145	9470.14
304.212	9459.88
304.278	9450.3
304.344	9446.69
304.41	9429.4
304.476	9420.44
304.542	9417.89
304.608	9424.87
304.674	9409.37
304.741	9397.28
304.807	9398.24
304.873	9405.32
304.939	9413.02
305.005	9392.56
305.071	9387.21
305.137	9381.87
305.203	9353.89
305.269	9352.73
305.335	9361.02
305.401	9352.73
305.467	9351.63
305.533	9365.88
305.599	9377.05
305.666	9380.09
305.732	9380.28
305.798	9397.57
305.864	9423.04
305.93	9420.83
305.996	9418.9
306.062	9416.15
306.128	9419.09
306.194	9405.03
306.259	9403.06
306.325	9400.07
306.391	9413.17
306.457	9423.57
306.523	9436.43
306.589	9460.65
306.655	9458.63
306.721	9437.44
306.787	9427.04
306.853	9437.68
306.919	9418.13
306.985	9410.57
307.051	9410.81
307.117	9407.15
307.183	9399.88
307.248	9371.85
307.314	9383.51
307.38	9386.73
307.446	9398.48
307.512	9383.84
307.578	9388.03
307.644	9381.34
307.709	9383.03
307.775	9379.65
307.841	9374.5
307.907	9372.19
307.973	9352.06
308.039	9349.46
308.104	9357.12
308.17	9359.09
308.236	9344.98
308.302	9356.2
308.368	9343.78
308.433	9344.84
308.499	9340.41
308.565	9327.31
308.631	9333.14
308.696	9305.88
308.762	9293.12
308.828	9289.85
308.894	9276.51
308.959	9262.89
309.025	9256.92
309.091	9253.45
309.156	9249.02
309.222	9253.4
309.288	9236.07
309.354	9215.75
309.419	9212.38
309.485	9202.27
309.551	9202.8
309.616	9188.45
309.682	9175.93
309.748	9169.96
309.813	9159.66
309.879	9145.17
309.945	9134.57
310.01	9126.82
310.076	9129.47
310.141	9128.22
310.207	9110.6
310.273	9114.11
310.338	9114.21
310.404	9097.55
310.469	9079.35
310.535	9063.22
310.601	9040.16
310.666	9047.14
310.732	9061.05
310.797	9050.65
310.863	9040.78
310.928	9032.41
310.994	9035.34
311.059	9032.5
311.125	9034.24
311.191	9049.64
311.256	9044.54
311.322	9050.22
311.387	9031.74
311.453	9402.25
311.518	9369.42
311.584	9362.59
311.649	9363.45
311.715	9345.79
311.78	9348.58
311.846	9338.33
311.911	9345.55
311.976	9339.82
312.042	9322.68
312.107	9300.73
312.173	9292.98
312.238	9286.67
312.304	9281.67
312.369	9275.41
312.434	9265.2
312.5	9252.59
312.565	9220.48
312.631	9222.84
312.696	9213.35
312.761	9217.25
312.827	8835.43
312.892	8871.82
312.958	8871.53
313.023	8872.83
313.088	8879.61
313.154	8868.5
313.219	8866.86
313.284	8858.15
313.35	8859.73
313.415	8848.18
313.48	8849.68
313.546	8851.02
313.611	8856.99
313.676	8852.47
313.741	8842.98
313.807	8853.38
313.872	8856.08
313.937	8857.95
314.003	8861.85
314.068	8864.84
314.133	8867.05
314.198	8860.89
314.264	8839.13
314.329	8829.89
314.394	8825.12
314.459	8823.73
314.525	8837.64
314.59	8829.07
314.655	8817.28
314.72	8823.2
314.785	8823.58
314.851	8816.08
314.916	8797.02
314.981	8780.84
315.046	8774.01
315.111	8758.66
315.176	8742
315.242	8748.02
315.307	8749.56
315.372	8734.83
315.437	8721.93
315.502	8711.53
315.567	8721.3
315.632	8712.06
315.698	8709.56
315.763	8699.55
315.828	8687.13
315.893	8682.56
315.958	8680.92
316.023	8674.81
316.088	8655.22
316.153	8641.6
316.218	8635.25
316.283	8621.06
316.348	8602.96
316.413	8597.81
316.479	8581.65
316.544	8551.29
316.609	8520.15
316.674	8479.39
316.739	8442.69
316.804	8412.52
316.869	8378.5
316.934	8336.06
316.999	8304.74
317.064	8252.73
317.129	8210.49
317.194	8173.02
317.259	8124.37
317.324	8078.97
317.389	8036.92
317.454	7997.05
317.518	7960.4
317.583	7933.6
317.648	7907.19
317.713	7878.63
317.778	7819.61
317.843	7799.27
317.908	7757.63
317.973	7718.29
318.038	7690.74
318.103	7658.91
318.168	7624.77
318.233	7591.79
318.297	7547.9
318.362	7508.91
318.427	7476.66
318.492	7452.47
318.557	7409.94
318.622	7381
318.687	7351.25
318.751	7310.4
318.816	7279.16
318.881	7243.93
318.946	7187.7
319.011	7141.85
319.075	7098.41
319.14	7062.96
319.205	7016.05
319.27	6990.31
319.335	6946.06
319.399	6906.9
319.464	6875.29
319.529	6824.05
319.594	6787.63
319.658	6755.79
319.723	6714.82
319.788	6689.32
319.853	6632.03
319.917	6597.99
319.982	6549.29
320.047	6513.23
320.112	6484.47
320.176	6429.98
320.241	6399.63
320.306	6372.03
320.37	6335.89
320.435	6304.73
320.5	6279.34
320.564	6238.31
320.629	6190.27
320.694	6159.56
320.758	6118.24
320.823	6075.92
320.888	6049.39
320.952	6002.04
321.017	5963.8
321.082	5927.06
321.146	5888.96
321.211	5861.91
321.275	5824.22
321.34	5779.58
321.405	5739.2
321.469	5693.59
321.534	5658.6
321.598	5604.32
321.663	5572.81
321.727	5535.47
321.792	5488.39
321.857	5439.93
321.921	5406.23
321.986	5369.29
322.05	5311.17
322.115	5271.73
322.179	5226.84
322.244	5173.72
322.308	5138.46
322.373	5092.23
322.437	5053.53
322.502	5025.5
322.566	4979.32
322.631	4939.62
322.695	4905.1
322.76	4860.53
322.824	4825.82
322.889	4781.59
322.953	4741.92
323.018	4676.48
323.082	4618.48
323.146	4564.8
323.211	4516.81
323.275	4472.59
323.34	4422.9
323.404	4388.75
323.468	4344.41
323.533	4305.62
323.597	4262.17
323.662	4212.68
323.726	4178.92
323.79	4131.25
323.855	4067.2
323.919	4015.91
323.983	3974.62
324.048	3906.64
324.112	4051.93
324.177	3925.82
324.241	3722.94
324.305	3521.71
324.37	3326.71
324.434	3137.63
324.498	3099.34
324.562	3050.37
324.627	2987.31
324.691	2937.67
324.755	2876.62
324.82	2804.75
324.884	2727.28
324.948	2657.95
325.012	2567.2
325.077	2443.63
