Data from 20250702_urea_0.5M_MAYP1162681_01-45-00-140.txt Node
Date: Thu Jul 03 01:45:00 BST 2025
User: adleo
Spectrometer: MAYP116268
Trigger mode: 0
Integration Time (sec): 1.000000E0
Scans to average: 1
Electric dark correction enabled: true
Nonlinearity correction enabled: true
Boxcar width: 10
XAxis mode: Wavelengths
Number of Pixels in Spectrum: 2068
>>>>>Begin Spectral Data<<<<<
179.565	1193.42
179.642	1246.9
179.718	1290.38
179.795	1326.72
179.871	1360.15
179.948	1378.86
180.024	1400.18
180.101	1422.23
180.177	1440.08
180.254	1464.37
180.33	1485.92
180.407	1541.28
180.483	1635.3
180.56	1723.34
180.636	1806.37
180.712	1794.58
180.789	1801.81
180.865	1813.68
180.942	1822.76
181.018	1833.26
181.095	1846.01
181.171	1853.33
181.248	1854.85
181.324	1870.78
181.4	1882.62
181.477	1894.6
181.553	1907.9
181.63	1929.21
181.706	1944.56
181.782	1947.03
181.859	1944.42
181.935	1948.89
182.011	1944.47
182.088	1961.63
182.164	1981.85
182.24	1997.58
182.317	2008.09
182.393	2007
182.469	2022.35
182.546	2035.62
182.622	2037.86
182.698	2032.2
182.775	2044.18
182.851	2059.02
182.927	2052.41
183.003	2045.7
183.08	2037.86
183.156	2045.94
183.232	2040.56
183.308	2030.82
183.385	2040.51
183.461	2056.4
183.537	2058.92
183.613	2071.81
183.69	2063.1
183.766	2051.31
183.842	2057.58
183.918	2062.01
183.995	2076.47
184.071	2082.84
184.147	2077.66
184.223	2066.2
184.299	2077.71
184.375	2066.3
184.452	2074.82
184.528	2129.78
184.604	2142.05
184.68	2154.84
184.756	2162.45
184.832	2168.4
184.908	2173.54
184.985	2174.34
185.061	2160.36
185.137	2169.97
185.213	2159.46
185.289	2160.55
185.365	2158.6
185.441	2156.27
185.517	2168.98
185.593	2166.6
185.669	2161.46
185.745	2172.21
185.822	2189.8
185.898	2182.62
185.974	2195.89
186.05	2184.18
186.126	2144.87
186.202	2136.88
186.278	2133.41
186.354	2123.8
186.43	2132.51
186.506	2130.23
186.582	2131.13
186.658	2137.93
186.734	2117.05
186.81	2117.48
186.886	2121.09
186.962	2128.61
187.038	2124.71
187.114	2117.14
187.19	2124.61
187.266	2114.58
187.341	2114.58
187.417	2107.68
187.493	2107.39
187.569	2105.11
187.645	2099.83
187.721	2084.23
187.797	2091.08
187.873	2095.41
187.949	2089.84
188.025	2080.37
188.101	2081.7
188.176	2087.6
188.252	2083.75
188.328	2093.73
188.404	2093.59
188.48	2087.65
188.556	2082.6
188.632	2083.46
188.707	2085.22
188.783	2081.75
188.859	2075.76
188.935	2064.29
189.011	2073.28
189.086	2068.72
189.162	2062.39
189.238	2060.82
189.314	2062.01
189.39	2058.25
189.465	2049.98
189.541	2066.1
189.617	2050.31
189.693	2045.89
189.768	2049.03
189.844	2076.54
189.92	2067.22
189.996	2076.87
190.071	2087.72
190.147	2087.58
190.223	2098.14
190.298	2089.72
190.374	2077.07
190.45	2090.57
190.526	2101.51
190.601	2096.13
190.677	2095.8
190.753	2120.36
190.828	2126.68
190.904	2140.53
190.98	2152.28
191.055	2162.31
191.131	2153.7
191.207	2176.06
191.282	2186.28
191.358	2174.58
191.433	2157.73
191.509	2172.47
191.585	2168.24
191.66	2169.05
191.736	2176.85
191.811	2165.67
191.887	2183.32
191.963	2204.78
192.038	2209.77
192.114	2208.11
192.189	2211.58
192.265	2206.45
192.34	2187.07
192.416	2183.84
192.491	2180.75
192.567	2184.75
192.642	2186.41
192.718	2186.41
192.793	2174.23
192.869	2170.66
192.944	2174.37
193.02	2178.18
193.095	2181.37
193.171	2186.03
193.246	2186.32
193.322	2183.89
193.397	2186.12
193.473	2169.99
193.548	2151.05
193.624	2158.34
193.699	2158.34
193.775	2173.9
193.85	2177.8
193.925	2185.08
194.001	2183.65
194.076	2177.13
194.152	2166.85
194.227	2161.71
194.302	2153.91
194.378	2155.96
194.453	2153.77
194.529	2165.1
194.604	2153.54
194.679	2145.64
194.755	2127.52
194.83	2139.94
194.905	2136.14
194.981	2143.8
195.056	2138.38
195.131	2146.84
195.207	2142.46
195.282	2133.14
195.357	2113.39
195.433	2128.9
195.508	2118.1
195.583	2125.19
195.659	2138.85
195.734	2144.84
195.809	2143.32
195.884	2152.64
195.96	2155.07
196.035	2169.34
196.11	2164.53
196.185	2173.71
196.261	2179.61
196.336	2210.44
196.411	2198.35
196.486	2201.82
196.561	2194.83
196.637	2201.91
196.712	2216.62
196.787	2218.86
196.862	2233.18
196.937	2246.55
197.013	2251.4
197.088	2263.87
197.163	2287.91
197.238	2304.96
197.313	2305.1
197.388	2319.47
197.464	2349.99
197.539	2359.7
197.614	2354.18
197.689	2368.36
197.764	2387.36
197.839	2407.5
197.914	2402.97
197.989	2424.92
198.065	2443.87
198.14	2494.22
198.215	2524.12
198.29	2536.08
198.365	2552.03
198.44	2563.07
198.515	2589.7
198.59	2606.75
198.665	2631.7
198.74	2636.95
198.815	2638.09
198.89	2660.61
198.965	2690.01
199.04	2683.68
199.115	2702.06
199.19	2744.64
199.265	2749.03
199.34	2756.65
199.415	2788.3
199.49	2811.31
199.565	2816.74
199.64	2838.42
199.715	2838.28
199.79	2842.09
199.865	2851.2
199.94	2851.34
200.015	2881.99
200.09	2886.47
200.165	2889.8
200.24	2897.62
200.315	2936.78
200.39	2950.84
200.464	2958.38
200.539	2961.19
200.614	2976.49
200.689	3000.14
200.764	3006.38
200.839	3021.68
200.914	3028.4
200.989	3018.29
201.063	3032.21
201.138	3016.3
201.213	3016.73
201.288	2995.9
201.363	3003.38
201.438	3001.04
201.512	3015.53
201.587	3002.32
201.662	3008.09
201.737	3022.83
201.812	3031.36
201.886	3001.64
201.961	3010.8
202.036	2997.88
202.111	2992.35
202.186	2966.62
202.26	2949.5
202.335	2926.14
202.41	2920.23
202.485	2901.84
202.559	2884.11
202.634	2857.04
202.709	2868.42
202.784	2848.59
202.858	2849.55
202.933	2829.1
203.008	2821.57
203.082	2801.85
203.157	2798.7
203.232	2755.5
203.306	2734.81
203.381	2701.3
203.456	2675.96
203.53	2654.4
203.605	2638.17
203.68	2615.01
203.754	2606.87
203.829	2590.34
203.904	2572.91
203.978	2562.81
204.053	2568.43
204.127	2557.33
204.202	2554
204.277	2538.71
204.351	2533.28
204.426	2522.71
204.5	2515.99
204.575	2483.53
204.65	2494.15
204.724	2486.53
204.799	2493.14
204.873	2487.38
204.948	2483.9
205.022	2472.57
205.097	2464.19
205.171	2473.33
205.246	2481.14
205.32	2480.62
205.395	2479.95
205.469	2470.72
205.544	2475.67
205.618	2459.2
205.693	2467.77
205.767	2456.58
205.842	2474.73
205.916	2466.97
205.991	2455.83
206.065	2460.59
206.14	2476.77
206.214	2469.72
206.289	2464.48
206.363	2477.09
206.438	2480.86
206.512	2490.28
206.586	2514.85
206.661	2521.62
206.735	2502.96
206.81	2508.01
206.884	2524.91
206.958	2512.63
207.033	2527.86
207.107	2535.15
207.181	2569.45
207.256	2564.5
207.33	2582.5
207.405	2596.8
207.479	2619.61
207.553	2634.32
207.628	2620.66
207.702	2637.76
207.776	2635.23
207.851	2641.14
207.925	2659.92
207.999	2660.34
208.073	2663.87
208.148	2667.54
208.222	2662.77
208.296	2702.06
208.371	2721.18
208.445	2740.91
208.519	2779.26
208.593	2801.94
208.668	2805.75
208.742	2817.63
208.816	2829.49
208.89	2861.15
208.965	2872.55
209.039	2892.81
209.113	2924.61
209.187	2963.2
209.261	2975.73
209.336	3016.36
209.41	3051.79
209.484	3074.3
209.558	3121.86
209.632	3157.86
209.707	3197.89
209.781	3249.46
209.855	3296.14
209.929	3343.42
210.003	3378.83
210.077	3412.76
210.151	3495.55
210.226	3571.02
210.3	3637.63
210.374	3703.5
210.448	3748.08
210.522	3806.04
210.596	3863.46
210.67	3918.21
210.744	4011.27
210.818	4097.19
210.892	4173.83
210.966	4229.66
211.041	4303.49
211.115	4358.48
211.189	4442.74
211.263	4521.58
211.337	4590.14
211.411	4671.76
211.485	4736.11
211.559	4820.91
211.633	4894.36
211.707	4940.35
211.781	5021.19
211.855	5060.28
211.929	5134.31
212.003	5194.4
212.077	5280.77
212.151	5375.28
212.225	5471.86
212.299	5550.42
212.373	5625.79
212.447	5700.51
212.52	5818.16
212.594	5913.97
212.668	6017.77
212.742	6096.78
212.816	6182.92
212.89	6271.26
212.964	6359.71
213.038	6458.18
213.112	6567.39
213.186	6680.79
213.26	6753.13
213.333	6807.74
213.407	6916.84
213.481	7018.9
213.555	7132.58
213.629	7221.2
213.703	7307.28
213.777	7405.2
213.85	7488.71
213.924	7624.84
213.998	7735.72
214.072	7834.33
214.146	7919.99
214.219	8022.54
214.293	8126.86
214.367	8227.69
214.441	8339.54
214.515	8434.96
214.588	8518.35
214.662	8588.8
214.736	8669.36
214.81	8785.65
214.883	8896.62
214.957	8986.91
215.031	9077.93
215.105	9154.16
215.178	9240
215.252	9331
215.326	9404.04
215.4	9476.26
215.473	9516.38
215.547	9595.03
215.621	9678.22
215.694	9781.35
215.768	9853.21
215.842	9938.66
215.915	10022.05
215.989	10089.2
216.063	10170.81
216.136	10262.49
216.21	10349.83
216.284	10449.9
216.357	10532.58
216.431	10619.79
216.504	10714.42
216.578	10825.15
216.652	10923.64
216.725	11010.52
216.799	11108.64
216.873	11198.94
216.946	11297.39
217.02	11382.64
217.093	11457.92
217.167	11526.55
217.24	11596.97
217.314	11673.79
217.387	11740.16
217.461	11821.47
217.535	11921.58
217.608	11991.13
217.682	12066.47
217.755	12149.81
217.829	12222.65
217.902	12308.74
217.976	12382.24
218.049	12451.95
218.123	12505.84
218.196	12586.05
218.27	12665.78
218.343	12725.17
218.417	12806.97
218.49	12884.01
218.563	12979.4
218.637	13062.17
218.71	13146.68
218.784	13221.54
218.857	13308.55
218.931	13389.11
219.004	13459.29
219.077	13540.62
219.151	13619.68
219.224	13693.67
219.298	13775.38
219.371	13855.07
219.444	13912.63
219.518	13986
219.591	14060.57
219.665	14159.54
219.738	14236.38
219.811	14293.21
219.885	14372.51
219.958	14442.26
220.031	14514.18
220.105	14582.68
220.178	14646.79
220.251	14712.5
220.325	14783.16
220.398	14854.99
220.471	14928.3
220.544	15003.5
220.618	15054.89
220.691	15118.71
220.764	15176.21
220.838	15238.54
220.911	15297.78
220.984	15380.35
221.057	15452.51
221.131	15528.95
221.204	15562.31
221.277	15637.65
221.35	15726.67
221.424	15787.89
221.497	15843.94
221.57	15896.92
221.643	15960.49
221.716	16033.51
221.79	16079.69
221.863	16137.81
221.936	16190.16
222.009	16249.2
222.082	16298.17
222.155	16345.79
222.229	16417.46
222.302	16481.75
222.375	16531.15
222.448	16593.28
222.521	16636.12
222.594	16673.14
222.667	16697.48
222.74	16757.19
222.814	16802.88
222.887	16850.79
222.96	16900.86
223.033	16966.5
223.106	17012.91
223.179	17062.99
223.252	17112.87
223.325	17167.18
223.398	17206.7
223.471	17246.12
223.544	17285.4
223.617	17344.05
223.69	17389.26
223.763	17418.51
223.837	17465.02
223.91	17508.97
223.983	17534.22
224.056	17572.39
224.129	17628.73
224.202	17690.17
224.275	17730.51
224.348	17747.67
224.42	17762.8
224.493	17782.22
224.566	17800.92
224.639	17848.05
224.712	17875.09
224.785	17905.49
224.858	17935.66
224.931	17965.93
225.004	17988.29
225.077	18021.01
225.15	18020.04
225.223	18056.14
225.296	18113.53
225.369	18114.93
225.442	18136.62
225.514	18167.65
225.587	18198.35
225.66	18226.59
225.733	18241
225.806	18267.07
225.879	18308.32
225.952	18333.28
226.025	18381.04
226.097	18425.57
226.17	18447.69
226.243	18452.46
226.316	18466.38
226.389	18498.24
226.461	18536.79
226.534	18576.69
226.607	18605.46
226.68	18663.24
226.753	18693.07
226.825	18696.88
226.898	18744.54
226.971	18781.74
227.044	18816.63
227.117	18844.24
227.189	18868.43
227.262	18909.2
227.335	18937.34
227.407	18952.81
227.48	18977.73
227.553	18990.02
227.626	19011.94
227.698	19031.7
227.771	19065
227.844	19080.76
227.916	19100.71
227.989	19103.21
228.062	19115.65
228.134	19162.87
228.207	19179.59
228.28	19191.93
228.352	19203.98
228.425	19229.66
228.498	19250.34
228.57	19253.28
228.643	19285.23
228.716	19307.64
228.788	19320.5
228.861	19330.72
228.934	19361.56
229.006	19384.26
229.079	19409.46
229.151	19410.42
229.224	19417.07
229.296	19435.24
229.369	19486.66
229.442	19521.26
229.514	19529.94
229.587	19562.99
229.659	19556.68
229.732	19581.31
229.804	19600.87
229.877	19638.46
229.949	19664.97
230.022	19702.12
230.094	19712.96
230.167	19719.85
230.239	19719.08
230.312	19735.95
230.384	19775.13
230.457	19787.95
230.529	19801.68
230.602	19811.71
230.674	19837.73
230.747	19870.88
230.819	19900.76
230.892	19871.85
230.964	19887.36
231.037	19908.52
231.109	19910.98
231.181	19925.15
231.254	19906.11
231.326	19916.91
231.399	19917.72
231.471	19909.34
231.544	19878.26
231.616	19900.38
231.688	19921.53
231.761	19919.51
231.833	19915.56
231.905	19897.1
231.978	19907.12
232.05	19911.56
232.122	19921.24
232.195	19925.72
232.267	19936.18
232.339	19926.83
232.412	19952.95
232.484	19933.48
232.556	19928.71
232.629	19951.55
232.701	19960.9
232.773	19972.61
232.846	19961.96
232.918	19965.72
232.99	19982.49
233.062	19999.12
233.135	20007.46
233.207	19982.83
233.279	19990.49
233.351	19992.47
233.424	19985.24
233.496	19963.51
233.568	19978.4
233.64	19957.67
233.713	19940.71
233.785	19936.47
233.857	19942.35
233.929	19920.04
234.001	19937.72
234.074	19950.25
234.146	19917.05
234.218	19905.63
234.29	19899.56
234.362	19886.98
234.434	19862.45
234.507	19827.56
234.579	19816.04
234.651	19793.15
234.723	19802.84
234.795	19804.57
234.867	19802.11
234.939	19808.09
235.012	19806.93
235.084	19802.02
235.156	19808.19
235.228	19802.26
235.3	19778.4
235.372	19759.75
235.444	19758.31
235.516	19716.38
235.588	19702.65
235.66	19695.03
235.732	19667.81
235.804	19697.3
235.876	19699.23
235.948	19703.71
236.02	19694.89
236.092	19663.57
236.164	19644.48
236.236	19618.56
236.308	19601.4
236.38	19583.52
236.452	19562.8
236.524	19555.24
236.596	19553.02
236.668	19534.13
236.74	19512.88
236.812	19501.5
236.884	19490.28
236.956	19480.49
237.028	19464.54
237.1	19440.5
237.172	19445.12
237.244	19444.98
237.316	19388.45
237.388	19358.76
237.46	19330.48
237.532	19323.78
237.604	19307.54
237.675	19307.3
237.747	19296.46
237.819	19268.99
237.891	19241.71
237.963	19207.16
238.035	19172.66
238.107	19106.49
238.178	19091.84
238.25	19064.47
238.322	19062.78
238.394	19026.06
238.466	18995.61
238.538	18974.84
238.609	18961.68
238.681	18913.88
238.753	18877.54
238.825	18862.65
238.897	18838.56
238.968	18833.26
239.04	18804.44
239.112	18812.87
239.184	18776.73
239.255	18748.97
239.327	18723.62
239.399	18702.71
239.471	18682.13
239.542	18659.34
239.614	18658.37
239.686	18609.56
239.758	18597.37
239.829	18551.15
239.901	18544.55
239.973	18518.96
240.044	18494.29
240.116	18457.9
240.188	18426.05
240.259	18397.95
240.331	18363.26
240.403	18358.05
240.474	18312.32
240.546	18265.33
240.618	18203.31
240.689	18168.42
240.761	18136.96
240.833	18126.93
240.904	18093.58
240.976	18065.25
241.048	18033.63
241.119	18006.5
241.191	17982.12
241.262	17968.48
241.334	17948.05
241.405	17906.84
241.477	17864
241.549	17834.75
241.62	17810.94
241.692	17796.29
241.763	17787.28
241.835	17753.35
241.906	17716.73
241.978	17669.98
242.049	17666.37
242.121	17651.28
242.192	17635.14
242.264	17584.05
242.335	17535.96
242.407	17512.2
242.478	17483.96
242.55	17460.39
242.621	17423.09
242.693	17395.19
242.764	17353.26
242.836	17309.65
242.907	17286.9
242.979	17268.34
243.05	17245.31
243.122	17220.2
243.193	17188.63
243.264	17133.69
243.336	17107.96
243.407	17079.91
243.479	17067.96
243.55	17035.09
243.622	17005.74
243.693	16979.09
243.764	16974.17
243.836	16933.01
243.907	16899.42
243.978	16868.28
244.05	16839.56
244.121	16794.35
244.192	16775.89
244.264	16733.29
244.335	16708.47
244.407	16656.37
244.478	16626.63
244.549	16587.93
244.62	16540.12
244.692	16501.71
244.763	16474.28
244.834	16429.36
244.906	16392.83
244.977	16368.64
245.048	16353.26
245.119	16319.67
245.191	16269.4
245.262	16216.52
245.333	16204.09
245.405	16176.91
245.476	16153.72
245.547	16136.71
245.618	16119.26
245.689	16083.98
245.761	16064.27
245.832	16034.72
245.903	16021.85
245.974	15993.41
246.045	15957.75
246.117	15950.66
246.188	15907.19
246.259	15868.82
246.33	15842.02
246.401	15805.87
246.473	15756.13
246.544	15712.07
246.615	15689.32
246.686	15659.82
246.757	15642.86
246.828	15600.83
246.899	15588.82
246.97	15532.86
247.042	15486.83
247.113	15457.14
247.184	15452.66
247.255	15404.5
247.326	15376.11
247.397	15335.91
247.468	15304.97
247.539	15277.49
247.61	15225.87
247.681	15206.49
247.752	15186.05
247.823	15147.34
247.894	15117.84
247.965	15079.23
248.037	15046.02
248.108	14995.02
248.179	14966.24
248.25	14935.1
248.321	14913.56
248.392	14864.01
248.463	14865.45
248.534	14835.81
248.605	14817.39
248.675	14780.18
248.746	14757.14
248.817	14730.34
248.888	14707.2
248.959	14661.12
249.03	14639.42
249.101	14611.66
249.172	14575.5
249.243	14525.03
249.314	14510.76
249.385	14484.73
249.456	14465.4
249.527	14436.53
249.598	14415.99
249.669	14387.02
249.739	14358.58
249.81	14336.21
249.881	14297.84
249.952	14267.76
250.023	14237.54
250.094	14193.52
250.165	14152.65
250.235	14131.48
250.306	14095.14
250.377	14057.54
250.448	14039.99
250.519	13995.16
250.59	13986.87
250.66	13960.35
250.731	13961.56
250.802	13943.58
250.873	13921.88
250.944	13901.69
251.014	13877.1
251.085	13883.27
251.156	13861.92
251.227	13854.88
251.297	13845.96
251.368	13836.85
251.439	13822.82
251.51	13811.73
251.58	13777.17
251.651	13743.66
251.722	13734.12
251.792	13699.56
251.863	13671.31
251.934	13665.18
252.005	13667.26
252.075	13643.73
252.146	13636.84
252.217	13621.08
252.287	13596.68
252.358	13572.19
252.429	13563.56
252.499	13526.88
252.57	13506.05
252.641	13495.3
252.711	13468.84
252.782	13421.02
252.852	13410.03
252.923	13376.91
252.994	13357.53
253.064	13344.8
253.135	13324.07
253.205	13293.22
253.276	13293.75
253.347	13297.37
253.417	13261.74
253.488	13232.58
253.558	13205.68
253.629	13185.58
253.699	13168.66
253.77	13158.53
253.841	13136.02
253.911	13114.91
253.982	13092.49
254.052	13073.02
254.123	13053.88
254.193	13029.15
254.264	13043.85
254.334	13008.27
254.405	12970.72
254.475	12941.03
254.546	12922.76
254.616	12909.94
254.687	12885.25
254.757	12864.67
254.827	12837.05
254.898	12821.19
254.968	12799.79
255.039	12772.74
255.109	12757.32
255.18	12714.12
255.25	12665.49
255.321	12647.26
255.391	12613.38
255.461	12620.37
255.532	12569.07
255.602	12541.94
255.673	12504.24
255.743	12470.83
255.813	12427.79
255.884	12421.67
255.954	12400.75
256.024	12395.54
256.095	12370.96
256.165	12336.78
256.235	12323.38
256.306	12291.18
256.376	12281.1
256.446	12273.39
256.517	12250.01
256.587	12234.49
256.657	12220.42
256.728	12209.23
256.798	12189.71
256.868	12165.56
256.938	12136.88
257.009	12126.81
257.079	12112.06
257.149	12121.84
257.219	12081.21
257.29	12074.75
257.36	12043.32
257.43	12034.55
257.5	11994.49
257.571	11978.49
257.641	11968.51
257.711	11934.63
257.781	11924.94
257.852	11909.03
257.922	11867.05
257.992	11854.08
258.062	11829.5
258.132	11825.6
258.202	11799.14
258.273	11783.81
258.343	11783.09
258.413	11752.82
258.483	11737.97
258.553	11703.7
258.623	11668.52
258.693	11656.61
258.764	11647.6
258.834	11639.02
258.904	11626.01
258.974	11599.55
259.044	11572.17
259.114	11562.96
259.184	11550.43
259.254	11528.41
259.324	11491.73
259.394	11483.2
259.464	11473.46
259.535	11449.75
259.605	11418.9
259.675	11396.35
259.745	11380.2
259.815	11349.55
259.885	11329.89
259.955	11334.08
260.025	11310.9
260.095	11293.94
260.165	11280.15
260.235	11276.54
260.305	11248.3
260.375	11217.79
260.445	11226.37
260.515	11230.85
260.585	11219.72
260.655	11196.78
260.725	11192.87
260.795	11186.13
260.865	11181.79
260.934	11160.63
261.004	11151.77
261.074	11141.55
261.144	11140.3
261.214	11133.16
261.284	11117.65
261.354	11112.25
261.424	11082.7
261.494	11089.93
261.564	11074.42
261.634	11067.38
261.703	11038.03
261.773	11033.21
261.843	11020.25
261.913	11003.43
261.983	10970.56
262.053	10960.11
262.123	10946.28
262.192	10912.11
262.262	10901.9
262.332	10870.72
262.402	10859.73
262.472	10844.41
262.541	10805.38
262.611	10794.35
262.681	10768.76
262.751	10757.63
262.821	10736.38
262.89	10705.68
262.96	10698.98
263.03	10702.93
263.1	10687.32
263.169	10670.75
263.239	10663.28
263.309	10662.8
263.379	10646.56
263.448	10633.07
263.518	10620.87
263.588	10604.25
263.657	10608.88
263.727	10604.4
263.797	10591
263.867	10577.22
263.936	10549.47
264.006	10547.45
264.076	10535.83
264.145	10516.18
264.215	10493.1
264.285	10486.02
264.354	10461.3
264.424	10431.33
264.494	10400.45
264.563	10383.92
264.633	10387.2
264.702	10373.95
264.772	10342
264.842	10325.96
264.911	10315.22
264.981	10289.39
265.05	10270.84
265.12	10248.92
265.19	10228.06
265.259	10224.78
265.329	10217.08
265.398	10208.07
265.468	10227.05
265.537	10203.01
265.607	10197.13
265.676	10193.81
265.746	10191.54
265.815	10186.54
265.885	10165.05
265.955	10142.07
266.024	10121.02
266.094	10091.35
266.163	10092.6
266.232	10093.32
266.302	10074.1
266.371	10065.43
266.441	10053.87
266.51	10051.32
266.58	10035.37
266.649	10018.46
266.719	10015.57
266.788	10010.13
266.858	10015.48
266.927	9970.39
266.996	9966.1
267.066	9957.43
267.135	9934.79
267.205	9924.34
267.274	9912.3
267.343	9919.76
267.413	9905.65
267.482	9911.24
267.552	9913.17
267.621	9882.67
267.69	9849.39
267.76	9840.96
267.829	9826.27
267.898	9808.93
267.968	9788.22
268.037	9781.48
268.106	9779.26
268.176	9751.42
268.245	9728.25
268.314	9708.36
268.384	9711.39
268.453	9693.48
268.522	9681.68
268.592	9681.92
268.661	9659.91
268.73	9657.69
268.799	9634.82
268.869	9642.47
268.938	9611.26
269.007	9590.99
269.076	9575.38
269.146	9582.94
269.215	9573.84
269.284	9584.1
269.353	9570.62
269.422	9555.69
269.492	9540.76
269.561	9498.29
269.63	9492.32
269.699	9474.11
269.768	9464.15
269.838	9457.5
269.907	9463.33
269.976	9442.28
270.045	9412.67
270.114	9402.8
270.183	9382.91
270.253	9376.31
270.322	9343.91
270.391	9338.61
270.46	9339.33
270.529	9343.14
270.598	9331.1
270.667	9319.44
270.736	9292.52
270.806	9280.92
270.875	9286.12
270.944	9276.01
271.013	9301.58
271.082	9293.78
271.151	9296.04
271.22	9262.48
271.289	9244.62
271.358	9224.39
271.427	9219.29
271.496	9212.21
271.565	9196.28
271.634	9192.96
271.703	9215.44
271.772	9220.79
271.841	9207.26
271.91	9184.92
271.979	9174.61
272.048	9150.54
272.117	9148.76
272.186	9131.14
272.255	9136.34
272.324	9128.83
272.393	9123.77
272.462	9107.16
272.531	9101.38
272.6	9087.47
272.669	9105.62
272.738	9096.9
272.807	9094.69
272.876	9075.19
272.945	9103.5
273.013	9113.03
273.082	9118.86
273.151	9079.52
273.22	9080.58
273.289	9068.4
273.358	9078.66
273.427	9062.91
273.496	9066.43
273.564	9061.61
273.633	9064.65
273.702	9043.32
273.771	9036
273.84	9033.26
273.909	9029.45
273.977	9023.1
274.046	9007.26
274.115	9000.47
274.184	8988.97
274.253	8975.3
274.322	8983.43
274.39	8950.07
274.459	8930.33
274.528	8897.6
274.597	8889.75
274.665	8883.35
274.734	8896.01
274.803	8881.66
274.872	8878.63
274.94	8868.52
275.009	8924.15
275.078	8908.6
275.147	8910.57
275.215	8905.61
275.284	8907.06
275.353	8892.09
275.421	8873.55
275.49	8889.05
275.559	8884.87
275.627	8870.72
275.696	8870.62
275.765	8879.19
275.833	8870.43
275.902	8873.32
275.971	8883.09
276.039	8898.54
276.108	8898.59
276.177	8893.2
276.245	8882.85
276.314	8880.73
276.383	8880.63
276.451	8821.74
276.52	8825.78
276.588	8837.72
276.657	8842.19
276.725	8834.11
276.794	8835.6
276.863	8852.59
276.931	8830.5
277	8831.27
277.068	8843.83
277.137	8854.71
277.205	8841.52
277.274	8861.11
277.342	8861.83
277.411	8842.05
277.48	8825.15
277.548	8811.68
277.617	8810.66
277.685	8805.61
277.754	8810.09
277.822	8805.47
277.89	8813.12
277.959	8803.16
278.027	8783.62
278.096	8770.67
278.164	8795.32
278.233	8788.39
278.301	8768.36
278.37	8776.88
278.438	8760.66
278.507	8765.18
278.575	8742.13
278.643	8736.21
278.712	8715.03
278.78	8704.68
278.849	8720.47
278.917	8731.35
278.985	8730.82
279.054	8731.78
279.122	8745.35
279.191	8745.11
279.259	8740.44
279.327	8717.91
279.396	8742.17
279.464	8734.96
279.532	8741.55
279.601	8737.89
279.669	8734.18
279.737	8751.13
279.806	8751.99
279.874	8766.53
279.942	8763.3
280.011	8756.33
280.079	8767.01
280.147	8783.18
280.215	8793.58
280.284	8789.3
280.352	8774.28
280.42	8781.02
280.488	8774.13
280.557	8761.33
280.625	8752.43
280.693	8750.69
280.761	8752.72
280.83	8734.47
280.898	8747.56
280.966	8727.93
281.034	8693.94
281.102	8681.67
281.171	8669.45
281.239	8679.32
281.307	8661.6
281.375	8649.57
281.443	8681.29
281.512	8676.48
281.58	8684.32
281.648	8661.37
281.716	8659.25
281.784	8656.65
281.852	8644.42
281.92	8636.19
281.989	8647.7
282.057	8635.38
282.125	8679.91
282.193	8673.99
282.261	8672.06
282.329	8667.54
282.397	8671.58
282.465	8676.3
282.533	8689.58
282.601	8680.34
282.67	8654.11
282.738	8653.63
282.806	8663.83
282.874	8643.66
282.942	8640.68
283.01	8627.68
283.078	8634.75
283.146	8628.74
283.214	8641.44
283.282	8645.34
283.35	8662.67
283.418	8655.06
283.486	8660.65
283.554	8618.43
283.622	8624.15
283.69	8622.18
283.758	8613.47
283.826	8616.98
283.894	8622.95
283.962	8637.97
284.03	8656.45
284.098	8658.28
284.165	8654.24
284.233	8652.36
284.301	8648.17
284.369	8642.01
284.437	8637.25
284.505	8636.04
284.573	8646.78
284.641	8636.24
284.709	8646.87
284.777	8629.59
284.845	8637.92
284.912	8640.09
284.98	8641.14
285.048	8628.87
285.116	8634.26
285.184	8651.25
285.252	8653.85
285.319	8639.27
285.387	8631.38
285.455	8610.15
285.523	8621.56
285.591	8619.25
285.659	8615.54
285.726	8632.48
285.794	8617.71
285.862	8610.59
285.93	8605.63
285.997	8607.65
286.065	8601.16
286.133	8586.57
286.201	8582.87
286.269	8565.49
286.336	8561.26
286.404	8562.46
286.472	8578.01
286.539	8552.79
286.607	8531.52
286.675	8535.37
286.743	8541.82
286.81	8538.11
286.878	8552.84
286.946	8541.67
287.013	8545.52
287.081	8550.43
287.149	8528.68
287.216	8547.3
287.284	8545.95
287.352	8545.66
287.419	8539.7
287.487	8555.67
287.555	8558.95
287.622	8555.67
287.69	8562.41
287.758	8573.96
287.825	8569.01
287.893	8557.55
287.96	8569.1
288.028	8581.61
288.096	8582.91
288.163	8589.41
288.231	8579.69
288.298	8575.59
288.366	8588.49
288.433	8575.65
288.501	8563.04
288.569	8569.49
288.636	8568.57
288.704	8587.05
288.771	8598.99
288.839	8592.92
288.906	8580.46
288.974	8593.31
289.041	8591.96
289.109	8585.13
289.176	8590.67
289.244	8589.37
289.311	8604.72
289.379	8611.89
289.446	8619.78
289.514	8611.99
289.581	8613.38
289.649	8612.37
289.716	8616.94
289.783	8608.52
289.851	8639.32
289.918	8642.64
289.986	8648.08
290.053	8650.48
290.121	8641.92
290.188	8642.35
290.255	8668.34
290.323	8670.65
290.39	8665.45
290.458	8673.05
290.525	8682.87
290.592	8676.33
290.66	8678.4
290.727	8665.45
290.794	8678.59
290.862	8675.94
290.929	8679.45
290.996	8677.48
291.064	8684.51
291.131	8693.17
291.198	8703.66
291.266	8697.21
291.333	8702.46
291.4	8707.08
291.468	8715.45
291.535	8712.71
291.602	8720.51
291.669	8713.67
291.737	8722.77
291.804	8723.64
291.871	8740.96
291.938	8751.55
292.006	8783.66
292.073	8800.22
292.14	8811.29
292.207	8804.31
292.275	8799.21
292.342	8809.08
292.409	8832.18
292.476	8861.98
292.543	8854.18
292.611	8861.07
292.678	8876.18
292.745	8905.11
292.812	8921.86
292.879	8923.98
292.946	8924.17
293.014	8929.9
293.081	8936.21
293.148	8940.83
293.215	8956.52
293.282	8949.16
293.349	8958.59
293.416	8933.03
293.484	8948.77
293.551	8962.83
293.618	8980.69
293.685	9010.15
293.752	9006.92
293.819	9003.36
293.886	8990.84
293.953	8997.58
294.02	9005.09
294.087	9010.63
294.154	9000.28
294.221	9012.32
294.288	9009.96
294.356	9034.22
294.423	9043.12
294.49	9036.77
294.557	9050.73
294.624	9038.55
294.691	9059.06
294.758	9062.86
294.825	9073.16
294.892	9061.47
294.959	9059.49
295.026	9068.49
295.093	9060.12
295.16	9061.8
295.226	9063.58
295.293	9088.19
295.36	9092.42
295.427	9107.4
295.494	9122.23
295.561	9130.51
295.628	9153.29
295.695	9179.29
295.762	9183.91
295.829	9194.36
295.896	9206.2
295.963	9214.82
296.03	9232.92
296.096	9234.61
296.163	9240.63
296.23	9250.83
296.297	9267.92
296.364	9266.38
296.431	9269.37
296.498	9269.37
296.564	9290.36
296.631	9292.19
296.698	9272.26
296.765	9295.27
296.832	9279.81
296.899	9266.67
296.965	9285.11
297.032	9261.37
297.099	9275.77
297.166	9279.47
297.233	9274.85
297.299	9272.11
297.366	9274.52
297.433	9271.53
297.5	9281.64
297.566	9276.54
297.633	9277.36
297.7	9276.49
297.767	9279.72
297.833	9289.3
297.9	9291.51
297.967	9279
298.033	9295.7
298.1	9329.94
298.167	9323.3
298.234	9335.09
298.3	9343.47
298.367	9333.21
298.434	9343.09
298.5	9328.4
298.567	9326.57
298.634	9322.09
298.7	9346.79
298.767	9348.96
298.834	9359.26
298.9	9359.41
298.967	9362.25
299.033	9378.72
299.1	9396.54
299.167	9413.87
299.233	9406.65
299.3	9422.83
299.366	9441.03
299.433	9454.85
299.5	9429.57
299.566	9432.7
299.633	9448.73
299.699	9463.85
299.766	9462.36
299.832	9473.1
299.899	9482.92
299.965	9496.26
300.032	9495.49
300.099	9498.62
300.165	9500.21
300.232	9498.82
300.298	9495.69
300.365	9509.94
300.431	9513.12
300.498	9509.36
300.564	9508.98
300.631	9521.55
300.697	9536.04
300.763	9534.69
300.83	9526.8
300.896	9541.05
300.963	9550.92
301.029	9554.34
301.096	9559.98
301.162	9577.07
301.229	9562.62
301.295	9555.54
301.361	9556.03
301.428	9558.87
301.494	9541.82
301.561	9548.66
301.627	9548.61
301.693	9553.23
301.76	9553.09
301.826	9541.34
301.892	9549.72
301.959	9561.66
302.025	9558.39
302.092	9548.9
302.158	9555.16
302.224	9566.04
302.291	9553.96
302.357	9551.69
302.423	9542.45
302.49	9529.25
302.556	9539.07
302.622	9543.7
302.688	9554.1
302.755	9565.95
302.821	9577.94
302.887	9591.37
302.954	9589.54
303.02	9602.74
303.086	9608.81
303.152	9609.82
303.219	9609.34
303.285	9604.18
303.351	9611.17
303.417	9612.27
303.483	9603.56
303.55	9603.32
303.616	9599.27
303.682	9600.09
303.748	9596.43
303.815	9611.99
303.881	9617.09
303.947	9599.95
304.013	9604.09
304.079	9596.38
304.145	9573.36
304.212	9571.1
304.278	9565.61
304.344	9565.85
304.41	9550.73
304.476	9540.62
304.542	9534.93
304.608	9542.73
304.674	9533.05
304.741	9524.29
304.807	9523.04
304.873	9531.13
304.939	9540.42
305.005	9522.17
305.071	9522.07
305.137	9516.2
305.203	9495.15
305.269	9494.14
305.335	9508.2
305.401	9500.35
305.467	9495.73
305.533	9505.22
305.599	9512.44
305.666	9520.68
305.732	9514.66
305.798	9531.56
305.864	9557.81
305.93	9564.02
305.996	9558
306.062	9559.78
306.128	9551.69
306.194	9542.93
306.259	9540.9
306.325	9532.23
306.391	9532.38
306.457	9541.1
306.523	9544.9
306.589	9570.09
306.655	9568.74
306.721	9557.42
306.787	9542.93
306.853	9555.74
306.919	9539.17
306.985	9532.48
307.051	9522.03
307.117	9518.9
307.183	9505.13
307.248	9479.22
307.314	9478.97
307.38	9487.64
307.446	9494.53
307.512	9492.03
307.578	9495.06
307.644	9491.78
307.709	9495.35
307.775	9497.71
307.841	9493.76
307.907	9498.38
307.973	9474.78
308.039	9467.17
308.104	9471.46
308.17	9475.84
308.236	9462.65
308.302	9472.66
308.368	9463.66
308.433	9460.19
308.499	9451.57
308.565	9447.48
308.631	9448.01
308.696	9429.56
308.762	9415.74
308.828	9404.62
308.894	9386.47
308.959	9367.25
309.025	9358.44
309.091	9354.54
309.156	9347.03
309.222	9352.47
309.288	9337.21
309.354	9318.04
309.419	9318.81
309.485	9296.13
309.551	9300.13
309.616	9284.96
309.682	9278.32
309.748	9268.93
309.813	9265.27
309.879	9259.68
309.945	9248.27
310.01	9242.78
310.076	9241.29
310.141	9232.24
310.207	9221.21
310.273	9226.75
310.338	9236.91
310.404	9218.76
310.469	9202.15
310.535	9192.23
310.601	9165.7
310.666	9171.43
310.732	9177.73
310.797	9164.68
310.863	9154.86
310.928	9147.3
310.994	9150.43
311.059	9149.95
311.125	9149.23
311.191	9159.87
311.256	9148.65
311.322	9149.76
311.387	9129.93
311.453	9541.51
311.518	9510.32
311.584	9509.79
311.649	9508.92
311.715	9493.18
311.78	9494.09
311.846	9481.62
311.911	9491.59
311.976	9490.48
312.042	9479.65
312.107	9466.79
312.173	9458.27
312.238	9450.76
312.304	9450.23
312.369	9439.93
312.434	9424.19
312.5	9419.81
312.565	9384.71
312.631	9386.11
312.696	9375.51
312.761	9375.32
312.827	8952.43
312.892	8998.74
312.958	8996.57
313.023	8995.18
313.088	8989.78
313.154	8983.09
313.219	8977.37
313.284	8960.27
313.35	8957.92
313.415	8944.34
313.48	8940.54
313.546	8942.08
313.611	8955.75
313.676	8944.15
313.741	8933.75
313.807	8945.45
313.872	8946.31
313.937	8952.72
314.003	8967.35
314.068	8971.15
314.133	8979.43
314.198	8972.74
314.264	8952.57
314.329	8933.46
314.394	8924.07
314.459	8924.7
314.525	8943.37
314.59	8940.53
314.655	8932.69
314.72	8937.31
314.785	8936.15
314.851	8929.46
314.916	8913.34
314.981	8897.6
315.046	8887.25
315.111	8882.15
315.176	8864.62
315.242	8861.64
315.307	8862.02
315.372	8837.43
315.437	8829.43
315.502	8818.84
315.567	8829.43
315.632	8813.6
315.698	8820.82
315.763	8814.61
315.828	8808.54
315.893	8794.68
315.958	8789
316.023	8777.74
316.088	8753.82
316.153	8732.93
316.218	8720.42
316.283	8705.5
316.348	8687.07
316.413	8685.82
316.479	8670.8
316.544	8637.36
316.609	8607.43
316.674	8572.25
316.739	8540.25
316.804	8504.64
316.869	8469.08
316.934	8425.82
316.999	8394.01
317.064	8341.38
317.129	8304.28
317.194	8270.79
317.259	8222.72
317.324	8170.82
317.389	8133.88
317.454	8097.36
317.518	8065.14
317.583	8037.96
317.648	8012.36
317.713	7977.54
317.778	7915.49
317.843	7883.12
317.908	7849.07
317.973	7816.99
318.038	7785.35
318.103	7752.13
318.168	7724.47
318.233	7695.48
318.297	7647.97
318.362	7611.81
318.427	7576.72
318.492	7546.19
318.557	7493.7
318.622	7473.6
318.687	7455.62
318.751	7413.52
318.816	7380.21
318.881	7346.66
318.946	7299.6
319.011	7252.26
319.075	7209.73
319.14	7175.57
319.205	7131.89
319.27	7098.49
319.335	7049.1
319.399	7012.44
319.464	6978.81
319.529	6927.21
319.594	6888.29
319.658	6862.93
319.723	6817.97
319.788	6789.44
319.853	6737.28
319.917	6711.78
319.982	6653.65
320.047	6614.08
320.112	6589.64
320.176	6542.34
320.241	6508.54
320.306	6475.36
320.37	6439.21
320.435	6409.3
320.5	6381.7
320.564	6343.01
320.629	6299.63
320.694	6266.89
320.758	6220.44
320.823	6179.84
320.888	6152.39
320.952	6099.71
321.017	6049.14
321.082	6015.07
321.146	5982.78
321.211	5950.54
321.275	5903.82
321.34	5858.17
321.405	5814.76
321.469	5766.51
321.534	5724.7
321.598	5673.97
321.663	5646
321.727	5611.96
321.792	5566.79
321.857	5521.77
321.921	5486.82
321.986	5442.64
322.05	5388.73
322.115	5351.88
322.179	5307.65
322.244	5247.67
322.308	5214.61
322.373	5170.64
322.437	5126.71
322.502	5094.17
322.566	5046.5
322.631	5010.34
322.695	4972.85
322.76	4930.48
322.824	4893.51
322.889	4851.24
322.953	4807.92
323.018	4735.29
323.082	4671.25
323.146	4618.95
323.211	4565.97
323.275	4520.55
323.34	4479.18
323.404	4443.64
323.468	4402.44
323.533	4359.35
323.597	4320.1
323.662	4270.5
323.726	4240.75
323.79	4196.8
323.855	4133.9
323.919	4087.25
323.983	4043.6
324.048	3980.11
324.112	4097.73
324.177	3971.18
324.241	3765.52
324.305	3562.19
324.37	3367.1
324.434	3176.73
324.498	3133.39
324.562	3084.12
324.627	3021.57
324.691	2965.65
324.755	2900.92
324.82	2822.21
324.884	2744.16
324.948	2667.91
325.012	2572.77
325.077	2443.73
