Data from 20250702_urea_0.5M_MAYP1162681_14-14-59-466.txt Node
Date: Wed Jul 02 14:14:59 BST 2025
User: adleo
Spectrometer: MAYP116268
Trigger mode: 0
Integration Time (sec): 1.000000E0
Scans to average: 1
Electric dark correction enabled: true
Nonlinearity correction enabled: true
Boxcar width: 10
XAxis mode: Wavelengths
Number of Pixels in Spectrum: 2068
>>>>>Begin Spectral Data<<<<<
179.565	1098.06
179.642	1148.7
179.718	1187.32
179.795	1223.42
179.871	1255.11
179.948	1272.3
180.024	1289.29
180.101	1310.7
180.177	1326.19
180.254	1346.71
180.33	1368.13
180.407	1414.32
180.483	1503.82
180.56	1585.82
180.636	1662.3
180.712	1652.22
180.789	1659.16
180.865	1670.8
180.942	1678.92
181.018	1691.18
181.095	1705.29
181.171	1709.66
181.248	1710.14
181.324	1725.44
181.4	1731.57
181.477	1739.13
181.553	1750.62
181.63	1774.29
181.706	1788.98
181.782	1794.77
181.859	1793.97
181.935	1799.48
182.011	1794.3
182.088	1809.04
182.164	1827.53
182.24	1843.16
182.317	1851.72
182.393	1852.53
182.469	1866.03
182.546	1878.19
182.622	1880.52
182.698	1876.91
182.775	1888.03
182.851	1904.72
182.927	1898.39
183.003	1893.07
183.08	1889.56
183.156	1898.68
183.232	1892.6
183.308	1882.95
183.385	1890.36
183.461	1908.9
183.537	1908.9
183.613	1922.59
183.69	1914.7
183.766	1904.05
183.842	1910.32
183.918	1915.08
183.995	1927.06
184.071	1927.72
184.147	1924.78
184.223	1915.94
184.299	1927.63
184.375	1918.89
184.452	1922.79
184.528	1973.77
184.604	1986.08
184.68	1996.82
184.756	2004.05
184.832	2009.19
184.908	2013.65
184.985	2013.84
185.061	1997.92
185.137	2007.33
185.213	1997.35
185.289	1997.06
185.365	1992.93
185.441	1990.84
185.517	2003.2
185.593	1998.3
185.669	1996.02
185.745	2006.58
185.822	2020.55
185.898	2012.85
185.974	2020.79
186.05	2013.75
186.126	1976.6
186.202	1967.33
186.278	1964.15
186.354	1953.5
186.43	1960.96
186.506	1959.44
186.582	1959.35
186.658	1965.72
186.734	1946.89
186.81	1949.27
186.886	1954.5
186.962	1964.72
187.038	1958.68
187.114	1950.21
187.19	1960.39
187.266	1952.26
187.341	1950.88
187.417	1947.27
187.493	1947.37
187.569	1950.79
187.645	1945.42
187.721	1935.05
187.797	1943.51
187.873	1942.94
187.949	1938.47
188.025	1931.15
188.101	1930.53
188.176	1935.81
188.252	1930.29
188.328	1938.99
188.404	1936.57
188.48	1935.57
188.556	1929.62
188.632	1931.24
188.707	1932.76
188.783	1927.2
188.859	1924.06
188.935	1913.17
189.011	1920.64
189.086	1914.55
189.162	1905.99
189.238	1903.33
189.314	1900.38
189.39	1895.2
189.465	1896.34
189.541	1910.65
189.617	1897.34
189.693	1896.49
189.768	1898.2
189.844	1922.31
189.92	1911.14
189.996	1920.84
190.071	1925.98
190.147	1925.36
190.223	1932.21
190.298	1927.55
190.374	1914.24
190.45	1925.07
190.526	1932.59
190.601	1926.45
190.677	1927.97
190.753	1952.52
190.828	1955.7
190.904	1969.3
190.98	1985.52
191.055	1992.75
191.131	1985.38
191.207	2004.87
191.282	2011.38
191.358	2000.64
191.433	1987.08
191.509	2000.01
191.585	1997.11
191.66	1998.06
191.736	2003.62
191.811	1999.06
191.887	2013.42
191.963	2035.82
192.038	2042.86
192.114	2043.95
192.189	2046.47
192.265	2040.53
192.34	2024.59
192.416	2024.3
192.491	2021.83
192.567	2021.45
192.642	2022.5
192.718	2023.64
192.793	2015.36
192.869	2012.37
192.944	2015.27
193.02	2020.83
193.095	2024.92
193.171	2033.05
193.246	2033
193.322	2031.58
193.397	2028.39
193.473	2015.41
193.548	1999.57
193.624	2005.47
193.699	2005.71
193.775	2019.4
193.85	2024.49
193.925	2029.39
194.001	2029.1
194.076	2021.88
194.152	2012.7
194.227	2007.42
194.302	2000.38
194.378	2000.33
194.453	1998.43
194.529	2009.23
194.604	1995.2
194.679	1989.35
194.755	1970.57
194.83	1982.8
194.905	1978.38
194.981	1989.03
195.056	1981.23
195.131	1987.17
195.207	1981.89
195.282	1970.82
195.357	1953.69
195.433	1966.63
195.508	1956.26
195.583	1961.63
195.659	1975.47
195.734	1983.84
195.809	1981.56
195.884	1987.31
195.96	1988.88
196.035	2002.58
196.11	1998.96
196.185	2009.57
196.261	2013.08
196.336	2041.05
196.411	2027.77
196.486	2035
196.561	2030.67
196.637	2040.13
196.712	2056.5
196.787	2060.78
196.862	2075.33
196.937	2086.41
197.013	2094.59
197.088	2104.58
197.163	2125.23
197.238	2139.89
197.313	2138.66
197.388	2151.97
197.464	2180.81
197.539	2190.66
197.614	2186.71
197.689	2201.84
197.764	2218.73
197.839	2237.76
197.914	2232.29
197.989	2254.04
198.065	2269.98
198.14	2312.3
198.215	2336.53
198.29	2345.38
198.365	2358.66
198.44	2368.84
198.515	2393.6
198.59	2404.64
198.665	2429.68
198.74	2437.78
198.815	2440.3
198.89	2462.48
198.965	2491.44
199.04	2487.82
199.115	2500.19
199.19	2537.42
199.265	2539.33
199.34	2550.71
199.415	2584.59
199.49	2604.39
199.565	2609.63
199.64	2630.59
199.715	2631.4
199.79	2637.83
199.865	2647.02
199.94	2644.64
200.015	2674.6
200.09	2683.18
200.165	2692.37
200.24	2698.9
200.315	2737.52
200.39	2751.24
200.464	2755.01
200.539	2756.1
200.614	2771.25
200.689	2791.4
200.764	2799.36
200.839	2816.98
200.914	2819.41
200.989	2807.73
201.063	2822.27
201.138	2806.79
201.213	2804.22
201.288	2786.21
201.363	2792.79
201.438	2793.12
201.512	2806.31
201.587	2790.92
201.662	2792.54
201.737	2800.97
201.812	2806.74
201.886	2779.36
201.961	2789.57
202.036	2777.9
202.111	2775.47
202.186	2747.52
202.26	2731.89
202.335	2709.92
202.41	2699.11
202.485	2683.35
202.559	2663.53
202.634	2636.66
202.709	2648.14
202.784	2631.8
202.858	2631.51
202.933	2610.99
203.008	2605.22
203.082	2588.74
203.157	2587.84
203.232	2548.13
203.306	2528.03
203.381	2496.93
203.456	2469.31
203.53	2443.72
203.605	2428.58
203.68	2406.24
203.754	2400.96
203.829	2389.39
203.904	2372.78
203.978	2364.12
204.053	2367.78
204.127	2356.31
204.202	2357.98
204.277	2339.32
204.351	2331.28
204.426	2322.99
204.5	2317.66
204.575	2283.4
204.65	2294.07
204.724	2287.3
204.799	2295.53
204.873	2292.77
204.948	2293.87
205.022	2284.54
205.097	2278.49
205.171	2289.96
205.246	2300.15
205.32	2298.87
205.395	2300.1
205.469	2290.5
205.544	2298.07
205.618	2283.55
205.693	2298.59
205.767	2286.6
205.842	2307.73
205.916	2304.83
205.991	2295.64
206.065	2298.6
206.14	2312.77
206.214	2307.91
206.289	2300.48
206.363	2312.91
206.438	2316.86
206.512	2324.9
206.586	2343.08
206.661	2352.46
206.735	2335.1
206.81	2335.38
206.884	2353.18
206.958	2339.81
207.033	2357.89
207.107	2362.74
207.181	2397.03
207.256	2391.08
207.33	2410.93
207.405	2430.18
207.479	2452.41
207.553	2464.36
207.628	2456.51
207.702	2472.36
207.776	2473.93
207.851	2486.69
207.925	2508.36
207.999	2512.41
208.073	2522.13
208.148	2539.08
208.222	2543.13
208.296	2588.22
208.371	2620.73
208.445	2647.65
208.519	2694.42
208.593	2728.2
208.668	2749.6
208.742	2775.17
208.816	2806.42
208.89	2849.05
208.965	2874
209.039	2914.39
209.113	2968.89
209.187	3029.03
209.261	3070.08
209.336	3131.6
209.41	3196.92
209.484	3249.33
209.558	3323.39
209.632	3389.48
209.707	3456.12
209.781	3534.65
209.855	3610.31
209.929	3693.35
210.003	3772.27
210.077	3846.99
210.151	3968.8
210.226	4085.05
210.3	4195
210.374	4303.47
210.448	4398
210.522	4503.42
210.596	4612.54
210.67	4720.51
210.744	4865.45
210.818	5001.26
210.892	5138.61
210.966	5249.31
211.041	5388.78
211.115	5510.99
211.189	5664.12
211.263	5810.46
211.337	5956.02
211.411	6115.81
211.485	6253.44
211.559	6411.09
211.633	6566.34
211.707	6689.36
211.781	6852.59
211.855	6981.64
211.929	7141.75
212.003	7287.01
212.077	7461.26
212.151	7640.97
212.225	7817.75
212.299	7984.67
212.373	8149.82
212.447	8318.85
212.52	8529.48
212.594	8710.05
212.668	8906.59
212.742	9079.07
212.816	9261.33
212.89	9443.07
212.964	9623.52
213.038	9818
213.112	10019
213.186	10225.81
213.26	10400.18
213.333	10551.17
213.407	10752.01
213.481	10941.16
213.555	11147.84
213.629	11328.07
213.703	11510.28
213.777	11712.21
213.85	11888.37
213.924	12121.02
213.998	12314.82
214.072	12504.64
214.146	12689.11
214.219	12879.8
214.293	13068.37
214.367	13259.35
214.441	13464.31
214.515	13648.31
214.588	13818.57
214.662	13970.12
214.736	14134.7
214.81	14332.67
214.883	14526.11
214.957	14690.1
215.031	14859.25
215.105	15017.36
215.178	15186.22
215.252	15347.4
215.326	15493.5
215.4	15650.69
215.473	15776.87
215.547	15931.5
215.621	16080.09
215.694	16239.14
215.768	16372.17
215.842	16519.22
215.915	16673.83
215.989	16797.55
216.063	16940.97
216.136	17080.02
216.21	17230.67
216.284	17395.74
216.357	17532.36
216.431	17674.68
216.504	17821.62
216.578	17988.51
216.652	18137.86
216.725	18279.78
216.799	18431.73
216.873	18563.43
216.946	18691.86
217.02	18803.9
217.093	18924.33
217.167	19032.23
217.24	19147.94
217.314	19267.59
217.387	19373.61
217.461	19474.18
217.535	19609.99
217.608	19706.46
217.682	19818.85
217.755	19940.29
217.829	20037.97
217.902	20143.23
217.976	20231.8
218.049	20327.61
218.123	20407.75
218.196	20507.61
218.27	20601.69
218.343	20677.06
218.417	20777.16
218.49	20878.04
218.563	20991.68
218.637	21085.91
218.71	21186.25
218.784	21282.41
218.857	21392.98
218.931	21487.2
219.004	21580.62
219.077	21657.21
219.151	21751.54
219.224	21829.24
219.298	21901.3
219.371	21985.04
219.444	22045.67
219.518	22129.55
219.591	22201.9
219.665	22289.79
219.738	22366
219.811	22417.53
219.885	22497.47
219.958	22566.16
220.031	22619.15
220.105	22679.46
220.178	22741.56
220.251	22802.35
220.325	22862.48
220.398	22910.79
220.471	22969.76
220.544	23032.15
220.618	23086.35
220.691	23135.05
220.764	23188.28
220.838	23239.78
220.911	23271.89
220.984	23337.81
221.057	23373.54
221.131	23415.49
221.204	23431.4
221.277	23485.46
221.35	23546.56
221.424	23575.69
221.497	23610.99
221.57	23655.69
221.643	23705.51
221.716	23746.02
221.79	23767
221.863	23785.47
221.936	23816.34
222.009	23849.52
222.082	23874.21
222.155	23886.03
222.229	23935.61
222.302	23966.14
222.375	23984.47
222.448	24012.69
222.521	24039.31
222.594	24064.05
222.667	24081.51
222.74	24115.03
222.814	24131.63
222.887	24153.57
222.96	24179.57
223.033	24200.12
223.106	24214.73
223.179	24226.5
223.252	24236.78
223.325	24252.31
223.398	24262.68
223.471	24269.72
223.544	24266.15
223.617	24276.19
223.69	24289.07
223.763	24280.91
223.837	24292.3
223.91	24304.16
223.983	24297.51
224.056	24290.18
224.129	24303.83
224.202	24318.87
224.275	24323.99
224.348	24303.68
224.42	24288.97
224.493	24275.94
224.566	24277.2
224.639	24276.62
224.712	24265.04
224.785	24258.29
224.858	24252.26
224.931	24245.6
225.004	24235.09
225.077	24234.65
225.15	24200.41
225.223	24206.15
225.296	24218.5
225.369	24181.89
225.442	24166.65
225.514	24165.29
225.587	24154.39
225.66	24152.66
225.733	24147.54
225.806	24141.61
225.879	24133.17
225.952	24108.62
226.025	24100.52
226.097	24110.31
226.17	24106.6
226.243	24079.88
226.316	24066.52
226.389	24064.97
226.461	24060.15
226.534	24059.23
226.607	24047.27
226.68	24063.24
226.753	24038.35
226.825	23991.61
226.898	23995.17
226.971	23978.39
227.044	23968.55
227.117	23957.51
227.189	23946.22
227.262	23939.81
227.335	23931.27
227.407	23918.25
227.48	23915.06
227.553	23901.85
227.626	23865.96
227.698	23849.61
227.771	23831.38
227.844	23808.96
227.916	23789.71
227.989	23768.78
228.062	23743.32
228.134	23747.66
228.207	23725.57
228.28	23704.73
228.352	23695.47
228.425	23687.57
228.498	23686.12
228.57	23655.5
228.643	23655.35
228.716	23628.49
228.788	23594.3
228.861	23561.02
228.934	23553.25
229.006	23532.37
229.079	23514.1
229.151	23484.2
229.224	23442.54
229.296	23437.96
229.369	23450.49
229.442	23445.19
229.514	23411.92
229.587	23401.5
229.659	23357.43
229.732	23339.54
229.804	23331.58
229.877	23334.09
229.949	23317.11
230.022	23312.63
230.094	23297.05
230.167	23272.94
230.239	23244.98
230.312	23223.76
230.384	23213.39
230.457	23194.3
230.529	23188.66
230.602	23177.08
230.674	23165.75
230.747	23156.93
230.819	23140.82
230.892	23077.37
230.964	23050.9
231.037	23039.32
231.109	23007.07
231.181	22995.5
231.254	22957.17
231.326	22928.67
231.399	22899.02
231.471	22874.81
231.544	22826.45
231.616	22812.32
231.688	22791.35
231.761	22768.74
231.833	22746.13
231.905	22713.44
231.978	22695.69
232.05	22657.75
232.122	22636.54
232.195	22603.75
232.267	22595.46
232.339	22564.41
232.412	22552.99
232.484	22519.09
232.556	22481.98
232.629	22483.81
232.701	22473.68
232.773	22452.04
232.846	22417.62
232.918	22389.51
232.99	22358.75
233.062	22336.05
233.135	22318.98
233.207	22276.32
233.279	22248.55
233.351	22229.94
233.424	22202.42
233.496	22143.75
233.568	22134.59
233.64	22084.27
233.713	22058.72
233.785	22018.8
233.857	21984.87
233.929	21947.17
234.001	21932.81
234.074	21920.28
234.146	21868.46
234.218	21836.4
234.29	21803.19
234.362	21775.71
234.434	21735.37
234.507	21697.1
234.579	21659.07
234.651	21613.32
234.723	21588.4
234.795	21562.86
234.867	21514.56
234.939	21481.06
235.012	21469.4
235.084	21435.61
235.156	21414.01
235.228	21381.58
235.3	21354.2
235.372	21335.98
235.444	21311.35
235.516	21259.35
235.588	21231.2
235.66	21198.76
235.732	21145.21
235.804	21165.89
235.876	21136.73
235.948	21112.44
236.02	21077.4
236.092	21026.94
236.164	20990.84
236.236	20948.67
236.308	20905.64
236.38	20883.27
236.452	20854.98
236.524	20821.68
236.596	20800.71
236.668	20771.7
236.74	20735.46
236.812	20706.93
236.884	20663.84
236.956	20626.97
237.028	20581.43
237.1	20534.01
237.172	20518.39
237.244	20504.03
237.316	20434.73
237.388	20390.58
237.46	20335.02
237.532	20307.02
237.604	20276.27
237.675	20252.56
237.747	20236.66
237.819	20189.96
237.891	20145.48
237.963	20091.55
238.035	20043.56
238.107	19963.27
238.178	19937.82
238.25	19890.16
238.322	19857.78
238.394	19805.88
238.466	19768.14
238.538	19735.86
238.609	19697.4
238.681	19635.28
238.753	19587.23
238.825	19549.16
238.897	19519.58
238.968	19505.79
239.04	19463.77
239.112	19456.11
239.184	19412.88
239.255	19356.26
239.327	19327.44
239.399	19300.07
239.471	19275.2
239.542	19246.96
239.614	19235.16
239.686	19168.32
239.758	19143.36
239.829	19102.97
239.901	19089.87
239.973	19056.95
240.044	19032.33
240.116	19000.52
240.188	18968.91
240.259	18935.66
240.331	18895.18
240.403	18860.82
240.474	18807.47
240.546	18767.14
240.618	18710.23
240.689	18661.55
240.761	18624.16
240.833	18603.39
240.904	18565.95
240.976	18527.25
241.048	18497.9
241.119	18475.2
241.191	18447.78
241.262	18431.35
241.334	18385.86
241.405	18342.49
241.477	18298.78
241.549	18261
241.62	18224.71
241.692	18186.64
241.763	18155.61
241.835	18113.2
241.906	18075.27
241.978	18028
242.049	18003.32
242.121	17971.85
242.192	17956.19
242.264	17915.28
242.335	17863.47
242.407	17831.18
242.478	17788.58
242.55	17741.74
242.621	17683.96
242.693	17644.2
242.764	17600.97
242.836	17561.36
242.907	17535.38
242.979	17507.81
243.05	17461.98
243.122	17428.78
243.193	17391.04
243.264	17330.9
243.336	17292.54
243.407	17269.98
243.479	17246.13
243.55	17204.01
243.622	17176.29
243.693	17130.85
243.764	17115.18
243.836	17068.53
243.907	17021.21
243.978	16987.47
244.05	16959.27
244.121	16914.41
244.192	16891.18
244.264	16840.28
244.335	16808.14
244.407	16749
244.478	16723.65
244.549	16693.38
244.62	16647.11
244.692	16608.75
244.763	16596.22
244.834	16560.89
244.906	16517.13
244.977	16497.51
245.048	16487.25
245.119	16441.27
245.191	16398.76
245.262	16338.27
245.333	16331.96
245.405	16309.55
245.476	16274.02
245.547	16239.85
245.618	16210.84
245.689	16173.39
245.761	16139.02
245.832	16105.76
245.903	16083.21
245.974	16046.67
246.045	16013.42
246.117	15998.52
246.188	15958.95
246.259	15909.5
246.33	15873.3
246.401	15833.87
246.473	15781.72
246.544	15731.35
246.615	15708.8
246.686	15673.66
246.757	15661.22
246.828	15613.31
246.899	15590.27
246.97	15551.52
247.042	15508.76
247.113	15486.54
247.184	15478.2
247.255	15444.41
247.326	15403.3
247.397	15370.04
247.468	15332.2
247.539	15292.05
247.61	15251.12
247.681	15227.12
247.752	15201.62
247.823	15168.5
247.894	15143.83
247.965	15098.42
248.037	15065.45
248.108	15017.77
248.179	14988.03
248.25	14944.07
248.321	14916.93
248.392	14869.84
248.463	14857.93
248.534	14831.27
248.605	14810.84
248.675	14772.52
248.746	14754.63
248.817	14737.62
248.888	14709.13
248.959	14666.27
249.03	14648.97
249.101	14622.12
249.172	14585.05
249.243	14542.82
249.314	14530.48
249.385	14502.23
249.456	14491.05
249.527	14461.98
249.598	14444.77
249.669	14423.13
249.739	14400.76
249.81	14377.14
249.881	14345.95
249.952	14316.88
250.023	14290.47
250.094	14243.9
250.165	14207.5
250.235	14171.3
250.306	14142.81
250.377	14103.91
250.448	14084
250.519	14038.35
250.59	14015.5
250.66	13993.52
250.731	13989.66
250.802	13955
250.873	13932.78
250.944	13904.96
251.014	13870.83
251.085	13864.71
251.156	13840.46
251.227	13834.05
251.297	13823.69
251.368	13808.41
251.439	13789.32
251.51	13777.17
251.58	13746.8
251.651	13719.51
251.722	13707.94
251.792	13674.1
251.863	13655.54
251.934	13646.82
252.005	13651.83
252.075	13630.23
252.146	13613.84
252.217	13592.34
252.287	13580.24
252.358	13546.93
252.429	13540.23
252.499	13515.45
252.57	13502.25
252.641	13481.61
252.711	13453.99
252.782	13416.34
252.852	13404.82
252.923	13383.71
252.994	13359.17
253.064	13348.52
253.135	13311.73
253.205	13283.73
253.276	13277.94
253.347	13267.24
253.417	13239.47
253.488	13211.85
253.558	13181.91
253.629	13155.35
253.699	13136.46
253.77	13113.94
253.841	13098.18
253.911	13076.2
253.982	13058.31
254.052	13036.48
254.123	13020.28
254.193	13001.81
254.264	13011.84
254.334	12980.56
254.405	12946.19
254.475	12913.21
254.546	12890.22
254.616	12880.43
254.687	12865.01
254.757	12840.57
254.827	12819.07
254.898	12793.33
254.968	12770.57
255.039	12749.36
255.109	12735.19
255.18	12704.58
255.25	12659.94
255.321	12636.61
255.391	12600.7
255.461	12590.58
255.532	12541.5
255.602	12513.64
255.673	12467.46
255.743	12429.52
255.813	12383.92
255.884	12372.79
255.954	12355.96
256.024	12350.95
256.095	12330.95
256.165	12295.18
256.235	12281.01
256.306	12249.24
256.376	12240.08
256.446	12226.3
256.517	12209.52
256.587	12200.89
256.657	12179.01
256.728	12162.57
256.798	12144.88
256.868	12122.71
256.938	12096.44
257.009	12088.05
257.079	12076.72
257.149	12084.53
257.219	12050.98
257.29	12044
257.36	12003.75
257.43	11999.99
257.5	11959.07
257.571	11939.3
257.641	11922.53
257.711	11895.06
257.781	11884.89
257.852	11874.04
257.922	11831.24
257.992	11816.49
258.062	11794.22
258.132	11786.65
258.202	11771.71
258.273	11751.8
258.343	11749.97
258.413	11728.09
258.483	11706.02
258.553	11674.69
258.623	11648.22
258.693	11627.6
258.764	11625.19
258.834	11627.89
258.904	11604.17
258.974	11581.76
259.044	11558.87
259.114	11547.54
259.184	11528.7
259.254	11506.28
259.324	11464.35
259.394	11457.94
259.464	11452.88
259.535	11428.74
259.605	11398.18
259.675	11375.48
259.745	11366.76
259.815	11337.02
259.885	11310.27
259.955	11317.65
260.025	11296.39
260.095	11273.5
260.165	11268.2
260.235	11256.68
260.305	11225.45
260.375	11196.59
260.445	11205.36
260.515	11210.03
260.585	11200.39
260.655	11179.24
260.725	11174.08
260.795	11164.59
260.865	11165.12
260.934	11137.65
261.004	11128.49
261.074	11113.07
261.144	11109.6
261.214	11095.53
261.284	11080.97
261.354	11074.71
261.424	11049.55
261.494	11045.26
261.564	11028.06
261.634	11013.17
261.703	10974.37
261.773	10968.88
261.843	10963.24
261.913	10937.61
261.983	10897.27
262.053	10888.69
262.123	10874.33
262.192	10841.95
262.262	10832.36
262.332	10800.41
262.402	10786.49
262.472	10772.22
262.541	10735.51
262.611	10729.01
262.681	10707.85
262.751	10697.15
262.821	10679.57
262.89	10647.91
262.96	10640.97
263.03	10644.58
263.1	10633.69
263.169	10625.41
263.239	10611.72
263.309	10612.54
263.379	10600.4
263.448	10584.69
263.518	10575.78
263.588	10560.94
263.657	10566.62
263.727	10566.24
263.797	10553.33
263.867	10536.12
263.936	10508.13
264.006	10513.24
264.076	10495.46
264.145	10470.89
264.215	10446.89
264.285	10448.63
264.354	10420.16
264.424	10397.61
264.494	10367.06
264.563	10345.67
264.633	10355.4
264.702	10344.71
264.772	10310.59
264.842	10294.07
264.911	10288.24
264.981	10255.91
265.05	10244.88
265.12	10225.03
265.19	10207.59
265.259	10201.9
265.329	10194.92
265.398	10190.72
265.468	10207.1
265.537	10184.22
265.607	10175.84
265.676	10172.71
265.746	10154.6
265.815	10150.89
265.885	10134.89
265.955	10113.8
266.024	10098.09
266.094	10064.18
266.163	10066.15
266.232	10061.24
266.302	10047.8
266.371	10039.32
266.441	10024.92
266.51	10023.42
266.58	10002.81
266.649	9981.95
266.719	9975.35
266.788	9964.9
266.858	9958.39
266.927	9917.88
266.996	9912.44
267.066	9911.33
267.135	9886.33
267.205	9882.33
267.274	9876.12
267.343	9878.96
267.413	9865.28
267.482	9864.95
267.552	9863.31
267.621	9834.7
267.69	9800.69
267.76	9784.8
267.829	9768.81
267.898	9754.51
267.968	9722
268.037	9721.27
268.106	9712.65
268.176	9685.82
268.245	9670.7
268.314	9654.47
268.384	9653.65
268.453	9640.74
268.522	9634.67
268.592	9638.72
268.661	9617.67
268.73	9610.45
268.799	9583.24
268.869	9591.57
268.938	9567.39
269.007	9550
269.076	9538.69
269.146	9549.23
269.215	9546.58
269.284	9553.9
269.353	9541.14
269.422	9533.68
269.492	9513.26
269.561	9480.95
269.63	9479.94
269.699	9460.05
269.768	9452.3
269.838	9439.73
269.907	9442.62
269.976	9414.01
270.045	9378.72
270.114	9374
270.183	9358.16
270.253	9354.88
270.322	9324.02
270.391	9305.96
270.46	9306.35
270.529	9303.75
270.598	9299.17
270.667	9284.92
270.736	9265.42
270.806	9257.66
270.875	9258.43
270.944	9241.58
271.013	9258.39
271.082	9246.16
271.151	9246.78
271.22	9214.48
271.289	9204.08
271.358	9185.64
271.427	9177.74
271.496	9170.71
271.565	9158.68
271.634	9144.91
271.703	9161.9
271.772	9164.36
271.841	9160.94
271.91	9133.6
271.979	9117.22
272.048	9096.57
272.117	9093.78
272.186	9081.16
272.255	9084.1
272.324	9079.48
272.393	9084
272.462	9069.27
272.531	9064.98
272.6	9049.96
272.669	9062.09
272.738	9048.42
272.807	9041.92
272.876	9025.65
272.945	9051.41
273.013	9043.03
273.082	9051.02
273.151	9010.67
273.22	9007.74
273.289	8999.89
273.358	9016.93
273.427	9016.11
273.496	9012.99
273.564	9007.69
273.633	9006.15
273.702	8990.46
273.771	8983.14
273.84	8975.24
273.909	8973.8
273.977	8964.6
274.046	8953.2
274.115	8952.14
274.184	8932.5
274.253	8920.42
274.322	8929.13
274.39	8894.13
274.459	8882.73
274.528	8848.94
274.597	8841.81
274.665	8841.28
274.734	8842.82
274.803	8822.94
274.872	8811.63
274.94	8795.02
275.009	8847.42
275.078	8825.66
275.147	8818.68
275.215	8814.88
275.284	8820.61
275.353	8804.63
275.421	8785.18
275.49	8798.18
275.559	8787.16
275.627	8790.28
275.696	8777.53
275.765	8775.75
275.833	8774.83
275.902	8776.86
275.971	8788.84
276.039	8804.92
276.108	8805.35
276.177	8800.54
276.245	8790.19
276.314	8790.38
276.383	8798.8
276.451	8739.57
276.52	8750.54
276.588	8761.13
276.657	8761.66
276.725	8751.84
276.794	8753.67
276.863	8770.09
276.931	8750.3
277	8756.17
277.068	8761.85
277.137	8784.14
277.205	8779.04
277.274	8792.71
277.342	8802.04
277.411	8791.65
277.48	8781.3
277.548	8770.47
277.617	8773.69
277.685	8773.45
277.754	8765.75
277.822	8754.2
277.89	8767.68
277.959	8763.49
278.027	8744.05
278.096	8728.31
278.164	8750.41
278.233	8745.4
278.301	8731.06
278.37	8733.95
278.438	8723.26
278.507	8724.46
278.575	8700.78
278.643	8692.89
278.712	8675.8
278.78	8662.18
278.849	8668.05
278.917	8673.49
278.985	8673.69
279.054	8677.78
279.122	8682.45
279.191	8686.05
279.259	8686.58
279.327	8662.28
279.396	8672.96
279.464	8672.48
279.532	8685.62
279.601	8683.02
279.669	8674.36
279.737	8683.07
279.806	8689.23
279.874	8695.39
279.942	8691.92
280.011	8686.68
280.079	8694.67
280.147	8716.66
280.215	8717
280.284	8711.08
280.352	8696.21
280.42	8693.85
280.488	8680.85
280.557	8677
280.625	8684.37
280.693	8682.11
280.761	8682.3
280.83	8661.56
280.898	8668.73
280.966	8648.9
281.034	8613.47
281.102	8597.69
281.171	8589.46
281.239	8598.32
281.307	8589.27
281.375	8581.47
281.443	8602.99
281.512	8601.45
281.58	8597.21
281.648	8583.74
281.716	8580.08
281.784	8580.56
281.852	8576.52
281.92	8579.36
281.989	8592.79
282.057	8572.43
282.125	8612.53
282.193	8613.44
282.261	8617.29
282.329	8618.78
282.397	8622.92
282.465	8629.9
282.533	8647.56
282.601	8638.03
282.67	8617
282.738	8608.53
282.806	8616.13
282.874	8608.33
282.942	8611.65
283.01	8601.55
283.078	8606.84
283.146	8602.8
283.214	8609.44
283.282	8611.8
283.35	8615.79
283.418	8606.45
283.486	8610.74
283.554	8567.7
283.622	8568.52
283.69	8566.4
283.758	8558.27
283.826	8564.33
283.894	8573.33
283.962	8594.85
284.03	8611.98
284.098	8607.31
284.165	8603.46
284.233	8598.7
284.301	8589.6
284.369	8580.46
284.437	8578.68
284.505	8576.08
284.573	8596
284.641	8582.48
284.709	8585.85
284.777	8572.42
284.845	8576.75
284.912	8579.16
284.98	8583.2
285.048	8571.84
285.116	8576.61
285.184	8593.02
285.252	8589.03
285.319	8574.01
285.387	8558.7
285.455	8543.31
285.523	8554.47
285.591	8554.9
285.659	8562.07
285.726	8574.87
285.794	8561.83
285.862	8554.18
285.93	8553.75
285.997	8549.23
286.065	8544.51
286.133	8533.73
286.201	8526.37
286.269	8510.1
286.336	8501.78
286.404	8496.92
286.472	8509.91
286.539	8486.72
286.607	8469.34
286.675	8471.56
286.743	8478.44
286.81	8476.66
286.878	8490.9
286.946	8482.14
287.013	8481.18
287.081	8473.19
287.149	8456.35
287.216	8472.13
287.284	8475.31
287.352	8481.52
287.419	8476.27
287.487	8491.14
287.555	8490.9
287.622	8492.34
287.69	8502.11
287.758	8516.55
287.825	8509.48
287.893	8498.12
287.96	8507.5
288.028	8520.54
288.096	8521.94
288.163	8524.34
288.231	8508.03
288.298	8501.05
288.366	8515.2
288.433	8516.36
288.501	8514.96
288.569	8516.21
288.636	8513.81
288.704	8518.33
288.771	8516.21
288.839	8512.27
288.906	8509.67
288.974	8529.55
289.041	8530.32
289.109	8519.54
289.176	8524.54
289.244	8534.26
289.311	8545.38
289.379	8549.76
289.446	8540.18
289.514	8533.39
289.581	8531.56
289.649	8541.19
289.716	8546.77
289.783	8530.5
289.851	8549.03
289.918	8544.7
289.986	8551.15
290.053	8555.82
290.121	8560.01
290.188	8570.16
290.255	8595.33
290.323	8588.55
290.39	8579.93
290.458	8584.89
290.525	8596.58
290.592	8588.49
290.66	8590.32
290.727	8586.38
290.794	8607.7
290.862	8614.77
290.929	8621.89
290.996	8621.03
291.064	8630.12
291.131	8642.54
291.198	8654.28
291.266	8652.5
291.333	8657.03
291.4	8667.23
291.468	8686.63
291.535	8679.41
291.602	8677.63
291.669	8670.41
291.737	8677.43
291.804	8676.33
291.871	8694.81
291.938	8703.28
292.006	8739.1
292.073	8754.64
292.14	8763.21
292.207	8749.2
292.275	8751.9
292.342	8763.11
292.409	8790.6
292.476	8815.25
292.543	8804.22
292.611	8808.8
292.678	8827.52
292.745	8853.56
292.812	8868.15
292.879	8861.26
292.946	8865.4
293.014	8873.2
293.081	8881.38
293.148	8893.7
293.215	8907.71
293.282	8899.72
293.349	8910.07
293.416	8878.49
293.484	8888.26
293.551	8899.62
293.618	8924.65
293.685	8949.35
293.752	8937.17
293.819	8932.79
293.886	8914.4
293.953	8920.03
294.02	8933.46
294.087	8932.21
294.154	8926.1
294.221	8933.51
294.288	8934.57
294.356	8953.63
294.423	8964.85
294.49	8957.63
294.557	8971.49
294.624	8966.63
294.691	8985.16
294.758	8985.6
294.825	8996.04
294.892	8982.85
294.959	8984.87
295.026	8986.22
295.093	8978.08
295.16	8983.57
295.226	8989.54
295.293	9015.59
295.36	9023.38
295.427	9032.72
295.494	9046.06
295.561	9054.58
295.628	9082.71
295.695	9091.23
295.762	9096.19
295.829	9110.34
295.896	9128.11
295.963	9133.88
296.03	9143.51
296.096	9150.16
296.163	9166.58
296.23	9179.62
296.297	9196.09
296.364	9196.71
296.431	9208.17
296.498	9200.23
296.564	9227.04
296.631	9222.42
296.698	9214.19
296.765	9228.58
296.832	9219.58
296.899	9205.18
296.965	9222.37
297.032	9191.6
297.099	9215.24
297.166	9222.03
297.233	9208.36
297.299	9197.72
297.366	9199.35
297.433	9203.21
297.5	9211.15
297.566	9207.11
297.633	9211.44
297.7	9215
297.767	9206
297.833	9203.83
297.9	9209.47
297.967	9193.96
298.033	9206.87
298.1	9230.51
298.167	9229.26
298.234	9235.61
298.3	9241.2
298.367	9236.05
298.434	9248.52
298.5	9236.48
298.567	9231.95
298.634	9234.22
298.7	9252.32
298.767	9256.07
298.834	9270.28
298.9	9266.48
298.967	9257.18
299.033	9262.29
299.1	9281.69
299.167	9301
299.233	9303.94
299.3	9319.15
299.366	9340.34
299.433	9358.06
299.5	9329.41
299.566	9332.44
299.633	9348.72
299.699	9361.33
299.766	9358.92
299.832	9365.14
299.899	9374.53
299.965	9389.02
300.032	9390.95
300.099	9398.12
300.165	9407.17
300.232	9401.64
300.298	9398.27
300.365	9416.18
300.431	9420.08
300.498	9409.2
300.564	9418.78
300.631	9426.19
300.697	9435.87
300.763	9434.57
300.83	9430.34
300.896	9444.39
300.963	9452.2
301.029	9455.18
301.096	9460.77
301.162	9469.58
301.229	9471.7
301.295	9462.6
301.361	9463.18
301.428	9470.49
301.494	9457.88
301.561	9453.83
301.627	9452.2
301.693	9461.01
301.76	9462.69
301.826	9460.77
301.892	9471.79
301.959	9483.79
302.025	9483.21
302.092	9481.28
302.158	9484.89
302.224	9484.85
302.291	9477.77
302.357	9471.84
302.423	9467.08
302.49	9457.59
302.556	9476.08
302.622	9466.26
302.688	9474.4
302.755	9487.4
302.821	9488.85
302.887	9498.33
302.954	9499.25
303.02	9507.19
303.086	9513.84
303.152	9510.13
303.219	9500.98
303.285	9499.39
303.351	9498.81
303.417	9498.38
303.483	9489.09
303.55	9480.23
303.616	9481.53
303.682	9480.13
303.748	9477.1
303.815	9494.05
303.881	9500.94
303.947	9485.86
304.013	9487.07
304.079	9482.73
304.145	9458.32
304.212	9455.09
304.278	9447
304.344	9439.44
304.41	9431.64
304.476	9423.55
304.542	9418.88
304.608	9428.99
304.674	9416.04
304.741	9406.93
304.807	9411.7
304.873	9414.2
304.939	9430.58
305.005	9420.32
305.071	9424.36
305.137	9424.7
305.203	9394.6
305.269	9396.43
305.335	9402.31
305.401	9404.52
305.467	9395.37
305.533	9406.59
305.599	9416.18
305.666	9421.38
305.732	9428.74
305.798	9442.23
305.864	9466.02
305.93	9467.99
305.996	9466.16
306.062	9462.26
306.128	9459.04
306.194	9442.52
306.259	9443.92
306.325	9438.14
306.391	9436.98
306.457	9439.34
306.523	9444.3
306.589	9470.35
306.655	9465.73
306.721	9447
306.787	9429.42
306.853	9449.22
306.919	9436.99
306.985	9430.34
307.051	9426.78
307.117	9412.76
307.183	9404.34
307.248	9373.32
307.314	9381.56
307.38	9380.55
307.446	9392.49
307.512	9382.86
307.578	9388.73
307.644	9380.93
307.709	9379.58
307.775	9372.6
307.841	9372.46
307.907	9372.46
307.973	9348.52
308.039	9346.98
308.104	9354.73
308.17	9357.24
308.236	9331.28
308.302	9333.74
308.368	9321.84
308.433	9324.88
308.499	9321.8
308.565	9304.51
308.631	9310
308.696	9281.16
308.762	9272.44
308.828	9263.77
308.894	9250.58
308.959	9233.25
309.025	9228.87
309.091	9226.08
309.156	9223.23
309.222	9224
309.288	9210.52
309.354	9196.75
309.419	9190.16
309.485	9169.45
309.551	9174.08
309.616	9170.66
309.682	9164.35
309.748	9154.58
309.813	9143.65
309.879	9138.64
309.945	9134.6
310.01	9129.06
310.076	9135.27
310.141	9128.58
310.207	9120.05
310.273	9123.04
310.338	9121.35
310.404	9106.14
310.469	9083.03
310.535	9071.96
310.601	9047.5
310.666	9051.79
310.732	9052.89
310.797	9039.03
310.863	9032.62
310.928	9021.31
310.994	9021.89
311.059	9022.27
311.125	9024.78
311.191	9031.95
311.256	9020.69
311.322	9024.59
311.387	8999.99
311.453	9315.46
311.518	9287.35
311.584	9282.97
311.649	9281.14
311.715	9265.02
311.78	9262.18
311.846	9258.9
311.911	9266.51
311.976	9270.99
312.042	9256.5
312.107	9248.26
312.173	9243.11
312.238	9237
312.304	9233.97
312.369	9224.63
312.434	9210.86
312.5	9200.7
312.565	9169.8
312.631	9176.3
312.696	9165.71
312.761	9166.76
312.827	8836.56
312.892	8872.71
312.958	8867.8
313.023	8868.18
313.088	8873.09
313.154	8864.62
313.219	8856.1
313.284	8848.45
313.35	8839.88
313.415	8823.13
313.48	8815.14
313.546	8821.59
313.611	8828.38
313.676	8818.37
313.741	8805.71
313.807	8809.37
313.872	8806.81
313.937	8811.15
314.003	8820.87
314.068	8816.01
314.133	8827.8
314.198	8822.03
314.264	8800.56
314.329	8795.74
314.394	8786.84
314.459	8784.48
314.525	8796.66
314.59	8790.88
314.655	8773.55
314.72	8780.34
314.785	8790.25
314.851	8790.35
314.916	8768.21
314.981	8760.6
315.046	8754.92
315.111	8748.52
315.176	8735.09
315.242	8743.61
315.307	8741.79
315.372	8715.84
315.437	8708.81
315.502	8693.84
315.567	8698.85
315.632	8687.68
315.698	8682.63
315.763	8683.06
315.828	8674.88
315.893	8669.73
315.958	8666.8
316.023	8661.45
316.088	8637.58
316.153	8613.18
316.218	8600.48
316.283	8583.06
316.348	8562.61
316.413	8557.56
316.479	8542.93
316.544	8515.5
316.609	8481.19
316.674	8444.72
316.739	8413.93
316.804	8385.11
316.869	8350.57
316.934	8312.65
316.999	8281.52
317.064	8232.98
317.129	8182.75
317.194	8143.74
317.259	8097.6
317.324	8049.69
317.389	8003.85
317.454	7968.79
317.518	7932.33
317.583	7908.67
317.648	7889.14
317.713	7856.53
317.778	7802.08
317.843	7768.76
317.908	7729.91
317.973	7690.43
318.038	7658.12
318.103	7619.08
318.168	7587.2
318.233	7555.47
318.297	7508.6
318.362	7474.22
318.427	7437.26
318.492	7413.61
318.557	7366.37
318.622	7336.18
318.687	7314.89
318.751	7274.33
318.816	7243.09
318.881	7212.19
318.946	7157.98
319.011	7105.5
319.075	7060.72
319.14	7025.26
319.205	6981.73
319.27	6951.75
319.335	6905.01
319.399	6869.46
319.464	6841.89
319.529	6789.64
319.594	6748.81
319.658	6716.68
319.723	6671.44
319.788	6644.83
319.853	6589.46
319.917	6560.61
319.982	6509.37
320.047	6463.13
320.112	6436.87
320.176	6382.48
320.241	6342.68
320.306	6308.02
320.37	6265.26
320.435	6233.3
320.5	6206.51
320.564	6164.14
320.629	6121.24
320.694	6089.19
320.758	6047.83
320.823	6002.15
320.888	5974.86
320.952	5928.23
321.017	5891.82
321.082	5851.96
321.146	5810.52
321.211	5781.02
321.275	5737.82
321.34	5692.9
321.405	5653.53
321.469	5608.36
321.534	5566.52
321.598	5521.65
321.663	5487.8
321.727	5458.75
321.792	5407.52
321.857	5359.34
321.921	5324.88
321.986	5277.69
322.05	5223.51
322.115	5186.76
322.179	5141.97
322.244	5085.45
322.308	5053.89
322.373	5005.61
322.437	4965.43
322.502	4935.96
322.566	4887.35
322.631	4855.18
322.695	4816.36
322.76	4770.41
322.824	4734.12
322.889	4695.74
322.953	4650.42
323.018	4590.74
323.082	4531.56
323.146	4484.11
323.211	4431.62
323.275	4386.6
323.34	4344.14
323.404	4310.81
323.468	4265.85
323.533	4225.87
323.597	4180.76
323.662	4127.35
323.726	4093.5
323.79	4048.61
323.855	3990.7
323.919	3944.96
323.983	3898.17
324.048	3834.89
324.112	4006.45
324.177	3875.09
324.241	3676.07
324.305	3480.59
324.37	3287.31
324.434	3101.43
324.498	3061.69
324.562	3015.29
324.627	2960.22
324.691	2908.11
324.755	2849.11
324.82	2777.83
324.884	2704.89
324.948	2642.65
325.012	2557.41
325.077	2441.53
