Data from 20250702_urea_0.5M_MAYP1162681_19-15-00-034.txt Node
Date: Wed Jul 02 19:15:00 BST 2025
User: adleo
Spectrometer: MAYP116268
Trigger mode: 0
Integration Time (sec): 1.000000E0
Scans to average: 1
Electric dark correction enabled: true
Nonlinearity correction enabled: true
Boxcar width: 10
XAxis mode: Wavelengths
Number of Pixels in Spectrum: 2068
>>>>>Begin Spectral Data<<<<<
179.565	1142.39
179.642	1196.43
179.718	1239.08
179.795	1277.42
179.871	1308.99
179.948	1325.58
180.024	1345.67
180.101	1370.9
180.177	1383.81
180.254	1406.61
180.33	1426
180.407	1473.61
180.483	1565.97
180.56	1650.73
180.636	1730.2
180.712	1718.03
180.789	1731
180.865	1745.68
180.942	1752.04
181.018	1763.59
181.095	1780.28
181.171	1787.22
181.248	1786.88
181.324	1802.71
181.4	1809.84
181.477	1820.3
181.553	1833.56
181.63	1853.71
181.706	1868.17
181.782	1878.29
181.859	1876.15
181.935	1884.52
182.011	1883.71
182.088	1898.3
182.164	1919.99
182.24	1934.15
182.317	1941.85
182.393	1938.48
182.469	1953.88
182.546	1968.72
182.622	1973.56
182.698	1966.24
182.775	1977.65
182.851	1994.53
182.927	1986.35
183.003	1982.03
183.08	1976.37
183.156	1987.5
183.232	1985.12
183.308	1971.38
183.385	1980.36
183.461	1996.39
183.537	1996.05
183.613	2005.28
183.69	1997.72
183.766	1984.97
183.842	1991.25
183.918	1997.62
183.995	2011.69
184.071	2014.26
184.147	2007.51
184.223	1998.33
184.299	2013.03
184.375	1999.62
184.452	2003.43
184.528	2055.23
184.604	2064.93
184.68	2077.15
184.756	2083.67
184.832	2088.75
184.908	2096.12
184.985	2096.08
185.061	2082.38
185.137	2093.61
185.213	2086.95
185.289	2087.9
185.365	2082.72
185.441	2082.19
185.517	2093.14
185.593	2087.62
185.669	2084.05
185.745	2096.89
185.822	2112.63
185.898	2102.98
185.974	2112.67
186.05	2105.06
186.126	2068.96
186.202	2062.21
186.278	2058.59
186.354	2048.79
186.43	2055.26
186.506	2052.08
186.582	2048.32
186.658	2054.22
186.734	2032.44
186.81	2032.96
186.886	2036.19
186.962	2047.99
187.038	2044.61
187.114	2038.33
187.19	2047.03
187.266	2039.09
187.341	2036.38
187.417	2027.39
187.493	2025.3
187.569	2028.68
187.645	2023.69
187.721	2011.56
187.797	2018.4
187.873	2022.21
187.949	2015.27
188.025	2006.13
188.101	2008.79
188.176	2015.26
188.252	2011.55
188.328	2019.35
188.404	2017.07
188.48	2011.79
188.556	2003.66
188.632	2004.08
188.707	2004.04
188.783	2000.28
188.859	1994.34
188.935	1984.11
189.011	1991.62
189.086	1987.44
189.162	1978.41
189.238	1975.98
189.314	1972.27
189.39	1966.38
189.465	1959
189.541	1977.08
189.617	1962.01
189.693	1957.63
189.768	1958.77
189.844	1981.99
189.92	1975
189.996	1984.18
190.071	1995.59
190.147	1995.59
190.223	2006.01
190.298	2000.49
190.374	1990.98
190.45	2003.58
190.526	2012.95
190.601	2006.77
190.677	2009.81
190.753	2038.74
190.828	2043.49
190.904	2061.61
190.98	2077.74
191.055	2089.06
191.131	2078.4
191.207	2101.23
191.282	2111.31
191.358	2102.46
191.433	2087.95
191.509	2098.65
191.585	2097.79
191.66	2099.46
191.736	2104.83
191.811	2094.22
191.887	2110.78
191.963	2132.04
192.038	2136.42
192.114	2139.04
192.189	2145.27
192.265	2140.56
192.34	2118
192.416	2116
192.491	2108.25
192.567	2109.53
192.642	2109.34
192.718	2110.25
192.793	2098.26
192.869	2091.94
192.944	2096.55
193.02	2105.97
193.095	2111.86
193.171	2117
193.246	2117.19
193.322	2118.57
193.397	2121.9
193.473	2105.49
193.548	2086.74
193.624	2092.59
193.699	2089.45
193.775	2103.78
193.85	2108.15
193.925	2117.52
194.001	2117.66
194.076	2113.15
194.152	2106.01
194.227	2098.02
194.302	2088.32
194.378	2091.7
194.453	2091.89
194.529	2104.73
194.604	2091.36
194.679	2085.27
194.755	2067.49
194.83	2078.15
194.905	2076.34
194.981	2081.91
195.056	2075.92
195.131	2082.86
195.207	2080.91
195.282	2068.55
195.357	2050.04
195.433	2063.02
195.508	2049.52
195.583	2055.41
195.659	2066.35
195.734	2072.16
195.809	2074.49
195.884	2084.24
195.96	2084.71
196.035	2098.17
196.11	2090.65
196.185	2098.31
196.261	2101.55
196.336	2132.32
196.411	2117
196.486	2120.71
196.561	2115.05
196.637	2122.09
196.712	2135.55
196.787	2138.22
196.862	2156.39
196.937	2167.9
197.013	2171.42
197.088	2182.45
197.163	2206.73
197.238	2223.73
197.313	2225.82
197.388	2237.71
197.464	2267.8
197.539	2278.93
197.614	2272.27
197.689	2284.55
197.764	2303.44
197.839	2323.86
197.914	2316.24
197.989	2338.99
198.065	2349.13
198.14	2398.95
198.215	2426.7
198.29	2439.32
198.365	2452.69
198.44	2463.36
198.515	2487.74
198.59	2503.4
198.665	2525.21
198.74	2529.21
198.815	2531.3
198.89	2549.35
198.965	2577.07
199.04	2571.74
199.115	2587.69
199.19	2631.5
199.265	2635.17
199.34	2645.03
199.415	2680.82
199.49	2702.73
199.565	2711.97
199.64	2739.22
199.715	2735.21
199.79	2742.26
199.865	2751.46
199.94	2750.93
200.015	2781.29
200.09	2787.96
200.165	2792.82
200.24	2802.21
200.315	2841.74
200.39	2855.66
200.464	2862.09
200.539	2865.9
200.614	2882.15
200.689	2903.08
200.764	2908.27
200.839	2927.28
200.914	2931.43
200.989	2917.93
201.063	2930.13
201.138	2912.46
201.213	2912.7
201.288	2892.5
201.363	2894.83
201.438	2894.54
201.512	2908.98
201.587	2891.53
201.662	2893.58
201.737	2905.54
201.812	2913.32
201.886	2881.07
201.961	2889.84
202.036	2876.55
202.111	2873.93
202.186	2844.97
202.26	2831.38
202.335	2808.65
202.41	2801.64
202.485	2783.54
202.559	2763.01
202.634	2738.09
202.709	2749.04
202.784	2729.07
202.858	2730.93
202.933	2714.35
203.008	2705.16
203.082	2686.53
203.157	2685.48
203.232	2646.15
203.306	2625.47
203.381	2596.84
203.456	2575.07
203.53	2553.09
203.605	2538.2
203.68	2515.42
203.754	2511.33
203.829	2495.33
203.904	2478.66
203.978	2466.94
204.053	2471.71
204.127	2460.33
204.202	2459.19
204.277	2440.67
204.351	2434.95
204.426	2426.81
204.5	2421.14
204.575	2389.83
204.65	2400.83
204.724	2390.35
204.799	2397.06
204.873	2394.72
204.948	2395.77
205.022	2383.35
205.097	2377.4
205.171	2389.63
205.246	2397.35
205.32	2393.02
205.395	2392.54
205.469	2381.98
205.544	2387.69
205.618	2370.41
205.693	2381.31
205.767	2367.66
205.842	2389.41
205.916	2380.61
205.991	2371.71
206.065	2376.04
206.14	2391.6
206.214	2383.07
206.289	2381.21
206.363	2394.3
206.438	2396.26
206.512	2403.4
206.586	2424.05
206.661	2430.44
206.735	2407.5
206.81	2410.07
206.884	2429.87
206.958	2417.55
207.033	2434.54
207.107	2442.54
207.181	2475.45
207.256	2474.49
207.33	2497.44
207.405	2516.12
207.479	2540.64
207.553	2552.88
207.628	2542.79
207.702	2556.5
207.776	2556.69
207.851	2565.74
207.925	2587.13
207.999	2594.09
208.073	2595.99
208.148	2607.81
208.222	2607.81
208.296	2651.9
208.371	2675.73
208.445	2693.5
208.519	2737.52
208.593	2766.11
208.668	2778.55
208.742	2794.47
208.816	2814.53
208.89	2849.24
208.965	2866.7
209.039	2894.55
209.113	2936.79
209.187	2983.25
209.261	3006.27
209.336	3058.77
209.41	3109.81
209.484	3146.13
209.558	3204.05
209.632	3255.28
209.707	3304.67
209.781	3367.42
209.855	3429.01
209.929	3496.04
210.003	3553.42
210.077	3602.08
210.151	3705.33
210.226	3799.91
210.3	3893.91
210.374	3975.93
210.448	4044.43
210.522	4120.89
210.596	4204.89
210.67	4286.91
210.744	4407.13
210.818	4521.75
210.892	4622.06
210.966	4699.39
211.041	4801.01
211.115	4886.51
211.189	5003.44
211.263	5118
211.337	5219.15
211.411	5334.8
211.485	5432.12
211.559	5557.93
211.633	5669.57
211.707	5753.54
211.781	5870.01
211.855	5947.68
211.929	6060.19
212.003	6162.69
212.077	6291.67
212.151	6426.62
212.225	6561.39
212.299	6678.04
212.373	6793.58
212.447	6922.34
212.52	7083.71
212.594	7220.96
212.668	7378.75
212.742	7503.48
212.816	7635.74
212.89	7779.35
212.964	7916.67
213.038	8062.22
213.112	8214.83
213.186	8372.7
213.26	8491.42
213.333	8594.74
213.407	8747.6
213.481	8899.71
213.555	9060.53
213.629	9201.11
213.703	9333.91
213.777	9472.2
213.85	9600.29
213.924	9787.64
213.998	9938.74
214.072	10085.66
214.146	10224.16
214.219	10366.86
214.293	10515.82
214.367	10667.78
214.441	10824.04
214.515	10957.51
214.588	11086.56
214.662	11199.76
214.736	11330.11
214.81	11485.13
214.883	11639.73
214.957	11780.26
215.031	11906.39
215.105	12021.91
215.178	12153.74
215.252	12289.66
215.326	12411.08
215.4	12532.94
215.473	12618.93
215.547	12734.53
215.621	12857.64
215.694	12994.74
215.768	13097.13
215.842	13210.26
215.915	13325.72
215.989	13427.05
216.063	13546.31
216.136	13665.62
216.21	13791.29
216.284	13918.36
216.357	14041.76
216.431	14152.73
216.504	14274.4
216.578	14420.32
216.652	14550.08
216.725	14660.86
216.799	14778.14
216.873	14895.42
216.946	15015.4
217.02	15119.57
217.093	15226.62
217.167	15303.46
217.24	15391.18
217.314	15486.14
217.387	15582.88
217.461	15677.02
217.535	15787.16
217.608	15876.95
217.682	15979.67
217.755	16089.75
217.829	16179.59
217.902	16272.23
217.976	16371.66
218.049	16464.49
218.123	16537.31
218.196	16645.99
218.27	16734.82
218.343	16805.52
218.417	16895.36
218.49	16979.46
218.563	17083.85
218.637	17170.84
218.71	17278.69
218.784	17375.27
218.857	17472.82
218.931	17555.9
219.004	17647.81
219.077	17730.75
219.151	17819.71
219.224	17891.08
219.298	17960.14
219.371	18042.5
219.444	18099.03
219.518	18169.63
219.591	18236.42
219.665	18328.85
219.738	18387.3
219.811	18447.64
219.885	18530.62
219.958	18604.93
220.031	18671.82
220.105	18737.02
220.178	18805.06
220.251	18854.65
220.325	18916.24
220.398	18983.85
220.471	19058.06
220.544	19125.38
220.618	19179.69
220.691	19237.23
220.764	19297.95
220.838	19353.8
220.911	19411.49
220.984	19501.5
221.057	19565.74
221.131	19620.97
221.204	19651.62
221.277	19719.37
221.35	19798.98
221.424	19851.03
221.497	19890.5
221.57	19945.15
221.643	19998.35
221.716	20054.45
221.79	20104.03
221.863	20147.5
221.936	20187.6
222.009	20222.63
222.082	20260.42
222.155	20305.09
222.229	20357.28
222.302	20403.98
222.375	20445.23
222.448	20490.29
222.521	20516.27
222.594	20551.21
222.667	20567.79
222.74	20620.9
222.814	20655.89
222.887	20685.86
222.96	20722.4
223.033	20775.94
223.106	20808.13
223.179	20853.2
223.252	20888.48
223.325	20931.37
223.398	20965.54
223.471	20999.57
223.544	21032.39
223.617	21059.96
223.69	21087.52
223.763	21108.54
223.837	21149.07
223.91	21191.05
223.983	21196.74
224.056	21205.12
224.129	21231.05
224.202	21280.12
224.275	21291.59
224.348	21297.23
224.42	21301.18
224.493	21306.58
224.566	21318
224.639	21351.98
224.712	21351.55
224.785	21352.85
224.858	21360.56
224.931	21367.02
225.004	21377.67
225.077	21403.12
225.15	21402.59
225.223	21417.19
225.296	21457.06
225.369	21439.56
225.442	21439.17
225.514	21453.15
225.587	21486.17
225.66	21491.47
225.733	21499.86
225.806	21520.05
225.879	21532.2
225.952	21539.81
226.025	21564.2
226.097	21592.31
226.17	21589.61
226.243	21587
226.316	21599.1
226.389	21609.8
226.461	21627.35
226.534	21632.6
226.607	21634.87
226.68	21653.95
226.753	21662
226.825	21635.83
226.898	21667.01
226.971	21673.47
227.044	21685.38
227.117	21684.17
227.189	21700.27
227.262	21711.5
227.335	21716.81
227.407	21726.45
227.48	21737.05
227.553	21746.88
227.626	21737.58
227.698	21736.13
227.771	21740.81
227.844	21725.82
227.916	21728.52
227.989	21719.75
228.062	21722.01
228.134	21737.39
228.207	21731.17
228.28	21722.69
228.352	21719.41
228.425	21709.86
228.498	21716.57
228.57	21707.07
228.643	21722.25
228.716	21719.17
228.788	21715.36
228.861	21701.14
228.934	21693.09
229.006	21687.45
229.079	21677.72
229.151	21666.48
229.224	21655.21
229.296	21664.65
229.369	21695.07
229.442	21710.54
229.514	21695.98
229.587	21709.63
229.659	21684.46
229.732	21696.66
229.804	21701.38
229.877	21741.1
229.949	21742.74
230.022	21751.8
230.094	21756.96
230.167	21760.05
230.239	21748.29
230.312	21732.62
230.384	21749.3
230.457	21756.1
230.529	21766.07
230.602	21766.94
230.674	21766.31
230.747	21777.16
230.819	21781.93
230.892	21738.6
230.964	21729.73
231.037	21739.8
231.109	21727.9
231.181	21730.5
231.254	21706.4
231.326	21700.18
231.399	21666.44
231.471	21653.33
231.544	21617.08
231.616	21618.96
231.688	21594.95
231.761	21581.7
231.833	21582.57
231.905	21553.36
231.978	21537.64
232.05	21518.46
232.122	21504.24
232.195	21485.97
232.267	21480.43
232.339	21462.21
232.412	21473.25
232.484	21448.76
232.556	21424.23
232.629	21429.97
232.701	21433.97
232.773	21419.84
232.846	21408.13
232.918	21395.99
232.99	21387.45
233.062	21385.77
233.135	21368.95
233.207	21341.38
233.279	21332.56
233.351	21309.04
233.424	21285.52
233.496	21262.09
233.568	21261.03
233.64	21217.9
233.713	21211.15
233.785	21187.68
233.857	21172.21
233.929	21132.59
234.001	21133.94
234.074	21122.76
234.146	21076.97
234.218	21046.89
234.29	21042.12
234.362	21014.46
234.434	20980.19
234.507	20945.39
234.579	20904.52
234.651	20875.03
234.723	20860.81
234.795	20844.66
234.867	20823.03
234.939	20816.86
235.012	20797.15
235.084	20768.03
235.156	20761.38
235.228	20720.18
235.3	20696.8
235.372	20666.25
235.444	20663.93
235.516	20623.88
235.588	20607.84
235.66	20595.88
235.732	20564.03
235.804	20580.66
235.876	20562.05
235.948	20551.31
236.02	20526.05
236.092	20493.76
236.164	20463.98
236.236	20427.69
236.308	20393.62
236.38	20366.58
236.452	20323.07
236.524	20297.24
236.596	20292.27
236.668	20273.28
236.74	20247.65
236.812	20225.19
236.884	20199.21
236.956	20174.06
237.028	20133.38
237.1	20089.58
237.172	20063.07
237.244	20042.98
237.316	19974.25
237.388	19930.74
237.46	19894.01
237.532	19884.52
237.604	19865.82
237.675	19859.7
237.747	19840.43
237.819	19808.91
237.891	19782.89
237.963	19747.47
238.035	19717.73
238.107	19640.82
238.178	19626.12
238.25	19599.57
238.322	19585.79
238.394	19542.18
238.466	19506.8
238.538	19486.81
238.609	19473.84
238.681	19427.63
238.753	19390.86
238.825	19365.66
238.897	19336.5
238.968	19319.59
239.04	19274.14
239.112	19263.69
239.184	19209.57
239.255	19176.46
239.327	19137.67
239.399	19108.8
239.471	19094.4
239.542	19054.69
239.614	19044.42
239.686	18978.88
239.758	18958.36
239.829	18912.05
239.901	18891.85
239.973	18854.65
240.044	18818.27
240.116	18770.85
240.188	18734.13
240.259	18703.53
240.331	18658.52
240.403	18639.48
240.474	18589.08
240.546	18551.63
240.618	18499.64
240.689	18465.23
240.761	18430.82
240.833	18422.1
240.904	18385.14
240.976	18343.93
241.048	18322.87
241.119	18296.03
241.191	18281.53
241.262	18262.2
241.334	18217.96
241.405	18192.09
241.477	18156.09
241.549	18124.57
241.62	18093.05
241.692	18076.96
241.763	18055.75
241.835	18029.3
241.906	17984.87
241.978	17936.67
242.049	17908.67
242.121	17882.22
242.192	17862.36
242.264	17819.66
242.335	17764.63
242.407	17745.26
242.478	17715.33
242.55	17682.75
242.621	17632.87
242.693	17593.55
242.764	17553.6
242.836	17529.89
242.907	17493.21
242.979	17465.02
243.05	17430.22
243.122	17401.89
243.193	17356.63
243.264	17299.04
243.336	17253.74
243.407	17238.61
243.479	17229.93
243.55	17210.75
243.622	17180.39
243.693	17148.92
243.764	17138.51
243.836	17099.33
243.907	17057.11
243.978	17017.88
244.05	16993.54
244.121	16938.55
244.192	16912.24
244.264	16865.63
244.335	16834.11
244.407	16783.56
244.478	16752.86
244.549	16716.61
244.62	16681.62
244.692	16647.26
244.763	16626.82
244.834	16594.43
244.906	16555.54
244.977	16529.13
245.048	16502.38
245.119	16458.86
245.191	16408.54
245.262	16341.35
245.333	16323.43
245.405	16283.86
245.476	16258.74
245.547	16223.13
245.618	16222.26
245.689	16181
245.761	16143.07
245.832	16095.79
245.903	16074.19
245.974	16046.48
246.045	16017.75
246.117	15989.46
246.188	15943.91
246.259	15897.11
246.33	15863.27
246.401	15819.75
246.473	15761.81
246.544	15715.25
246.615	15697.37
246.686	15662.33
246.757	15650.62
246.828	15613.12
246.899	15604.3
246.97	15553.01
247.042	15508.38
247.113	15481.67
247.184	15481.43
247.255	15449.91
247.326	15428.22
247.397	15395.87
247.468	15359.63
247.539	15321.4
247.61	15285.69
247.681	15271.95
247.752	15257.97
247.823	15219.65
247.894	15191.02
247.965	15151.92
248.037	15119.67
248.108	15070.8
248.179	15045.44
248.25	15013.87
248.321	14984.95
248.392	14938.58
248.463	14935.06
248.534	14907.77
248.605	14879.62
248.675	14841.4
248.746	14813.63
248.817	14784.86
248.888	14755.07
248.959	14711.73
249.03	14688.64
249.101	14665.07
249.172	14626.07
249.243	14569.72
249.314	14560.85
249.385	14534.63
249.456	14512.07
249.527	14481.46
249.598	14461.64
249.669	14430.21
249.739	14407.65
249.81	14388.76
249.881	14341.23
249.952	14314.91
250.023	14287.57
250.094	14246.98
250.165	14208.61
250.235	14181.09
250.306	14159.3
250.377	14125.12
250.448	14101.6
250.519	14064.48
250.59	14044.09
250.66	14016.99
250.731	14013.57
250.802	13977.03
250.873	13959.48
250.944	13944.25
251.014	13909.49
251.085	13905.35
251.156	13885.44
251.227	13869.1
251.297	13849.67
251.368	13839.69
251.439	13823.16
251.51	13811.01
251.58	13772.06
251.651	13733.73
251.722	13723.95
251.792	13679.16
251.863	13652.46
251.934	13644.6
252.005	13642.09
252.075	13617.7
252.146	13604.97
252.217	13584.68
252.287	13571.66
252.358	13537.87
252.429	13526.78
252.499	13501.38
252.57	13476.26
252.641	13465.66
252.711	13446.66
252.782	13411.09
252.852	13407.57
252.923	13374.93
252.994	13351.17
253.064	13342.39
253.135	13321.23
253.205	13284.88
253.276	13281.8
253.347	13273.46
253.417	13249.55
253.488	13221.11
253.558	13193.34
253.629	13168.42
253.699	13147.4
253.77	13136.07
253.841	13115.82
253.911	13100.11
253.982	13084.1
254.052	13066.07
254.123	13041.05
254.193	13016.61
254.264	13027.99
254.334	12996.8
254.405	12965.85
254.475	12932.21
254.546	12908.3
254.616	12894.36
254.687	12888.48
254.757	12870.94
254.827	12852.28
254.898	12823.45
254.968	12803.98
255.039	12774.62
255.109	12759.97
255.18	12729.69
255.25	12681.73
255.321	12662.98
255.391	12619.26
255.461	12613.47
255.532	12565.36
255.602	12530.75
255.673	12488.57
255.743	12451.21
255.813	12411.4
255.884	12400.75
255.954	12392.55
256.024	12391.83
256.095	12369.03
256.165	12323.91
256.235	12306.41
256.306	12276.57
256.376	12267.9
256.446	12249.96
256.517	12237.14
256.587	12228.22
256.657	12216.17
256.728	12203.26
256.798	12187.16
256.868	12170.96
256.938	12138.28
257.009	12133.55
257.079	12132.16
257.149	12133.12
257.219	12096.73
257.29	12080.97
257.36	12041.35
257.43	12024.19
257.5	11978.35
257.571	11961.09
257.641	11955.6
257.711	11920.17
257.781	11910.43
257.852	11898.38
257.922	11860.01
257.992	11841.02
258.062	11817.21
258.132	11805.59
258.202	11783.09
258.273	11763.95
258.343	11761.93
258.413	11743.9
258.483	11720.14
258.553	11683.51
258.623	11658.11
258.693	11644.37
258.764	11641.14
258.834	11639.69
258.904	11623.02
258.974	11594.24
259.044	11570.19
259.114	11553.61
259.184	11540.17
259.254	11515.97
259.324	11474.14
259.394	11465.51
259.464	11462.81
259.535	11433.32
259.605	11409.31
259.675	11383.34
259.745	11371.92
259.815	11341.45
259.885	11317.84
259.955	11328.44
260.025	11306.61
260.095	11285.7
260.165	11272.54
260.235	11267.48
260.305	11242.56
260.375	11210.08
260.445	11218.03
260.515	11218.47
260.585	11211.04
260.655	11197.07
260.725	11187.77
260.795	11181.02
260.865	11183.67
260.934	11153.69
261.004	11151.96
261.074	11133.69
261.144	11134.37
261.214	11122.66
261.284	11104.3
261.354	11097.21
261.424	11071.19
261.494	11072.58
261.564	11057.26
261.634	11048.68
261.703	11010.23
261.773	11002.37
261.843	10991.87
261.913	10975.14
261.983	10939.87
262.053	10930.09
262.123	10910.47
262.192	10881.37
262.262	10880.65
262.332	10841.81
262.402	10831.21
262.472	10813.47
262.541	10776.66
262.611	10772.85
262.681	10746.93
262.751	10746.93
262.821	10722.84
262.89	10696.67
262.96	10689.06
263.03	10690.5
263.1	10677.3
263.169	10664.48
263.239	10654.32
263.309	10659.67
263.379	10648.82
263.448	10636.35
263.518	10623.82
263.588	10607.29
263.657	10613.07
263.727	10602.9
263.797	10595.15
263.867	10585.94
263.936	10558.82
264.006	10558
264.076	10532.22
264.145	10508.32
264.215	10482.88
264.285	10480.28
264.354	10445.45
264.424	10418.13
264.494	10387.92
264.563	10363.5
264.633	10369.13
264.702	10351.84
264.772	10321.48
264.842	10303.51
264.911	10297.01
264.981	10268.97
265.05	10255.67
265.12	10235.82
265.19	10216.84
265.259	10211.1
265.329	10196.79
265.398	10188.89
265.468	10198.67
265.537	10180.08
265.607	10177.28
265.676	10172.47
265.746	10165.77
265.815	10165.91
265.885	10152.57
265.955	10129.98
266.024	10118.27
266.094	10082.91
266.163	10084.65
266.232	10081.32
266.302	10067.26
266.371	10055.89
266.441	10037.97
266.51	10036.14
266.58	10019.76
266.649	9999.72
266.719	9997.8
266.788	9992.45
266.858	9992.3
266.927	9962.77
266.996	9956.8
267.066	9949.09
267.135	9922.6
267.205	9914.94
267.274	9904.2
267.343	9901.55
267.413	9897.6
267.482	9897.8
267.552	9901.17
267.621	9870.34
267.69	9837.59
267.76	9824.63
267.829	9811.1
267.898	9803.29
267.968	9772.76
268.037	9765.58
268.106	9763.75
268.176	9735.91
268.245	9713.27
268.314	9703.4
268.384	9699.79
268.453	9687.26
268.522	9680.09
268.592	9680.57
268.661	9654.99
268.73	9645.51
268.799	9632.55
268.869	9635.15
268.938	9604.43
269.007	9582.27
269.076	9571.15
269.146	9570.43
269.215	9564.65
269.284	9572.83
269.353	9561.52
269.422	9558.39
269.492	9544.18
269.561	9501.85
269.63	9495.35
269.699	9485.09
269.768	9464.29
269.838	9444.01
269.907	9439.25
269.976	9410.11
270.045	9377.66
270.114	9377.85
270.183	9363.6
270.253	9353.44
270.322	9321.27
270.391	9311.02
270.46	9320.6
270.529	9318.67
270.598	9314.2
270.667	9303.94
270.736	9280.44
270.806	9272.64
270.875	9268.88
270.944	9254.34
271.013	9277.31
271.082	9269.75
271.151	9265.75
271.22	9243.03
271.289	9242.74
271.358	9228.82
271.427	9228
271.496	9222.13
271.565	9207.35
271.634	9200.27
271.703	9226.95
271.772	9224.64
271.841	9214.1
271.91	9186.07
271.979	9181.89
272.048	9159.64
272.117	9151.12
272.186	9130.85
272.255	9123.15
272.324	9123.24
272.393	9119.01
272.462	9104.66
272.531	9096.67
272.6	9079.33
272.669	9087.42
272.738	9075.67
272.807	9071.29
272.876	9049.01
272.945	9070.57
273.013	9068.46
273.082	9069.85
273.151	9023.05
273.22	9030.32
273.289	9025.12
273.358	9036.53
273.427	9017.32
273.496	9022.33
273.564	9023.05
273.633	9029.79
273.702	9015.44
273.771	9000.95
273.84	8992.05
273.909	8984.01
273.977	8978.81
274.046	8969.23
274.115	8969.18
274.184	8954.64
274.253	8942.27
274.322	8954.45
274.39	8924.99
274.459	8913.24
274.528	8885.76
274.597	8878.54
274.665	8870.16
274.734	8878.73
274.803	8862.55
274.872	8860.1
274.94	8842.53
275.009	8895.41
275.078	8880.49
275.147	8879.38
275.215	8878.22
275.284	8885.01
275.353	8875.58
275.421	8852.38
275.49	8866.58
275.559	8853.58
275.627	8848.91
275.696	8847.32
275.765	8844.68
275.833	8838.27
275.902	8837.12
275.971	8852.38
276.039	8862.29
276.108	8862.87
276.177	8855.75
276.245	8848.19
276.314	8842.32
276.383	8857.14
276.451	8793.09
276.52	8796.94
276.588	8804.84
276.657	8808.3
276.725	8798.34
276.794	8798.48
276.863	8810.85
276.931	8787.7
277	8796.03
277.068	8799.54
277.137	8812.59
277.205	8805.46
277.274	8821.68
277.342	8828.52
277.411	8804.84
277.48	8794.54
277.548	8780.24
277.617	8785.2
277.685	8778.51
277.754	8783.66
277.822	8768.5
277.89	8783.23
277.959	8773.41
278.027	8753.73
278.096	8742.94
278.164	8767.78
278.233	8758.35
278.301	8749.54
278.37	8753.92
278.438	8742.85
278.507	8746.89
278.575	8723.98
278.643	8722.2
278.712	8699.97
278.78	8682.06
278.849	8694.09
278.917	8699.15
278.985	8701.89
279.054	8699.48
279.122	8708.39
279.191	8704.54
279.259	8694.96
279.327	8670.41
279.396	8686.25
279.464	8681.48
279.532	8688.51
279.601	8682.06
279.669	8680.85
279.737	8691.2
279.806	8693.8
279.874	8694.72
279.942	8689.85
280.011	8684.47
280.079	8692.98
280.147	8712.04
280.215	8721.09
280.284	8714.06
280.352	8705.74
280.42	8716.62
280.488	8709.25
280.557	8700.88
280.625	8701.79
280.693	8706.65
280.761	8707.18
280.83	8686.05
280.898	8699.09
280.966	8678.01
281.034	8644.85
281.102	8627.77
281.171	8621.75
281.239	8628.49
281.307	8619.68
281.375	8604.29
281.443	8630.81
281.512	8626.67
281.58	8632.92
281.648	8619.83
281.716	8621.52
281.784	8619.11
281.852	8600.1
281.92	8596.87
281.989	8607.32
282.057	8594.08
282.125	8635.29
282.193	8634.86
282.261	8634.23
282.329	8631.78
282.397	8637.07
282.465	8645.06
282.533	8661.47
282.601	8653.48
282.67	8630.47
282.738	8625.66
282.806	8640
282.874	8624.94
282.942	8624.98
283.01	8616.56
283.078	8616.03
283.146	8610.64
283.214	8620.84
283.282	8629.27
283.35	8640.43
283.418	8631.39
283.486	8636.97
283.554	8598.41
283.622	8598.79
283.69	8600.72
283.758	8599.18
283.826	8598.55
283.894	8600.67
283.962	8621.17
284.03	8627.29
284.098	8633.4
284.165	8628.2
284.233	8634.75
284.301	8631.66
284.369	8626.61
284.437	8617.95
284.505	8616.6
284.573	8636.09
284.641	8622.18
284.709	8630.32
284.777	8613.66
284.845	8625.6
284.912	8629.35
284.98	8628.97
285.048	8617.37
285.116	8625.6
285.184	8631.43
285.252	8633.16
285.319	8622.43
285.387	8607.12
285.455	8595.09
285.523	8596.53
285.591	8597.25
285.659	8593.69
285.726	8601.15
285.794	8583.73
285.862	8583.78
285.93	8582.05
285.997	8576.18
286.065	8567.9
286.133	8551.78
286.201	8549.42
286.269	8534.74
286.336	8527.28
286.404	8520.59
286.472	8533.92
286.539	8512.51
286.607	8497.88
286.675	8499.95
286.743	8507.02
286.81	8507.55
286.878	8521.94
286.946	8517.61
287.013	8517.37
287.081	8518.52
287.149	8506.01
287.216	8528
287.284	8522.71
287.352	8528.68
287.419	8526.61
287.487	8543.93
287.555	8551.77
287.622	8548.65
287.69	8553.8
287.758	8565.88
287.825	8562.75
287.893	8546.1
287.96	8553.17
288.028	8564.62
288.096	8565.2
288.163	8569.97
288.231	8556.97
288.298	8549.75
288.366	8564.19
288.433	8559.19
288.501	8548.89
288.569	8552.26
288.636	8544.12
288.704	8555.24
288.771	8561.93
288.839	8549.61
288.906	8541.62
288.974	8545.23
289.041	8542.97
289.109	8532.09
289.176	8536.09
289.244	8536.23
289.311	8553.51
289.379	8561.4
289.446	8566.17
289.514	8568.81
289.581	8568.19
289.649	8568.19
289.716	8577.86
289.783	8566.22
289.851	8586.96
289.918	8584.84
289.986	8590.61
290.053	8591.29
290.121	8590.23
290.188	8592.01
290.255	8620.93
290.323	8620.5
290.39	8616.51
290.458	8623.48
290.525	8637.39
290.592	8631.71
290.66	8642.88
290.727	8641.34
290.794	8657.36
290.862	8652.21
290.929	8650.29
290.996	8650
291.064	8661.84
291.131	8669.4
291.198	8685.9
291.266	8688.6
291.333	8691.25
291.4	8699.96
291.468	8723.74
291.535	8719.74
291.602	8717.14
291.669	8712.42
291.737	8717.57
291.804	8716.8
291.871	8728.31
291.938	8734.52
292.006	8765.33
292.073	8772.98
292.14	8783.71
292.207	8776.78
292.275	8781.35
292.342	8793.58
292.409	8820.49
292.476	8843.55
292.543	8835.22
292.611	8834.78
292.678	8844.8
292.745	8867.9
292.812	8883.88
292.879	8875.46
292.946	8879.07
293.014	8890.81
293.081	8896.4
293.148	8910.31
293.215	8923.3
293.282	8923.06
293.349	8931.73
293.416	8905.11
293.484	8916.66
293.551	8923.83
293.618	8938.08
293.685	8960.95
293.752	8955.7
293.819	8950.31
293.886	8942.12
293.953	8947.42
294.02	8957.77
294.087	8964.99
294.154	8957.72
294.221	8964.17
294.288	8970.62
294.356	8992.62
294.423	9001.67
294.49	8998.06
294.557	9011.74
294.624	9007.64
294.691	9029.64
294.758	9030.27
294.825	9045
294.892	9041.39
294.959	9043.17
295.026	9052.27
295.093	9049.91
295.16	9051.74
295.226	9052.51
295.293	9073.16
295.36	9077.93
295.427	9089.63
295.494	9098.1
295.561	9110.52
295.628	9128.44
295.695	9141.34
295.762	9141.63
295.829	9150.54
295.896	9159.06
295.963	9164.93
296.03	9182.65
296.096	9185.92
296.163	9195.89
296.23	9213.03
296.297	9231.62
296.364	9230.17
296.431	9238.6
296.498	9229.45
296.564	9253.76
296.631	9251.26
296.698	9237.06
296.765	9262.67
296.832	9252.85
296.899	9243.65
296.965	9264.45
297.032	9247.31
297.099	9265.8
297.166	9273.41
297.233	9267.15
297.299	9264.21
297.366	9265.99
297.433	9263.59
297.5	9273.02
297.566	9274.9
297.633	9272.01
297.7	9272.4
297.767	9274.37
297.833	9276.54
297.9	9283.38
297.967	9262.24
298.033	9285.83
298.1	9318.05
298.167	9310.54
298.234	9313.67
298.3	9325.66
298.367	9321.47
298.434	9325.95
298.5	9314.77
298.567	9312.89
298.634	9315.11
298.7	9331.91
298.767	9329.51
298.834	9346.31
298.9	9339.14
298.967	9336.25
299.033	9343.47
299.1	9352.81
299.167	9364.32
299.233	9360.52
299.3	9372.65
299.366	9394.6
299.433	9402.89
299.5	9377.75
299.566	9378.71
299.633	9400.82
299.699	9405.63
299.766	9397.78
299.832	9404.81
299.899	9410.11
299.965	9428.89
300.032	9431.25
300.099	9439.29
300.165	9446.28
300.232	9439.68
300.298	9442.71
300.365	9455.76
300.431	9457.54
300.498	9448.92
300.564	9455.91
300.631	9465.15
300.697	9475.41
300.763	9476.47
300.83	9474.59
300.896	9485.28
300.963	9494.14
301.029	9496.12
301.096	9500.5
301.162	9519.28
301.229	9512.54
301.295	9504.11
301.361	9499.82
301.428	9502.9
301.494	9488.7
301.561	9492.84
301.627	9495.2
301.693	9492.26
301.76	9492.21
301.826	9487.45
301.892	9507.34
301.959	9524.19
302.025	9522.89
302.092	9519.14
302.158	9517.98
302.224	9524.39
302.291	9515.48
302.357	9510.37
302.423	9500.4
302.49	9493.57
302.556	9499.87
302.622	9503.53
302.688	9510.81
302.755	9526.03
302.821	9530.79
302.887	9541.92
302.954	9537.63
303.02	9543.27
303.086	9561.32
303.152	9562.34
303.219	9553.43
303.285	9554.2
303.351	9546.11
303.417	9545.77
303.483	9539.51
303.55	9537.68
303.616	9534.89
303.682	9536.09
303.748	9529.93
303.815	9543.41
303.881	9557.47
303.947	9537.87
304.013	9539.17
304.079	9538.64
304.145	9516.2
304.212	9518.56
304.278	9513.17
304.344	9513.02
304.41	9500.55
304.476	9486.97
304.542	9479.99
304.608	9492.99
304.674	9473.15
304.741	9473.39
304.807	9477.29
304.873	9475.17
304.939	9493.47
305.005	9471.75
305.071	9469.44
305.137	9475.55
305.203	9448.44
305.269	9446.56
305.335	9464.96
305.401	9456.77
305.467	9449.89
305.533	9458.94
305.599	9461.25
305.666	9460.92
305.732	9458.22
305.798	9472.38
305.864	9494.43
305.93	9499.49
305.996	9498.14
306.062	9494.1
306.128	9493.62
306.194	9476.91
306.259	9477.77
306.325	9467.08
306.391	9473.34
306.457	9481.86
306.523	9481.58
306.589	9509.02
306.655	9493.42
306.721	9474.54
306.787	9468.38
306.853	9483.79
306.919	9466.5
306.985	9461.45
307.051	9454.9
307.117	9446.28
307.183	9439.73
307.248	9409.34
307.314	9417.67
307.38	9415.31
307.446	9427.16
307.512	9412.95
307.578	9420.42
307.644	9417.77
307.709	9417.09
307.775	9416.76
307.841	9413.39
307.907	9411.46
307.973	9394.84
308.039	9399.13
308.104	9406.45
308.17	9405.01
308.236	9387.81
308.302	9392.05
308.368	9383.96
308.433	9391.38
308.499	9391.62
308.565	9380.59
308.631	9386.46
308.696	9352.81
308.762	9340.96
308.828	9333.79
308.894	9313.66
308.959	9300.18
309.025	9287.37
309.091	9283.28
309.156	9278.08
309.222	9276.1
309.288	9265.12
309.354	9244.08
309.419	9237.01
309.485	9214.09
309.551	9217.22
309.616	9203.74
309.682	9195.84
309.748	9185.01
309.813	9169.45
309.879	9157.32
309.945	9150.48
310.01	9146.44
310.076	9150.39
310.141	9148.12
310.207	9136.18
310.273	9139.41
310.338	9137.1
310.404	9126.17
310.469	9111.82
310.535	9099.06
310.601	9079.52
310.666	9082.26
310.732	9088.61
310.797	9081.83
310.863	9082.11
310.928	9073.59
310.994	9078.84
311.059	9075.95
311.125	9072.39
311.191	9088.57
311.256	9084.38
311.322	9089.19
311.387	9063.1
311.453	9428.7
311.518	9398.23
311.584	9392.21
311.649	9395.49
311.715	9379.84
311.78	9380.42
311.846	9374.93
311.911	9379.02
311.976	9378.73
312.042	9360.63
312.107	9344.12
312.173	9332.47
312.238	9319.91
312.304	9319.28
312.369	9308.93
312.434	9299.73
312.5	9292.13
312.565	9261.75
312.631	9261.51
312.696	9242.21
312.761	9251.25
312.827	8880.31
312.892	8917.86
312.958	8918.44
313.023	8920.12
313.088	8923.64
313.154	8912.95
313.219	8901.74
313.284	8889.17
313.35	8884.74
313.415	8882.63
313.48	8878.87
313.546	8878.82
313.611	8888.07
313.676	8874.2
313.741	8867.61
313.807	8871.17
313.872	8876.94
313.937	8880.89
314.003	8891.43
314.068	8897.69
314.133	8899.95
314.198	8894.56
314.264	8876.75
314.329	8865.34
314.394	8854.32
314.459	8851.43
314.525	8867.99
314.59	8859.32
314.655	8850.23
314.72	8856.05
314.785	8854.13
314.851	8851.33
314.916	8838.19
314.981	8823.51
315.046	8815.86
315.111	8806.04
315.176	8795.36
315.242	8795.4
315.307	8793.09
315.372	8772.06
315.437	8763.59
315.502	8753.09
315.567	8763.59
315.632	8748.38
315.698	8750.45
315.763	8749.77
315.828	8737.31
315.893	8733.75
315.958	8734.32
316.023	8728.93
316.088	8709.15
316.153	8688.6
316.218	8682.06
316.283	8661.03
316.348	8644.81
316.413	8641.49
316.479	8623.93
316.544	8587.17
316.609	8561.81
316.674	8521.96
316.739	8491.17
316.804	8457.73
316.869	8422.22
316.934	8377.13
316.999	8346.38
317.064	8296.15
317.129	8253.28
317.194	8217.39
317.259	8168.89
317.324	8113.2
317.389	8068.51
317.454	8028.96
317.518	7993.66
317.583	7963.4
317.648	7941.13
317.713	7903.62
317.778	7839.65
317.843	7810.84
317.908	7779.69
317.973	7736.35
318.038	7712.36
318.103	7676.78
318.168	7641.87
318.233	7608.6
318.297	7558.84
318.362	7526.29
318.427	7486.15
318.492	7456.82
318.557	7416.74
318.622	7386.02
318.687	7371.26
318.751	7327.15
318.816	7296.29
318.881	7264.14
318.946	7210.31
319.011	7160.09
319.075	7119.73
319.14	7091.62
319.205	7042.66
319.27	7009.08
319.335	6964.88
319.399	6921.2
319.464	6888.58
319.529	6836.62
319.594	6800.11
319.658	6768.46
319.723	6722.44
319.788	6696.84
319.853	6640.12
319.917	6604.16
319.982	6551.33
320.047	6511.67
320.112	6486.56
320.176	6437.44
320.241	6402.05
320.306	6368.79
320.37	6330.68
320.435	6302.4
320.5	6273.51
320.564	6234.68
320.629	6193.51
320.694	6161.74
320.758	6122.92
320.823	6079.11
320.888	6052.39
320.952	6007.57
321.017	5968.86
321.082	5926.89
321.146	5888.32
321.211	5855.56
321.275	5817.34
321.34	5774.57
321.405	5727.47
321.469	5683.98
321.534	5640.98
321.598	5590.3
321.663	5563.63
321.727	5535.69
321.792	5485.73
321.857	5443.25
321.921	5407.21
321.986	5362.79
322.05	5303.57
322.115	5263.7
322.179	5221.68
322.244	5166.79
322.308	5133.92
322.373	5089.52
322.437	5049.05
322.502	5021.02
322.566	4978.29
322.631	4940.37
322.695	4900.92
322.76	4858.45
322.824	4824.32
322.889	4779.14
322.953	4734.3
323.018	4670.2
323.082	4607.75
323.146	4558.32
323.211	4504.58
323.275	4459.08
323.34	4413.98
323.404	4381.6
323.468	4338.12
323.533	4294.36
323.597	4252.53
323.662	4194.28
323.726	4160.57
323.79	4118.31
323.855	4059.43
323.919	4009.15
323.983	3964.36
324.048	3900.12
324.112	4045.78
324.177	3915.77
324.241	3716.08
324.305	3518.92
324.37	3322.53
324.434	3134.18
324.498	3091.24
324.562	3042.41
324.627	2985.42
324.691	2932.3
324.755	2868.83
324.82	2794.9
324.884	2719.86
324.948	2648.71
325.012	2563.2
325.077	2439.25
