Data from 20250702_urea_0.5M_MAYP1162681_13-54-59-570.txt Node
Date: Wed Jul 02 13:54:59 BST 2025
User: adleo
Spectrometer: MAYP116268
Trigger mode: 0
Integration Time (sec): 1.000000E0
Scans to average: 1
Electric dark correction enabled: true
Nonlinearity correction enabled: true
Boxcar width: 10
XAxis mode: Wavelengths
Number of Pixels in Spectrum: 2068
>>>>>Begin Spectral Data<<<<<
179.565	1101.63
179.642	1152.86
179.718	1192.59
179.795	1228.44
179.871	1257.24
179.948	1270.16
180.024	1288.13
180.101	1309.54
180.177	1323.97
180.254	1345.38
180.33	1363.33
180.407	1408.43
180.483	1494.13
180.56	1575.42
180.636	1653.08
180.712	1641.2
180.789	1652.51
180.865	1661.25
180.942	1667.28
181.018	1678.63
181.095	1690.14
181.171	1695.13
181.248	1695.13
181.324	1708.86
181.4	1714.18
181.477	1725.4
181.553	1739.22
181.63	1760.56
181.706	1776.05
181.782	1779.71
181.859	1779.09
181.935	1787.32
182.011	1782.99
182.088	1800.29
182.164	1819.21
182.24	1832.28
182.317	1844.87
182.393	1842.74
182.469	1855.05
182.546	1869.87
182.622	1874.63
182.698	1868.64
182.775	1880.43
182.851	1892.59
182.927	1885.84
183.003	1883.66
183.08	1879.19
183.156	1890.88
183.232	1886.46
183.308	1876.53
183.385	1885.65
183.461	1903.34
183.537	1901.48
183.613	1914.32
183.69	1907.99
183.766	1897.63
183.842	1905.57
183.918	1907.52
183.995	1919.4
184.071	1924.68
184.147	1918.21
184.223	1907.57
184.299	1919.83
184.375	1909.14
184.452	1915.99
184.528	1970.11
184.604	1978.62
184.68	1989.98
184.756	1995.55
184.832	2000.35
184.908	2003.82
184.985	2002.82
185.061	1986.08
185.137	1996.83
185.213	1984.47
185.289	1987.18
185.365	1980
185.441	1977.53
185.517	1989.18
185.593	1985.24
185.669	1982.91
185.745	1995.7
185.822	2011
185.898	2003.77
185.974	2014.23
186.05	2007.53
186.126	1969.62
186.202	1962.68
186.278	1956.26
186.354	1944.56
186.43	1951.6
186.506	1950.7
186.582	1953.03
186.658	1962.11
186.734	1943.76
186.81	1949.03
186.886	1946.89
186.962	1959.25
187.038	1955.12
187.114	1947.27
187.19	1953.16
187.266	1941.28
187.341	1939.33
187.417	1933.77
187.493	1934.62
187.569	1937.19
187.645	1932.01
187.721	1919.45
187.797	1928.72
187.873	1932.48
187.949	1926.16
188.025	1919.26
188.101	1921.11
188.176	1926.11
188.252	1923.49
188.328	1931.43
188.404	1932.05
188.48	1930.43
188.556	1925.15
188.632	1924.44
188.707	1929.67
188.783	1927.48
188.859	1924.3
188.935	1914.17
189.011	1919.26
189.086	1911.13
189.162	1902.19
189.238	1900.05
189.314	1897.68
189.39	1889.45
189.465	1885.32
189.541	1902.81
189.617	1888.88
189.693	1882.8
189.768	1882.37
189.844	1901.73
189.92	1891.94
189.996	1897.79
190.071	1909.25
190.147	1907.68
190.223	1915.76
190.298	1905.16
190.374	1893.13
190.45	1906.82
190.526	1916.19
190.601	1913.43
190.677	1915.05
190.753	1939.11
190.828	1941.02
190.904	1957.14
190.98	1973.87
191.055	1982.58
191.131	1973.35
191.207	1993.18
191.282	2004.35
191.358	1998.45
191.433	1981.99
191.509	1994.68
191.585	1992.21
191.66	1988.22
191.736	1994.16
191.811	1985.98
191.887	2002.1
191.963	2026.26
192.038	2030.11
192.114	2029.68
192.189	2031.49
192.265	2029.54
192.34	2012.8
192.416	2013.18
192.491	2005.85
192.567	2006.71
192.642	2008.61
192.718	2011.03
192.793	2000.71
192.869	1996.62
192.944	1998.67
193.02	2007.85
193.095	2014.46
193.171	2018.55
193.246	2022.07
193.322	2021.97
193.397	2024.54
193.473	2009.7
193.548	1992.91
193.624	1997.24
193.699	1995.38
193.775	2011.03
193.85	2013.08
193.925	2019.07
194.001	2017.79
194.076	2015.08
194.152	2006.23
194.227	2001.66
194.302	1991.92
194.378	1994.49
194.453	1991.25
194.529	2003.43
194.604	1988.88
194.679	1981.32
194.755	1964.77
194.83	1974.96
194.905	1972.44
194.981	1978.48
195.056	1973.1
195.131	1976.15
195.207	1976.34
195.282	1968.92
195.357	1948.56
195.433	1963.35
195.508	1953.03
195.583	1962.35
195.659	1975.33
195.734	1981.09
195.809	1978.76
195.884	1987.79
195.96	1988.5
196.035	2003.1
196.11	1998.16
196.185	2010.57
196.261	2013.13
196.336	2045.66
196.411	2031.06
196.486	2036
196.561	2029.39
196.637	2036
196.712	2052.41
196.787	2052.46
196.862	2066.34
196.937	2079.28
197.013	2083.13
197.088	2090.6
197.163	2109.16
197.238	2121.34
197.313	2123.81
197.388	2136.04
197.464	2165.3
197.539	2173.11
197.614	2166.87
197.689	2178.44
197.764	2194.38
197.839	2213.03
197.914	2206.51
197.989	2227.92
198.065	2239.33
198.14	2287.47
198.215	2317.02
198.29	2329.16
198.365	2343.01
198.44	2352.48
198.515	2378.9
198.59	2393.8
198.665	2420.12
198.74	2428.55
198.815	2431.02
198.89	2448.21
198.965	2474.83
199.04	2468.02
199.115	2486.96
199.19	2530.53
199.265	2529.67
199.34	2536.15
199.415	2570.5
199.49	2589.64
199.565	2599.26
199.64	2621.92
199.715	2620.35
199.79	2621.92
199.865	2627.3
199.94	2624.73
200.015	2656.7
200.09	2659.89
200.165	2666.56
200.24	2675.76
200.315	2713.76
200.39	2726.62
200.464	2735.62
200.539	2739.63
200.614	2758.54
200.689	2777.93
200.764	2780.84
200.839	2803.36
200.914	2811.13
200.989	2795.87
201.063	2805.5
201.138	2789.88
201.213	2791.4
201.288	2772.06
201.363	2781.02
201.438	2781.73
201.512	2798.12
201.587	2779.72
201.662	2783.2
201.737	2793.54
201.812	2797.59
201.886	2767.5
201.961	2776.6
202.036	2763.08
202.111	2761.27
202.186	2733.26
202.26	2716.54
202.335	2695.57
202.41	2687.62
202.485	2671.9
202.559	2656.56
202.634	2634.61
202.709	2644.13
202.784	2625.93
202.858	2627.31
202.933	2607.59
203.008	2600.35
203.082	2582.92
203.157	2584.21
203.232	2545.69
203.306	2527.16
203.381	2497.87
203.456	2474.92
203.53	2454.76
203.605	2438.01
203.68	2416.1
203.754	2409.15
203.829	2395.73
203.904	2377.54
203.978	2366.74
204.053	2368.59
204.127	2355.55
204.202	2353.84
204.277	2334.8
204.351	2327.66
204.426	2322.81
204.5	2319
204.575	2288.45
204.65	2294.12
204.724	2285.92
204.799	2291.01
204.873	2286.59
204.948	2288.16
205.022	2277.12
205.097	2271.26
205.171	2286.3
205.246	2292.11
205.32	2293.77
205.395	2292.77
205.469	2284.97
205.544	2289.07
205.618	2275.07
205.693	2289.83
205.767	2280.55
205.842	2301.78
205.916	2297.35
205.991	2285.88
206.065	2288.26
206.14	2302.67
206.214	2302.77
206.289	2293.06
206.363	2307.86
206.438	2313.71
206.512	2318.52
206.586	2339.6
206.661	2345.13
206.735	2325.29
206.81	2326.05
206.884	2340.13
206.958	2330.9
207.033	2348.89
207.107	2359.6
207.181	2389.12
207.256	2384.12
207.33	2405.3
207.405	2422.79
207.479	2442.07
207.553	2456.54
207.628	2448.88
207.702	2464.4
207.776	2465.63
207.851	2481.11
207.925	2504.83
207.999	2510.36
208.073	2521.64
208.148	2534.08
208.222	2538.84
208.296	2584.36
208.371	2615.43
208.445	2644.49
208.519	2691.22
208.593	2723.48
208.668	2744.02
208.742	2774.45
208.816	2804.84
208.89	2845.65
208.965	2874.47
209.039	2916.86
209.113	2965.83
209.187	3024.82
209.261	3064.15
209.336	3125.11
209.41	3189.42
209.484	3236.29
209.558	3312.23
209.632	3377.46
209.707	3447.92
209.781	3528.69
209.855	3610.91
209.929	3695.84
210.003	3775.05
210.077	3847.53
210.151	3969.49
210.226	4086.32
210.3	4200.92
210.374	4312.36
210.448	4408.61
210.522	4515.57
210.596	4631.24
210.67	4747.36
210.744	4895.23
210.818	5039.04
210.892	5173.94
210.966	5285.51
211.041	5423.71
211.115	5546.61
211.189	5703.53
211.263	5855.41
211.337	6000.83
211.411	6154.06
211.485	6297.98
211.559	6452.76
211.633	6610.45
211.707	6741.22
211.781	6901.09
211.855	7026.83
211.929	7187.72
212.003	7339.58
212.077	7520.01
212.151	7705.03
212.225	7891.42
212.299	8059.02
212.373	8226.46
212.447	8403.81
212.52	8612.23
212.594	8805.36
212.668	8997.53
212.742	9169.34
212.816	9348.2
212.89	9534.33
212.964	9717.68
213.038	9913.08
213.112	10121.73
213.186	10323.54
213.26	10502.01
213.333	10659.85
213.407	10856.6
213.481	11055.44
213.555	11264.25
213.629	11447.53
213.703	11625.56
213.777	11819.31
213.85	12004
213.924	12234.53
213.998	12437.26
214.072	12635.13
214.146	12818.06
214.219	13009.03
214.293	13200.35
214.367	13395.29
214.441	13587.76
214.515	13773.54
214.588	13944.24
214.662	14106.59
214.736	14280.27
214.81	14462.05
214.883	14657.18
214.957	14834.47
215.031	15007.33
215.105	15171.56
215.178	15344.22
215.252	15520.73
215.326	15672.37
215.4	15825.5
215.473	15953.81
215.547	16100.57
215.621	16253.5
215.694	16420.84
215.768	16571.17
215.842	16718.17
215.915	16871.53
215.989	17014.57
216.063	17165.8
216.136	17313.95
216.21	17462
216.284	17624.65
216.357	17778.24
216.431	17916.22
216.504	18058.24
216.578	18217.23
216.652	18357.99
216.725	18501.36
216.799	18639.86
216.873	18770.6
216.946	18917.1
217.02	19043.51
217.093	19167.74
217.167	19266.82
217.24	19382.77
217.314	19499.73
217.387	19616.44
217.461	19722.22
217.535	19856.68
217.608	19954.89
217.682	20076.09
217.755	20197.64
217.829	20288.33
217.902	20397.78
217.976	20506.17
218.049	20614.65
218.123	20701.88
218.196	20811.38
218.27	20886.42
218.343	20978.38
218.417	21081.33
218.49	21162.01
218.563	21257.92
218.637	21345.84
218.71	21456.84
218.784	21544.51
218.857	21642.02
218.931	21732.4
219.004	21829.28
219.077	21903.28
219.151	21988.79
219.224	22054.11
219.298	22125.74
219.371	22217.57
219.444	22269.73
219.518	22349.95
219.591	22415.18
219.665	22500.27
219.738	22564.29
219.811	22632.22
219.885	22691.95
219.958	22754.82
220.031	22820.63
220.105	22885.81
220.178	22955.63
220.251	23012.04
220.325	23069.71
220.398	23129.26
220.471	23189
220.544	23234.76
220.618	23277.53
220.691	23323.49
220.764	23371.18
220.838	23423.93
220.911	23461.35
220.984	23530.79
221.057	23570.05
221.131	23611.37
221.204	23628.16
221.277	23679.47
221.35	23740.86
221.424	23780.99
221.497	23824.1
221.57	23861.77
221.643	23902.62
221.716	23930.06
221.79	23952.54
221.863	23982.68
221.936	24005.88
222.009	24037.62
222.082	24065.79
222.155	24093.38
222.229	24136.5
222.302	24164.86
222.375	24178.65
222.448	24207.4
222.521	24228.29
222.594	24241.84
222.667	24259.5
222.74	24292.44
222.814	24319.36
222.887	24326.4
222.96	24351.82
223.033	24362.53
223.106	24381.39
223.179	24393.69
223.252	24416.13
223.325	24437.21
223.398	24445.84
223.471	24452.64
223.544	24453.08
223.617	24465.43
223.69	24473.19
223.763	24472.08
223.837	24493.98
223.91	24507.15
223.983	24493.36
224.056	24483.52
224.129	24499.1
224.202	24506.14
224.275	24499.1
224.348	24483.28
224.42	24477.82
224.493	24465.38
224.566	24463.98
224.639	24462.58
224.712	24453.32
224.785	24442.27
224.858	24433.1
224.931	24424.95
225.004	24425.53
225.077	24426.25
225.15	24398.86
225.223	24400.69
225.296	24414.1
225.369	24384.53
225.442	24371.17
225.514	24370.54
225.587	24366.49
225.66	24354.23
225.733	24354.81
225.806	24347.53
225.879	24336.1
225.952	24313.81
226.025	24317.24
226.097	24325.39
226.17	24311.45
226.243	24286.56
226.316	24271.56
226.389	24262.97
226.461	24255.45
226.534	24248.16
226.607	24226.8
226.68	24229.98
226.753	24218.21
226.825	24175.04
226.898	24178.9
226.971	24170.26
227.044	24158.78
227.117	24146.05
227.189	24128.68
227.262	24117.3
227.335	24105.68
227.407	24085.51
227.48	24082.43
227.553	24058.07
227.626	24027.58
227.698	24001.78
227.771	23983.07
227.844	23965.17
227.916	23948.44
227.989	23911.3
228.062	23877.25
228.134	23878.17
228.207	23856.37
228.28	23824.34
228.352	23823.47
228.425	23800.95
228.498	23783.15
228.57	23758.89
228.643	23758.07
228.716	23737.05
228.788	23705.55
228.861	23686.31
228.934	23685.59
229.006	23664.42
229.079	23642.04
229.151	23610.98
229.224	23580.22
229.296	23577.9
229.369	23583.16
229.442	23568.35
229.514	23538.84
229.587	23530.4
229.659	23492.84
229.732	23482.28
229.804	23473.98
229.877	23460.62
229.949	23443.6
230.022	23428.12
230.094	23412.3
230.167	23379.66
230.239	23349.18
230.312	23332.16
230.384	23331.48
230.457	23302.98
230.529	23289.34
230.602	23274.82
230.674	23253.99
230.747	23253.17
230.819	23234.85
230.892	23186.34
230.964	23158.47
231.037	23148.1
231.109	23128.53
231.181	23118.83
231.254	23074.48
231.326	23048.05
231.399	23013.72
231.471	22983.63
231.544	22940.58
231.616	22920.08
231.688	22902.39
231.761	22872.02
231.833	22841.83
231.905	22791.98
231.978	22774.72
232.05	22734.8
232.122	22705.14
232.195	22686.29
232.267	22675.4
232.339	22644.93
232.412	22625.74
232.484	22593.82
232.556	22571.79
232.629	22568.8
232.701	22545.42
232.773	22525.08
232.846	22486.36
232.918	22461.73
232.99	22436.08
233.062	22427.69
233.135	22399.54
233.207	22364.01
233.279	22348.58
233.351	22328.91
233.424	22289.67
233.496	22240.41
233.568	22231.68
233.64	22189.89
233.713	22153.06
233.785	22103.98
233.857	22074.19
233.929	22031.68
234.001	22022.9
234.074	22000.54
234.146	21942.59
234.218	21911.21
234.29	21886.72
234.362	21855.63
234.434	21809.21
234.507	21766.46
234.579	21709.1
234.651	21673.48
234.723	21644.36
234.795	21618.87
234.867	21575.34
234.939	21548.54
235.012	21513.36
235.084	21476.63
235.156	21445.06
235.228	21405.92
235.3	21377.58
235.372	21334.3
235.444	21312.51
235.516	21248.26
235.588	21223.1
235.66	21187.72
235.732	21133.6
235.804	21151.43
235.876	21119.24
235.948	21099.91
236.02	21069.16
236.092	21036.68
236.164	21001.01
236.236	20964
236.308	20911.95
236.38	20876.14
236.452	20837.68
236.524	20807.66
236.596	20787.03
236.668	20766.06
236.74	20732.38
236.812	20692.66
236.884	20671.02
236.956	20637.72
237.028	20610.35
237.1	20552.95
237.172	20536.61
237.244	20531.02
237.316	20455.55
237.388	20415.45
237.46	20375.55
237.532	20340.22
237.604	20308.61
237.675	20289.14
237.747	20261.81
237.819	20220.46
237.891	20189
237.963	20154.49
238.035	20115.07
238.107	20052.52
238.178	20021.58
238.25	19992.04
238.322	19975.17
238.394	19917
238.466	19869.15
238.538	19833.83
238.609	19807.51
238.681	19742.17
238.753	19689.49
238.825	19647.42
238.897	19610.61
238.968	19579.19
239.04	19541.74
239.112	19524.78
239.184	19471.53
239.255	19419.77
239.327	19391.78
239.399	19359.25
239.471	19324.94
239.542	19289.37
239.614	19258.24
239.686	19195.02
239.758	19161.43
239.829	19112.56
239.901	19094.68
239.973	19060.08
240.044	19026.4
240.116	18984.86
240.188	18950.4
240.259	18906.55
240.331	18866.55
240.403	18846.03
240.474	18802.7
240.546	18758.9
240.618	18694.42
240.689	18655.82
240.761	18622.67
240.833	18596.64
240.904	18547.1
240.976	18513.23
241.048	18485.9
241.119	18459.45
241.191	18434.53
241.262	18406.63
241.334	18362.05
241.405	18324.37
241.477	18284.13
241.549	18243.12
241.62	18212.71
241.692	18182.01
241.763	18162.35
241.835	18123.56
241.906	18080.33
241.978	18019.85
242.049	17993.92
242.121	17971.23
242.192	17943.76
242.264	17888.29
242.335	17833.78
242.407	17811.71
242.478	17766.22
242.55	17727.14
242.621	17676.73
242.693	17628.82
242.764	17585.5
242.836	17553.98
242.907	17516.49
242.979	17477.4
243.05	17445.16
243.122	17409.69
243.193	17379.81
243.264	17322.66
243.336	17287.09
243.407	17257.26
243.479	17247.24
243.55	17212.54
243.622	17185.21
243.693	17148.97
243.764	17134.42
243.836	17097.35
243.907	17055.52
243.978	17020.77
244.05	16989.49
244.121	16946.99
244.192	16919.95
244.264	16869.92
244.335	16834.55
244.407	16794.21
244.478	16779.99
244.549	16738.78
244.62	16698.59
244.692	16652.56
244.763	16620.8
244.834	16579.64
244.906	16544.75
244.977	16518.77
245.048	16498.53
245.119	16452.11
245.191	16403.77
245.262	16348.68
245.333	16336.25
245.405	16297.01
245.476	16274.31
245.547	16240.82
245.618	16213.29
245.689	16189.39
245.761	16164.28
245.832	16129.43
245.903	16098.78
245.974	16056.99
246.045	16019.87
246.117	16004.45
246.188	15953.26
246.259	15912.87
246.33	15881.78
246.401	15837.63
246.473	15778.97
246.544	15734.1
246.615	15709.42
246.686	15676.55
246.757	15662.23
246.828	15611.14
246.899	15604.2
246.97	15548.38
247.042	15506.25
247.113	15485.43
247.184	15472.47
247.255	15439.26
247.326	15410.67
247.397	15376.59
247.468	15340.59
247.539	15318.7
247.61	15268.33
247.681	15246.26
247.752	15228.61
247.823	15186.19
247.894	15157.27
247.965	15127.58
248.037	15098.75
248.108	15050.94
248.179	15020.38
248.25	14983.02
248.321	14961.66
248.392	14915.39
248.463	14908.35
248.534	14880.44
248.605	14856.1
248.675	14811.75
248.746	14785.19
248.817	14759.79
248.888	14738.53
248.959	14694.42
249.03	14671.29
249.101	14638.85
249.172	14610.5
249.243	14562.58
249.314	14548.36
249.385	14522.53
249.456	14504.21
249.527	14467.81
249.598	14453.5
249.669	14429.2
249.739	14408.33
249.81	14389.14
249.881	14351.16
249.952	14328.16
250.023	14301.99
250.094	14253.97
250.165	14217.63
250.235	14189.52
250.306	14157.52
250.377	14118.76
250.448	14104.15
250.519	14049.68
250.59	14039.27
250.66	14012.37
250.731	13998.68
250.802	13971.01
250.873	13946.13
250.944	13913.69
251.014	13885.58
251.085	13877.39
251.156	13857.19
251.227	13842.15
251.297	13824.8
251.368	13811.01
251.439	13792.84
251.51	13769.6
251.58	13738.07
251.651	13710.98
251.722	13694.11
251.792	13650.67
251.863	13627.05
251.934	13611.77
252.005	13622.91
252.075	13596.01
252.146	13584.73
252.217	13583.28
252.287	13570.8
252.358	13543.94
252.429	13539.65
252.499	13510.2
252.57	13484.84
252.641	13465.56
252.711	13437.94
252.782	13396
252.852	13391.37
252.923	13365.58
252.994	13350.59
253.064	13336.85
253.135	13298.72
253.205	13271.67
253.276	13276.88
253.347	13266.47
253.417	13242.9
253.488	13214.55
253.558	13194.25
253.629	13168.42
253.699	13140.99
253.77	13130.91
253.841	13102.33
253.911	13084.59
253.982	13059.71
254.052	13045.83
254.123	13021.68
254.193	13001.86
254.264	13016.86
254.334	12980.36
254.405	12944.69
254.475	12906.32
254.546	12882.31
254.616	12883.86
254.687	12868.14
254.757	12845.92
254.827	12820.42
254.898	12793.95
254.968	12770.04
255.039	12734.56
255.109	12720.54
255.18	12684.43
255.25	12636.42
255.321	12628.27
255.391	12586.48
255.461	12591.83
255.532	12545.89
255.602	12531.04
255.673	12487.27
255.743	12453.19
255.813	12411.93
255.884	12401.28
255.954	12396.94
256.024	12396.79
256.095	12367.24
256.165	12327.48
256.235	12305.54
256.306	12273.34
256.376	12268.47
256.446	12255.65
256.517	12249.19
256.587	12235.94
256.657	12219.79
256.728	12203.69
256.798	12180.94
256.868	12160.21
256.938	12127
257.009	12120.06
257.079	12101.11
257.149	12106.13
257.219	12067.08
257.29	12056.53
257.36	12016.62
257.43	12001.92
257.5	11953.91
257.571	11933.57
257.641	11931.5
257.711	11901.56
257.781	11895.01
257.852	11877.7
257.922	11839.43
257.992	11812.15
258.062	11791.47
258.132	11781.88
258.202	11761.88
258.273	11753.88
258.343	11755.37
258.413	11734.74
258.483	11707.41
258.553	11677.77
258.623	11647.79
258.693	11630.05
258.764	11632.75
258.834	11632.22
258.904	11620.17
258.974	11606.05
259.044	11589.09
259.114	11566.43
259.184	11555.59
259.254	11529.27
259.324	11489.37
259.394	11470.57
259.464	11466.72
259.535	11442.71
259.605	11421.31
259.675	11395.87
259.745	11374.23
259.815	11340.83
259.885	11318.27
259.955	11332.68
260.025	11308.44
260.095	11295.72
260.165	11287.82
260.235	11276.73
260.305	11251.53
260.375	11212.34
260.445	11210.71
260.515	11211.62
260.585	11205.6
260.655	11188.78
260.725	11182.08
260.795	11175.57
260.865	11186.9
260.934	11162.13
261.004	11152.34
261.074	11129.89
261.144	11125.94
261.214	11118.66
261.284	11104.39
261.354	11093.36
261.424	11056.44
261.494	11063.24
261.564	11043.72
261.634	11031.62
261.703	10991.72
261.773	10981.12
261.843	10978.9
261.913	10964.01
261.983	10928.88
262.053	10921.12
262.123	10901.66
262.192	10872.7
262.262	10862.53
262.332	10827.06
262.402	10813.81
262.472	10794.2
262.541	10760.42
262.611	10754.78
262.681	10730.35
262.751	10718.98
262.821	10702.5
262.89	10679.66
262.96	10657.78
263.03	10666.75
263.1	10653.5
263.169	10640.97
263.239	10631.48
263.309	10633.11
263.379	10620.68
263.448	10603.53
263.518	10588.64
263.588	10572.93
263.657	10577.22
263.727	10571.58
263.797	10556.74
263.867	10546.14
263.936	10522.05
264.006	10521.96
264.076	10504.95
264.145	10489.05
264.215	10469.34
264.285	10468.57
264.354	10441.4
264.424	10425.12
264.494	10386.86
264.563	10367.49
264.633	10372.02
264.702	10359.54
264.772	10324.66
264.842	10307.65
264.911	10303.56
264.981	10275.52
265.05	10262.36
265.12	10244.06
265.19	10226.9
265.259	10219.2
265.329	10209.46
265.398	10199.64
265.468	10208.74
265.537	10188.99
265.607	10176.8
265.676	10171.6
265.746	10160.33
265.815	10154.69
265.885	10139.61
265.955	10121.36
266.024	10101.22
266.094	10065.09
266.163	10068.41
266.232	10065.96
266.302	10049.24
266.371	10028.82
266.441	10020.92
266.51	10015.28
266.58	9995.15
266.649	9971.64
266.719	9969.95
266.788	9961.52
266.858	9964.94
266.927	9929.2
266.996	9917.35
267.066	9908.78
267.135	9885.61
267.205	9874.39
267.274	9864.46
267.343	9861.82
267.413	9856.18
267.482	9863.89
267.552	9862.35
267.621	9833.59
267.69	9804.35
267.76	9797.7
267.829	9794.38
267.898	9778.97
267.968	9756.28
268.037	9759.99
268.106	9757.2
268.176	9732.1
268.245	9714.09
268.314	9699.25
268.384	9705.85
268.453	9692.22
268.522	9684.42
268.592	9682.25
268.661	9669.3
268.73	9662.6
268.799	9642.09
268.869	9644.93
268.938	9615.21
269.007	9598.16
269.076	9582.7
269.146	9583.23
269.215	9573.31
269.284	9584.39
269.353	9563.11
269.422	9555.79
269.492	9531.9
269.561	9494.68
269.63	9494.97
269.699	9476.91
269.768	9471.13
269.838	9456.49
269.907	9459.52
269.976	9439.39
270.045	9407.57
270.114	9398.95
270.183	9377.13
270.253	9370.68
270.322	9338.13
270.391	9328.12
270.46	9335.34
270.529	9330.81
270.598	9324.55
270.667	9317.38
270.736	9284.92
270.806	9279.57
270.875	9277.36
270.944	9265.27
271.013	9287.33
271.082	9277.21
271.151	9277.65
271.22	9245.97
271.289	9240.67
271.358	9226.99
271.427	9218.95
271.496	9212.84
271.565	9192.52
271.634	9194.3
271.703	9219.73
271.772	9221.75
271.841	9210.68
271.91	9181.5
271.979	9175.14
272.048	9152.18
272.117	9147.12
272.186	9132.92
272.255	9144.19
272.324	9137.4
272.393	9132.73
272.462	9118.48
272.531	9108.56
272.6	9098.4
272.669	9102.39
272.738	9080.92
272.807	9071.63
272.876	9049.49
272.945	9074.71
273.013	9077.51
273.082	9078.37
273.151	9032.24
273.22	9028.63
273.289	9021.89
273.358	9033.64
273.427	9021.65
273.496	9021.65
273.564	9014.67
273.633	9018.38
273.702	8987.42
273.771	8977.46
273.84	8975.73
273.909	8967.54
273.977	8963.93
274.046	8948.72
274.115	8954.21
274.184	8938.76
274.253	8925.86
274.322	8936.93
274.39	8907.56
274.459	8897.36
274.528	8870.45
274.597	8867.22
274.665	8861.59
274.734	8861.59
274.803	8851.58
274.872	8841.81
274.94	8825.49
275.009	8880.73
275.078	8860.03
275.147	8851.8
275.215	8845.5
275.284	8848.53
275.353	8842.03
275.421	8822.44
275.49	8834.62
275.559	8820.27
275.627	8815.99
275.696	8811.03
275.765	8805.59
275.833	8797.51
275.902	8797.03
275.971	8803.86
276.039	8813.63
276.108	8820.08
276.177	8817.87
276.245	8806.17
276.314	8803.67
276.383	8813.63
276.451	8746.7
276.52	8754.59
276.588	8773.26
276.657	8776.73
276.725	8767.87
276.794	8770.33
276.863	8776.49
276.931	8759.3
277	8763.2
277.068	8773.69
277.137	8790.01
277.205	8794.01
277.274	8806.33
277.342	8808.35
277.411	8789.48
277.48	8774.03
277.548	8758.68
277.617	8763.01
277.685	8756.18
277.754	8762.58
277.822	8754.25
277.89	8764.6
277.959	8759.35
278.027	8742.7
278.096	8731.49
278.164	8754.5
278.233	8739.38
278.301	8725.91
278.37	8723.36
278.438	8709.54
278.507	8710.27
278.575	8685.72
278.643	8676.29
278.712	8655.69
278.78	8645.63
278.849	8654.67
278.917	8665.99
278.985	8667.81
279.054	8665.94
279.122	8677.3
279.191	8673.93
279.259	8669.07
279.327	8644.47
279.396	8656.6
279.464	8656.02
279.532	8662.71
279.601	8653.76
279.669	8649.33
279.737	8660.21
279.806	8665.36
279.874	8674.55
279.942	8672.91
280.011	8670.89
280.079	8678.54
280.147	8701.21
280.215	8699.43
280.284	8697.17
280.352	8686.53
280.42	8688.51
280.488	8682.34
280.557	8677.05
280.625	8682.59
280.693	8685.86
280.761	8691.2
280.83	8676.42
280.898	8685.47
280.966	8668.19
281.034	8641.05
281.102	8632.58
281.171	8631.91
281.239	8638.26
281.307	8628.59
281.375	8619.78
281.443	8644.04
281.512	8640.23
281.58	8643.17
281.648	8636.05
281.716	8638.07
281.784	8635.32
281.852	8632.05
281.92	8626.18
281.989	8635.42
282.057	8617.66
282.125	8652.08
282.193	8653.14
282.261	8651.74
282.329	8647.61
282.397	8653.19
282.465	8656.94
282.533	8672.97
282.601	8656.94
282.67	8637.69
282.738	8628.83
282.806	8642.26
282.874	8627.53
282.942	8627
283.01	8616.37
283.078	8619.45
283.146	8616.56
283.214	8624.31
283.282	8622.43
283.35	8633.64
283.418	8622.53
283.486	8625.41
283.554	8589.65
283.622	8587.34
283.69	8589.07
283.758	8579.44
283.826	8584.26
283.894	8584.69
283.962	8600.04
284.03	8612.22
284.098	8614.43
284.165	8614.38
284.233	8608.71
284.301	8603.07
284.369	8593.06
284.437	8591.57
284.505	8588.06
284.573	8599.18
284.641	8584.16
284.709	8584.69
284.777	8571.94
284.845	8578.58
284.912	8584.35
284.98	8586.71
285.048	8583.54
285.116	8580.41
285.184	8593.5
285.252	8589.07
285.319	8578.63
285.387	8566.69
285.455	8553.65
285.523	8564
285.591	8562.22
285.659	8562.79
285.726	8574.15
285.794	8562.12
285.862	8560.44
285.93	8557.12
285.997	8551.92
286.065	8547.73
286.133	8543.21
286.201	8539.31
286.269	8525.07
286.336	8516.31
286.404	8506.4
286.472	8515.11
286.539	8499.28
286.607	8484.17
286.675	8491.38
286.743	8499.9
286.81	8499.08
286.878	8507.84
286.946	8494.7
287.013	8490.47
287.081	8489.84
287.149	8471.32
287.216	8488.73
287.284	8482.33
287.352	8483.58
287.419	8480.12
287.487	8494.8
287.555	8496.19
287.622	8494.75
287.69	8505.14
287.758	8509.23
287.825	8505.77
287.893	8489.02
287.96	8493.69
288.028	8504.47
288.096	8502.59
288.163	8507.36
288.231	8493.88
288.298	8495.47
288.366	8498.69
288.433	8501.34
288.501	8495.95
288.569	8502.74
288.636	8496.72
288.704	8509.67
288.771	8517.27
288.839	8507.5
288.906	8504.52
288.974	8526.37
289.041	8526.9
289.109	8512.94
289.176	8521.85
289.244	8531.81
289.311	8550.24
289.379	8563.04
289.446	8562.32
289.514	8565.64
289.581	8565.78
289.649	8575.74
289.716	8582.72
289.783	8582.91
289.851	8599.37
289.918	8595.47
289.986	8605.63
290.053	8617.28
290.121	8612.9
290.188	8616.17
290.255	8643.5
290.323	8642.06
290.39	8625.16
290.458	8628.63
290.525	8640.61
290.592	8639.89
290.66	8636.18
290.727	8631.32
290.794	8644.17
290.862	8647.69
290.929	8647.21
290.996	8648.07
291.064	8655.92
291.131	8659.62
291.198	8673.24
291.266	8665.74
291.333	8669.06
291.4	8675.99
291.468	8682.53
291.535	8676.95
291.602	8681.81
291.669	8681.96
291.737	8683.4
291.804	8687.06
291.871	8704.96
291.938	8714.01
292.006	8735.91
292.073	8752.76
292.14	8766.19
292.207	8759.31
292.275	8761.42
292.342	8764.7
292.409	8785.49
292.476	8802.97
292.543	8800.27
292.611	8803.54
292.678	8826.79
292.745	8847.63
292.812	8850.52
292.879	8845.75
292.946	8855.86
293.014	8866.02
293.081	8869
293.148	8879.25
293.215	8890.66
293.282	8881.71
293.349	8892.83
293.416	8874.54
293.484	8881.85
293.551	8884.74
293.618	8900.39
293.685	8926.57
293.752	8925.42
293.819	8925.28
293.886	8915.17
293.953	8920.6
294.02	8929.03
294.087	8937.84
294.154	8937.17
294.221	8954.3
294.288	8961.24
294.356	8975.58
294.423	8983.53
294.49	8974.81
294.557	8986.61
294.624	8983
294.691	9005.33
294.758	9003.21
294.825	9017.56
294.892	9020.59
294.959	9021.41
295.026	9031.76
295.093	9018.42
295.16	9020.11
295.226	9023.82
295.293	9047.12
295.36	9047.99
295.427	9057.95
295.494	9068.98
295.561	9072.16
295.628	9093.25
295.695	9108.94
295.762	9108.08
295.829	9116.17
295.896	9134.22
295.963	9148.04
296.03	9152.8
296.096	9158.15
296.163	9168.98
296.23	9180.49
296.297	9187.71
296.364	9191.51
296.431	9197.43
296.498	9196.09
296.564	9226.03
296.631	9226.18
296.698	9210.43
296.765	9234.55
296.832	9222.66
296.899	9204.22
296.965	9227.43
297.032	9206.58
297.099	9219.63
297.166	9227.76
297.233	9223.48
297.299	9218.95
297.366	9216.64
297.433	9227.86
297.5	9237.01
297.566	9237.78
297.633	9236.67
297.7	9246.06
297.767	9243.36
297.833	9241.24
297.9	9242.69
297.967	9222.18
298.033	9237.15
298.1	9262.58
298.167	9257.67
298.234	9265.37
298.3	9278.9
298.367	9271.05
298.434	9279.96
298.5	9275.09
298.567	9271.96
298.634	9272.2
298.7	9291.22
298.767	9291.75
298.834	9300.57
298.9	9293.29
298.967	9290.07
299.033	9297.92
299.1	9307.98
299.167	9324.11
299.233	9319.63
299.3	9339.13
299.366	9357.86
299.433	9366.58
299.5	9344.48
299.566	9345.97
299.633	9359.64
299.699	9367.83
299.766	9364.51
299.832	9363.64
299.899	9364.85
299.965	9381.46
300.032	9375.87
300.099	9382.95
300.165	9391.28
300.232	9386.9
300.298	9392.2
300.365	9405.82
300.431	9408.38
300.498	9403.61
300.564	9405.29
300.631	9422.49
300.697	9436.26
300.763	9432.36
300.83	9434.33
300.896	9449.55
300.963	9461.25
301.029	9466.98
301.096	9467.61
301.162	9474.35
301.229	9472.28
301.295	9470.64
301.361	9474.97
301.428	9484.32
301.494	9468.86
301.561	9466.64
301.627	9472.04
301.693	9471.55
301.76	9467.99
301.826	9467.94
301.892	9476.03
301.959	9485.91
302.025	9482.05
302.092	9468.91
302.158	9479.45
302.224	9475.41
302.291	9469.29
302.357	9463.37
302.423	9457.54
302.49	9449.55
302.556	9469
302.622	9474.4
302.688	9483.55
302.755	9492.31
302.821	9501.27
302.887	9508.59
302.954	9510.42
303.02	9518.03
303.086	9525.88
303.152	9527.75
303.219	9517.11
303.285	9521.11
303.351	9525.01
303.417	9526.6
303.483	9519.91
303.55	9512.92
303.616	9518.75
303.682	9515.38
303.748	9508.54
303.815	9525.01
303.881	9535.17
303.947	9519.19
304.013	9515.86
304.079	9504.93
304.145	9491.83
304.212	9487.93
304.278	9477.63
304.344	9478.35
304.41	9462.99
304.476	9449.74
304.542	9445.89
304.608	9454.08
304.674	9438.14
304.741	9435.3
304.807	9435.25
304.873	9449.55
304.939	9460.87
305.005	9433.51
305.071	9426.49
305.137	9427.11
305.203	9396.72
305.269	9398.02
305.335	9407.8
305.401	9403.76
305.467	9404.86
305.533	9405.44
305.599	9411.61
305.666	9421.86
305.732	9413.72
305.798	9428.56
305.864	9459.14
305.93	9463.13
305.996	9457.88
306.062	9457.36
306.128	9451.05
306.194	9437.42
306.259	9428.22
306.325	9417.43
306.391	9435.83
306.457	9449.41
306.523	9447.58
306.589	9473.97
306.655	9468.04
306.721	9452.97
306.787	9439.63
306.853	9451.14
306.919	9434.14
306.985	9428.8
307.051	9421.38
307.117	9421.14
307.183	9409.2
307.248	9375.68
307.314	9380.06
307.38	9385.41
307.446	9392.49
307.512	9382.81
307.578	9391.33
307.644	9385.65
307.709	9383.1
307.775	9375.78
307.841	9368.7
307.907	9376.98
307.973	9358.1
308.039	9352.81
308.104	9359.79
308.17	9368.99
308.236	9354.01
308.302	9359.3
308.368	9343.9
308.433	9344.91
308.499	9335.86
308.565	9329.88
308.631	9335.33
308.696	9311.68
308.762	9299.16
308.828	9297.24
308.894	9282.75
308.959	9259.01
309.025	9254.44
309.091	9253.71
309.156	9245.91
309.222	9250.15
309.288	9233.06
309.354	9214.76
309.419	9210.91
309.485	9193.09
309.551	9190.25
309.616	9177.64
309.682	9172.73
309.748	9165.02
309.813	9156.74
309.879	9150.34
309.945	9136.19
310.01	9131.23
310.076	9140.9
310.141	9134.6
310.207	9113.17
310.273	9111.05
310.338	9117.6
310.404	9098.44
310.469	9088.18
310.535	9073.31
310.601	9044.52
310.666	9052.22
310.732	9053.33
310.797	9038.88
310.863	9025.45
310.928	9022.13
310.994	9016.55
311.059	9011.88
311.125	9011.68
311.191	9019.53
311.256	9008.8
311.322	9015.15
311.387	8994.98
311.453	9316.73
311.518	9298.82
311.584	9299.35
311.649	9308.16
311.715	9298.68
311.78	9300.94
311.846	9290.16
311.911	9297.86
311.976	9304.94
312.042	9291.41
312.107	9278.8
312.173	9275.19
312.238	9271.58
312.304	9264.06
312.369	9260.89
312.434	9252.51
312.5	9243.27
312.565	9211.88
312.631	9217.08
312.696	9206.92
312.761	9206.39
312.827	8871.36
312.892	8901.93
312.958	8894.52
313.023	8888.02
313.088	8886.52
313.154	8868.86
313.219	8856.64
313.284	8848.21
313.35	8843.25
313.415	8824.34
313.48	8824.72
313.546	8823.81
313.611	8832.23
313.676	8821.35
313.741	8811.15
313.807	8815
313.872	8814.37
313.937	8825.4
314.003	8833.24
314.068	8833.63
314.133	8840.03
314.198	8824.96
314.264	8803.25
314.329	8796.08
314.394	8792.47
314.459	8794.15
314.525	8816.44
314.59	8818.07
314.655	8806.62
314.72	8811.96
314.785	8827.8
314.851	8819.37
314.916	8803.3
314.981	8788.09
315.046	8780.39
315.111	8765.76
315.176	8756.85
315.242	8755.26
315.307	8747.27
315.372	8727.11
315.437	8715.36
315.502	8708.62
315.567	8718.35
315.632	8704.58
315.698	8707.61
315.763	8701.84
315.828	8686.68
315.893	8680.51
315.958	8669.11
316.023	8653.32
316.088	8637.63
316.153	8606.11
316.218	8600.87
316.283	8583.4
316.348	8562.9
316.413	8559.53
316.479	8549.09
316.544	8514.98
316.609	8493.23
316.674	8459.16
316.739	8425.48
316.804	8393.78
316.869	8355.04
316.934	8318.19
316.999	8288.31
317.064	8236.01
317.129	8187.51
317.194	8149.32
317.259	8104.48
317.324	8057.87
317.389	8020.65
317.454	7976.82
317.518	7943.2
317.583	7917.13
317.648	7893.42
317.713	7861.77
317.778	7801.75
317.843	7770.59
317.908	7727.32
317.973	7688.32
318.038	7665.91
318.103	7630.33
318.168	7601.87
318.233	7570.09
318.297	7513.6
318.362	7477.11
318.427	7434.19
318.492	7413.09
318.557	7366.18
318.622	7330.61
318.687	7307.59
318.751	7264.05
318.816	7235.84
318.881	7200.9
318.946	7143.18
319.011	7102.43
319.075	7055.06
319.14	7022.73
319.205	6979.1
319.27	6949.51
319.335	6905.31
319.399	6861.92
319.464	6832.96
319.529	6776.33
319.594	6736.51
319.658	6709.62
319.723	6662.17
319.788	6633.6
319.853	6581.78
319.917	6552.68
319.982	6505.91
320.047	6472.2
320.112	6447.62
320.176	6391.64
320.241	6356.98
320.306	6327.7
320.37	6281.14
320.435	6251.29
320.5	6222.83
320.564	6180.22
320.629	6140.34
320.694	6103.01
320.758	6055.75
320.823	6010.36
320.888	5984.7
320.952	5937.83
321.017	5898.01
321.082	5860.94
321.146	5831.77
321.211	5797.09
321.275	5753.65
321.34	5707.09
321.405	5664.36
321.469	5619.87
321.534	5577.93
321.598	5527.16
321.663	5495.46
321.727	5466.36
321.792	5419.11
321.857	5372.8
321.921	5338.73
321.986	5298.43
322.05	5246.5
322.115	5210.76
322.179	5165.63
322.244	5110.79
322.308	5075.06
322.373	5030.61
322.437	4990.34
322.502	4958.76
322.566	4905.27
322.631	4869.41
322.695	4830.06
322.76	4780.94
322.824	4741.88
322.889	4701.21
322.953	4659.05
323.018	4593.53
323.082	4530.46
323.146	4482.77
323.211	4432.11
323.275	4386.51
323.34	4338.97
323.404	4302.77
323.468	4259.2
323.533	4218.12
323.597	4172.1
323.662	4122.04
323.726	4084.18
323.79	4039.72
323.855	3978.41
323.919	3936.12
323.983	3895.44
324.048	3829.16
324.112	3953.71
324.177	3828.46
324.241	3630.3
324.305	3434.19
324.37	3243.58
324.434	3058.52
324.498	3016.35
324.562	2966.41
324.627	2908.76
324.691	2854.35
324.755	2789.63
324.82	2714.2
324.884	2637.03
324.948	2570.06
325.012	2477.21
325.077	2361.28
