Data from 20250702_urea_0.5M_MAYP1162681_09-44-59-830.txt Node
Date: Thu Jul 03 09:44:59 BST 2025
User: adleo
Spectrometer: MAYP116268
Trigger mode: 0
Integration Time (sec): 1.000000E0
Scans to average: 1
Electric dark correction enabled: true
Nonlinearity correction enabled: true
Boxcar width: 10
XAxis mode: Wavelengths
Number of Pixels in Spectrum: 2068
>>>>>Begin Spectral Data<<<<<
179.565	1179.67
179.642	1232.26
179.718	1272.54
179.795	1307.21
179.871	1336.66
179.948	1351.39
180.024	1370.55
180.101	1393.9
180.177	1407.76
180.254	1431.46
180.33	1454.46
180.407	1505.31
180.483	1597.76
180.56	1685.89
180.636	1767.69
180.712	1753
180.789	1766.16
180.865	1777.19
180.942	1783.13
181.018	1792.92
181.095	1803.61
181.171	1807.61
181.248	1809.79
181.324	1822.96
181.4	1832.94
181.477	1846.78
181.553	1861.65
181.63	1882.66
181.706	1896.54
181.782	1907.19
181.859	1905.33
181.935	1908.38
182.011	1906.71
182.088	1922.16
182.164	1940.48
182.24	1954.64
182.317	1965.38
182.393	1962.39
182.469	1980.41
182.546	1994.67
182.622	2000.57
182.698	1996.1
182.775	2006.65
182.851	2020.73
182.927	2015.69
183.003	2008.84
183.08	2002.66
183.156	2011.46
183.232	2007.18
183.308	1995.91
183.385	2002.76
183.461	2021.45
183.537	2025.54
183.613	2036.57
183.69	2030.77
183.766	2021.11
183.842	2028.39
183.918	2032.71
183.995	2046.32
184.071	2046.98
184.147	2043.94
184.223	2031.48
184.299	2042.8
184.375	2033.25
184.452	2040.29
184.528	2091.37
184.604	2102.41
184.68	2111.96
184.756	2120
184.832	2124.57
184.908	2129.8
184.985	2127.8
185.061	2109.44
185.137	2118.63
185.213	2107.78
185.289	2108.4
185.365	2100.7
185.441	2100.08
185.517	2114.54
185.593	2111.31
185.669	2108.41
185.745	2116.45
185.822	2132.99
185.898	2127
185.974	2132.8
186.05	2125.18
186.126	2089.6
186.202	2085.66
186.278	2083.56
186.354	2072.76
186.43	2080.62
186.506	2081.42
186.582	2081.61
186.658	2090.12
186.734	2069.67
186.81	2071.34
186.886	2072.24
186.962	2085.37
187.038	2080.61
187.114	2071.81
187.19	2077.47
187.266	2066.06
187.341	2065.01
187.417	2061.06
187.493	2062.54
187.569	2067.39
187.645	2058.92
187.721	2046.98
187.797	2052.98
187.873	2058.68
187.949	2053.07
188.025	2046.75
188.101	2047.6
188.176	2052.93
188.252	2047.65
188.328	2054.12
188.404	2057.21
188.48	2049.46
188.556	2041.61
188.632	2039.99
188.707	2040.51
188.783	2039.18
188.859	2037.52
188.935	2026.2
189.011	2031.76
189.086	2023.63
189.162	2015.74
189.238	2014.69
189.314	2012.79
189.39	2006.13
189.465	1996.95
189.541	2015.12
189.617	1999.43
189.693	1996.53
189.768	1998.67
189.844	2022.74
189.92	2016.66
189.996	2020.41
190.071	2035.63
190.147	2034.16
190.223	2043.15
190.298	2035.3
190.374	2018.7
190.45	2031.4
190.526	2040.2
190.601	2034.87
190.677	2035.87
190.753	2062.51
190.828	2065.32
190.904	2078.12
190.98	2096.1
191.055	2105.13
191.131	2096.9
191.207	2117.83
191.282	2126.72
191.358	2118.97
191.433	2106.17
191.509	2113.11
191.585	2110.97
191.66	2111.11
191.736	2117.15
191.811	2109.02
191.887	2125.43
191.963	2152.12
192.038	2155.4
192.114	2155.49
192.189	2158.63
192.265	2155.49
192.34	2133.6
192.416	2136.5
192.491	2134.79
192.567	2135.7
192.642	2138.88
192.718	2140.31
192.793	2128.46
192.869	2124.8
192.944	2124.23
193.02	2131.85
193.095	2139.6
193.171	2148.59
193.246	2148.92
193.322	2148.07
193.397	2151.3
193.473	2138.4
193.548	2121.13
193.624	2126.13
193.699	2125.89
193.775	2143.4
193.85	2144.59
193.925	2155.34
194.001	2150.35
194.076	2144.36
194.152	2131.89
194.227	2124.42
194.302	2110.87
194.378	2113.44
194.453	2110.3
194.529	2126.76
194.604	2111.06
194.679	2104.35
194.755	2084.28
194.83	2094.71
194.905	2093.85
194.981	2099.46
195.056	2093.23
195.131	2098.7
195.207	2096.7
195.282	2086
195.357	2067.35
195.433	2084
195.508	2072.91
195.583	2081.38
195.659	2093.46
195.734	2103.88
195.809	2104.6
195.884	2114.58
195.96	2116.01
196.035	2129.04
196.11	2123.67
196.185	2134.56
196.261	2137.7
196.336	2169.43
196.411	2158.72
196.486	2164
196.561	2158.34
196.637	2165.19
196.712	2178.84
196.787	2184.46
196.862	2200.06
196.937	2208.81
197.013	2213.19
197.088	2222.42
197.163	2242.98
197.238	2261.75
197.313	2258.51
197.388	2269.64
197.464	2303.83
197.539	2313.63
197.614	2307.58
197.689	2318.01
197.764	2336.91
197.839	2357.09
197.914	2350.28
197.989	2372.08
198.065	2386.64
198.14	2435.94
198.215	2462.36
198.29	2473.98
198.365	2484.36
198.44	2494.98
198.515	2523.98
198.59	2541.26
198.665	2566.69
198.74	2576.17
198.815	2575.89
198.89	2600.27
198.965	2633.57
199.04	2625.8
199.115	2642.33
199.19	2684.23
199.265	2686.47
199.34	2693.48
199.415	2728.6
199.49	2748.65
199.565	2756.18
199.64	2778.29
199.715	2773.85
199.79	2782.57
199.865	2790.01
199.94	2792.05
200.015	2824.7
200.09	2827.41
200.165	2832.89
200.24	2840.23
200.315	2879.06
200.39	2892.6
200.464	2898.56
200.539	2900.37
200.614	2918.57
200.689	2940.83
200.764	2946.27
200.839	2967.71
200.914	2973.28
200.989	2962.26
201.063	2976.61
201.138	2960.8
201.213	2961.37
201.288	2944.55
201.363	2949.03
201.438	2949.55
201.512	2965.09
201.587	2945.82
201.662	2952.07
201.737	2965.13
201.812	2973.57
201.886	2940.89
201.961	2952.05
202.036	2941.24
202.111	2937.18
202.186	2904.31
202.26	2889.44
202.335	2872.47
202.41	2863.08
202.485	2844.17
202.559	2825.11
202.634	2798.23
202.709	2805.56
202.784	2786.65
202.858	2786.88
202.933	2768.83
203.008	2764.87
203.082	2746.86
203.157	2747.34
203.232	2704.71
203.306	2683.07
203.381	2650
203.456	2627.14
203.53	2603.73
203.605	2582.26
203.68	2560.62
203.754	2560.34
203.829	2542.19
203.904	2518.05
203.978	2506.23
204.053	2512.47
204.127	2499.52
204.202	2500.19
204.277	2485.14
204.351	2478.1
204.426	2471.05
204.5	2464.57
204.575	2430.91
204.65	2436.87
204.724	2430.29
204.799	2437.24
204.873	2429.29
204.948	2427.38
205.022	2415.34
205.097	2409.29
205.171	2421.29
205.246	2425.62
205.32	2420.24
205.395	2423.96
205.469	2416.96
205.544	2422.11
205.618	2407.25
205.693	2418.15
205.767	2406.06
205.842	2426.06
205.916	2419.4
205.991	2409.35
206.065	2413.07
206.14	2426.1
206.214	2421.01
206.289	2410.29
206.363	2423.81
206.438	2429.15
206.512	2436.34
206.586	2455.19
206.661	2461.43
206.735	2441.87
206.81	2441.96
206.884	2457.34
206.958	2444.01
207.033	2462.09
207.107	2474.01
207.181	2504.44
207.256	2500.68
207.33	2517.25
207.405	2531.4
207.479	2552.5
207.553	2561.21
207.628	2545.27
207.702	2557.26
207.776	2555.31
207.851	2564.41
207.925	2582.32
207.999	2585.89
208.073	2588.32
208.148	2594.18
208.222	2587.75
208.296	2624.6
208.371	2645
208.445	2661.1
208.519	2695.49
208.593	2713.64
208.668	2712.02
208.742	2722.17
208.816	2731.22
208.89	2755.05
208.965	2760.25
209.039	2776.12
209.113	2801.9
209.187	2834.67
209.261	2844.15
209.336	2876.8
209.41	2908.07
209.484	2921.66
209.558	2953.17
209.632	2978.58
209.707	3007.23
209.781	3042.51
209.855	3073.61
209.929	3113.28
210.003	3136.41
210.077	3156.68
210.151	3224.67
210.226	3282.18
210.3	3335.14
210.374	3382.84
210.448	3413.96
210.522	3452.35
210.596	3492.97
210.67	3534.31
210.744	3610.62
210.818	3673.38
210.892	3724.01
210.966	3757.15
211.041	3810.46
211.115	3846.14
211.189	3910.77
211.263	3970.07
211.337	4017.89
211.411	4074.63
211.485	4108.92
211.559	4163.77
211.633	4210.02
211.707	4224.99
211.781	4280.74
211.855	4291.22
211.929	4331.04
212.003	4360.58
212.077	4422.54
212.151	4486.33
212.225	4550.07
212.299	4596.18
212.373	4643.51
212.447	4698.04
212.52	4783.31
212.594	4838.33
212.668	4904.2
212.742	4952.09
212.816	5003.91
212.89	5062.38
212.964	5120.6
213.038	5185
213.112	5265.99
213.186	5345.99
213.26	5386.89
213.333	5409.85
213.407	5479.9
213.481	5550.33
213.555	5628.28
213.629	5678.82
213.703	5731.34
213.777	5792.26
213.85	5835.28
213.924	5930.04
213.998	5995.35
214.072	6050.02
214.146	6109.04
214.219	6180.02
214.293	6240.77
214.367	6307.82
214.441	6383.9
214.515	6439.88
214.588	6489.57
214.662	6524.96
214.736	6573.46
214.81	6648.57
214.883	6721.25
214.957	6776.51
215.031	6831.59
215.105	6878.88
215.178	6932.15
215.252	6984.37
215.326	7031.26
215.4	7088.77
215.473	7106.88
215.547	7155.33
215.621	7210.66
215.694	7279.79
215.768	7323.1
215.842	7375.63
215.915	7429.81
215.989	7470.1
216.063	7527.37
216.136	7586.03
216.21	7641.22
216.284	7711.52
216.357	7777.06
216.431	7842.76
216.504	7917.25
216.578	8007.44
216.652	8080.06
216.725	8156.07
216.799	8228.9
216.873	8295.29
216.946	8360.67
217.02	8420.99
217.093	8487.59
217.167	8530.23
217.24	8581.01
217.314	8635.33
217.387	8691.15
217.461	8744.91
217.535	8816.15
217.608	8867.7
217.682	8932.88
217.755	9010.33
217.829	9059.14
217.902	9121.15
217.976	9177.58
218.049	9231.17
218.123	9270.32
218.196	9334.5
218.27	9385.45
218.343	9433.17
218.417	9496.69
218.49	9548.99
218.563	9625.7
218.637	9682.06
218.71	9768.51
218.784	9834.6
218.857	9906.22
218.931	9974.95
219.004	10034.77
219.077	10107.47
219.151	10171.2
219.224	10229.4
219.298	10292.95
219.371	10369.5
219.444	10416.76
219.518	10480.26
219.591	10541.79
219.665	10635.27
219.738	10699.98
219.811	10752.88
219.885	10832
219.958	10898.65
220.031	10961
220.105	11031.31
220.178	11100.03
220.251	11146.05
220.325	11214.78
220.398	11285.38
220.471	11352.85
220.544	11428.51
220.618	11481.1
220.691	11548.23
220.764	11611.95
220.838	11672.39
220.911	11728.69
220.984	11817.03
221.057	11884.85
221.131	11948.86
221.204	11976.38
221.277	12056.68
221.35	12145.52
221.424	12199.65
221.497	12261.4
221.57	12326.9
221.643	12390.44
221.716	12453.34
221.79	12506.99
221.863	12561.95
221.936	12618.59
222.009	12674.41
222.082	12733.22
222.155	12788.27
222.229	12867.81
222.302	12926.23
222.375	12986.3
222.448	13045.59
222.521	13097.8
222.594	13147.93
222.667	13195.27
222.74	13266.61
222.814	13317.95
222.887	13366.26
222.96	13416.92
223.033	13477.13
223.106	13541.15
223.179	13596.73
223.252	13647.64
223.325	13702.06
223.398	13757.26
223.471	13805.61
223.544	13854.06
223.617	13915.57
223.69	13968.26
223.763	13998.1
223.837	14055.32
223.91	14097.02
223.983	14133.99
224.056	14168.51
224.129	14223.94
224.202	14286.13
224.275	14324.88
224.348	14360.07
224.42	14397.63
224.493	14436.05
224.566	14471.57
224.639	14520.98
224.712	14559.26
224.785	14611.99
224.858	14661.11
224.931	14698.38
225.004	14739.54
225.077	14791.07
225.15	14798.69
225.223	14838.41
225.296	14904.21
225.369	14927.58
225.442	14969.09
225.514	15015.94
225.587	15067.42
225.66	15101.94
225.733	15145.66
225.806	15191.64
225.879	15228.23
225.952	15252.18
226.025	15315.43
226.097	15376.74
226.17	15415.63
226.243	15443.83
226.316	15470.34
226.389	15510.74
226.461	15554.84
226.534	15608.34
226.607	15641.17
226.68	15713.13
226.753	15757.23
226.825	15776.75
226.898	15840.19
226.971	15886.07
227.044	15938.13
227.117	15981.55
227.189	16033.37
227.262	16082.29
227.335	16129.48
227.407	16173.48
227.48	16224.33
227.553	16264.34
227.626	16290.7
227.698	16320.82
227.771	16352.3
227.844	16383.24
227.916	16422.95
227.989	16441.46
228.062	16459.29
228.134	16523.73
228.207	16556.65
228.28	16586.97
228.352	16624.9
228.425	16656.37
228.498	16691.21
228.57	16704.66
228.643	16749.24
228.716	16783.36
228.788	16797.63
228.861	16817.53
228.934	16858.16
229.006	16895.27
229.079	16914.65
229.151	16935.37
229.224	16956.34
229.296	16999.04
229.369	17060.92
229.442	17105.64
229.514	17138.22
229.587	17184.68
229.659	17193.45
229.732	17224.78
229.804	17261.02
229.877	17311.91
229.949	17347.62
230.022	17398.03
230.094	17436.92
230.167	17466.56
230.239	17478.7
230.312	17512.83
230.384	17564.73
230.457	17592.73
230.529	17614.94
230.602	17641.31
230.674	17674.8
230.747	17715.52
230.819	17752.29
230.892	17743.57
230.964	17769.06
231.037	17803.04
231.109	17826.46
231.181	17858.65
231.254	17872
231.326	17898.46
231.399	17912.43
231.471	17925.01
231.544	17918.89
231.616	17944.43
231.688	17965.97
231.761	17984.62
231.833	17999.13
231.905	17996.14
231.978	18008.91
232.05	18028.19
232.122	18049.25
232.195	18065.44
232.267	18091.17
232.339	18103.37
232.412	18138.11
232.484	18151.03
232.556	18154.98
232.629	18188.28
232.701	18206.3
232.773	18223.84
232.846	18227.02
232.918	18244.18
232.99	18260.37
233.062	18285.33
233.135	18304.95
233.207	18297.77
233.279	18323.31
233.351	18340.9
233.424	18351.45
233.496	18354.25
233.568	18384.37
233.64	18386.39
233.713	18393.28
233.785	18399.45
233.857	18405.18
233.929	18393.47
234.001	18412.36
234.074	18436.12
234.146	18417.95
234.218	18426
234.29	18430.82
234.362	18427.93
234.434	18414.92
234.507	18405.81
234.579	18390.97
234.651	18384.17
234.723	18396.41
234.795	18397.52
234.867	18398.53
234.939	18421.76
235.012	18425.95
235.084	18422.39
235.156	18426.87
235.228	18421.86
235.3	18423.74
235.372	18429.28
235.444	18444.94
235.516	18416.36
235.588	18412.17
235.66	18414.39
235.732	18395.26
235.804	18440.12
235.876	18442.34
235.948	18450
236.02	18449.81
236.092	18451.69
236.164	18449.71
236.236	18437.66
236.308	18430
236.38	18423.01
236.452	18393.52
236.524	18396.56
236.596	18411.45
236.668	18413.09
236.74	18409.81
236.812	18401.42
236.884	18403.83
236.956	18391.64
237.028	18387.69
237.1	18370.63
237.172	18379.35
237.244	18394.97
237.316	18349.77
237.388	18341.48
237.46	18319.84
237.532	18313.43
237.604	18298.3
237.675	18302.15
237.747	18298.25
237.819	18284.32
237.891	18281.72
237.963	18264.56
238.035	18242.83
238.107	18183.89
238.178	18183.6
238.25	18171.7
238.322	18176.23
238.394	18136.38
238.466	18122.88
238.538	18105.34
238.609	18101.87
238.681	18065.58
238.753	18031.95
238.825	18010.45
238.897	17997.78
238.968	18001.49
239.04	17986.94
239.112	18001.11
239.184	17969.11
239.255	17952.87
239.327	17936.43
239.399	17912.82
239.471	17907.61
239.542	17894.75
239.614	17894.22
239.686	17853.35
239.758	17840.97
239.829	17804.49
239.901	17803.33
239.973	17781.93
240.044	17772.53
240.116	17749.79
240.188	17726.7
240.259	17707.76
240.331	17684.39
240.403	17667.96
240.474	17622.46
240.546	17592.92
240.618	17541.21
240.689	17520.39
240.761	17497.16
240.833	17488.15
240.904	17460.78
240.976	17432.54
241.048	17413.26
241.119	17406.27
241.191	17387.33
241.262	17380.88
241.334	17359.19
241.405	17325.21
241.477	17296.06
241.549	17265.94
241.62	17237.79
241.692	17219.57
241.763	17201.4
241.835	17170.8
241.906	17142.46
241.978	17114.22
242.049	17099.23
242.121	17085.4
242.192	17068.92
242.264	17026.75
242.335	16981.16
242.407	16970.84
242.478	16931.61
242.55	16905.25
242.621	16867.32
242.693	16842.45
242.764	16803.66
242.836	16763.46
242.907	16743.94
242.979	16716.9
243.05	16694.69
243.122	16675.55
243.193	16652.71
243.264	16612.08
243.336	16585.47
243.407	16564.22
243.479	16551.49
243.55	16527.25
243.622	16506.91
243.693	16477.03
243.764	16465.95
243.836	16432.64
243.907	16400.21
243.978	16385.07
244.05	16365.31
244.121	16315.67
244.192	16286.84
244.264	16243.03
244.335	16227.85
244.407	16185.15
244.478	16174.4
244.549	16143.31
244.62	16103.21
244.692	16064.94
244.763	16045.18
244.834	16016.93
244.906	15984.74
244.977	15968.5
245.048	15954.61
245.119	15916.25
245.191	15872
245.262	15820.33
245.333	15806.45
245.405	15777.77
245.476	15751.16
245.547	15720.46
245.618	15707.45
245.689	15681.61
245.761	15657.8
245.832	15625.07
245.903	15606.85
245.974	15571.23
246.045	15544.72
246.117	15526.4
246.188	15488.04
246.259	15449.81
246.33	15424.94
246.401	15398.04
246.473	15354.28
246.544	15311.14
246.615	15292.05
246.686	15265.73
246.757	15257.68
246.828	15216.03
246.899	15193.04
246.97	15146.19
247.042	15103.53
247.113	15081.11
247.184	15067.95
247.255	15031.56
247.326	15000.86
247.397	14971.11
247.468	14945.76
247.539	14910.33
247.61	14873.98
247.681	14853.45
247.752	14832.43
247.823	14785.96
247.894	14756.85
247.965	14711.05
248.037	14683.14
248.108	14640.53
248.179	14612.81
248.25	14584.32
248.321	14568.66
248.392	14530.77
248.463	14530.43
248.534	14507.05
248.605	14479.67
248.675	14453.88
248.746	14436.05
248.817	14414.45
248.888	14396.23
248.959	14348.99
249.03	14335.59
249.101	14306.42
249.172	14277.21
249.243	14227.7
249.314	14223.51
249.385	14197.28
249.456	14178.05
249.527	14152.02
249.598	14133.46
249.669	14101.11
249.739	14079.13
249.81	14052.81
249.881	14014.58
249.952	13989.18
250.023	13955.82
250.094	13916.73
250.165	13878.11
250.235	13847.21
250.306	13827.4
250.377	13780.93
250.448	13760.3
250.519	13708.23
250.59	13701.1
250.66	13672.61
250.731	13672.51
250.802	13639.2
250.873	13613.17
250.944	13593.07
251.014	13554.79
251.085	13549.05
251.156	13539.12
251.227	13527.27
251.297	13514.92
251.368	13503.21
251.439	13486.82
251.51	13479.11
251.58	13444.83
251.651	13415.67
251.722	13404.92
251.792	13356.08
251.863	13332.03
251.934	13327.11
252.005	13330.34
252.075	13305.27
252.146	13295.68
252.217	13273.99
252.287	13267.82
252.358	13250.17
252.429	13251.14
252.499	13230.27
252.57	13208.33
252.641	13191.8
252.711	13160.75
252.782	13120.11
252.852	13118.09
252.923	13091.38
252.994	13072.82
253.064	13069.3
253.135	13041.25
253.205	13014.35
253.276	13013.87
253.347	13008.66
253.417	12970.92
253.488	12943.87
253.558	12917.12
253.629	12890.36
253.699	12877.59
253.77	12852.86
253.841	12824.42
253.911	12793.95
253.982	12772.02
254.052	12755.34
254.123	12733.45
254.193	12714.41
254.264	12729.93
254.334	12693.11
254.405	12655.07
254.475	12613.09
254.546	12583.73
254.616	12576.06
254.687	12557.89
254.757	12541.55
254.827	12522.61
254.898	12515.09
254.968	12492.82
255.039	12463.12
255.109	12450.35
255.18	12417.33
255.25	12381.32
255.321	12367.87
255.391	12334.13
255.461	12328.83
255.532	12281.01
255.602	12254.54
255.673	12207.35
255.743	12169.9
255.813	12121.99
255.884	12113.94
255.954	12106.66
256.024	12106.61
256.095	12081.26
256.165	12043.08
256.235	12026.88
256.306	11994.3
256.376	11973.09
256.446	11964.56
256.517	11954.97
256.587	11945.33
256.657	11932.94
256.728	11914.96
256.798	11896.93
256.868	11883.82
256.938	11860.25
257.009	11855.87
257.079	11843
257.149	11856.25
257.219	11822.61
257.29	11815.96
257.36	11780.73
257.43	11775.52
257.5	11732.77
257.571	11703.22
257.641	11694.21
257.711	11666.98
257.781	11663.31
257.852	11648.9
257.922	11610.15
257.992	11584.94
258.062	11567.21
258.132	11550.43
258.202	11527.2
258.273	11510
258.343	11503.01
258.413	11476.84
258.483	11450.71
258.553	11420.35
258.623	11392.93
258.693	11378.18
258.764	11380.4
258.834	11378.52
258.904	11353.26
258.974	11324.2
259.044	11311.19
259.114	11301.41
259.184	11283.04
259.254	11260.39
259.324	11225.45
259.394	11214.85
259.464	11218.66
259.535	11197.16
259.605	11177.26
259.675	11150.27
259.745	11129.94
259.815	11094.27
259.885	11071
259.955	11081.12
260.025	11059.1
260.095	11041.03
260.165	11029.89
260.235	11021.56
260.305	10992.5
260.375	10969.8
260.445	10982.81
260.515	10983.05
260.585	10978.14
260.655	10954.43
260.725	10944.26
260.795	10945.32
260.865	10950.62
260.934	10923.63
261.004	10908.02
261.074	10891.59
261.144	10894.09
261.214	10890.62
261.284	10880.5
261.354	10876.17
261.424	10849.32
261.494	10849.56
261.564	10835.35
261.634	10828.26
261.703	10796.46
261.773	10798.68
261.843	10782.87
261.913	10763.02
261.983	10729
262.053	10715.75
262.123	10706.11
262.192	10675.13
262.262	10665.78
262.332	10630.13
262.402	10619.53
262.472	10609.26
262.541	10574.19
262.611	10573.03
262.681	10545.18
262.751	10539.35
262.821	10519.6
262.89	10487.65
262.96	10476.14
263.03	10477.68
263.1	10466.98
263.169	10451.28
263.239	10436.43
263.309	10444.77
263.379	10435.76
263.448	10423.28
263.518	10411.38
263.588	10395.39
263.657	10400.16
263.727	10396.06
263.797	10383.2
263.867	10363.83
263.936	10334.44
264.006	10330.93
264.076	10309
264.145	10296.24
264.215	10273.55
264.285	10271.43
264.354	10238.33
264.424	10219.64
264.494	10187.27
264.563	10162.26
264.633	10164.43
264.702	10145.31
264.772	10110.62
264.842	10091.11
264.911	10086.05
264.981	10054.45
265.05	10043.17
265.12	10022.41
265.19	9999.48
265.259	9996.54
265.329	9992.73
265.398	9980.84
265.468	9996.54
265.537	9979.01
265.607	9968.36
265.676	9961.76
265.746	9948.95
265.815	9954.82
265.885	9935.66
265.955	9915.14
266.024	9898.62
266.094	9868.61
266.163	9872.03
266.232	9871.45
266.302	9859.94
266.371	9845.68
266.441	9837.92
266.51	9828.92
266.58	9811
266.649	9793.32
266.719	9790
266.788	9775.65
266.858	9783.35
266.927	9743.81
266.996	9730.32
267.066	9725.75
267.135	9701.47
267.205	9699.21
267.274	9686.98
267.343	9687.7
267.413	9680.96
267.482	9684.86
267.552	9689.63
267.621	9660.3
267.69	9631.78
267.76	9620.03
267.829	9607.75
267.898	9589.02
267.968	9564.27
268.037	9559.16
268.106	9558.01
268.176	9524.54
268.245	9515.29
268.314	9493.23
268.384	9498.53
268.453	9489.38
268.522	9477.82
268.592	9479.36
268.661	9452.68
268.73	9446.71
268.799	9425.43
268.869	9426.73
268.938	9394.75
269.007	9368.79
269.076	9358.78
269.146	9361.23
269.215	9355.41
269.284	9367.83
269.353	9349.3
269.422	9340.1
269.492	9324.69
269.561	9285.64
269.63	9284.54
269.699	9264.74
269.768	9254.1
269.838	9238.16
269.907	9237.68
269.976	9214.38
270.045	9178.9
270.114	9177.84
270.183	9160.51
270.253	9157.52
270.322	9128.87
270.391	9118.14
270.46	9121.56
270.529	9116.41
270.598	9109.57
270.667	9092.96
270.736	9062.62
270.806	9065.7
270.875	9065.56
270.944	9055.69
271.013	9074.13
271.082	9066.23
271.151	9059.97
271.22	9032.58
271.289	9025.51
271.358	9012.7
271.427	9008.51
271.496	9009.71
271.565	8996.33
271.634	8995.32
271.703	9020.5
271.772	9026.09
271.841	9019.88
271.91	8992.97
271.979	8989.69
272.048	8968.66
272.117	8974.38
272.186	8964.13
272.255	8960.42
272.324	8963.75
272.393	8957.97
272.462	8944.39
272.531	8936.88
272.6	8924.85
272.669	8935.49
272.738	8917.58
272.807	8912.52
272.876	8890.34
272.945	8913.59
273.013	8914.79
273.082	8915.9
273.151	8862.03
273.22	8851.97
273.289	8847.54
273.358	8857.7
273.427	8841.09
273.496	8837.24
273.564	8832.33
273.633	8836.32
273.702	8820.15
273.771	8806.57
273.84	8804.55
273.909	8802.82
273.977	8801.42
274.046	8795.6
274.115	8797.53
274.184	8787.9
274.253	8780.68
274.322	8792.66
274.39	8761.13
274.459	8748.19
274.528	8718.83
274.597	8723.3
274.665	8721.52
274.734	8723.01
274.803	8717.62
274.872	8715.36
274.94	8699.82
275.009	8747.68
275.078	8731.61
275.147	8729.59
275.215	8727.18
275.284	8731.9
275.353	8717.99
275.421	8690.03
275.49	8704.03
275.559	8688.39
275.627	8679.78
275.696	8669.77
275.765	8663.51
275.833	8658.55
275.902	8655.57
275.971	8665.58
276.039	8676.84
276.108	8682.47
276.177	8681.56
276.245	8663.85
276.314	8655.47
276.383	8664.52
276.451	8603.37
276.52	8598.12
276.588	8609.68
276.657	8613.33
276.725	8603.08
276.794	8606.21
276.863	8626.32
276.931	8601.92
277	8610.44
277.068	8619.92
277.137	8640.47
277.205	8639.8
277.274	8654.09
277.342	8663.43
277.411	8643.51
277.48	8628.45
277.548	8617.62
277.617	8620.46
277.685	8618.63
277.754	8625.85
277.822	8620.07
277.89	8634.66
277.959	8633.45
278.027	8615.74
278.096	8603.61
278.164	8627.59
278.233	8613
278.301	8601.5
278.37	8605.88
278.438	8589.13
278.507	8596.4
278.575	8566.95
278.643	8565.26
278.712	8544.81
278.78	8526.86
278.849	8540.09
278.917	8552.89
278.985	8547.98
279.054	8550.53
279.122	8567.04
279.191	8564.83
279.259	8558.62
279.327	8536.67
279.396	8548.36
279.464	8540.33
279.532	8541.87
279.601	8539.22
279.669	8536.48
279.737	8541.77
279.806	8543.36
279.874	8552.98
279.942	8549.37
280.011	8543.02
280.079	8550.68
280.147	8562.75
280.215	8573.1
280.284	8571.32
280.352	8550.87
280.42	8555.34
280.488	8542.06
280.557	8530.41
280.625	8531.91
280.693	8536.62
280.761	8542.2
280.83	8529.98
280.898	8539.07
280.966	8515.79
281.034	8482.1
281.102	8465.11
281.171	8461.84
281.239	8472.43
281.307	8463.57
281.375	8451.16
281.443	8477.72
281.512	8470.5
281.58	8482.2
281.648	8465.02
281.716	8461.7
281.784	8467.72
281.852	8463.19
281.92	8462.13
281.989	8468.39
282.057	8453.66
282.125	8501.9
282.193	8496.12
282.261	8495.69
282.329	8498.77
282.397	8512.24
282.465	8512.63
282.533	8534.23
282.601	8520.85
282.67	8501.65
282.738	8493.37
282.806	8503.62
282.874	8486.2
282.942	8494.77
283.01	8484.95
283.078	8489.9
283.146	8489.18
283.214	8493.42
283.282	8494.62
283.35	8504.34
283.418	8503.04
283.486	8508.72
283.554	8452.55
283.622	8451.49
283.69	8448.75
283.758	8441.09
283.826	8444.37
283.894	8454.52
283.962	8476.8
284.03	8491.29
284.098	8486.62
284.165	8485.03
284.233	8486.91
284.301	8485.61
284.369	8476.32
284.437	8471.17
284.505	8466.41
284.573	8482.43
284.641	8474.54
284.709	8482.39
284.777	8462.13
284.845	8463.76
284.912	8462.08
284.98	8469.68
285.048	8464.24
285.116	8473.58
285.184	8486.04
285.252	8483.64
285.319	8470.02
285.387	8455.15
285.455	8440.61
285.523	8451.2
285.591	8454.28
285.659	8448.75
285.726	8460.97
285.794	8444.66
285.862	8440.04
285.93	8437.15
285.997	8429.11
286.065	8424.98
286.133	8409.14
286.201	8409.34
286.269	8395.43
286.336	8392.3
286.404	8391
286.472	8396.1
286.539	8370.94
286.607	8356.22
286.675	8358.77
286.743	8366.18
286.81	8361.41
286.878	8377.44
286.946	8365.45
287.013	8363.53
287.081	8367.81
287.149	8352.32
287.216	8373.34
287.284	8369.5
287.352	8374.11
287.419	8371.56
287.487	8391.63
287.555	8403.37
287.622	8404.77
287.69	8413.09
287.758	8423.44
287.825	8413.29
287.893	8405.44
287.96	8410.4
288.028	8418.1
288.096	8420.98
288.163	8425.89
288.231	8413.14
288.298	8409.92
288.366	8427.62
288.433	8422.72
288.501	8414.78
288.569	8414.44
288.636	8406.55
288.704	8422.91
288.771	8426.13
288.839	8423.54
288.906	8413.19
288.974	8421.27
289.041	8419.49
289.109	8407.61
289.176	8414.64
289.244	8423.97
289.311	8437.59
289.379	8455.29
289.446	8459.72
289.514	8459.24
289.581	8455.44
289.649	8461.02
289.716	8462.22
289.783	8453.7
289.851	8473.05
289.918	8475.36
289.986	8481.95
290.053	8485.41
290.121	8479.25
290.188	8485.41
290.255	8505.91
290.323	8501.2
290.39	8492.58
290.458	8498.65
290.525	8517.8
290.592	8509.28
290.66	8513.42
290.727	8504.61
290.794	8511.35
290.862	8507.59
290.929	8504.76
290.996	8503.46
291.064	8517.6
291.131	8526.31
291.198	8539.74
291.266	8536.66
291.333	8539.12
291.4	8550.81
291.468	8563.18
291.535	8559.52
291.602	8565.35
291.669	8559.09
291.737	8563.52
291.804	8568.81
291.871	8582.96
291.938	8586.23
292.006	8619.2
292.073	8629.98
292.14	8645.67
292.207	8648.46
292.275	8651.01
292.342	8663.62
292.409	8696.88
292.476	8716.47
292.543	8710.55
292.611	8708.05
292.678	8726.77
292.745	8745.64
292.812	8754.88
292.879	8755.36
292.946	8760.18
293.014	8774.71
293.081	8782.89
293.148	8799.74
293.215	8808.5
293.282	8801.28
293.349	8809.13
293.416	8786.6
293.484	8798.39
293.551	8804.94
293.618	8816.68
293.685	8845.95
293.752	8843.2
293.819	8836.61
293.886	8824.86
293.953	8830.16
294.02	8843.59
294.087	8852.88
294.154	8845.51
294.221	8861.93
294.288	8861.21
294.356	8885.61
294.423	8886.14
294.49	8880.7
294.557	8890.47
294.624	8884.41
294.691	8913.29
294.758	8915.51
294.825	8924.75
294.892	8917.09
294.959	8919.36
295.026	8923.69
295.093	8915.65
295.16	8915.36
295.226	8914.25
295.293	8938.81
295.36	8948.29
295.427	8959.17
295.494	8966.15
295.561	8977.94
295.628	9000.72
295.695	9018.44
295.762	9016.32
295.829	9025.85
295.896	9047.13
295.963	9054.16
296.03	9066.72
296.096	9065.23
296.163	9078.28
296.23	9093.2
296.297	9111.4
296.364	9109.76
296.431	9113.42
296.498	9105.81
296.564	9127.81
296.631	9127.76
296.698	9115.77
296.765	9137.25
296.832	9123.62
296.899	9116.16
296.965	9132.72
297.032	9107.73
297.099	9121.55
297.166	9128.72
297.233	9121.26
297.299	9108.6
297.366	9110.19
297.433	9109.32
297.5	9121.07
297.566	9119.05
297.633	9117.84
297.7	9117.02
297.767	9111.63
297.833	9123.67
297.9	9131.32
297.967	9118.95
298.033	9134.07
298.1	9162.48
298.167	9148.9
298.234	9161.18
298.3	9169.75
298.367	9167.97
298.434	9176.2
298.5	9167.49
298.567	9167.2
298.634	9166.96
298.7	9184.24
298.767	9187.8
298.834	9203.55
298.9	9199.69
298.967	9195.84
299.033	9207.16
299.1	9220.79
299.167	9238.45
299.233	9231.42
299.3	9242.45
299.366	9258.77
299.433	9273.17
299.5	9244.8
299.566	9254.34
299.633	9261.37
299.699	9268.2
299.766	9262.67
299.832	9269.84
299.899	9280.73
299.965	9293.34
300.032	9298.25
300.099	9307.02
300.165	9317.18
300.232	9310.19
300.298	9309.52
300.365	9324.06
300.431	9325.22
300.498	9323.48
300.564	9335.62
300.631	9348.86
300.697	9366.72
300.763	9367.5
300.83	9367.35
300.896	9384.59
300.963	9393.83
301.029	9405.15
301.096	9406.55
301.162	9418.44
301.229	9410.54
301.295	9400.24
301.361	9400.33
301.428	9401.87
301.494	9388.78
301.561	9383.48
301.627	9397.54
301.693	9400.48
301.76	9402.69
301.826	9395.37
301.892	9403.13
301.959	9413.1
302.025	9406.21
302.092	9395.71
302.158	9407.03
302.224	9409.58
302.291	9399.8
302.357	9395.57
302.423	9388.63
302.49	9382.9
302.556	9394.22
302.622	9396.92
302.688	9401.63
302.755	9416.56
302.821	9423.4
302.887	9436.02
302.954	9435.25
303.02	9436.79
303.086	9449.64
303.152	9444.11
303.219	9437.51
303.285	9442.18
303.351	9441.65
303.417	9443.92
303.483	9440.3
303.55	9431.59
303.616	9430.87
303.682	9428.07
303.748	9418.92
303.815	9428.65
303.881	9435.35
303.947	9429.81
304.013	9430.77
304.079	9427.54
304.145	9407.56
304.212	9404.04
304.278	9393.4
304.344	9390.18
304.41	9374.38
304.476	9353.15
304.542	9354.35
304.608	9364.85
304.674	9345.49
304.741	9344.38
304.807	9350.59
304.873	9352.66
304.939	9367.64
305.005	9349.53
305.071	9353.1
305.137	9355.02
305.203	9337.54
305.269	9339.9
305.335	9349.58
305.401	9344.77
305.467	9346.74
305.533	9355.02
305.599	9372.7
305.666	9379.63
305.732	9376.98
305.798	9392.54
305.864	9418.25
305.93	9420.61
305.996	9423.26
306.062	9425.76
306.128	9416.03
306.194	9393.79
306.259	9392.3
306.325	9379.39
306.391	9391.38
306.457	9391.96
306.523	9402.6
306.589	9419.36
306.655	9411.75
306.721	9385.74
306.787	9379.39
306.853	9390.03
306.919	9368.56
306.985	9349.78
307.051	9346.26
307.117	9339.38
307.183	9334.66
307.248	9311.74
307.314	9321.08
307.38	9311.98
307.446	9316.17
307.512	9304.99
307.578	9319.2
307.644	9318.96
307.709	9317.08
307.775	9313.52
307.841	9311.35
307.907	9303.31
307.973	9284
308.039	9282.6
308.104	9289.82
308.17	9287.95
308.236	9274.13
308.302	9286.07
308.368	9276.73
308.433	9271.43
308.499	9273.74
308.565	9253.28
308.631	9252.84
308.696	9227.71
308.762	9220.73
308.828	9218.47
308.894	9205.27
308.959	9177.93
309.025	9165.31
309.091	9166.23
309.156	9157.9
309.222	9161.03
309.288	9154.91
309.354	9137.68
309.419	9131.9
309.485	9116.54
309.551	9123.62
309.616	9108.65
309.682	9099.93
309.748	9098.68
309.813	9095.21
309.879	9084.57
309.945	9083.27
310.01	9074.46
310.076	9071.09
310.141	9066.52
310.207	9052.41
310.273	9052.37
310.338	9063.82
310.404	9049
310.469	9032.63
310.535	9022.18
310.601	9003.69
310.666	9006.82
310.732	9019.92
310.797	9009.42
310.863	9005.91
310.928	8995.12
310.994	8995.22
311.059	8995.31
311.125	8987.23
311.191	8995.7
311.256	8984.1
311.322	8986.31
311.387	8967.35
311.453	9373.19
311.518	9344.64
311.584	9340.84
311.649	9351.63
311.715	9343.68
311.78	9345.56
311.846	9341.85
311.911	9348.21
311.976	9350.18
312.042	9329.14
312.107	9311.19
312.173	9305.46
312.238	9296.89
312.304	9296.22
312.369	9291.98
312.434	9275.71
312.5	9270.42
312.565	9241.44
312.631	9248.85
312.696	9239.22
312.761	9247.4
312.827	8835.16
312.892	8872.95
312.958	8871.6
313.023	8867.37
313.088	8865.01
313.154	8853.94
313.219	8842
313.284	8828.86
313.35	8823.03
313.415	8816.25
313.48	8812.54
313.546	8818.89
313.611	8829.24
313.676	8816.2
313.741	8799.02
313.807	8810.71
313.872	8817.26
313.937	8818.85
314.003	8827.51
314.068	8827.71
314.133	8833.39
314.198	8828.38
314.264	8814.66
314.329	8806.19
314.394	8797.52
314.459	8791.12
314.525	8815.81
314.59	8815.09
314.655	8800.36
314.72	8806.52
314.785	8807.01
314.851	8807.73
314.916	8787.66
314.981	8770.38
315.046	8761.23
315.111	8761.14
315.176	8741.88
315.242	8745.44
315.307	8744.29
315.372	8720.94
315.437	8709.49
315.502	8697.99
315.567	8703.38
315.632	8687.93
315.698	8683.64
315.763	8680.47
315.828	8674.84
315.893	8662.61
315.958	8653.08
316.023	8644.9
316.088	8621.36
316.153	8602.07
316.218	8590.47
316.283	8576.37
316.348	8556.36
316.413	8555.44
316.479	8537.35
316.544	8507.76
316.609	8478.16
316.674	8441.93
316.739	8407.06
316.804	8379.68
316.869	8349.46
316.934	8306.93
316.999	8277.1
317.064	8229.33
317.129	8186.84
317.194	8146.96
317.259	8099.33
317.324	8052
317.389	8007.08
317.454	7971.15
317.518	7937.29
317.583	7909.44
317.648	7885.87
317.713	7854.9
317.778	7798.19
317.843	7768.04
317.908	7733.47
317.973	7690.57
318.038	7665.52
318.103	7635.04
318.168	7603.79
318.233	7566.33
318.297	7521.67
318.362	7484.7
318.427	7445.77
318.492	7418.03
318.557	7371.17
318.622	7344.68
318.687	7328.92
318.751	7295.38
318.816	7261.35
318.881	7227.9
318.946	7177.29
319.011	7128.37
319.075	7088.44
319.14	7048.61
319.205	7008.73
319.27	6974.91
319.335	6934.89
319.399	6891.85
319.464	6861.15
319.529	6810.29
319.594	6775.75
319.658	6748.37
319.723	6701.35
319.788	6672.88
319.853	6615.3
319.917	6589.9
319.982	6531.94
320.047	6490.45
320.112	6467.64
320.176	6418.24
320.241	6386.84
320.306	6358.23
320.37	6319.54
320.435	6290.16
320.5	6265.73
320.564	6224.7
320.629	6184.68
320.694	6148.16
320.758	6108.24
320.823	6064.57
320.888	6040.68
320.952	5993.38
321.017	5948.95
321.082	5914.13
321.146	5880.93
321.211	5853.21
321.275	5811.78
321.34	5772.61
321.405	5723.17
321.469	5669.13
321.534	5625.6
321.598	5574.68
321.663	5539.19
321.727	5507.65
321.792	5455.83
321.857	5410
321.921	5373.14
321.986	5326.33
322.05	5267.65
322.115	5233.62
322.179	5190.03
322.244	5131.73
322.308	5096.18
322.373	5052.45
322.437	5012.41
322.502	4987.73
322.566	4943.38
322.631	4908.33
322.695	4869.07
322.76	4830.2
322.824	4801.09
322.889	4765.58
322.953	4722.84
323.018	4655.16
323.082	4596.35
323.146	4548.03
323.211	4497.07
323.275	4452.23
323.34	4413.97
323.404	4388.96
323.468	4342.18
323.533	4300.95
323.597	4258.84
323.662	4210.97
323.726	4178.36
323.79	4132.22
323.855	4066.32
323.919	4018.51
323.983	3972.24
324.048	3908
324.112	4042.66
324.177	3913.83
324.241	3709.46
324.305	3510.3
324.37	3319.02
324.434	3127.89
324.498	3086.24
324.562	3038.26
324.627	2980.15
324.691	2924.71
324.755	2855.37
324.82	2782.01
324.884	2706.27
324.948	2633.38
325.012	2538.9
325.077	2413.29
