Data from 20250702_urea_0.5M_MAYP1162681_17-04-59-667.txt Node
Date: Wed Jul 02 17:04:59 BST 2025
User: adleo
Spectrometer: MAYP116268
Trigger mode: 0
Integration Time (sec): 1.000000E0
Scans to average: 1
Electric dark correction enabled: true
Nonlinearity correction enabled: true
Boxcar width: 10
XAxis mode: Wavelengths
Number of Pixels in Spectrum: 2068
>>>>>Begin Spectral Data<<<<<
179.565	1119.19
179.642	1171.73
179.718	1212.26
179.795	1247.58
179.871	1278.52
179.948	1295.06
180.024	1314.05
180.101	1335.31
180.177	1347.87
180.254	1370.26
180.33	1391.79
180.407	1438.54
180.483	1526.67
180.56	1608
180.636	1686.29
180.712	1674.03
180.789	1686.43
180.865	1697.07
180.942	1703.1
181.018	1712.51
181.095	1724.87
181.171	1734.42
181.248	1735.18
181.324	1747.78
181.4	1757.28
181.477	1765.55
181.553	1778.62
181.63	1798.72
181.706	1812.5
181.782	1823.15
181.859	1821.86
181.935	1828
182.011	1823.48
182.088	1837.07
182.164	1856.42
182.24	1869.59
182.317	1881.04
182.393	1875.81
182.469	1889.98
182.546	1902.81
182.622	1909.18
182.698	1902.38
182.775	1910.13
182.851	1924.25
182.927	1919.17
183.003	1912.84
183.08	1906.71
183.156	1913.42
183.232	1910.47
183.308	1900.48
183.385	1906.14
183.461	1921.74
183.537	1921.59
183.613	1935.47
183.69	1928.82
183.766	1918.31
183.842	1923.82
183.918	1927.49
183.995	1940.65
184.071	1942.65
184.147	1938.18
184.223	1927.35
184.299	1941.23
184.375	1932.58
184.452	1937.43
184.528	1992.85
184.604	2000.98
184.68	2015
184.756	2021.61
184.832	2026.46
184.908	2032.69
184.985	2033.02
185.061	2019.09
185.137	2025.6
185.213	2013.29
185.289	2016.1
185.365	2013.39
185.441	2012.43
185.517	2023.14
185.593	2019.19
185.669	2017.19
185.745	2030.13
185.822	2044.58
185.898	2034.3
185.974	2041.48
186.05	2035.39
186.126	1993.67
186.202	1989.01
186.278	1984.97
186.354	1977.79
186.43	1981.88
186.506	1980.36
186.582	1978.46
186.658	1983.36
186.734	1965.1
186.81	1969.24
186.886	1969.95
186.962	1978.51
187.038	1974.7
187.114	1969.38
187.19	1978.74
187.266	1966.67
187.341	1965.91
187.417	1960.73
187.493	1963.53
187.569	1966.57
187.645	1959.06
187.721	1947.46
187.797	1956.83
187.873	1963.96
187.949	1957.64
188.025	1952.07
188.101	1953.07
188.176	1958.73
188.252	1955.64
188.328	1963.76
188.404	1962.67
188.48	1959.58
188.556	1953.11
188.632	1953.92
188.707	1954.16
188.783	1949.78
188.859	1946.6
188.935	1934
189.011	1939.85
189.086	1933.52
189.162	1926.11
189.238	1924.63
189.314	1925.58
189.39	1918.83
189.465	1910.7
189.541	1927.77
189.617	1912.89
189.693	1906.48
189.768	1909.61
189.844	1932.4
189.92	1926.6
189.996	1936.44
190.071	1947.09
190.147	1947.95
190.223	1955.56
190.298	1948.9
190.374	1937.01
190.45	1951.27
190.526	1958.55
190.601	1955.5
190.677	1957.45
190.753	1983.28
190.828	1986.71
190.904	1999.45
190.98	2012.53
191.055	2019.04
191.131	2008.96
191.207	2029.64
191.282	2042.43
191.358	2030.93
191.433	2018.75
191.509	2027.73
191.585	2024.4
191.66	2025.59
191.736	2030.63
191.811	2023.54
191.887	2040.34
191.963	2062.59
192.038	2063.69
192.114	2065.73
192.189	2067.44
192.265	2062.79
192.34	2043.14
192.416	2043.47
192.491	2039.09
192.567	2043.14
192.642	2049.13
192.718	2050.13
192.793	2037.43
192.869	2029.92
192.944	2037.38
193.02	2042.43
193.095	2046.85
193.171	2050.75
193.246	2050.18
193.322	2048.85
193.397	2049.27
193.473	2032.01
193.548	2014.88
193.624	2021.68
193.699	2020.11
193.775	2034.62
193.85	2037.05
193.925	2043.51
194.001	2041.04
194.076	2031.25
194.152	2020.35
194.227	2010.98
194.302	1999.38
194.378	2005.8
194.453	2006.04
194.529	2013.08
194.604	1998.77
194.679	1991.4
194.755	1976.09
194.83	1987.7
194.905	1986.32
194.981	1993.93
195.056	1990.12
195.131	1996.97
195.207	1995.59
195.282	1986.51
195.357	1971.24
195.433	1987.74
195.508	1979.66
195.583	1987.98
195.659	2003.29
195.734	2010.71
195.809	2008.19
195.884	2020.84
195.96	2020.6
196.035	2035.77
196.11	2033.72
196.185	2044.09
196.261	2049.65
196.336	2080.57
196.411	2067.68
196.486	2070.1
196.561	2064.82
196.637	2072.43
196.712	2085.66
196.787	2089.56
196.862	2104.58
196.937	2113.38
197.013	2113.72
197.088	2122.89
197.163	2141.36
197.238	2158.92
197.313	2158.73
197.388	2175.14
197.464	2201.79
197.539	2215.35
197.614	2206.27
197.689	2218.45
197.764	2236.53
197.839	2257.94
197.914	2249.76
197.989	2268.17
198.065	2285.3
198.14	2331.78
198.215	2357.95
198.29	2369.81
198.365	2381.33
198.44	2392.75
198.515	2417.93
198.59	2432.54
198.665	2457.54
198.74	2468.68
198.815	2467.4
198.89	2486.06
198.965	2510.01
199.04	2505.96
199.115	2514.96
199.19	2556.09
199.265	2555.71
199.34	2566.76
199.415	2595.69
199.49	2618.16
199.565	2628.35
199.64	2649.4
199.715	2648.02
199.79	2652.12
199.865	2659.88
199.94	2655.69
200.015	2685.23
200.09	2695
200.165	2703.24
200.24	2705.53
200.315	2745.73
200.39	2761.36
200.464	2770.69
200.539	2774.56
200.614	2789.89
200.689	2814.86
200.764	2822.44
200.839	2842.87
200.914	2846.35
200.989	2838.2
201.063	2850.07
201.138	2835.21
201.213	2836.12
201.288	2815.53
201.363	2820.15
201.438	2818.91
201.512	2835.73
201.587	2819.47
201.662	2818.76
201.737	2829.96
201.812	2843.97
201.886	2807.82
201.961	2815.44
202.036	2802.96
202.111	2801.53
202.186	2773.58
202.26	2756.38
202.335	2734.98
202.41	2730.02
202.485	2715.31
202.559	2696.92
202.634	2670.52
202.709	2678.71
202.784	2660.66
202.858	2662.9
202.933	2647.37
203.008	2637.41
203.082	2621.13
203.157	2621.51
203.232	2581.94
203.306	2564.17
203.381	2530.06
203.456	2510.78
203.53	2492.24
203.605	2473.82
203.68	2452
203.754	2449.57
203.829	2435.53
203.904	2416.39
203.978	2402.72
204.053	2403.91
204.127	2391.73
204.202	2392.2
204.277	2377.12
204.351	2370.02
204.426	2364.02
204.5	2355.41
204.575	2326.57
204.65	2336.48
204.724	2328.48
204.799	2333.95
204.873	2328.71
204.948	2329.23
205.022	2317.48
205.097	2311.62
205.171	2323.04
205.246	2329.9
205.32	2326.38
205.395	2326.23
205.469	2319.96
205.544	2326.38
205.618	2309.87
205.693	2319.2
205.767	2307.49
205.842	2327.15
205.916	2322.49
205.991	2311.82
206.065	2317.82
206.14	2333.95
206.214	2329.14
206.289	2320.66
206.363	2335.8
206.438	2340.89
206.512	2347.65
206.586	2367.69
206.661	2373.59
206.735	2355.75
206.81	2358.18
206.884	2376.46
206.958	2366.94
207.033	2382.4
207.107	2390.26
207.181	2423.11
207.256	2423.54
207.33	2444.01
207.405	2456.45
207.479	2478.73
207.553	2490.34
207.628	2479.35
207.702	2496.25
207.776	2496.01
207.851	2505.73
207.925	2526.26
207.999	2531.55
208.073	2537.69
208.148	2548.6
208.222	2546.93
208.296	2590.02
208.371	2617.71
208.445	2640.58
208.519	2683.45
208.593	2716.13
208.668	2732.86
208.742	2756.66
208.816	2781.48
208.89	2818.86
208.965	2846.09
209.039	2880.19
209.113	2928.05
209.187	2981.08
209.261	3008.44
209.336	3060.13
209.41	3117.13
209.484	3156.73
209.558	3217.52
209.632	3281.3
209.707	3338.14
209.781	3415.41
209.855	3481.54
209.929	3553.12
210.003	3619.11
210.077	3681.92
210.151	3788.97
210.226	3886.85
210.3	3982.36
210.374	4077.5
210.448	4158.17
210.522	4248.76
210.596	4341.21
210.67	4433.63
210.744	4562.31
210.818	4689.57
210.892	4810.69
210.966	4911.94
211.041	5033.91
211.115	5144.02
211.189	5271.52
211.263	5401.42
211.337	5518.08
211.411	5653.43
211.485	5769.51
211.559	5900.45
211.633	6027.52
211.707	6127.46
211.781	6268.71
211.855	6370.04
211.929	6495.35
212.003	6617.27
212.077	6766.36
212.151	6920.75
212.225	7075.88
212.299	7217.05
212.373	7353.72
212.447	7495.26
212.52	7672.57
212.594	7831.23
212.668	7993.72
212.742	8142.79
212.816	8299.87
212.89	8459.21
212.964	8614.27
213.038	8784.18
213.112	8966.36
213.186	9154.19
213.26	9302.1
213.333	9424.06
213.407	9591.5
213.481	9768.89
213.555	9947.58
213.629	10110.97
213.703	10270.18
213.777	10439.13
213.85	10596.29
213.924	10799.14
213.998	10966.86
214.072	11133.75
214.146	11282.8
214.219	11444.43
214.293	11600
214.367	11759.52
214.441	11927.53
214.515	12088.86
214.588	12229.7
214.662	12358.49
214.736	12500.88
214.81	12675.75
214.883	12847.49
214.957	13008.2
215.031	13151.56
215.105	13293.13
215.178	13431.68
215.252	13584.39
215.326	13711.56
215.4	13842.87
215.473	13940.97
215.547	14073.68
215.621	14204.36
215.694	14358.61
215.768	14483.56
215.842	14616.22
215.915	14753.93
215.989	14875.55
216.063	14998.42
216.136	15135.27
216.21	15271.25
216.284	15405.44
216.357	15520.88
216.431	15647.26
216.504	15783.28
216.578	15934.44
216.652	16068.24
216.725	16188.06
216.799	16308.26
216.873	16432.62
216.946	16566.27
217.02	16684.45
217.093	16800.41
217.167	16892.75
217.24	16987.4
217.314	17101.63
217.387	17210.21
217.461	17305.54
217.535	17419.42
217.608	17517.49
217.682	17616.67
217.755	17725.49
217.829	17823.42
217.902	17932.72
217.976	18025.63
218.049	18107.89
218.123	18184.8
218.196	18282.05
218.27	18372.07
218.343	18448.5
218.417	18543.92
218.49	18620.73
218.563	18732.68
218.637	18835.28
218.71	18955.51
218.784	19046.4
218.857	19137.29
218.931	19230.58
219.004	19321.32
219.077	19405.75
219.151	19480.93
219.224	19561.6
219.298	19642.75
219.371	19725.88
219.444	19788.34
219.518	19870.98
219.591	19946.26
219.665	20048.81
219.738	20113.39
219.811	20172.08
219.885	20254.64
219.958	20329.82
220.031	20401.38
220.105	20464.08
220.178	20524.42
220.251	20557.77
220.325	20622.78
220.398	20684.14
220.471	20737.68
220.544	20800.67
220.618	20853.35
220.691	20927.95
220.764	20983.81
220.838	21037.6
220.911	21086.95
220.984	21161.94
221.057	21218.24
221.131	21273.91
221.204	21288.56
221.277	21360.33
221.35	21444.77
221.424	21487.62
221.497	21542.14
221.57	21577.75
221.643	21628.66
221.716	21672.23
221.79	21717.87
221.863	21760.97
221.936	21804.88
222.009	21840.59
222.082	21884.36
222.155	21917.43
222.229	21958.21
222.302	21996.53
222.375	22026.66
222.448	22063.01
222.521	22094.77
222.594	22118.78
222.667	22133.77
222.74	22173.64
222.814	22202.99
222.887	22212.3
222.96	22243.25
223.033	22263.54
223.106	22298.4
223.179	22325.15
223.252	22345.45
223.325	22364.3
223.398	22373.02
223.471	22386.81
223.544	22416.65
223.617	22446.11
223.69	22470.07
223.763	22479.03
223.837	22491.13
223.91	22523.82
223.983	22517.55
224.056	22517.84
224.129	22535.29
224.202	22561.04
224.275	22568.94
224.348	22554.14
224.42	22566.97
224.493	22557.71
224.566	22568.75
224.639	22577.96
224.712	22571.16
224.785	22576.66
224.858	22588.66
224.931	22599.08
225.004	22596.86
225.077	22594.01
225.15	22569.96
225.223	22564.17
225.296	22590.5
225.369	22584.9
225.442	22561.09
225.514	22569.86
225.587	22584.13
225.66	22601.92
225.733	22619.95
225.806	22631.77
225.879	22638.85
225.952	22628.78
226.025	22644.93
226.097	22654.09
226.17	22653.36
226.243	22640.69
226.316	22644.88
226.389	22651.48
226.461	22658.67
226.534	22669.76
226.607	22684.46
226.68	22695.79
226.753	22706.98
226.825	22682.58
226.898	22702.01
226.971	22711.07
227.044	22722.26
227.117	22719.32
227.189	22712.9
227.262	22710.93
227.335	22717.05
227.407	22716.09
227.48	22720.38
227.553	22724.28
227.626	22704.75
227.698	22697.91
227.771	22700.85
227.844	22686.05
227.916	22678.67
227.989	22665.12
228.062	22650.47
228.134	22656.83
228.207	22641.69
228.28	22629.11
228.352	22622.07
228.425	22613.39
228.498	22611.27
228.57	22587.65
228.643	22583.75
228.716	22562.63
228.788	22549.76
228.861	22524.2
228.934	22526.47
229.006	22513.79
229.079	22498.7
229.151	22491.66
229.224	22476.28
229.296	22466.79
229.369	22488.82
229.442	22491.76
229.514	22475.95
229.587	22476.86
229.659	22443.26
229.732	22444.32
229.804	22441.48
229.877	22453.24
229.949	22449.82
230.022	22455.31
230.094	22454.06
230.167	22445.67
230.239	22427.98
230.312	22402.82
230.384	22417.42
230.457	22405.03
230.529	22393.18
230.602	22376.01
230.674	22362.13
230.747	22362.03
230.819	22355.48
230.892	22297.58
230.964	22289.14
231.037	22276.46
231.109	22260.36
231.181	22250
231.254	22221.61
231.326	22201.02
231.399	22175.33
231.471	22150.84
231.544	22113.14
231.616	22101.09
231.688	22083.54
231.761	22066.86
231.833	22048.4
231.905	21999.57
231.978	21975.8
232.05	21951.99
232.122	21941.58
232.195	21918.83
232.267	21911.55
232.339	21897.95
232.412	21902.15
232.484	21875.44
232.556	21851.58
232.629	21848.01
232.701	21837.7
232.773	21816.35
232.846	21791.62
232.918	21770.89
232.99	21753.54
233.062	21737.15
233.135	21724.71
233.207	21690.44
233.279	21681.09
233.351	21669.76
233.424	21640.89
233.496	21617.18
233.568	21618.58
233.64	21574.86
233.713	21549.94
233.785	21527.96
233.857	21498.51
233.929	21460
234.001	21445.92
234.074	21448.81
234.146	21409
234.218	21386.49
234.29	21372.85
234.362	21346.2
234.434	21308.36
234.507	21269.13
234.579	21234.14
234.651	21193.85
234.723	21175.87
234.795	21146.23
234.867	21120.25
234.939	21116.15
235.012	21091.76
235.084	21067.09
235.156	21058.12
235.228	21017.4
235.3	20975.95
235.372	20955.95
235.444	20937.59
235.516	20886.83
235.588	20843.6
235.66	20818.73
235.732	20779.65
235.804	20794.59
235.876	20775.22
235.948	20761.67
236.02	20727.21
236.092	20695.79
236.164	20662.88
236.236	20626.92
236.308	20599.6
236.38	20570.78
236.452	20526.34
236.524	20501.96
236.596	20480.51
236.668	20461.72
236.74	20444.17
236.812	20419.69
236.884	20392.32
236.956	20358.01
237.028	20321.77
237.1	20289.72
237.172	20267.36
237.244	20243.55
237.316	20178.63
237.388	20145.28
237.46	20101.38
237.532	20089.72
237.604	20055.89
237.675	20045.38
237.747	20032.32
237.819	19986.45
237.891	19954.83
237.963	19920.18
238.035	19878.88
238.107	19810.02
238.178	19781.2
238.25	19742.74
238.322	19730.26
238.394	19676.43
238.466	19644.68
238.538	19617.31
238.609	19596.92
238.681	19546.42
238.753	19504.59
238.825	19467.77
238.897	19430.13
238.968	19417.46
239.04	19368.6
239.112	19357.13
239.184	19308.98
239.255	19255.98
239.327	19231.45
239.399	19196.9
239.471	19173.67
239.542	19144.18
239.614	19129.86
239.686	19074.3
239.758	19048.13
239.829	18996.96
239.901	18971.75
239.973	18936.38
240.044	18905.59
240.116	18857.06
240.188	18822.22
240.259	18790.46
240.331	18755.24
240.403	18727
240.474	18672.83
240.546	18626.04
240.618	18573.41
240.689	18536.98
240.761	18508.84
240.833	18489.95
240.904	18448.07
240.976	18403.01
241.048	18369.96
241.119	18342.58
241.191	18304.8
241.262	18288.71
241.334	18248.66
241.405	18215.12
241.477	18175.99
241.549	18137.29
241.62	18109.25
241.692	18076.62
241.763	18049.06
241.835	18011.37
241.906	17975.81
241.978	17929.11
242.049	17915.08
242.121	17894.12
242.192	17872.1
242.264	17827.95
242.335	17765.21
242.407	17736.34
242.478	17707.18
242.55	17670.46
242.621	17616.01
242.693	17578.95
242.764	17537.98
242.836	17502.03
242.907	17468.49
242.979	17437.12
243.05	17399.72
243.122	17361.36
243.193	17323.67
243.264	17273.02
243.336	17238.51
243.407	17207.33
243.479	17195.28
243.55	17158.8
243.622	17120
243.693	17082.51
243.764	17055.62
243.836	17013.06
243.907	16978.94
243.978	16936.62
244.05	16900.72
244.121	16856.04
244.192	16836.43
244.264	16779.07
244.335	16740.04
244.407	16697.14
244.478	16659.45
244.549	16618.2
244.62	16576.17
244.692	16542.53
244.763	16512.21
244.834	16469.56
244.906	16429.99
244.977	16397.65
245.048	16379.58
245.119	16333.84
245.191	16285.54
245.262	16234.65
245.333	16223.66
245.405	16187.27
245.476	16154.4
245.547	16127.7
245.618	16099.4
245.689	16064.7
245.761	16035.68
245.832	16003.87
245.903	15976.79
245.974	15951.53
246.045	15923.53
246.117	15912.34
246.188	15869.4
246.259	15824.14
246.33	15784.23
246.401	15750.29
246.473	15697.37
246.544	15651.44
246.615	15637.99
246.686	15606.66
246.757	15583.28
246.828	15534.79
246.899	15518.45
246.97	15478.15
247.042	15436.56
247.113	15421.61
247.184	15408.99
247.255	15375.44
247.326	15350.32
247.397	15315.72
247.468	15283.81
247.539	15251.37
247.61	15193.14
247.681	15175.49
247.752	15162.96
247.823	15129.51
247.894	15099.48
247.965	15064.63
248.037	15033.54
248.108	14980.61
248.179	14946.82
248.25	14920.26
248.321	14899.58
248.392	14853.79
248.463	14847.28
248.534	14818.26
248.605	14796.09
248.675	14761.77
248.746	14747.4
248.817	14723.2
248.888	14702.23
248.959	14661.79
249.03	14645.06
249.101	14631.52
249.172	14592.33
249.243	14545.71
249.314	14537.66
249.385	14511.58
249.456	14490.33
249.527	14466.13
249.598	14445.01
249.669	14412.04
249.739	14386.97
249.81	14365.43
249.881	14327.01
249.952	14291.04
250.023	14259.61
250.094	14216.61
250.165	14175.35
250.235	14146.38
250.306	14121.79
250.377	14080.53
250.448	14065.54
250.519	14019.69
250.59	14001.23
250.66	13975.63
250.731	13961.36
250.802	13927.62
250.873	13905.88
250.944	13887.42
251.014	13848.95
251.085	13850.88
251.156	13834.24
251.227	13825.42
251.297	13819.3
251.368	13806.04
251.439	13797.37
251.51	13786.04
251.58	13752.15
251.651	13728.19
251.722	13703.51
251.792	13658.68
251.863	13635.25
251.934	13614.66
252.005	13616.83
252.075	13593.84
252.146	13587.57
252.217	13573.88
252.287	13558.74
252.358	13528.08
252.429	13511.84
252.499	13485.61
252.57	13456.74
252.641	13453.7
252.711	13422.27
252.782	13376.28
252.852	13371.37
252.923	13342.88
252.994	13318.96
253.064	13305.13
253.135	13269.75
253.205	13247.81
253.276	13243.91
253.347	13235.42
253.417	13200.47
253.488	13165.76
253.558	13136.12
253.629	13106.9
253.699	13084.63
253.77	13069.16
253.841	13041.73
253.911	13024.18
253.982	13006.2
254.052	12982.53
254.123	12955.73
254.193	12934.71
254.264	12944.06
254.334	12909.26
254.405	12874.41
254.475	12844.71
254.546	12821.57
254.616	12816.13
254.687	12796.36
254.757	12777.61
254.827	12747.43
254.898	12737.45
254.968	12719.76
255.039	12692
255.109	12674.69
255.18	12649.96
255.25	12608.84
255.321	12600.79
255.391	12558.9
255.461	12564.25
255.532	12525.84
255.602	12494.45
255.673	12460.08
255.743	12420.56
255.813	12376.98
255.884	12366.95
255.954	12347.87
256.024	12348.97
256.095	12330.03
256.165	12294.41
256.235	12275.46
256.306	12253.39
256.376	12238.49
256.446	12226.3
256.517	12211.84
256.587	12204.08
256.657	12182.58
256.728	12159.83
256.798	12136.25
256.868	12112.64
256.938	12079.91
257.009	12074.22
257.079	12060.67
257.149	12064.14
257.219	12032.62
257.29	12017.92
257.36	11978.49
257.43	11969.72
257.5	11923.01
257.571	11895.44
257.641	11883.58
257.711	11849.17
257.781	11837.07
257.852	11823.72
257.922	11784.92
257.992	11765.06
258.062	11739.32
258.132	11727.51
258.202	11713.1
258.273	11693.44
258.343	11697.24
258.413	11670.01
258.483	11647.41
258.553	11616.85
258.623	11578.43
258.693	11562.91
258.764	11559.01
258.834	11556.99
258.904	11547.59
258.974	11526.72
259.044	11505.22
259.114	11495.1
259.184	11489.8
259.254	11466.86
259.324	11427.39
259.394	11419.82
259.464	11418.86
259.535	11400.69
259.605	11381.5
259.675	11355.96
259.745	11345.07
259.815	11320.06
259.885	11295.19
259.955	11302.76
260.025	11280.2
260.095	11266.61
260.165	11255.77
260.235	11254.32
260.305	11228.35
260.375	11196.06
260.445	11193.07
260.515	11195.62
260.585	11186.66
260.655	11162.66
260.725	11159.43
260.795	11152.63
260.865	11149.74
260.934	11118.61
261.004	11111.33
261.074	11092.44
261.144	11088.92
261.214	11077.7
261.284	11057.99
261.354	11049.17
261.424	11023.38
261.494	11027.04
261.564	11011.38
261.634	11004.25
261.703	10967.1
261.773	10955.05
261.843	10938.57
261.913	10929.8
261.983	10891.59
262.053	10879.3
262.123	10860.7
262.192	10823.02
262.262	10817.18
262.332	10788.37
262.402	10776.47
262.472	10758.64
262.541	10725.87
262.611	10722.55
262.681	10694.07
262.751	10683.32
262.821	10664.15
262.89	10634.03
262.96	10621.07
263.03	10623.28
263.1	10610.9
263.169	10599.63
263.239	10595.72
263.309	10602.18
263.379	10588.74
263.448	10572.93
263.518	10557.85
263.588	10542.72
263.657	10547.44
263.727	10534.87
263.797	10515.36
263.867	10499.55
263.936	10466.4
264.006	10458.17
264.076	10437.35
264.145	10430.37
264.215	10411.19
264.285	10410.95
264.354	10377.56
264.424	10361.14
264.494	10328.9
264.563	10300.48
264.633	10301.1
264.702	10284.05
264.772	10255.57
264.842	10238.04
264.911	10235.19
264.981	10209.61
265.05	10198.29
265.12	10179.21
265.19	10166.49
265.259	10166.83
265.329	10160.76
265.398	10150.07
265.468	10165.67
265.537	10149.49
265.607	10136
265.676	10127.57
265.746	10111.57
265.815	10112.01
265.885	10085.85
265.955	10066.2
266.024	10053.15
266.094	10017.35
266.163	10025.88
266.232	10022.08
266.302	10002.95
266.371	9982.05
266.441	9967.36
266.51	9957.29
266.58	9942.65
266.649	9918.51
266.719	9913.12
266.788	9908.11
266.858	9910.27
266.927	9871.4
266.996	9856.09
267.066	9847.41
267.135	9824.34
267.205	9819.53
267.274	9806.57
267.343	9811.44
267.413	9799.88
267.482	9801.66
267.552	9806.19
267.621	9770.49
267.69	9737.35
267.76	9728.83
267.829	9730.42
267.898	9720.26
267.968	9702.49
268.037	9695.02
268.106	9693.67
268.176	9667.86
268.245	9649.55
268.314	9635.68
268.384	9639.05
268.453	9626.87
268.522	9622.29
268.592	9620.99
268.661	9599.27
268.73	9594.5
268.799	9570.23
268.869	9569.32
268.938	9540.71
269.007	9517.31
269.076	9503.1
269.146	9502.28
269.215	9494.09
269.284	9495.64
269.353	9482.54
269.422	9470.79
269.492	9459.18
269.561	9426.58
269.63	9419.22
269.699	9399.52
269.768	9389.17
269.838	9382.9
269.907	9384.06
269.976	9352.9
270.045	9325.75
270.114	9326.13
270.183	9314.72
270.253	9313.81
270.322	9285.21
270.391	9274.28
270.46	9277.36
270.529	9273.85
270.598	9272.45
270.667	9262
270.736	9243.27
270.806	9234.79
270.875	9236.24
270.944	9220.01
271.013	9235.47
271.082	9227.28
271.151	9225.6
271.22	9193.53
271.289	9177.69
271.358	9163.1
271.427	9160.5
271.496	9152.99
271.565	9130.56
271.634	9117.46
271.703	9137.83
271.772	9147.89
271.841	9139.42
271.91	9121.65
271.979	9116.36
272.048	9090.55
272.117	9088.1
272.186	9065.08
272.255	9063.54
272.324	9058.2
272.393	9055.65
272.462	9040
272.531	9030.71
272.6	9019.1
272.669	9026.76
272.738	9017.42
272.807	9017.47
272.876	8999.42
272.945	9027.39
273.013	9034.27
273.082	9040.91
273.151	8995.8
273.22	8990.26
273.289	8988.1
273.358	8994.84
273.427	8984.68
273.496	8988.77
273.564	8984.82
273.633	8986.32
273.702	8964.37
273.771	8955.65
273.84	8946.6
273.909	8940.73
273.977	8941.64
274.046	8929.42
274.115	8936.64
274.184	8917.92
274.253	8907.95
274.322	8914.59
274.39	8876.66
274.459	8859.52
274.528	8831.8
274.597	8827.32
274.665	8820.87
274.734	8824.34
274.803	8813.94
274.872	8807.39
274.94	8790.21
275.009	8831.62
275.078	8823.82
275.147	8821.71
275.215	8817.42
275.284	8828.2
275.353	8820.26
275.421	8794.99
275.49	8810.59
275.559	8792.2
275.627	8787.05
275.696	8775.4
275.765	8772.61
275.833	8767.32
275.902	8763.42
275.971	8772.28
276.039	8782.77
276.108	8785.32
276.177	8776.75
276.245	8759.62
276.314	8757.07
276.383	8767.51
276.451	8715.75
276.52	8712.62
276.588	8724.31
276.657	8726
276.725	8716.03
276.794	8719.21
276.863	8729.08
276.931	8704.43
277	8709.25
277.068	8716.27
277.137	8728.98
277.205	8725.71
277.274	8738.84
277.342	8754.49
277.411	8735.77
277.48	8729.22
277.548	8721.91
277.617	8726.77
277.685	8722.97
277.754	8728.69
277.822	8717.14
277.89	8729.47
277.959	8720.32
278.027	8707.76
278.096	8694.96
278.164	8713.44
278.233	8707.47
278.301	8699.05
278.37	8702.13
278.438	8688.9
278.507	8684.52
278.575	8664.74
278.643	8662.57
278.712	8646.02
278.78	8627.97
278.849	8638.65
278.917	8643.75
278.985	8638.6
279.054	8634.7
279.122	8649.09
279.191	8635.09
279.259	8634.6
279.327	8613.33
279.396	8633.54
279.464	8627.72
279.532	8632.24
279.601	8630.75
279.669	8622.86
279.737	8633.64
279.806	8637.83
279.874	8650.34
279.942	8656.07
280.011	8647.74
280.079	8650.97
280.147	8671.37
280.215	8678.83
280.284	8673.39
280.352	8658.33
280.42	8659.2
280.488	8648.85
280.557	8636.67
280.625	8644.42
280.693	8639.9
280.761	8640.04
280.83	8622.19
280.898	8630.8
280.966	8613.48
281.034	8581.42
281.102	8568.43
281.171	8563.37
281.239	8566.7
281.307	8559.14
281.375	8543.98
281.443	8573.72
281.512	8573
281.58	8571.32
281.648	8551.54
281.716	8553.27
281.784	8555.68
281.852	8551.63
281.92	8549.47
281.989	8562.85
282.057	8548.7
282.125	8590.15
282.193	8585.33
282.261	8580.86
282.329	8575.71
282.397	8581.72
282.465	8583.36
282.533	8592.26
282.601	8578.26
282.67	8560.74
282.738	8550.49
282.806	8562.66
282.874	8544.23
282.942	8542.5
283.01	8536.38
283.078	8547.07
283.146	8543.94
283.214	8549.19
283.282	8552.6
283.35	8565.45
283.418	8562.28
283.486	8565.11
283.554	8525.59
283.622	8528.91
283.69	8532.19
283.758	8529.59
283.826	8533.92
283.894	8545.95
283.962	8568.96
284.03	8583.3
284.098	8585.12
284.165	8584.5
284.233	8584.16
284.301	8579.06
284.369	8575.6
284.437	8566.74
284.505	8553.36
284.573	8562.75
284.641	8546.48
284.709	8556.73
284.777	8536.43
284.845	8544.99
284.912	8544.51
284.98	8546
285.048	8537.49
285.116	8536.86
285.184	8547.54
285.252	8546.63
285.319	8535.71
285.387	8520.83
285.455	8505.87
285.523	8517.85
285.591	8512.7
285.659	8515.93
285.726	8531.57
285.794	8511.89
285.862	8509.96
285.93	8511.6
285.997	8505.54
286.065	8505.78
286.133	8492.35
286.201	8498.65
286.269	8482.67
286.336	8482.82
286.404	8471.17
286.472	8477.72
286.539	8459.34
286.607	8440.09
286.675	8438.02
286.743	8439.85
286.81	8435.66
286.878	8448.51
286.946	8431.28
287.013	8432
287.081	8429.4
287.149	8408.9
287.216	8428.49
287.284	8428.39
287.352	8429.55
287.419	8429.74
287.487	8445.81
287.555	8452.89
287.622	8448.89
287.69	8449.04
287.758	8452.74
287.825	8452.31
287.893	8442.06
287.96	8450.62
288.028	8464
288.096	8471.03
288.163	8474.44
288.231	8465.4
288.298	8462.22
288.366	8483.39
288.433	8480.94
288.501	8462.94
288.569	8463.67
288.636	8458.57
288.704	8471.27
288.771	8478.25
288.839	8469.68
288.906	8462.9
288.974	8464.24
289.041	8464.48
289.109	8464.63
289.176	8479.4
289.244	8487.54
289.311	8497.74
289.379	8508.52
289.446	8513.14
289.514	8510.54
289.581	8506.74
289.649	8510.25
289.716	8513.81
289.783	8500.62
289.851	8521.75
289.918	8525.12
289.986	8538.64
290.053	8540.18
290.121	8534.84
290.188	8539.45
290.255	8568.09
290.323	8564.48
290.39	8564.24
290.458	8566.16
290.525	8573.38
290.592	8561.98
290.66	8563.71
290.727	8561.93
290.794	8572.85
290.862	8572.9
290.929	8573.33
290.996	8576.99
291.064	8590.18
291.131	8600.67
291.198	8610.68
291.266	8607.94
291.333	8616.41
291.4	8620.5
291.468	8639.75
291.535	8635.9
291.602	8640.76
291.669	8630.84
291.737	8629.16
291.804	8630.41
291.871	8649.28
291.938	8650.38
292.006	8681.14
292.073	8689.71
292.14	8699.86
292.207	8688.99
292.275	8689.52
292.342	8705.16
292.409	8725.71
292.476	8748
292.543	8742.85
292.611	8750.41
292.678	8764.56
292.745	8790.16
292.812	8801.09
292.879	8797.82
292.946	8804.65
293.014	8814.28
293.081	8828.91
293.148	8849.32
293.215	8862.99
293.282	8852.16
293.349	8869.63
293.416	8850.76
293.484	8869.82
293.551	8887.88
293.618	8912.76
293.685	8934.04
293.752	8925.42
293.819	8928.45
293.886	8914.54
293.953	8918.87
294.02	8920.65
294.087	8924.7
294.154	8922.48
294.221	8935.34
294.288	8937.89
294.356	8958.35
294.423	8967.88
294.49	8957.05
294.557	8967.88
294.624	8958.54
294.691	8986.41
294.758	8980.3
294.825	8991.27
294.892	8979.19
294.959	8975.53
295.026	8982.8
295.093	8977.02
295.16	8976.93
295.226	8972.21
295.293	8990.41
295.36	8993.73
295.427	9012.31
295.494	9029.26
295.561	9031.43
295.628	9048.33
295.695	9064.41
295.762	9066.77
295.829	9070.09
295.896	9085.01
295.963	9096.33
296.03	9102.25
296.096	9102.25
296.163	9119.87
296.23	9130.75
296.297	9145.58
296.364	9147.89
296.431	9149.04
296.498	9147.02
296.564	9170.18
296.631	9177.98
296.698	9171.28
296.765	9192.37
296.832	9179.56
296.899	9168.01
296.965	9180.05
297.032	9162.81
297.099	9175.76
297.166	9181.34
297.233	9182.21
297.299	9178.36
297.366	9171.91
297.433	9180.04
297.5	9188.66
297.566	9188.47
297.633	9184.18
297.7	9185.63
297.767	9182.4
297.833	9184.91
297.9	9186.45
297.967	9171.57
298.033	9181.1
298.1	9205.86
298.167	9199.55
298.234	9212.16
298.3	9217.41
298.367	9220.06
298.434	9229.5
298.5	9221.98
298.567	9219.87
298.634	9220.44
298.7	9236.28
298.767	9242.83
298.834	9256.02
298.9	9259.64
298.967	9248.85
299.033	9263.83
299.1	9277.94
299.167	9289.83
299.233	9288.86
299.3	9305.62
299.366	9323.72
299.433	9332.73
299.5	9309.57
299.566	9318.47
299.633	9330.56
299.699	9342.65
299.766	9336.82
299.832	9344.24
299.899	9354.25
299.965	9365.42
300.032	9364.17
300.099	9367.88
300.165	9372.17
300.232	9369.81
300.298	9366.43
300.365	9381.6
300.431	9379.19
300.498	9374.33
300.564	9380.11
300.631	9394.17
300.697	9406.55
300.763	9404.28
300.83	9409.48
300.896	9420.8
300.963	9425.33
301.029	9426.48
301.096	9433.37
301.162	9450.08
301.229	9441.17
301.295	9429.85
301.361	9435.2
301.428	9432.12
301.494	9420.61
301.561	9420.03
301.627	9422.63
301.693	9423.5
301.76	9433.47
301.826	9430.05
301.892	9443.29
301.959	9449.84
302.025	9444.35
302.092	9438.57
302.158	9447
302.224	9442.9
302.291	9432.79
302.357	9424.03
302.423	9420.42
302.49	9405.1
302.556	9411.07
302.622	9414.93
302.688	9429.33
302.755	9437.08
302.821	9448.25
302.887	9454.27
302.954	9454.8
303.02	9463.23
303.086	9469.39
303.152	9461.3
303.219	9453.79
303.285	9454.41
303.351	9463.47
303.417	9461.2
303.483	9447.43
303.55	9443.44
303.616	9453.16
303.682	9460.34
303.748	9459.62
303.815	9473.2
303.881	9486.97
303.947	9476.47
304.013	9477.48
304.079	9465.06
304.145	9445.8
304.212	9447.1
304.278	9445.65
304.344	9443.24
304.41	9428.65
304.476	9419.46
304.542	9411.17
304.608	9416.08
304.674	9394.61
304.741	9380.54
304.807	9391.28
304.873	9399.85
304.939	9409.1
305.005	9385.55
305.071	9378.62
305.137	9383.05
305.203	9361.42
305.269	9358.01
305.335	9365.18
305.401	9358.54
305.467	9355.65
305.533	9364.84
305.599	9377.7
305.666	9383.58
305.732	9386.42
305.798	9399.71
305.864	9422.29
305.93	9429.08
305.996	9430.43
306.062	9438.67
306.128	9439.63
306.194	9418.06
306.259	9419.07
306.325	9408.47
306.391	9414.97
306.457	9430.24
306.523	9428.5
306.589	9448.97
306.655	9441.17
306.721	9427.98
306.787	9415.02
306.853	9430.67
306.919	9413.82
306.985	9399.18
307.051	9395.62
307.117	9387.91
307.183	9381.46
307.248	9352.66
307.314	9355.17
307.38	9358.73
307.446	9357
307.512	9347.95
307.578	9359.4
307.644	9354.06
307.709	9355.89
307.775	9353.87
307.841	9350.06
307.907	9350.69
307.973	9323.48
308.039	9321.31
308.104	9323.43
308.17	9325.65
308.236	9311.78
308.302	9312.21
308.368	9302.44
308.433	9296.66
308.499	9293.19
308.565	9283.23
308.631	9289.49
308.696	9272.34
308.762	9257.99
308.828	9258.72
308.894	9238.83
308.959	9217.36
309.025	9203.21
309.091	9204.31
309.156	9198.87
309.222	9191.17
309.288	9174.12
309.354	9161.03
309.419	9157.71
309.485	9141.82
309.551	9144.66
309.616	9127.76
309.682	9129.73
309.748	9123.91
309.813	9121.12
309.879	9109.47
309.945	9092.23
310.01	9082.89
310.076	9082.07
310.141	9077.16
310.207	9064.06
310.273	9063.63
310.338	9064.74
310.404	9053.76
310.469	9039.13
310.535	9023.96
310.601	9005.91
310.666	9017.94
310.732	9022.76
310.797	9015.01
310.863	9010.53
310.928	9003.93
310.994	9007.45
311.059	9000.27
311.125	8996.33
311.191	9003.93
311.256	8990.07
311.322	8999.79
311.387	8976.88
311.453	9250.47
311.518	9226.02
311.584	9222.41
311.649	9231.17
311.715	9223.61
311.78	9227.41
311.846	9216.15
311.911	9219.37
311.976	9223.27
312.042	9201.94
312.107	9192.56
312.173	9180.91
312.238	9175.08
312.304	9173.59
312.369	9166.08
312.434	9162.23
312.5	9152.65
312.565	9115.87
312.631	9123.48
312.696	9112.99
312.761	9119.58
312.827	8830.16
312.892	8870.93
312.958	8867.9
313.023	8865.2
313.088	8862.41
313.154	8850.09
313.219	8839.6
313.284	8832.33
313.35	8825.97
313.415	8814.85
313.48	8809.17
313.546	8816.54
313.611	8818.71
313.676	8802.29
313.741	8793.87
313.807	8793.48
313.872	8797.09
313.937	8803.54
314.003	8807.87
314.068	8809.46
314.133	8815.14
314.198	8810.76
314.264	8782.31
314.329	8771.38
314.394	8761.13
314.459	8754.39
314.525	8766.76
314.59	8769.55
314.655	8756.37
314.72	8764.69
314.785	8766.43
314.851	8759.11
314.916	8737.84
314.981	8730.28
315.046	8733.07
315.111	8722.05
315.176	8708.14
315.242	8709.87
315.307	8716.47
315.372	8700.63
315.437	8687.44
315.502	8676.13
315.567	8683.88
315.632	8668.77
315.698	8672.57
315.763	8674.59
315.828	8664.92
315.893	8660.06
315.958	8652.12
316.023	8644.18
316.088	8623.05
316.153	8603.27
316.218	8595.53
316.283	8574.16
316.348	8552.94
316.413	8540.57
316.479	8523.11
316.544	8491.31
316.609	8458.53
316.674	8418.36
316.739	8386.85
316.804	8358.07
316.869	8323.24
316.934	8285.42
316.999	8258.14
317.064	8207.63
317.129	8164.27
317.194	8134.45
317.259	8090.62
317.324	8041.99
317.389	7998.13
317.454	7953.73
317.518	7919.63
317.583	7890.24
317.648	7872.11
317.713	7835.37
317.778	7778.91
317.843	7752.84
317.908	7718.51
317.973	7680.19
318.038	7650.33
318.103	7610.24
318.168	7579.51
318.233	7544.99
318.297	7497.4
318.362	7464.27
318.427	7425.53
318.492	7396.88
318.557	7351.65
318.622	7318.39
318.687	7296.52
318.751	7260.72
318.816	7227.56
318.881	7193.73
318.946	7145.91
319.011	7094.97
319.075	7057.11
319.14	7020.27
319.205	6975.34
319.27	6940.32
319.335	6900.4
319.399	6855
319.464	6828.44
319.529	6777.34
319.594	6740.64
319.658	6710.34
319.723	6661.93
319.788	6629.66
319.853	6575.49
319.917	6545.77
319.982	6492.56
320.047	6448.87
320.112	6423.37
320.176	6374.36
320.241	6339.27
320.306	6307.2
320.37	6271.3
320.435	6240.01
320.5	6212.36
320.564	6173.25
320.629	6132.08
320.694	6099.64
320.758	6063.61
320.823	6019.09
320.888	5986.8
320.952	5941.13
321.017	5897.77
321.082	5865.44
321.146	5832.2
321.211	5799.2
321.275	5757.24
321.34	5714.86
321.405	5669.69
321.469	5618.49
321.534	5578.56
321.598	5532.1
321.663	5499.45
321.727	5463.88
321.792	5418.19
321.857	5376.3
321.921	5340.5
321.986	5296.71
322.05	5236.97
322.115	5201.94
322.179	5158.3
322.244	5107.58
322.308	5075
322.373	5028.98
322.437	4985.73
322.502	4959.95
322.566	4910.73
322.631	4872.61
322.695	4834.27
322.76	4793.68
322.824	4764.62
322.889	4722.12
322.953	4680.06
323.018	4616.97
323.082	4558.6
323.146	4504.49
323.211	4453.16
323.275	4404.55
323.34	4364.04
323.404	4332.43
323.468	4285.46
323.533	4243.05
323.597	4198.55
323.662	4144.23
323.726	4113.77
323.79	4067.5
323.855	4002.74
323.919	3962.02
323.983	3915.71
324.048	3852.2
324.112	3986.02
324.177	3855.64
324.241	3656.67
324.305	3458.08
324.37	3264.7
324.434	3079.02
324.498	3037.45
324.562	2988.19
324.627	2931.61
324.691	2874.86
324.755	2810.34
324.82	2737.81
324.884	2664.6
324.948	2594.01
325.012	2506.72
325.077	2382.68
