Data from 20250702_urea_0.5M_MAYP1162681_17-55-00-389.txt Node
Date: Wed Jul 02 17:55:00 BST 2025
User: adleo
Spectrometer: MAYP116268
Trigger mode: 0
Integration Time (sec): 1.000000E0
Scans to average: 1
Electric dark correction enabled: true
Nonlinearity correction enabled: true
Boxcar width: 10
XAxis mode: Wavelengths
Number of Pixels in Spectrum: 2068
>>>>>Begin Spectral Data<<<<<
179.565	1126.36
179.642	1180.63
179.718	1220.87
179.795	1253.57
179.871	1280.32
179.948	1297.74
180.024	1312.29
180.101	1333.15
180.177	1346.78
180.254	1369.26
180.33	1390.18
180.407	1440.97
180.483	1530.05
180.56	1613.05
180.636	1691.29
180.712	1676.74
180.789	1684.11
180.865	1694.74
180.942	1705.05
181.018	1717.55
181.095	1729.24
181.171	1732.57
181.248	1730.72
181.324	1745.31
181.4	1754.96
181.477	1767.64
181.553	1779.14
181.63	1804.28
181.706	1820.16
181.782	1829.76
181.859	1829.52
181.935	1835.03
182.011	1825.53
182.088	1841.31
182.164	1861.04
182.24	1873.68
182.317	1884.71
182.393	1885.18
182.469	1901.91
182.546	1913.18
182.622	1915.89
182.698	1912.94
182.775	1923.64
182.851	1938.33
182.927	1930.2
183.003	1924.92
183.08	1920.45
183.156	1926.97
183.232	1922.45
183.308	1910.94
183.385	1916.93
183.461	1929.2
183.537	1929.1
183.613	1943.94
183.69	1935.71
183.766	1924.53
183.842	1929.53
183.918	1936.18
183.995	1949.64
184.071	1950.78
184.147	1944.88
184.223	1934.48
184.299	1944.56
184.375	1936.43
184.452	1943.32
184.528	1997.83
184.604	2007.48
184.68	2016.09
184.756	2025.17
184.832	2029.64
184.908	2032.92
184.985	2032.06
185.061	2020.75
185.137	2029.45
185.213	2018.56
185.289	2018.8
185.365	2013.33
185.441	2012.53
185.517	2023.14
185.593	2019.52
185.669	2018.09
185.745	2030.27
185.822	2048.19
185.898	2043.05
185.974	2048.66
186.05	2042.34
186.126	2002.09
186.202	1996.43
186.278	1992.77
186.354	1982.55
186.43	1987.31
186.506	1986.97
186.582	1987.16
186.658	1994.15
186.734	1976.42
186.81	1980.41
186.886	1984.64
186.962	1996.05
187.038	1994.77
187.114	1985.4
187.19	1993.53
187.266	1983.02
187.341	1983.36
187.417	1975.8
187.493	1975.18
187.569	1981.36
187.645	1971.95
187.721	1963.24
187.797	1970.9
187.873	1978.03
187.949	1972.8
188.025	1966.33
188.101	1970.09
188.176	1974.03
188.252	1968.9
188.328	1974.94
188.404	1973.65
188.48	1966.24
188.556	1958.58
188.632	1957.39
188.707	1959.3
188.783	1954.73
188.859	1951.12
188.935	1940.37
189.011	1945.79
189.086	1939.23
189.162	1926.77
189.238	1927.53
189.314	1924.16
189.39	1916.45
189.465	1907.66
189.541	1924.63
189.617	1912.42
189.693	1908.52
189.768	1909.42
189.844	1932.44
189.92	1926.93
189.996	1935.11
190.071	1946.9
190.147	1946.28
190.223	1954.6
190.298	1947.42
190.374	1934.44
190.45	1944.61
190.526	1952.79
190.601	1947.85
190.677	1948.89
190.753	1978.67
190.828	1979.91
190.904	1992.23
190.98	2005.87
191.055	2018
191.131	2008.96
191.207	2028.27
191.282	2036.59
191.358	2030.17
191.433	2015.61
191.509	2025.07
191.585	2022.6
191.66	2025.55
191.736	2033.06
191.811	2024.74
191.887	2041.29
191.963	2065.07
192.038	2071.92
192.114	2071.63
192.189	2076.39
192.265	2072.78
192.34	2052.03
192.416	2054.12
192.491	2054.12
192.567	2058.26
192.642	2060.16
192.718	2062.59
192.793	2050.56
192.869	2044.42
192.944	2048.84
193.02	2056.6
193.095	2063.44
193.171	2067.87
193.246	2067.77
193.322	2064.87
193.397	2065.11
193.473	2050.17
193.548	2031.24
193.624	2034.81
193.699	2035.85
193.775	2047.08
193.85	2048.84
193.925	2054.55
194.001	2052.98
194.076	2041.71
194.152	2032.62
194.227	2024.35
194.302	2011.8
194.378	2014.27
194.453	2015.17
194.529	2025.06
194.604	2008.56
194.679	2002.28
194.755	1986.83
194.83	1995.78
194.905	1992.97
194.981	2003.91
195.056	1997.07
195.131	2004.67
195.207	2002.06
195.282	1990.98
195.357	1975.09
195.433	1989.07
195.508	1975.14
195.583	1981.75
195.659	1996.54
195.734	2001.82
195.809	2001.2
195.884	2011.71
195.96	2013.75
196.035	2027.16
196.11	2023.26
196.185	2038.38
196.261	2041.14
196.336	2070.15
196.411	2061.02
196.486	2065.73
196.561	2056.69
196.637	2065.01
196.712	2078.38
196.787	2084.85
196.862	2101.64
196.937	2109.72
197.013	2115.95
197.088	2129.32
197.163	2147.87
197.238	2163.63
197.313	2165.68
197.388	2179.76
197.464	2210.84
197.539	2220.83
197.614	2212.31
197.689	2223.68
197.764	2237.34
197.839	2257.09
197.914	2249.09
197.989	2266.32
198.065	2279.83
198.14	2330.12
198.215	2353.91
198.29	2367.81
198.365	2379.29
198.44	2389.42
198.515	2417.13
198.59	2432.27
198.665	2457.31
198.74	2464.21
198.815	2467.5
198.89	2486.87
198.965	2513.16
199.04	2506.73
199.115	2520.82
199.19	2564.44
199.265	2566.29
199.34	2574.77
199.415	2604.88
199.49	2623.07
199.565	2630.31
199.64	2654.55
199.715	2650.5
199.79	2661.26
199.865	2663.93
199.94	2661.6
200.015	2689.61
200.09	2695.42
200.165	2699.33
200.24	2705.95
200.315	2748.15
200.39	2763.21
200.464	2771.02
200.539	2773.36
200.614	2789.36
200.689	2814.81
200.764	2819.82
200.839	2838.11
200.914	2846.4
200.989	2839.34
201.063	2853.92
201.138	2840.4
201.213	2839.44
201.288	2822
201.363	2827.25
201.438	2826.2
201.512	2840.87
201.587	2825.81
201.662	2828.86
201.737	2843.44
201.812	2850.02
201.886	2816.06
201.961	2823.12
202.036	2810.73
202.111	2807.73
202.186	2780.58
202.26	2763.52
202.335	2745.98
202.41	2738.26
202.485	2721.07
202.559	2699.39
202.634	2676.1
202.709	2684.71
202.784	2666.8
202.858	2666.14
202.933	2647.32
203.008	2642.8
203.082	2627.13
203.157	2625.7
203.232	2584.99
203.306	2565.07
203.381	2535.4
203.456	2514.64
203.53	2495.05
203.605	2476.82
203.68	2457.76
203.754	2453.01
203.829	2433.34
203.904	2411.54
203.978	2403.11
204.053	2407.73
204.127	2396.3
204.202	2396.02
204.277	2379.26
204.351	2373.55
204.426	2364.6
204.5	2354.46
204.575	2320.58
204.65	2326.44
204.724	2318.1
204.799	2326.57
204.873	2323.33
204.948	2322.29
205.022	2310.77
205.097	2303.82
205.171	2317.81
205.246	2324.86
205.32	2322.62
205.395	2328.14
205.469	2320.82
205.544	2323.01
205.618	2305.16
205.693	2319.29
205.767	2306.68
205.842	2325.96
205.916	2320.96
205.991	2315.35
206.065	2321.73
206.14	2337.71
206.214	2334.61
206.289	2327.28
206.363	2342.13
206.438	2343.08
206.512	2350.41
206.586	2369.49
206.661	2373.07
206.735	2352.47
206.81	2353.13
206.884	2367.36
206.958	2354.8
207.033	2372.4
207.107	2383.79
207.181	2417.55
207.256	2412.45
207.33	2435.21
207.405	2452.36
207.479	2473.74
207.553	2483.59
207.628	2472.69
207.702	2491.73
207.776	2492.59
207.851	2503.49
207.925	2524.79
207.999	2531.08
208.073	2538.6
208.148	2551.51
208.222	2554.32
208.296	2596.74
208.371	2623.05
208.445	2648.2
208.519	2691.4
208.593	2717.7
208.668	2732.19
208.742	2749.59
208.816	2773.51
208.89	2806.12
208.965	2830.45
209.039	2863.58
209.113	2910.07
209.187	2961.28
209.261	2986.16
209.336	3036.61
209.41	3090.17
209.484	3126.58
209.558	3187.36
209.632	3244.36
209.707	3298.14
209.781	3366.38
209.855	3433.9
209.929	3504.47
210.003	3566.01
210.077	3624.18
210.151	3734.41
210.226	3829.37
210.3	3923.95
210.374	4012.95
210.448	4090.49
210.522	4171.55
210.596	4259.3
210.67	4349.65
210.744	4476.93
210.818	4598.42
210.892	4708.74
210.966	4797.75
211.041	4916.16
211.115	5015.77
211.189	5140.2
211.263	5263.7
211.337	5374.66
211.411	5492.54
211.485	5598.56
211.559	5728.09
211.633	5848.51
211.707	5936.76
211.781	6069.58
211.855	6165.61
211.929	6294.58
212.003	6408.44
212.077	6558.12
212.151	6707.67
212.225	6855.08
212.299	6987.92
212.373	7121.05
212.447	7261
212.52	7435.8
212.594	7580.91
212.668	7738.4
212.742	7877.62
212.816	8026.19
212.89	8167.19
212.964	8324.62
213.038	8483.16
213.112	8656.99
213.186	8829.26
213.26	8974.89
213.333	9092.73
213.407	9256.24
213.481	9413.42
213.555	9584.7
213.629	9734.24
213.703	9878.49
213.777	10036.39
213.85	10175.02
213.924	10364.3
213.998	10526.66
214.072	10686.73
214.146	10837.74
214.219	10997.38
214.293	11152.73
214.367	11314.75
214.441	11492.71
214.515	11647.08
214.588	11785.31
214.662	11908.45
214.736	12044.32
214.81	12198.36
214.883	12361.13
214.957	12503.12
215.031	12639.15
215.105	12769.2
215.178	12906.24
215.252	13049.55
215.326	13172.76
215.4	13306.34
215.473	13408.53
215.547	13538.59
215.621	13661.28
215.694	13805.17
215.768	13924.28
215.842	14051.93
215.915	14170.28
215.989	14283.56
216.063	14397.9
216.136	14533.83
216.21	14658.78
216.284	14802.86
216.357	14937.44
216.431	15059.49
216.504	15187.52
216.578	15339.4
216.652	15470.56
216.725	15591.16
216.799	15723.18
216.873	15847.88
216.946	15973.49
217.02	16081.31
217.093	16192.02
217.167	16288.46
217.24	16381.34
217.314	16480.44
217.387	16582.57
217.461	16672.98
217.535	16790.87
217.608	16887.36
217.682	16985.34
217.755	17101.49
217.829	17186.64
217.902	17280.48
217.976	17372.34
218.049	17465.49
218.123	17541.01
218.196	17636.63
218.27	17717.44
218.343	17786.69
218.417	17868.91
218.49	17949.29
218.563	18043.27
218.637	18132.08
218.71	18232.61
218.784	18332.94
218.857	18433.71
218.931	18517.22
219.004	18618.57
219.077	18701.07
219.151	18785.02
219.224	18860.14
219.298	18935.22
219.371	19022.35
219.444	19083.89
219.518	19163.69
219.591	19240.51
219.665	19352.7
219.738	19431.25
219.811	19490.33
219.885	19575.86
219.958	19658.03
220.031	19724.68
220.105	19798.75
220.178	19859.13
220.251	19914.64
220.325	19979.37
220.398	20043.46
220.471	20110.21
220.544	20176.08
220.618	20216.81
220.691	20281.19
220.764	20345.43
220.838	20403.84
220.911	20453.48
220.984	20532.85
221.057	20586.15
221.131	20626.11
221.204	20638.06
221.277	20707.99
221.35	20790.26
221.424	20823.56
221.497	20863.9
221.57	20921.2
221.643	20980.82
221.716	21040.68
221.79	21080.68
221.863	21114.66
221.936	21155
222.009	21196.98
222.082	21239.73
222.155	21282.72
222.229	21332.51
222.302	21361.72
222.375	21391.17
222.448	21434.89
222.521	21466.36
222.594	21513.93
222.667	21553.41
222.74	21595.05
222.814	21606.67
222.887	21631.73
222.96	21681
223.033	21725.63
223.106	21747.61
223.179	21774.03
223.252	21787.91
223.325	21824.06
223.398	21848.64
223.471	21878.87
223.544	21899.88
223.617	21919.69
223.69	21944.71
223.763	21952.23
223.837	21984.62
223.91	22011.28
223.983	22014.27
224.056	22018.99
224.129	22024.25
224.202	22049.12
224.275	22064.74
224.348	22079.29
224.42	22081.61
224.493	22085.9
224.566	22085.71
224.639	22099.68
224.712	22105.66
224.785	22123.93
224.858	22129.23
224.931	22136.03
225.004	22132.85
225.077	22141.91
225.15	22122.82
225.223	22134.88
225.296	22168.72
225.369	22154.45
225.442	22147.8
225.514	22159.41
225.587	22176.62
225.66	22190.36
225.733	22200.44
225.806	22206.95
225.879	22215.38
225.952	22206.61
226.025	22205.45
226.097	22225.31
226.17	22230.91
226.243	22210.95
226.316	22207.33
226.389	22213.94
226.461	22214.61
226.534	22216.68
226.607	22214.13
226.68	22237.61
226.753	22239.05
226.825	22209.21
226.898	22225.74
226.971	22233.07
227.044	22237.6
227.117	22241.56
227.189	22240.54
227.262	22247.49
227.335	22243.58
227.407	22237.65
227.48	22246.96
227.553	22257.8
227.626	22251.92
227.698	22246.57
227.771	22252.74
227.844	22243.87
227.916	22242.81
227.989	22229.36
228.062	22227.96
228.134	22244.06
228.207	22232.83
228.28	22223.58
228.352	22222.52
228.425	22221.41
228.498	22226.32
228.57	22212.63
228.643	22206.99
228.716	22199.13
228.788	22184.82
228.861	22172.67
228.934	22176.67
229.006	22168.33
229.079	22153.15
229.151	22134.2
229.224	22111.83
229.296	22107.06
229.369	22132.9
229.442	22135.36
229.514	22123.12
229.587	22126.35
229.659	22101.86
229.732	22106.87
229.804	22103.55
229.877	22128.18
229.949	22127.65
230.022	22139.27
230.094	22138.98
230.167	22135.27
230.239	22121.24
230.312	22111.45
230.384	22131.75
230.457	22118.54
230.529	22117.91
230.602	22116.37
230.674	22108.56
230.747	22120.32
230.819	22129.53
230.892	22084.07
230.964	22074.29
231.037	22071.39
231.109	22042.18
231.181	22033.84
231.254	22009.89
231.326	21996.53
231.399	21960.43
231.471	21937.34
231.544	21895.54
231.616	21882.38
231.688	21872.89
231.761	21861.03
231.833	21836.25
231.905	21790.22
231.978	21774.22
232.05	21751.75
232.122	21730.5
232.195	21702.3
232.267	21689
232.339	21657.76
232.412	21658.53
232.484	21638.53
232.556	21624.69
232.629	21640.84
232.701	21636.07
232.773	21617.9
232.846	21601.65
232.918	21597.51
232.99	21583.87
233.062	21576.69
233.135	21560.78
233.207	21522.56
233.279	21499.18
233.351	21490.99
233.424	21464.72
233.496	21444.96
233.568	21443.95
233.64	21408.42
233.713	21397.19
233.785	21383.26
233.857	21374.35
233.929	21327.21
234.001	21318.39
234.074	21301.86
234.146	21256.31
234.218	21235.49
234.29	21213.99
234.362	21180.74
234.434	21129.45
234.507	21092.63
234.579	21050.61
234.651	21021.11
234.723	21008.48
234.795	20998.65
234.867	20970.07
234.939	20961.54
235.012	20931.71
235.084	20909.25
235.156	20903.03
235.228	20869.77
235.3	20831.41
235.372	20804.37
235.444	20801.29
235.516	20749.24
235.588	20732.66
235.66	20707.93
235.732	20663.16
235.804	20684.13
235.876	20674.15
235.948	20665.43
236.02	20638.06
236.092	20606.39
236.164	20578.3
236.236	20542.2
236.308	20495.11
236.38	20470.44
236.452	20440.03
236.524	20417.62
236.596	20402.87
236.668	20370.2
236.74	20350.1
236.812	20319.5
236.884	20294.49
236.956	20259.5
237.028	20215.02
237.1	20167.07
237.172	20144.42
237.244	20133.38
237.316	20074.83
237.388	20026.3
237.46	19994.01
237.532	19974.93
237.604	19926.4
237.675	19912.67
237.747	19885.44
237.819	19852.28
237.891	19817.54
237.963	19778.36
238.035	19746.75
238.107	19678.27
238.178	19661.88
238.25	19619.81
238.322	19609.84
238.394	19558.22
238.466	19526.9
238.538	19510.13
238.609	19490.76
238.681	19445.6
238.753	19403.58
238.825	19365.27
238.897	19338.24
238.968	19321.61
239.04	19283.83
239.112	19296.94
239.184	19250.87
239.255	19214.2
239.327	19196.32
239.399	19169.48
239.471	19147.98
239.542	19113.53
239.614	19093.34
239.686	19030.11
239.758	19008.42
239.829	18961.34
239.901	18949.15
239.973	18908.09
240.044	18873.59
240.116	18829.06
240.188	18797.4
240.259	18769.89
240.331	18732.35
240.403	18702.85
240.474	18642.37
240.546	18594.14
240.618	18533.47
240.689	18489.52
240.761	18455.93
240.833	18432.75
240.904	18391.35
240.976	18353.86
241.048	18323.6
241.119	18295.94
241.191	18269.53
241.262	18247.79
241.334	18207.02
241.405	18158.88
241.477	18126.31
241.549	18091.03
241.62	18064.96
241.692	18033.63
241.763	18003.71
241.835	17953.49
241.906	17916.92
241.978	17875.33
242.049	17859.09
242.121	17838.89
242.192	17811.95
242.264	17767.91
242.335	17711.72
242.407	17687.57
242.478	17644.29
242.55	17614.03
242.621	17570.61
242.693	17536.83
242.764	17498.61
242.836	17464.15
242.907	17435.86
242.979	17403.96
243.05	17376.25
243.122	17350.71
243.193	17313.69
243.264	17254.13
243.336	17232.73
243.407	17210.9
243.479	17188.15
243.55	17158.41
243.622	17120.39
243.693	17087.38
243.764	17069.59
243.836	17026.02
243.907	16986.07
243.978	16948.09
244.05	16908.96
244.121	16860.33
244.192	16828.47
244.264	16778.16
244.335	16744.85
244.407	16703.12
244.478	16674.01
244.549	16633.14
244.62	16584.89
244.692	16544.6
244.763	16521.47
244.834	16486.67
244.906	16446.96
244.977	16427.87
245.048	16409.07
245.119	16370.18
245.191	16327.96
245.262	16275.57
245.333	16261.06
245.405	16228.38
245.476	16202.74
245.547	16167.27
245.618	16147.99
245.689	16121.62
245.761	16093.23
245.832	16061.57
245.903	16027.39
245.974	15998.09
246.045	15964.49
246.117	15949.89
246.188	15908.68
246.259	15865.97
246.33	15828.28
246.401	15790.44
246.473	15737.57
246.544	15694.38
246.615	15670.72
246.686	15639.15
246.757	15623.34
246.828	15576.44
246.899	15565.49
246.97	15518.06
247.042	15482.97
247.113	15456.61
247.184	15445.52
247.255	15406.53
247.326	15370.18
247.397	15330.51
247.468	15296.96
247.539	15265.49
247.61	15210.3
247.681	15197.33
247.752	15183.4
247.823	15147.44
247.894	15116.59
247.965	15077.74
248.037	15039.95
248.108	14998.73
248.179	14968.99
248.25	14931.68
248.321	14910.71
248.392	14862.08
248.463	14858.65
248.534	14829.3
248.605	14802.26
248.675	14763.79
248.746	14742.24
248.817	14725.9
248.888	14710.57
248.959	14664.49
249.03	14638.7
249.101	14616.38
249.172	14581
249.243	14526.19
249.314	14513.95
249.385	14490.33
249.456	14466.32
249.527	14438.7
249.598	14410.11
249.669	14381
249.739	14363.69
249.81	14341.08
249.881	14300.69
249.952	14263.04
250.023	14232.33
250.094	14190.25
250.165	14143.92
250.235	14120.35
250.306	14092.24
250.377	14053
250.448	14038.21
250.519	13997.81
250.59	13990.63
250.66	13959.48
250.731	13954.86
250.802	13924.25
250.873	13893.2
250.944	13865.58
251.014	13829.28
251.085	13829.38
251.156	13803.87
251.227	13790.91
251.297	13776.45
251.368	13762.61
251.439	13750.41
251.51	13744.24
251.58	13719.9
251.651	13699.03
251.722	13681.53
251.792	13638.91
251.863	13609.89
251.934	13588.44
252.005	13591.91
252.075	13560.14
252.146	13543.37
252.217	13525.63
252.287	13515.31
252.358	13499.79
252.429	13503.6
252.499	13476.21
252.57	13446.42
252.641	13437.5
252.711	13404.05
252.782	13363.85
252.852	13365.48
252.923	13339.07
252.994	13315.35
253.064	13299.2
253.135	13267.24
253.205	13237.83
253.276	13235.18
253.347	13236.24
253.417	13205.73
253.488	13170.68
253.558	13143.45
253.629	13117.99
253.699	13100.2
253.77	13074.61
253.841	13037.97
253.911	13012.57
253.982	12994.78
254.052	12982.87
254.123	12961.71
254.193	12943.58
254.264	12959.49
254.334	12917.31
254.405	12885.88
254.475	12846.64
254.546	12824.76
254.616	12821.67
254.687	12806.29
254.757	12785.23
254.827	12749.27
254.898	12744.35
254.968	12732.3
255.039	12706.84
255.109	12691.08
255.18	12662.35
255.25	12623.02
255.321	12616.08
255.391	12580.02
255.461	12581.8
255.532	12539.48
255.602	12508.34
255.673	12464.18
255.743	12428.94
255.813	12383.34
255.884	12378.23
255.954	12362.42
256.024	12360.01
256.095	12333.69
256.165	12300.19
256.235	12283.95
256.306	12261.97
256.376	12249.15
256.446	12234.06
256.517	12216.85
256.587	12208.65
256.657	12189.47
256.728	12171.01
256.798	12147.49
256.868	12128.01
256.938	12092.68
257.009	12077.16
257.079	12059.95
257.149	12066.84
257.219	12025.63
257.29	12012.18
257.36	11969.48
257.43	11966.25
257.5	11920.41
257.571	11898.29
257.641	11879.78
257.711	11848.25
257.781	11842.52
257.852	11817.07
257.922	11781.69
257.992	11761.69
258.062	11739.95
258.132	11728.43
258.202	11706.93
258.273	11693.24
258.343	11690.98
258.413	11667.7
258.483	11651.45
258.553	11633.48
258.623	11604.41
258.693	11590.77
258.764	11590.63
258.834	11583.4
258.904	11558.19
258.974	11531.25
259.044	11507.59
259.114	11500.6
259.184	11487.54
259.254	11468.4
259.324	11434.62
259.394	11420.54
259.464	11412.74
259.535	11390.18
259.605	11366.9
259.675	11348.35
259.745	11332.01
259.815	11305.16
259.885	11283.23
259.955	11294.22
260.025	11266.08
260.095	11247.81
260.165	11237.4
260.235	11236.34
260.305	11222.13
260.375	11199.24
260.445	11204.92
260.515	11202.27
260.585	11193.89
260.655	11177.02
260.725	11163.09
260.795	11158.56
260.865	11155.57
260.934	11129.21
261.004	11116.59
261.074	11101.07
261.144	11095.38
261.214	11085.41
261.284	11060.25
261.354	11050.37
261.424	11015
261.494	11018.03
261.564	10998.52
261.634	10992.3
261.703	10955.87
261.773	10942.9
261.843	10929.65
261.913	10909.9
261.983	10880.36
262.053	10868.89
262.123	10851.2
262.192	10819.01
262.262	10811.69
262.332	10780.56
262.402	10772.27
262.472	10761.82
262.541	10725.25
262.611	10725.05
262.681	10700.14
262.751	10697.88
262.821	10680.43
262.89	10654.51
262.96	10634.46
263.03	10641.02
263.1	10622.22
263.169	10606.28
263.239	10592.88
263.309	10592.45
263.379	10580.21
263.448	10567.06
263.518	10554.33
263.588	10538.58
263.657	10544.17
263.727	10529.66
263.797	10513.91
263.867	10502.49
263.936	10470.02
264.006	10469.78
264.076	10443.57
264.145	10430.36
264.215	10400.16
264.285	10399.15
264.354	10365.18
264.424	10348.51
264.494	10317.82
264.563	10300.62
264.633	10307.46
264.702	10290.12
264.772	10259.52
264.842	10243.48
264.911	10235.05
264.981	10206.34
265.05	10191.4
265.12	10169.87
265.19	10154.26
265.259	10152.91
265.329	10137.44
265.398	10128.2
265.468	10137.97
265.537	10119.91
265.607	10109.75
265.676	10110.42
265.746	10090.24
265.815	10096.55
265.885	10085.42
265.955	10062.1
266.024	10040.67
266.094	10002.08
266.163	10009.74
266.232	10006.37
266.302	9989.8
266.371	9977.28
266.441	9963.6
266.51	9956.23
266.58	9941
266.649	9923.04
266.719	9918.17
266.788	9910.32
266.858	9913.31
266.927	9874.96
266.996	9863.64
267.066	9854.4
267.135	9830.84
267.205	9839.22
267.274	9824
267.343	9824.25
267.413	9815.24
267.482	9819.91
267.552	9825.55
267.621	9792.89
267.69	9767.02
267.76	9757.34
267.829	9747.52
267.898	9733.26
267.968	9710.87
268.037	9707.88
268.106	9706.63
268.176	9674.84
268.245	9671.28
268.314	9657.31
268.384	9658.08
268.453	9641.9
268.522	9627.84
268.592	9624.99
268.661	9598.07
268.73	9589.98
268.799	9566.72
268.869	9569.8
268.938	9536.52
269.007	9509.6
269.076	9498.67
269.146	9496.55
269.215	9492.94
269.284	9496.46
269.353	9485.24
269.422	9475.85
269.492	9455.96
269.561	9414.74
269.63	9413.15
269.699	9386.13
269.768	9368.51
269.838	9360.37
269.907	9355.22
269.976	9336.97
270.045	9309.62
270.114	9306.1
270.183	9297.92
270.253	9287.85
270.322	9259.98
270.391	9248.61
270.46	9253.04
270.529	9256.65
270.598	9251.26
270.667	9233.06
270.736	9214.33
270.806	9205.66
270.875	9206.43
270.944	9192.52
271.013	9214.81
271.082	9205.23
271.151	9202.48
271.22	9182.36
271.289	9166.71
271.358	9158
271.427	9152.85
271.496	9150.44
271.565	9131.61
271.634	9119.34
271.703	9121.07
271.772	9124.87
271.841	9119.58
271.91	9097.09
271.979	9081.01
272.048	9059.83
272.117	9060.55
272.186	9042.69
272.255	9044.13
272.324	9045.63
272.393	9042.69
272.462	9021.84
272.531	9013.37
272.6	8998.35
272.669	9001.24
272.738	8994.64
272.807	8988.96
272.876	8967.92
272.945	8983.67
273.013	8987.76
273.082	8991.56
273.151	8970.19
273.22	8961.52
273.289	8955.12
273.358	8966.87
273.427	8951.7
273.496	8954.06
273.564	8952.19
273.633	8949.49
273.702	8930.62
273.771	8914.73
273.84	8910.35
273.909	8911.51
273.977	8911.12
274.046	8902.31
274.115	8906.02
274.184	8885.04
274.253	8881.28
274.322	8887.06
274.39	8859.91
274.459	8841.9
274.528	8813.02
274.597	8807.05
274.665	8804.02
274.734	8814.08
274.803	8805.56
274.872	8802.24
274.94	8785.39
275.009	8835.86
275.078	8821.86
275.147	8819.6
275.215	8813.05
275.284	8819.45
275.353	8810.07
275.421	8783.59
275.49	8798.13
275.559	8787.93
275.627	8788.89
275.696	8781.19
275.765	8781.91
275.833	8773.2
275.902	8771.13
275.971	8787.88
276.039	8801.36
276.108	8800.87
276.177	8792.64
276.245	8779.98
276.314	8777.63
276.383	8788.26
276.451	8723.5
276.52	8728.26
276.588	8730.47
276.657	8736.06
276.725	8722.92
276.794	8713.53
276.863	8727.68
276.931	8701.35
277	8704.29
277.068	8709.63
277.137	8726.28
277.205	8726
277.274	8742.55
277.342	8753.96
277.411	8726.91
277.48	8716.66
277.548	8712.47
277.617	8716.04
277.685	8705.79
277.754	8708.24
277.822	8693.37
277.89	8700.97
277.959	8698.86
278.027	8683.46
278.096	8667.72
278.164	8686.01
278.233	8689.19
278.301	8675.85
278.37	8684.37
278.438	8668.97
278.507	8672.15
278.575	8639.81
278.643	8631.62
278.712	8614.92
278.78	8602.5
278.849	8619.15
278.917	8628.97
278.985	8623.49
279.054	8626.28
279.122	8634.84
279.191	8629.31
279.259	8625.6
279.327	8612.08
279.396	8619.83
279.464	8618.63
279.532	8627.19
279.601	8629.07
279.669	8620.65
279.737	8635.52
279.806	8638.12
279.874	8648.08
279.942	8647.6
280.011	8641.63
280.079	8652.89
280.147	8668.1
280.215	8663.63
280.284	8660.26
280.352	8642.45
280.42	8648.03
280.488	8633.26
280.557	8627.77
280.625	8631.04
280.693	8634.46
280.761	8636.34
280.83	8618.96
280.898	8633.54
280.966	8617.18
281.034	8583.54
281.102	8569.63
281.171	8562.22
281.239	8567.66
281.307	8565.98
281.375	8551.44
281.443	8585.47
281.512	8578.68
281.58	8588.55
281.648	8583.93
281.716	8578.88
281.784	8570.46
281.852	8562.9
281.92	8561.6
281.989	8572.28
282.057	8560.69
282.125	8606.9
282.193	8600.45
282.261	8607.14
282.329	8600.64
282.397	8603.91
282.465	8613.06
282.533	8628.31
282.601	8619.41
282.67	8598.91
282.738	8587.64
282.806	8592.55
282.874	8570.85
282.942	8571.76
283.01	8562.23
283.078	8559.78
283.146	8553.91
283.214	8571.61
283.282	8573.49
283.35	8587.83
283.418	8578.55
283.486	8574.7
283.554	8526.9
283.622	8530.89
283.69	8521.84
283.758	8516.93
283.826	8521.7
283.894	8529.59
283.962	8550.29
284.03	8563.14
284.098	8568.77
284.165	8563.28
284.233	8568.62
284.301	8569.59
284.369	8562.17
284.437	8559.53
284.505	8563.91
284.573	8581.09
284.641	8566.31
284.709	8573.15
284.777	8554.9
284.845	8564.19
284.912	8578.97
284.98	8580.94
285.048	8577.14
285.116	8586.81
285.184	8601.01
285.252	8598.75
285.319	8582.19
285.387	8564.62
285.455	8548.55
285.523	8546.53
285.591	8546.34
285.659	8544.03
285.726	8550.76
285.794	8536.33
285.862	8522.47
285.93	8518.33
285.997	8513.18
286.065	8508.23
286.133	8502.59
286.201	8497.06
286.269	8483.54
286.336	8468.96
286.404	8461.74
286.472	8468.04
286.539	8445.62
286.607	8429.21
286.675	8435.47
286.743	8442.44
286.81	8443.12
286.878	8449.9
286.946	8439.08
287.013	8435.37
287.081	8430.66
287.149	8420.5
287.216	8445.28
287.284	8443.74
287.352	8442.25
287.419	8433.45
287.487	8451.06
287.555	8444.56
287.622	8438.74
287.69	8442.16
287.758	8454.86
287.825	8455.68
287.893	8447.26
287.96	8459.19
288.028	8465.92
288.096	8459.96
288.163	8462.03
288.231	8448.17
288.298	8448.79
288.366	8470.45
288.433	8472.47
288.501	8469.82
288.569	8468.76
288.636	8454.04
288.704	8465.15
288.771	8474.15
288.839	8469.73
288.906	8456.15
288.974	8471.51
289.041	8473.38
289.109	8462.17
289.176	8469.01
289.244	8475.46
289.311	8489.51
289.379	8499.13
289.446	8502.36
289.514	8507.41
289.581	8511.16
289.649	8518.33
289.716	8523.15
289.783	8512.94
289.851	8531.08
289.918	8530.65
289.986	8537.39
290.053	8547.11
290.121	8546.15
290.188	8544.9
290.255	8571.22
290.323	8573.58
290.39	8569.87
290.458	8579.78
290.525	8595.33
290.592	8588.11
290.66	8593.83
290.727	8584.79
290.794	8593.74
290.862	8596.05
290.929	8595.13
290.996	8589.84
291.064	8595.18
291.131	8602.93
291.198	8616.36
291.266	8617.27
291.333	8621.79
291.4	8632.67
291.468	8653.13
291.535	8650.82
291.602	8661.94
291.669	8655.82
291.737	8664.1
291.804	8661.69
291.871	8668.14
291.938	8678.15
292.006	8710.41
292.073	8712.09
292.14	8727.3
292.207	8717.48
292.275	8713.83
292.342	8724.13
292.409	8753.2
292.476	8777.31
292.543	8772.45
292.611	8772.79
292.678	8791.42
292.745	8814.33
292.812	8823.81
292.879	8813.46
292.946	8822.41
293.014	8829.73
293.081	8838.3
293.148	8846.82
293.215	8863.09
293.282	8864.48
293.349	8875.07
293.416	8852.3
293.484	8867.61
293.551	8872.9
293.618	8896.25
293.685	8927.49
293.752	8924.17
293.819	8916.37
293.886	8901.83
293.953	8908.91
294.02	8921.04
294.087	8922.24
294.154	8916.56
294.221	8926.72
294.288	8929.27
294.356	8947.32
294.423	8951.37
294.49	8945.25
294.557	8956.23
294.624	8948.77
294.691	8970
294.758	8972.84
294.825	8985.88
294.892	8984.58
294.959	8980.44
295.026	8978.85
295.093	8969.61
295.16	8969.42
295.226	8975.43
295.293	8998.88
295.36	9004.17
295.427	9012.55
295.494	9018.91
295.561	9023.91
295.628	9052.13
295.695	9061.71
295.762	9063.35
295.829	9069.95
295.896	9089.35
295.963	9099.6
296.03	9108.6
296.096	9111.97
296.163	9117.27
296.23	9126.13
296.297	9135.52
296.364	9140.57
296.431	9150.2
296.498	9147.79
296.564	9171.05
296.631	9172.73
296.698	9164.93
296.765	9186.45
296.832	9177.59
296.899	9168.59
296.965	9188.86
297.032	9166.61
297.099	9184.14
297.166	9192.56
297.233	9192.8
297.299	9183.99
297.366	9187.99
297.433	9188.37
297.5	9198.15
297.566	9198.63
297.633	9201.81
297.7	9203.3
297.767	9201.86
297.833	9213.32
297.9	9214.18
297.967	9202.63
298.033	9213.85
298.1	9242.11
298.167	9236.67
298.234	9247.99
298.3	9259.98
298.367	9256.08
298.434	9255.55
298.5	9249.19
298.567	9242.26
298.634	9242.06
298.7	9259.59
298.767	9260.7
298.834	9275
298.9	9266.43
298.967	9264.4
299.033	9272.73
299.1	9286.07
299.167	9297
299.233	9288.09
299.3	9300.08
299.366	9313.56
299.433	9324.3
299.5	9297
299.566	9300.99
299.633	9314.62
299.699	9325.99
299.766	9322.57
299.832	9333.79
299.899	9339.37
299.965	9349.87
300.032	9346.21
300.099	9349.97
300.165	9358.88
300.232	9357.34
300.298	9359.41
300.365	9372.7
300.431	9374.53
300.498	9370.29
300.564	9381.27
300.631	9395.52
300.697	9412.18
300.763	9414.01
300.83	9418.01
300.896	9431.92
300.963	9434.19
301.029	9433.51
301.096	9435.73
301.162	9447.48
301.229	9441.36
301.295	9429.66
301.361	9431.01
301.428	9434.91
301.494	9423.59
301.561	9431.83
301.627	9437.17
301.693	9442.62
301.76	9442.62
301.826	9433.51
301.892	9446.61
301.959	9452.63
302.025	9447.38
302.092	9441.89
302.158	9450.51
302.224	9449.45
302.291	9441.22
302.357	9444.3
302.423	9440.69
302.49	9433.51
302.556	9446.66
302.622	9448.15
302.688	9462.26
302.755	9476.71
302.821	9485.09
302.887	9498.91
302.954	9490.77
303.02	9494.19
303.086	9497.8
303.152	9494.43
303.219	9487.83
303.285	9487.64
303.351	9497.08
303.417	9499.01
303.483	9490.43
303.55	9484.08
303.616	9479.65
303.682	9478.73
303.748	9472.04
303.815	9484.46
303.881	9488.94
303.947	9475.02
304.013	9474.21
304.079	9467.46
304.145	9448.88
304.212	9447.14
304.278	9434.67
304.344	9426.68
304.41	9412.71
304.476	9411.46
304.542	9414.69
304.608	9425.57
304.674	9416.95
304.741	9408.66
304.807	9405.87
304.873	9409.53
304.939	9422.92
305.005	9410.69
305.071	9409.24
305.137	9409.68
305.203	9383.67
305.269	9385.16
305.335	9392.73
305.401	9395.42
305.467	9385.41
305.533	9389.84
305.599	9396.19
305.666	9406.84
305.732	9409.63
305.798	9423.79
305.864	9439.63
305.93	9435.34
305.996	9432.55
306.062	9429.32
306.128	9423.64
306.194	9416.95
306.259	9414.16
306.325	9404.57
306.391	9410.35
306.457	9415.84
306.523	9412.57
306.589	9436.74
306.655	9429.08
306.721	9412.81
306.787	9394.27
306.853	9414.01
306.919	9399.57
306.985	9394.03
307.051	9379.25
307.117	9376.16
307.183	9369.04
307.248	9344.62
307.314	9351.03
307.38	9353.87
307.446	9359.07
307.512	9353.24
307.578	9354.59
307.644	9354.49
307.709	9355.84
307.775	9353.72
307.841	9353.39
307.907	9354.25
307.973	9333.35
308.039	9329.26
308.104	9329.26
308.17	9331.33
308.236	9317.7
308.302	9322.37
308.368	9308.7
308.433	9314.38
308.499	9305.38
308.565	9296.61
308.631	9298.3
308.696	9279.28
308.762	9271.33
308.828	9263.82
308.894	9243.5
308.959	9223.76
309.025	9209.7
309.091	9201.61
309.156	9185.77
309.222	9190.59
309.288	9186.79
309.354	9169.21
309.419	9168.44
309.485	9163.63
309.551	9171.67
309.616	9156.94
309.682	9153.23
309.748	9149.18
309.813	9145.19
309.879	9136.23
309.945	9124.68
310.01	9113.27
310.076	9115.77
310.141	9100.13
310.207	9084.81
310.273	9084.67
310.338	9086.07
310.404	9074.71
310.469	9067.15
310.535	9062.33
310.601	9031.62
310.666	9036.77
310.732	9045.67
310.797	9033.73
310.863	9020.21
310.928	9010.43
310.994	9015.73
311.059	9008.7
311.125	9006.87
311.191	9015.3
311.256	9006.68
311.322	9010.92
311.387	8994.31
311.453	9294.22
311.518	9274.1
311.584	9274.1
311.649	9281.7
311.715	9276.94
311.78	9281.37
311.846	9268.71
311.911	9274.68
311.976	9283.92
312.042	9257.3
312.107	9239.92
312.173	9229.71
312.238	9227.79
312.304	9221.1
312.369	9205.55
312.434	9197.17
312.5	9189.66
312.565	9153.41
312.631	9155.24
312.696	9144.17
312.761	9149.18
312.827	8835.4
312.892	8872.56
312.958	8864.91
313.023	8859.47
313.088	8856.73
313.154	8840.31
313.219	8828.76
313.284	8816.05
313.35	8802.82
313.415	8795.31
313.48	8795.84
313.546	8797.91
313.611	8803.2
313.676	8796.85
313.741	8792.9
313.807	8800.46
313.872	8802.05
313.937	8812.16
314.003	8821.25
314.068	8820.53
314.133	8824
314.198	8813.89
314.264	8789.87
314.329	8786.26
314.394	8785.73
314.459	8774.95
314.525	8793.19
314.59	8790.25
314.655	8787.41
314.72	8796.94
314.785	8803.63
314.851	8796.03
314.916	8779.71
314.981	8764.12
315.046	8751.08
315.111	8739.67
315.176	8723.83
315.242	8724.51
315.307	8722.15
315.372	8702.41
315.437	8695.19
315.502	8686.72
315.567	8700.83
315.632	8684.99
315.698	8682.87
315.763	8672.67
315.828	8670.84
315.893	8665.64
315.958	8661.07
316.023	8654.38
316.088	8632.29
316.153	8611.21
316.218	8601.73
316.283	8585.04
316.348	8563.43
316.413	8564.59
316.479	8549.43
316.544	8519.99
316.609	8487.74
316.674	8448.53
316.739	8409.9
316.804	8380.98
316.869	8345.09
316.934	8299.23
316.999	8271.04
317.064	8221.06
317.129	8179.34
317.194	8144.03
317.259	8089.47
317.324	8040.08
317.389	7988.42
317.454	7953.73
317.518	7919.01
317.583	7894.09
317.648	7867.5
317.713	7839.6
317.778	7778.95
317.843	7750.72
317.908	7712.93
317.973	7674.94
318.038	7647.78
318.103	7617.73
318.168	7583.59
318.233	7555.85
318.297	7506.62
318.362	7471.05
318.427	7433.61
318.492	7405.68
318.557	7356.08
318.622	7328.15
318.687	7307.05
318.751	7270.29
318.816	7238.57
318.881	7201.76
318.946	7145.24
319.011	7099.21
319.075	7050.34
319.14	7010.71
319.205	6970.11
319.27	6932.5
319.335	6889.55
319.399	6844.44
319.464	6813.65
319.529	6764.71
319.594	6721.76
319.658	6697.32
319.723	6658.66
319.788	6635.41
319.853	6581.24
319.917	6550.61
319.982	6501.25
320.047	6459.24
320.112	6431.73
320.176	6375.94
320.241	6345.74
320.306	6316.27
320.37	6277.69
320.435	6251.53
320.5	6231.18
320.564	6188.94
320.629	6153.44
320.694	6120.57
320.758	6084.2
320.823	6041.3
320.888	6014.05
320.952	5967.09
321.017	5922.95
321.082	5882.61
321.146	5840.69
321.211	5808.17
321.275	5769.86
321.34	5725.08
321.405	5687.34
321.469	5637.57
321.534	5597.26
321.598	5544.38
321.663	5515.65
321.727	5483.06
321.792	5432.59
321.857	5384.74
321.921	5340.56
321.986	5294.04
322.05	5238.37
322.115	5202.29
322.179	5157.35
322.244	5097.1
322.308	5062.27
322.373	5016.72
322.437	4974.53
322.502	4949.42
322.566	4900
322.631	4866.48
322.695	4831.11
322.76	4784.72
322.824	4749.73
322.889	4709.1
322.953	4668.14
323.018	4604.28
323.082	4542.8
323.146	4495.54
323.211	4443.58
323.275	4401.2
323.34	4357.82
323.404	4324.3
323.468	4278.57
323.533	4236.4
323.597	4191.81
323.662	4140.65
323.726	4107.47
323.79	4065.4
323.855	3998.4
323.919	3954.34
323.983	3906.25
324.048	3837.53
324.112	3969.72
324.177	3843.22
324.241	3644.82
324.305	3446.66
324.37	3252
324.434	3067.46
324.498	3024.16
324.562	2975.41
324.627	2920.13
324.691	2867.02
324.755	2803.76
324.82	2728.26
324.884	2652.07
324.948	2585.06
325.012	2495.78
325.077	2372.57
