Data from 20250702_urea_0.5M_MAYP1162681_22-45-00-020.txt Node
Date: Wed Jul 02 22:45:00 BST 2025
User: adleo
Spectrometer: MAYP116268
Trigger mode: 0
Integration Time (sec): 1.000000E0
Scans to average: 1
Electric dark correction enabled: true
Nonlinearity correction enabled: true
Boxcar width: 10
XAxis mode: Wavelengths
Number of Pixels in Spectrum: 2068
>>>>>Begin Spectral Data<<<<<
179.565	1233.1
179.642	1290.14
179.718	1335.42
179.795	1370.37
179.871	1402.2
179.948	1417.2
180.024	1439.65
180.101	1462.32
180.177	1476.88
180.254	1498.32
180.33	1519.85
180.407	1574.31
180.483	1670.23
180.56	1761.83
180.636	1848.39
180.712	1834.12
180.789	1844.72
180.865	1856.51
180.942	1862.4
181.018	1871.77
181.095	1886.89
181.171	1890.69
181.248	1891.07
181.324	1905.86
181.4	1916.32
181.477	1929.06
181.553	1945.98
181.63	1967.38
181.706	1985.36
181.782	1995.82
181.859	1996.82
181.935	2002.57
182.011	1999.05
182.088	2015.51
182.164	2034.87
182.24	2049.37
182.317	2058.83
182.393	2054.41
182.469	2067.34
182.546	2083.75
182.622	2087.27
182.698	2081.47
182.775	2092.41
182.851	2108.06
182.927	2099.68
183.003	2096.4
183.08	2090.27
183.156	2100.26
183.232	2096.93
183.308	2085.13
183.385	2091.74
183.461	2110.34
183.537	2112.05
183.613	2127.84
183.69	2121.09
183.766	2109.76
183.842	2114.95
183.918	2121.99
183.995	2138.11
184.071	2144.96
184.147	2135.83
184.223	2125.09
184.299	2137.03
184.375	2126.42
184.452	2131.99
184.528	2191.96
184.604	2202.9
184.68	2215.74
184.756	2222.5
184.832	2228.12
184.908	2233.02
184.985	2233.21
185.061	2218.6
185.137	2228.74
185.213	2213.99
185.289	2214.08
185.365	2211.09
185.441	2211.56
185.517	2226.46
185.593	2224.41
185.669	2219.66
185.745	2232.5
185.822	2249.38
185.898	2243.39
185.974	2255.33
186.05	2245.86
186.126	2201.87
186.202	2192.78
186.278	2189.12
186.354	2178.41
186.43	2184.65
186.506	2183.75
186.582	2184.79
186.658	2187.79
186.734	2168.19
186.81	2174.47
186.886	2176.09
186.962	2183.36
187.038	2179.84
187.114	2169.66
187.19	2174.08
187.266	2166.66
187.341	2168.52
187.417	2159.62
187.493	2158.48
187.569	2156.43
187.645	2152.53
187.721	2143.35
187.797	2151.72
187.873	2155.15
187.949	2148.39
188.025	2140.06
188.101	2144.01
188.176	2146.63
188.252	2143.59
188.328	2152.1
188.404	2152.05
188.48	2149.96
188.556	2147.44
188.632	2145.34
188.707	2147.29
188.783	2145.39
188.859	2138.26
188.935	2126.98
189.011	2137.78
189.086	2130.6
189.162	2123.13
189.238	2117.85
189.314	2111.33
189.39	2105.63
189.465	2098.3
189.541	2117.62
189.617	2101.73
189.693	2095.55
189.768	2100.97
189.844	2126.1
189.92	2118.87
189.996	2124.82
190.071	2135.38
190.147	2130.33
190.223	2138.52
190.298	2130.38
190.374	2117.59
190.45	2131.24
190.526	2138.56
190.601	2132.71
190.677	2136.8
190.753	2166.5
190.828	2173.06
190.904	2187.81
190.98	2204.8
191.055	2215.88
191.131	2206.03
191.207	2226.44
191.282	2235.1
191.358	2222.3
191.433	2209.92
191.509	2220.53
191.585	2218.2
191.66	2220.86
191.736	2229.52
191.811	2220.96
191.887	2239.66
191.963	2263.36
192.038	2266.97
192.114	2267.17
192.189	2272.11
192.265	2264.74
192.34	2242.75
192.416	2241.42
192.491	2238.04
192.567	2235.85
192.642	2236.89
192.718	2238.61
192.793	2227.38
192.869	2224.52
192.944	2228.38
193.02	2230.76
193.095	2234.85
193.171	2241.27
193.246	2239.27
193.322	2238.56
193.397	2242.13
193.473	2227.04
193.548	2206.62
193.624	2211.48
193.699	2213.14
193.775	2227.18
193.85	2230.7
193.925	2239.51
194.001	2236.94
194.076	2231.66
194.152	2223.66
194.227	2216.71
194.302	2203.49
194.378	2206.44
194.453	2203.35
194.529	2217.53
194.604	2206.06
194.679	2199.12
194.755	2180.61
194.83	2192.7
194.905	2190.28
194.981	2198.32
195.056	2190.28
195.131	2198.23
195.207	2194.99
195.282	2181.53
195.357	2160.49
195.433	2178.05
195.508	2169.2
195.583	2179.38
195.659	2194.65
195.734	2205.55
195.809	2205.22
195.884	2216.63
195.96	2219.73
196.035	2232.62
196.11	2226.05
196.185	2236.66
196.261	2242.99
196.336	2272.82
196.411	2259.5
196.486	2264.35
196.561	2258.4
196.637	2265.25
196.712	2280.67
196.787	2286.91
196.862	2304.65
196.937	2318.36
197.013	2323.26
197.088	2330.11
197.163	2350.97
197.238	2368.21
197.313	2363.45
197.388	2374.83
197.464	2405.87
197.539	2414.77
197.614	2408.54
197.689	2421.2
197.764	2441.39
197.839	2460.48
197.914	2455.58
197.989	2478.58
198.065	2494.96
198.14	2544.13
198.215	2573.17
198.29	2586.99
198.365	2601.56
198.44	2612.14
198.515	2638.24
198.59	2656.58
198.665	2682.82
198.74	2692.21
198.815	2691.31
198.89	2714.93
198.965	2751.2
199.04	2744.81
199.115	2760.2
199.19	2804.4
199.265	2805.98
199.34	2815.84
199.415	2850.07
199.49	2872.37
199.565	2880.76
199.64	2905.45
199.715	2902.54
199.79	2912.69
199.865	2919.65
199.94	2914.84
200.015	2948.83
200.09	2952.21
200.165	2955.26
200.24	2965.56
200.315	3006.5
200.39	3021.19
200.464	3027.34
200.539	3026.14
200.614	3044.64
200.689	3068.29
200.764	3076.92
200.839	3099.94
200.914	3105.85
200.989	3096.02
201.063	3112.09
201.138	3095.28
201.213	3094.32
201.288	3072.15
201.363	3075.44
201.438	3072.73
201.512	3092.08
201.587	3070.76
201.662	3078.63
201.737	3093.31
201.812	3098.27
201.886	3063.25
201.961	3075.27
202.036	3062.64
202.111	3061.4
202.186	3031.71
202.26	3015.35
202.335	2989.18
202.41	2980.5
202.485	2960.82
202.559	2939.36
202.634	2910.19
202.709	2920.1
202.784	2898.27
202.858	2901.79
202.933	2883.2
203.008	2880.3
203.082	2860.56
203.157	2862.9
203.232	2818.88
203.306	2795.28
203.381	2764.49
203.456	2741.52
203.53	2716.77
203.605	2697.82
203.68	2669.03
203.754	2662.6
203.829	2647.41
203.904	2629.69
203.978	2619.49
204.053	2621.54
204.127	2608.2
204.202	2606.78
204.277	2589.34
204.351	2583.2
204.426	2571.96
204.5	2563.14
204.575	2524.15
204.65	2533.97
204.724	2526.72
204.799	2532
204.873	2528.48
204.948	2525.29
205.022	2513.34
205.097	2506.43
205.171	2520.05
205.246	2532.1
205.32	2535.81
205.395	2535
205.469	2525.53
205.544	2529.96
205.618	2513.44
205.693	2527.2
205.767	2515.01
205.842	2537.02
205.916	2532.07
205.991	2525.78
206.065	2530.64
206.14	2550.24
206.214	2546.15
206.289	2540
206.363	2554.62
206.438	2557.48
206.512	2567.19
206.586	2590.1
206.661	2597.82
206.735	2577.97
206.81	2577.78
206.884	2587.11
206.958	2578.63
207.033	2596.82
207.107	2606.59
207.181	2643.9
207.256	2642.28
207.33	2664.95
207.405	2678.92
207.479	2698.78
207.553	2709.93
207.628	2695.5
207.702	2710.55
207.776	2706.22
207.851	2711.17
207.925	2731.71
207.999	2735.72
208.073	2739.53
208.148	2746.92
208.222	2741.86
208.296	2783.49
208.371	2808.58
208.445	2831.17
208.519	2868.53
208.593	2892.4
208.668	2902.46
208.742	2916.92
208.816	2929.12
208.89	2956.16
208.965	2970.19
209.039	2996.04
209.113	3031.61
209.187	3074.5
209.261	3088.32
209.336	3135.92
209.41	3179.38
209.484	3208.2
209.558	3258.64
209.632	3300.95
209.707	3344.53
209.781	3399.78
209.855	3449.73
209.929	3507.21
210.003	3552.61
210.077	3592.67
210.151	3682.43
210.226	3759.13
210.3	3832.95
210.374	3907.41
210.448	3962.85
210.522	4028.3
210.596	4096.13
210.67	4163.77
210.744	4271.57
210.818	4370.56
210.892	4450.7
210.966	4515.7
211.041	4602.79
211.115	4666.9
211.189	4763.48
211.263	4854.62
211.337	4939.17
211.411	5030.26
211.485	5102.52
211.559	5199.99
211.633	5287.61
211.707	5346.73
211.781	5442.4
211.855	5498.06
211.929	5584.71
212.003	5662.54
212.077	5766.24
212.151	5877.68
212.225	5990.75
212.299	6085.57
212.373	6177.79
212.447	6281.58
212.52	6415.5
212.594	6524.46
212.668	6653.18
212.742	6751.53
212.816	6859.85
212.89	6964.46
212.964	7075.75
213.038	7198.79
213.112	7329.34
213.186	7464.28
213.26	7558.61
213.333	7629.23
213.407	7752.86
213.481	7870.16
213.555	8003.13
213.629	8111.46
213.703	8212.78
213.777	8331.96
213.85	8428.97
213.924	8582.58
213.998	8705.32
214.072	8826.1
214.146	8933.49
214.219	9050.43
214.293	9168.37
214.367	9296.06
214.441	9438.3
214.515	9552.43
214.588	9650.82
214.662	9736.07
214.736	9837.59
214.81	9969.11
214.883	10101.64
214.957	10209
215.031	10315.54
215.105	10408.84
215.178	10510.25
215.252	10627.96
215.326	10722.35
215.4	10823.58
215.473	10883.57
215.547	10975.71
215.621	11070.03
215.694	11189.83
215.768	11276.82
215.842	11368.39
215.915	11461.94
215.989	11532.16
216.063	11623.16
216.136	11729.39
216.21	11828.09
216.284	11942.71
216.357	12049.09
216.431	12145.98
216.504	12260.99
216.578	12392.14
216.652	12500.69
216.725	12609.63
216.799	12713.18
216.873	12808.19
216.946	12913.18
217.02	13006.06
217.093	13097.94
217.167	13169.39
217.24	13239.96
217.314	13332.56
217.387	13422.18
217.461	13497.52
217.535	13604.78
217.608	13682.44
217.682	13762.37
217.755	13858.35
217.829	13926.08
217.902	14011.79
217.976	14092.48
218.049	14162.19
218.123	14233.63
218.196	14328.74
218.27	14403.41
218.343	14471.04
218.417	14554.04
218.49	14628.67
218.563	14727.39
218.637	14812.95
218.71	14913.21
218.784	14992.46
218.857	15078.21
218.931	15167.68
219.004	15246.15
219.077	15327.95
219.151	15420.93
219.224	15505.43
219.298	15582.65
219.371	15667.96
219.444	15723.63
219.518	15800.61
219.591	15876.48
219.665	15974.8
219.738	16037.99
219.811	16096.84
219.885	16171.55
219.958	16249.87
220.031	16307.8
220.105	16380.49
220.178	16452.11
220.251	16508.59
220.325	16592.45
220.398	16661.66
220.471	16725.57
220.544	16798.68
220.618	16847.65
220.691	16915.7
220.764	16971.61
220.838	17039.66
220.911	17094.02
220.984	17182.26
221.057	17247.57
221.131	17312.58
221.204	17327.47
221.277	17405.88
221.35	17501.21
221.424	17553.69
221.497	17615.13
221.57	17690.85
221.643	17760.87
221.716	17818.36
221.79	17868.38
221.863	17924.09
221.936	17969.63
222.009	18025.49
222.082	18077.77
222.155	18139.31
222.229	18202.25
222.302	18256.85
222.375	18302.2
222.448	18363.21
222.521	18410.68
222.594	18452.07
222.667	18488.46
222.74	18549.66
222.814	18585.75
222.887	18612.5
222.96	18677.84
223.033	18725.98
223.106	18764.3
223.179	18798.75
223.252	18840.05
223.325	18897.93
223.398	18937.59
223.471	18978.07
223.544	19022.26
223.617	19059.94
223.69	19093.09
223.763	19110.83
223.837	19156.37
223.91	19196.85
223.983	19218.53
224.056	19238.34
224.129	19283.3
224.202	19331.83
224.275	19360.45
224.348	19394.57
224.42	19416.78
224.493	19424.06
224.566	19438.95
224.639	19470.61
224.712	19494.42
224.785	19526.75
224.858	19545.12
224.931	19560.44
225.004	19585.06
225.077	19600.24
225.15	19601.35
225.223	19625.98
225.296	19676.39
225.369	19678.22
225.442	19690.36
225.514	19720.14
225.587	19745.3
225.66	19770.84
225.733	19789.83
225.806	19820.09
225.879	19837.1
225.952	19847.9
226.025	19881.34
226.097	19917.72
226.17	19939.51
226.243	19944.86
226.316	19952.28
226.389	19975.51
226.461	19997.38
226.534	20021.82
226.607	20047.99
226.68	20099.41
226.753	20114.2
226.825	20102.25
226.898	20126.1
226.971	20150.05
227.044	20168.27
227.117	20186.97
227.189	20196.9
227.262	20222.05
227.335	20241.38
227.407	20251.21
227.48	20278.68
227.553	20297.71
227.626	20307.3
227.698	20319.64
227.771	20335.69
227.844	20345.28
227.916	20359.3
227.989	20364.36
228.062	20365.86
228.134	20390.77
228.207	20396.07
228.28	20405.33
228.352	20418.53
228.425	20438.92
228.498	20457.09
228.57	20462.15
228.643	20483.93
228.716	20497.33
228.788	20493.62
228.861	20489.95
228.934	20516.08
229.006	20520.99
229.079	20529.71
229.151	20536.75
229.224	20532.75
229.296	20555.06
229.369	20594.15
229.442	20618.78
229.514	20623.69
229.587	20647.11
229.659	20638.83
229.732	20648.99
229.804	20663.11
229.877	20694.59
229.949	20705.09
230.022	20730.93
230.094	20745.58
230.167	20752.47
230.239	20756.85
230.312	20773.58
230.384	20803.75
230.457	20812.81
230.529	20823.22
230.602	20830.98
230.674	20835.56
230.747	20861.58
230.819	20877.44
230.892	20840.76
230.964	20832.66
231.037	20832.81
231.109	20828.04
231.181	20832.37
231.254	20824.81
231.326	20824.66
231.399	20817.63
231.471	20818.54
231.544	20791.12
231.616	20794.35
231.688	20792.76
231.761	20785.34
231.833	20778.88
231.905	20760.71
231.978	20753.48
232.05	20749.62
232.122	20736.61
232.195	20731.21
232.267	20737.86
232.339	20726.3
232.412	20742.2
232.484	20738.83
232.556	20735.6
232.629	20752.47
232.701	20758.35
232.773	20764.9
232.846	20758.92
232.918	20758.83
232.99	20757.19
233.062	20761.67
233.135	20761.67
233.207	20744.42
233.279	20744.13
233.351	20741.28
233.424	20719.79
233.496	20701.77
233.568	20710.59
233.64	20693.33
233.713	20683.65
233.785	20657.28
233.857	20641.52
233.929	20613.67
234.001	20620.32
234.074	20624.03
234.146	20593.91
234.218	20581.38
234.29	20564.03
234.362	20547.59
234.434	20515.45
234.507	20486
234.579	20457.62
234.651	20430.77
234.723	20424.46
234.795	20410.44
234.867	20391.5
234.939	20397.09
235.012	20386.63
235.084	20373.28
235.156	20370.58
235.228	20337.14
235.3	20324.41
235.372	20320.27
235.444	20331.35
235.516	20285.33
235.588	20269.71
235.66	20252.7
235.732	20227.74
235.804	20260.17
235.876	20252.17
235.948	20247.93
236.02	20235.79
236.092	20212.03
236.164	20194.1
236.236	20173.91
236.308	20148.61
236.38	20128.03
236.452	20107.26
236.524	20088.76
236.596	20081.77
236.668	20062.35
236.74	20053.38
236.812	20031.65
236.884	19995.17
236.956	19962.25
237.028	19938.93
237.1	19904.19
237.172	19902.06
237.244	19891.37
237.316	19832.33
237.388	19795.18
237.46	19759.13
237.532	19743.85
237.604	19719.08
237.675	19702.6
237.747	19676.92
237.819	19659.52
237.891	19636.44
237.963	19596.58
238.035	19557.79
238.107	19485.36
238.178	19464.3
238.25	19429.7
238.322	19428.78
238.394	19401.27
238.466	19369.56
238.538	19340.84
238.609	19319.97
238.681	19272.94
238.753	19239.69
238.825	19210.39
238.897	19184.08
238.968	19185.14
239.04	19145.52
239.112	19144.9
239.184	19105.91
239.255	19083.89
239.327	19051.75
239.399	19025
239.471	19001.58
239.542	18977.58
239.614	18983.41
239.686	18930.84
239.758	18914.12
239.829	18868.05
239.901	18852.48
239.973	18817.98
240.044	18800.97
240.116	18779.52
240.188	18746.8
240.259	18708.25
240.331	18663.1
240.403	18641.8
240.474	18587.82
240.546	18552.84
240.618	18503.06
240.689	18465.85
240.761	18434.19
240.833	18411.45
240.904	18369.81
240.976	18345.91
241.048	18326.63
241.119	18286.68
241.191	18265.77
241.262	18252.28
241.334	18223.36
241.405	18178.88
241.477	18144.23
241.549	18105.34
241.62	18065.34
241.692	18045.34
241.763	18032.43
241.835	18009.59
241.906	17980.87
241.978	17932.58
242.049	17915.52
242.121	17896.14
242.192	17880.72
242.264	17830.32
242.335	17788.97
242.407	17776.29
242.478	17729.74
242.55	17691.47
242.621	17659.38
242.693	17619.72
242.764	17576.15
242.836	17531.53
242.907	17509.79
242.979	17492.25
243.05	17471.19
243.122	17451.43
243.193	17409.84
243.264	17353.26
243.336	17311.91
243.407	17284.34
243.479	17274.9
243.55	17242.95
243.622	17210.32
243.693	17181.89
243.764	17168.97
243.836	17120.68
243.907	17082.75
243.978	17054.8
244.05	17028.34
244.121	16976.48
244.192	16964.58
244.264	16922.02
244.335	16897.49
244.407	16846.88
244.478	16813.82
244.549	16776.81
244.62	16726.49
244.692	16695.65
244.763	16681.91
244.834	16647.16
244.906	16605.04
244.977	16581.38
245.048	16562.53
245.119	16522.91
245.191	16478.67
245.262	16421.22
245.333	16410.52
245.405	16382.71
245.476	16359.57
245.547	16334.17
245.618	16314.03
245.689	16278.75
245.761	16245.25
245.832	16207.41
245.903	16189.24
245.974	16162.64
246.045	16120.75
246.117	16104.51
246.188	16060.46
246.259	16011.78
246.33	15983.92
246.401	15953.17
246.473	15899.42
246.544	15859.23
246.615	15841.92
246.686	15806.01
246.757	15793.1
246.828	15750.54
246.899	15726
246.97	15677.42
247.042	15635.58
247.113	15621.46
247.184	15604.49
247.255	15570.51
247.326	15544.91
247.397	15509.44
247.468	15477.72
247.539	15448.13
247.61	15408.65
247.681	15383.73
247.752	15370.81
247.823	15328.68
247.894	15303.81
247.965	15265.78
248.037	15227.31
248.108	15175.54
248.179	15145.61
248.25	15114.57
248.321	15097.21
248.392	15056.53
248.463	15045.01
248.534	15014.69
248.605	14983.12
248.675	14949.76
248.746	14931.59
248.817	14902.43
248.888	14884.88
248.959	14832.58
249.03	14814.84
249.101	14786.4
249.172	14767.5
249.243	14715.49
249.314	14707.68
249.385	14674.76
249.456	14658.66
249.527	14632.92
249.598	14616.96
249.669	14592.62
249.739	14563.55
249.81	14536.46
249.881	14498.95
249.952	14471.67
250.023	14440.72
250.094	14399.89
250.165	14357.52
250.235	14320.06
250.306	14299.72
250.377	14252.87
250.448	14236.86
250.519	14197.67
250.59	14190.87
250.66	14152.74
250.731	14139.2
250.802	14104.59
250.873	14088.97
250.944	14064.48
251.014	14025.72
251.085	14023.79
251.156	14005.96
251.227	13992.89
251.297	13983.06
251.368	13970.33
251.439	13958.14
251.51	13949.17
251.58	13914.99
251.651	13894.02
251.722	13891.66
251.792	13845.48
251.863	13832.12
251.934	13824.51
252.005	13830.48
252.075	13795.78
252.146	13776.83
252.217	13764.44
252.287	13759.67
252.358	13736.24
252.429	13726.74
252.499	13705.68
252.57	13667.5
252.641	13655.88
252.711	13636.16
252.782	13597.5
252.852	13591.33
252.923	13568.05
252.994	13548.33
253.064	13539.56
253.135	13505.48
253.205	13469.56
253.276	13466.14
253.347	13452.83
253.417	13420.83
253.488	13379.51
253.558	13358.59
253.629	13340.61
253.699	13323.93
253.77	13305.95
253.841	13271.19
253.911	13258.22
253.982	13234.6
254.052	13231.08
254.123	13201.77
254.193	13177.58
254.264	13186.16
254.334	13151.01
254.405	13107.19
254.475	13070.36
254.546	13041.68
254.616	13040.96
254.687	13022.64
254.757	13006.83
254.827	12979.59
254.898	12953.32
254.968	12932.21
255.039	12897.88
255.109	12881.11
255.18	12848.14
255.25	12804.75
255.321	12793.37
255.391	12747.43
255.461	12749.41
255.532	12701.69
255.602	12676.33
255.673	12627.93
255.743	12595.68
255.813	12540.59
255.884	12534.51
255.954	12522.61
256.024	12527.72
256.095	12505.49
256.165	12475.51
256.235	12458.45
256.306	12424.56
256.376	12421.57
256.446	12415.01
256.517	12405.18
256.587	12391.88
256.657	12381.61
256.728	12361.17
256.798	12342.32
256.868	12329.12
256.938	12301.4
257.009	12288.87
257.079	12277.59
257.149	12292.38
257.219	12249.97
257.29	12244.57
257.36	12211.84
257.43	12197.09
257.5	12149.61
257.571	12118.81
257.641	12108.35
257.711	12076
257.781	12066.41
257.852	12056.63
257.922	12017.73
257.992	11994.01
258.062	11979.02
258.132	11960.8
258.202	11939.01
258.273	11927.59
258.343	11920.89
258.413	11893.9
258.483	11870.38
258.553	11839.24
258.623	11803.52
258.693	11798.03
258.764	11797.83
258.834	11789.64
258.904	11773.11
258.974	11749.97
259.044	11724.77
259.114	11709.92
259.184	11694.5
259.254	11680.04
259.324	11629.96
259.394	11621.33
259.464	11622.2
259.535	11603.26
259.605	11578.58
259.675	11552.51
259.745	11537.95
259.815	11508.55
259.885	11481.13
259.955	11496.17
260.025	11471.2
260.095	11459.87
260.165	11439.82
260.235	11433.9
260.305	11410.57
260.375	11379.1
260.445	11385.12
260.515	11386.42
260.585	11379.97
260.655	11364.93
260.725	11356.2
260.795	11354.08
260.865	11349.02
260.934	11314.28
261.004	11301.6
261.074	11289.5
261.144	11292.06
261.214	11282.42
261.284	11263.91
261.354	11263.28
261.424	11228.68
261.494	11234.46
261.564	11216.58
261.634	11208.44
261.703	11175.67
261.773	11171.67
261.843	11169.35
261.913	11146.41
261.983	11118.8
262.053	11105.74
262.123	11082.85
262.192	11052.49
262.262	11045.21
262.332	11019.91
262.402	11019.82
262.472	10999.38
262.541	10958.81
262.611	10954.09
262.681	10925.56
262.751	10917.13
262.821	10899.73
262.89	10875.35
262.96	10855.01
263.03	10858.77
263.1	10841.04
263.169	10827.45
263.239	10811.59
263.309	10809.57
263.379	10804.41
263.448	10789.67
263.518	10777.19
263.588	10765.53
263.657	10771.84
263.727	10769.09
263.797	10747.6
263.867	10730.06
263.936	10702.65
264.006	10698.5
264.076	10678.84
264.145	10664.15
264.215	10640.63
264.285	10631.19
264.354	10595.01
264.424	10578.1
264.494	10548.03
264.563	10531.4
264.633	10539.74
264.702	10528.95
264.772	10493.43
264.842	10472.52
264.911	10464.43
264.981	10433.16
265.05	10415.72
265.12	10389.27
265.19	10373.03
265.259	10370.86
265.329	10356.79
265.398	10348.41
265.468	10367.83
265.537	10352.07
265.607	10337.33
265.676	10339.3
265.746	10328.37
265.815	10330.73
265.885	10313.39
265.955	10286.07
266.024	10266.51
266.094	10220.45
266.163	10219.59
266.232	10223.01
266.302	10201.38
266.371	10186.83
266.441	10179.12
266.51	10180.9
266.58	10168.09
266.649	10141.59
266.719	10135.28
266.788	10126.27
266.858	10124.83
266.927	10083.35
266.996	10074.87
267.066	10071.55
267.135	10043.85
267.205	10038.31
267.274	10024.68
267.343	10030.6
267.413	10016.97
267.482	10021.26
267.552	10028.92
267.621	9991.25
267.69	9950.69
267.76	9946.69
267.829	9940.28
267.898	9924.87
267.968	9897.99
268.037	9891.92
268.106	9889.42
268.176	9866.54
268.245	9852.76
268.314	9834.02
268.384	9838.79
268.453	9823.91
268.522	9813.41
268.592	9814.03
268.661	9794.52
268.73	9787.01
268.799	9762.88
268.869	9773.67
268.938	9742.12
269.007	9721.6
269.076	9719.58
269.146	9734.32
269.215	9724.83
269.284	9732.58
269.353	9713.85
269.422	9703.93
269.492	9688.71
269.561	9645.08
269.63	9639.93
269.699	9623.07
269.768	9615.8
269.838	9599.76
269.907	9594.94
269.976	9570.96
270.045	9537.25
270.114	9529.06
270.183	9521.41
270.253	9515.29
270.322	9486.93
270.391	9479.03
270.46	9491.94
270.529	9486.45
270.598	9477.3
270.667	9469.98
270.736	9440.6
270.806	9439.49
270.875	9439.78
270.944	9423.6
271.013	9451.86
271.082	9440.31
271.151	9435.68
271.22	9405.93
271.289	9398.9
271.358	9381.66
271.427	9378.67
271.496	9376.07
271.565	9367.84
271.634	9357.44
271.703	9380.12
271.772	9383.78
271.841	9374.58
271.91	9341.89
271.979	9330.47
272.048	9307.36
272.117	9301.44
272.186	9288.63
272.255	9284.3
272.324	9279.34
272.393	9273.17
272.462	9252.71
272.531	9249.19
272.6	9236.77
272.669	9244.95
272.738	9224.3
272.807	9220.21
272.876	9193.54
272.945	9212.89
273.013	9211.83
273.082	9218.28
273.151	9173.21
273.22	9167.87
273.289	9160.21
273.358	9169.94
273.427	9162.72
273.496	9163.68
273.564	9160.6
273.633	9164.59
273.702	9149.96
273.771	9140.95
273.84	9138.74
273.909	9138.55
273.977	9128.68
274.046	9118.28
274.115	9123.33
274.184	9106.05
274.253	9102.15
274.322	9108.17
274.39	9078.51
274.459	9063.39
274.528	9033.74
274.597	9022.33
274.665	9016.55
274.734	9025.89
274.803	9007.4
274.872	9000.71
274.94	8986.37
275.009	9016.71
275.078	9000.92
275.147	8994.8
275.215	8989.46
275.284	8998.65
275.353	8986.67
275.421	8967.31
275.49	8981.52
275.559	8973.77
275.627	8972.95
275.696	8961.39
275.765	8966.45
275.833	8960.72
275.902	8960.87
275.971	8967.75
276.039	8985.27
276.108	8988.16
276.177	8978.15
276.245	8974.2
276.314	8965.87
276.383	8971.6
276.451	8925.81
276.52	8924.99
276.588	8935.77
276.657	8937.36
276.725	8918.83
276.794	8917.67
276.863	8927.06
276.931	8905.54
277	8908.86
277.068	8913.86
277.137	8935.19
277.205	8927.68
277.274	8945.49
277.342	8948.72
277.411	8928.17
277.48	8913.48
277.548	8900.63
277.617	8907.95
277.685	8902.99
277.754	8907.47
277.822	8893.08
277.89	8911.13
277.959	8906.12
278.027	8887.45
278.096	8872.28
278.164	8901.31
278.233	8891.83
278.301	8878.45
278.37	8879.46
278.438	8863.05
278.507	8871.85
278.575	8840.28
278.643	8839.84
278.712	8823.57
278.78	8813.37
278.849	8824.43
278.917	8830.5
278.985	8825.01
279.054	8817.94
279.122	8827.95
279.191	8828.14
279.259	8831.17
279.327	8807.73
279.396	8819.67
279.464	8817.88
279.532	8827.42
279.601	8820.67
279.669	8817.16
279.737	8830.59
279.806	8836.66
279.874	8845.13
279.942	8843.78
280.011	8845.99
280.079	8849.65
280.147	8866.4
280.215	8867.03
280.284	8866.4
280.352	8859.57
280.42	8869.72
280.488	8863.76
280.557	8853.65
280.625	8850.42
280.693	8843.01
280.761	8843.35
280.83	8827.7
280.898	8835.84
280.966	8821.54
281.034	8789.72
281.102	8779.52
281.171	8778.94
281.239	8785.83
281.307	8772.83
281.375	8758.39
281.443	8773.75
281.512	8772.93
281.58	8773.51
281.648	8764.6
281.716	8764.26
281.784	8759.02
281.852	8751.03
281.92	8744.87
281.989	8755.5
282.057	8740.06
282.125	8793.79
282.193	8790.95
282.261	8791.38
282.329	8792.1
282.397	8796.96
282.465	8796.96
282.533	8808.85
282.601	8795.18
282.67	8772.7
282.738	8771.16
282.806	8780.88
282.874	8772.17
282.942	8772.7
283.01	8767.35
283.078	8765.43
283.146	8761
283.214	8771.64
283.282	8776.45
283.35	8790.32
283.418	8789.16
283.486	8795.08
283.554	8751.36
283.622	8752.76
283.69	8749.96
283.758	8744.72
283.826	8747.94
283.894	8758.72
283.962	8778.65
284.03	8789.29
284.098	8789.92
284.165	8780.53
284.233	8781.78
284.301	8774.61
284.369	8768.5
284.437	8760.07
284.505	8761.86
284.573	8774.85
284.641	8763.3
284.709	8768.69
284.777	8754.73
284.845	8755.69
284.912	8759.4
284.98	8757.86
285.048	8749.24
285.116	8759.26
285.184	8771.34
285.252	8770.81
285.319	8760.36
285.387	8748.95
285.455	8731.97
285.523	8740.34
285.591	8741.25
285.659	8741.3
285.726	8757.86
285.794	8742.27
285.862	8738.95
285.93	8732.79
285.997	8728.65
286.065	8731.25
286.133	8722.87
286.201	8723.98
286.269	8713.58
286.336	8701.31
286.404	8694.62
286.472	8704.2
286.539	8680.47
286.607	8663.91
286.675	8664.49
286.743	8672.48
286.81	8668.82
286.878	8684.32
286.946	8679.02
287.013	8678.93
287.081	8676.18
287.149	8655.82
287.216	8680.95
287.284	8674.74
287.352	8676.38
287.419	8670.7
287.487	8681.67
287.555	8683.31
287.622	8679.17
287.69	8681.86
287.758	8694.52
287.825	8692.02
287.893	8683.35
287.96	8692.98
288.028	8706.89
288.096	8701.16
288.163	8702.8
288.231	8693.08
288.298	8692.59
288.366	8702.61
288.433	8702.32
288.501	8700.73
288.569	8703.18
288.636	8693.89
288.704	8708.86
288.771	8715.98
288.839	8708.62
288.906	8701.35
288.974	8708.53
289.041	8707.76
289.109	8696.93
289.176	8709.49
289.244	8711.03
289.311	8726.72
289.379	8739.14
289.446	8737.5
289.514	8738.99
289.581	8740.2
289.649	8738.61
289.716	8733.7
289.783	8724.6
289.851	8740.87
289.918	8739.67
289.986	8747.32
290.053	8746.55
290.121	8744.38
290.188	8750.88
290.255	8774.56
290.323	8768.26
290.39	8762.09
290.458	8768.01
290.525	8785.58
290.592	8779.52
290.66	8780.67
290.727	8773.6
290.794	8784.14
290.862	8779.71
290.929	8786.4
290.996	8785.53
291.064	8798
291.131	8812.54
291.198	8829.34
291.266	8829.38
291.333	8824.81
291.4	8829.24
291.468	8854.42
291.535	8852.3
291.602	8853.31
291.669	8847.2
291.737	8850.9
291.804	8850.42
291.871	8866.26
291.938	8868.23
292.006	8896.59
292.073	8911.7
292.14	8920.03
292.207	8907.76
292.275	8912.04
292.342	8916.13
292.409	8940.59
292.476	8969.67
292.543	8964.76
292.611	8963.89
292.678	8981.8
292.745	9012.9
292.812	9029.75
292.879	9020.98
292.946	9026.9
293.014	9038.12
293.081	9051.99
293.148	9066.04
293.215	9082.12
293.282	9078.9
293.349	9090.64
293.416	9065.56
293.484	9081.78
293.551	9092.62
293.618	9108.12
293.685	9134.69
293.752	9135.27
293.819	9127.04
293.886	9106.14
293.953	9111.24
294.02	9125.16
294.087	9130.55
294.154	9128.14
294.221	9141.1
294.288	9137.1
294.356	9155.64
294.423	9160.79
294.49	9150
294.557	9164.55
294.624	9162.67
294.691	9181.54
294.758	9183.71
294.825	9197.57
294.892	9189.29
294.959	9188.42
295.026	9199.55
295.093	9191.99
295.16	9194.2
295.226	9200.65
295.293	9234.84
295.36	9239.42
295.427	9246.59
295.494	9256.56
295.561	9260.89
295.628	9282.23
295.695	9302.21
295.762	9300.14
295.829	9313.67
295.896	9335.24
295.963	9346.6
296.03	9350.07
296.096	9354.84
296.163	9365.24
296.23	9379.44
296.297	9392.69
296.364	9396.3
296.431	9406.65
296.498	9402.08
296.564	9422.73
296.631	9424.8
296.698	9398.89
296.765	9426.53
296.832	9417.72
296.899	9405.3
296.965	9419.12
297.032	9399.32
297.099	9413.1
297.166	9424.08
297.233	9418.83
297.299	9413.48
297.366	9408.62
297.433	9412.81
297.5	9428.22
297.566	9427.64
297.633	9426.63
297.7	9427.59
297.767	9431.45
297.833	9435.97
297.9	9436.65
297.967	9426.34
298.033	9439.73
298.1	9475.99
298.167	9457.79
298.234	9465.06
298.3	9475.94
298.367	9477.92
298.434	9483.17
298.5	9474.45
298.567	9469.49
298.634	9467.08
298.7	9478.45
298.767	9488.17
298.834	9502.72
298.9	9485.62
298.967	9482.35
299.033	9492.89
299.1	9506.43
299.167	9514.76
299.233	9510.28
299.3	9530.74
299.366	9547.69
299.433	9566.72
299.5	9539.27
299.566	9543.94
299.633	9553.86
299.699	9562.43
299.766	9557.13
299.832	9560.55
299.899	9572.26
299.965	9588.34
300.032	9585.36
300.099	9596
300.165	9598.12
300.232	9592.92
300.298	9599.66
300.365	9611.51
300.431	9608.66
300.498	9602.07
300.564	9607.56
300.631	9616.37
300.697	9634.19
300.763	9630.05
300.83	9628.65
300.896	9643.63
300.963	9659.14
301.029	9665.11
301.096	9676.09
301.162	9687.12
301.229	9689.38
301.295	9679.8
301.361	9675.85
301.428	9678.64
301.494	9660.2
301.561	9657.21
301.627	9662.61
301.693	9664.39
301.76	9672.09
301.826	9666.99
301.892	9684.04
301.959	9693.05
302.025	9691.65
302.092	9679.08
302.158	9689.29
302.224	9688.76
302.291	9682.69
302.357	9677.01
302.423	9670.17
302.49	9652.54
302.556	9665.35
302.622	9662.36
302.688	9672.91
302.755	9688.47
302.821	9698.29
302.887	9716.69
302.954	9716.93
303.02	9725.75
303.086	9735.18
303.152	9726.61
303.219	9722.52
303.285	9726.37
303.351	9733.98
303.417	9733.31
303.483	9724.98
303.55	9717.37
303.616	9718.67
303.682	9716.93
303.748	9706.15
303.815	9723.87
303.881	9740.73
303.947	9726.47
304.013	9725.94
304.079	9716.41
304.145	9694.01
304.212	9692.37
304.278	9683.37
304.344	9684.96
304.41	9668.92
304.476	9658.27
304.542	9655.62
304.608	9665.35
304.674	9650.42
304.741	9641.27
304.807	9643.29
304.873	9649.36
304.939	9665.98
305.005	9638.19
305.071	9638.14
305.137	9642.38
305.203	9615.07
305.269	9609.38
305.335	9621.81
305.401	9621.57
305.467	9618.58
305.533	9628.75
305.599	9639.87
305.666	9647
305.732	9639.53
305.798	9656.63
305.864	9680.52
305.93	9685.48
305.996	9685.19
306.062	9681.29
306.128	9673.06
306.194	9663.14
306.259	9665.59
306.325	9652.78
306.391	9666.99
306.457	9675.03
306.523	9679.94
306.589	9712.98
306.655	9703.5
306.721	9684.71
306.787	9674.5
306.853	9687.55
306.919	9669.54
306.985	9663.14
307.051	9658.42
307.117	9654.71
307.183	9647.44
307.248	9617.33
307.314	9620.46
307.38	9622.2
307.446	9626.97
307.512	9624.56
307.578	9627.45
307.644	9617.24
307.709	9618.97
307.775	9611.6
307.841	9605.68
307.907	9607.36
307.973	9573.99
308.039	9572.3
308.104	9576.3
308.17	9565.13
308.236	9551.79
308.302	9550
308.368	9534.16
308.433	9530.55
308.499	9530.31
308.565	9515.62
308.631	9517.79
308.696	9497.13
308.762	9484.03
308.828	9478.1
308.894	9451.91
308.959	9429.47
309.025	9423.6
309.091	9415.6
309.156	9410.16
309.222	9409.29
309.288	9400.24
309.354	9381.37
309.419	9385.46
309.485	9370.77
309.551	9386.23
309.616	9373.85
309.682	9375.78
309.748	9371.69
309.813	9364.9
309.879	9352.67
309.945	9343.76
310.01	9333.98
310.076	9337.16
310.141	9323.68
310.207	9307.21
310.273	9316.94
310.338	9320.98
310.404	9304.85
310.469	9295.27
310.535	9282.56
310.601	9259.64
310.666	9259.68
310.732	9273.41
310.797	9256.12
310.863	9248.61
310.928	9240.66
310.994	9237.1
311.059	9236.71
311.125	9231.46
311.191	9241.1
311.256	9227.95
311.322	9234.98
311.387	9221.94
311.453	9536.36
311.518	9520.28
311.584	9518.07
311.649	9519.9
311.715	9515.23
311.78	9518.36
311.846	9505.94
311.911	9515.28
311.976	9520.24
312.042	9501.89
312.107	9489.04
312.173	9481.91
312.238	9480.37
312.304	9474.64
312.369	9468.77
312.434	9456.92
312.5	9451.82
312.565	9414.41
312.631	9420.72
312.696	9407.67
312.761	9404.3
312.827	9082.74
312.892	9120.44
312.958	9119.14
313.023	9119.67
313.088	9114.52
313.154	9094.06
313.219	9085.88
313.284	9072.49
313.35	9066.52
313.415	9057.91
313.48	9051.89
313.546	9052.56
313.611	9055.4
313.676	9041.25
313.741	9032.01
313.807	9042.21
313.872	9048.52
313.937	9055.16
314.003	9066.86
314.068	9070.28
314.133	9075.14
314.198	9062.14
314.264	9034.79
314.329	9023.14
314.394	9019.44
314.459	9017.75
314.525	9041.92
314.59	9041.2
314.655	9027.86
314.72	9038.16
314.785	9042.11
314.851	9031.91
314.916	9012.03
314.981	8992.48
315.046	8984.3
315.111	8971.83
315.176	8949.16
315.242	8943.81
315.307	8946.41
315.372	8929.56
315.437	8921.57
315.502	8920.9
315.567	8928.84
315.632	8914.45
315.698	8919.84
315.763	8911.32
315.828	8902.03
315.893	8898.99
315.958	8894.81
316.023	8885.66
316.088	8859.33
316.153	8837.43
316.218	8831.94
316.283	8817.55
316.348	8799.84
316.413	8799.89
316.479	8786.13
316.544	8758.36
316.609	8727.03
316.674	8691.61
316.739	8649.55
316.804	8611.92
316.869	8572.07
316.934	8529.81
316.999	8505.7
317.064	8449.98
317.129	8406.05
317.194	8368.04
317.259	8311.44
317.324	8260.35
317.389	8218.59
317.454	8179.62
317.518	8144.27
317.583	8118.67
317.648	8095.19
317.713	8061.86
317.778	8000.14
317.843	7971.76
317.908	7932.23
317.973	7895.48
318.038	7866.19
318.103	7828.35
318.168	7797.33
318.233	7765.54
318.297	7721.97
318.362	7686.24
318.427	7645.38
318.492	7617.3
318.557	7570.57
318.622	7549.8
318.687	7526.34
318.751	7489
318.816	7460.1
318.881	7425.83
318.946	7369.92
319.011	7322.77
319.075	7280.62
319.14	7244.58
319.205	7203.15
319.27	7172.01
319.335	7124.97
319.399	7088.02
319.464	7058.76
319.529	7005.62
319.594	6965.5
319.658	6933.12
319.723	6885.85
319.788	6862.55
319.853	6810.28
319.917	6781.66
319.982	6724.02
320.047	6687.99
320.112	6662.44
320.176	6607.74
320.241	6574.8
320.306	6547.76
320.37	6504.46
320.435	6475.65
320.5	6446.61
320.564	6402.88
320.629	6361.98
320.694	6331.93
320.758	6284.84
320.823	6247.26
320.888	6217.99
320.952	6167.99
321.017	6129.45
321.082	6094.47
321.146	6058.44
321.211	6024.23
321.275	5981.1
321.34	5935.59
321.405	5884.5
321.469	5834.76
321.534	5794.53
321.598	5738.66
321.663	5703.36
321.727	5676.26
321.792	5629.22
321.857	5585.3
321.921	5551.07
321.986	5504.96
322.05	5450.51
322.115	5417.73
322.179	5371.33
322.244	5317.67
322.308	5286.09
322.373	5240.52
322.437	5193.71
322.502	5166.24
322.566	5122.17
322.631	5087.2
322.695	5049.27
322.76	5008.14
322.824	4972.41
322.889	4929.8
322.953	4889.36
323.018	4826.15
323.082	4759
323.146	4707.21
323.211	4659.35
323.275	4610.29
323.34	4566.42
323.404	4531.16
323.468	4480.86
323.533	4438.76
323.597	4395.16
323.662	4341.25
323.726	4302.93
323.79	4260.17
323.855	4195.78
323.919	4146.57
323.983	4100.29
324.048	4035.07
324.112	4193.45
324.177	4064.22
324.241	3855.45
324.305	3650.41
324.37	3448.33
324.434	3256.71
324.498	3213.03
324.562	3160.78
324.627	3103.45
324.691	3049.48
324.755	2985.37
324.82	2910.31
324.884	2831.33
324.948	2760.89
325.012	2671.35
325.077	2545.46
