Data from 20250702_urea_0.5M_MAYP1162681_02-05-00-042.txt Node
Date: Thu Jul 03 02:05:00 BST 2025
User: adleo
Spectrometer: MAYP116268
Trigger mode: 0
Integration Time (sec): 1.000000E0
Scans to average: 1
Electric dark correction enabled: true
Nonlinearity correction enabled: true
Boxcar width: 10
XAxis mode: Wavelengths
Number of Pixels in Spectrum: 2068
>>>>>Begin Spectral Data<<<<<
179.565	1191.07
179.642	1249.23
179.718	1290.54
179.795	1328.23
179.871	1362.42
179.948	1379.3
180.024	1397.07
180.101	1418.58
180.177	1431.52
180.254	1453.95
180.33	1475.33
180.407	1528.98
180.483	1624.8
180.56	1717.07
180.636	1799.63
180.712	1785.93
180.789	1796.2
180.865	1809.41
180.942	1817.63
181.018	1830.32
181.095	1844.44
181.171	1847.01
181.248	1845.39
181.324	1859.47
181.4	1869.92
181.477	1879.96
181.553	1893.79
181.63	1916.94
181.706	1932.44
181.782	1940.66
181.859	1940.61
181.935	1947.7
182.011	1943.7
182.088	1959.25
182.164	1978.28
182.24	1993.64
182.317	2003.05
182.393	1999.44
182.469	2013.13
182.546	2028.4
182.622	2032.63
182.698	2028.58
182.775	2040.19
182.851	2057.07
182.927	2049.41
183.003	2042.85
183.08	2036.72
183.156	2046.66
183.232	2042.19
183.308	2031.34
183.385	2040.9
183.461	2057.64
183.537	2056.26
183.613	2069.15
183.69	2061.02
183.766	2046.55
183.842	2051.31
183.918	2054.26
183.995	2069.86
184.071	2073.66
184.147	2067.38
184.223	2056.88
184.299	2065.44
184.375	2056.59
184.452	2062.21
184.528	2118.02
184.604	2128.38
184.68	2139.08
184.756	2144.41
184.832	2149.26
184.908	2155.78
184.985	2156.16
185.061	2140.7
185.137	2150.79
185.213	2141.04
185.289	2141.84
185.365	2137.37
185.441	2139.32
185.517	2153.88
185.593	2149.27
185.669	2144.56
185.745	2156.03
185.822	2172.52
185.898	2167.43
185.974	2176.18
186.05	2169
186.126	2131.41
186.202	2124.94
186.278	2124.47
186.354	2117.85
186.43	2124.23
186.506	2122.28
186.582	2122.04
186.658	2128.84
186.734	2110.39
186.81	2112.62
186.886	2114.1
186.962	2126.04
187.038	2119.04
187.114	2112.24
187.19	2121.04
187.266	2113.38
187.341	2116.19
187.417	2108.68
187.493	2109.82
187.569	2113.53
187.645	2105.06
187.721	2092.22
187.797	2097.35
187.873	2099.54
187.949	2091.65
188.025	2086.75
188.101	2088.32
188.176	2091.31
188.252	2085.61
188.328	2092.64
188.404	2089.88
188.48	2086.65
188.556	2081.75
188.632	2083.03
188.707	2083.46
188.783	2080.56
188.859	2074.48
188.935	2062.53
189.011	2069.33
189.086	2060.68
189.162	2053.35
189.238	2053.54
189.314	2051.78
189.39	2049.64
189.465	2043.94
189.541	2060.54
189.617	2041.8
189.693	2036.14
189.768	2041.57
189.844	2065.54
189.92	2059.27
189.996	2067.88
190.071	2077.87
190.147	2076.34
190.223	2083.86
190.298	2076.25
190.374	2061.79
190.45	2074.2
190.526	2081.24
190.601	2078.62
190.677	2081.19
190.753	2110.32
190.828	2112.65
190.904	2128.97
190.98	2141
191.055	2149.76
191.131	2142.19
191.207	2166.54
191.282	2176.86
191.358	2165.11
191.433	2152.12
191.509	2160.4
191.585	2160.73
191.66	2160.44
191.736	2166.67
191.811	2160.06
191.887	2177
191.963	2200.84
192.038	2206.93
192.114	2207.45
192.189	2209.92
192.265	2206.4
192.34	2180.41
192.416	2182.17
192.491	2175.99
192.567	2179.22
192.642	2180.27
192.718	2178.8
192.793	2165.71
192.869	2163.1
192.944	2166.52
193.02	2176.42
193.095	2182.17
193.171	2186.08
193.246	2187.31
193.322	2183.74
193.397	2184.32
193.473	2166.85
193.548	2147.53
193.624	2151.53
193.699	2150.63
193.775	2165.76
193.85	2167.66
193.925	2178.13
194.001	2173.28
194.076	2166.86
194.152	2156.72
194.227	2149.82
194.302	2139.36
194.378	2143.79
194.453	2142.69
194.529	2155.58
194.604	2137.41
194.679	2133.08
194.755	2111.44
194.83	2124.11
194.905	2120.73
194.981	2129.24
195.056	2124.3
195.131	2132.53
195.207	2132.15
195.282	2120.78
195.357	2103.31
195.433	2117.2
195.508	2107.02
195.583	2114.77
195.659	2130.33
195.734	2139.85
195.809	2139.66
195.884	2151.31
195.96	2151.03
196.035	2163.4
196.11	2158.64
196.185	2171.72
196.261	2176.05
196.336	2212.58
196.411	2199.73
196.486	2208.72
196.561	2201.4
196.637	2210.67
196.712	2227.95
196.787	2231.04
196.862	2245.6
196.937	2254.07
197.013	2260.78
197.088	2269.77
197.163	2292.29
197.238	2311.34
197.313	2306.49
197.388	2321.43
197.464	2350.95
197.539	2363.7
197.614	2357.8
197.689	2372.6
197.764	2391.31
197.839	2410.64
197.914	2400.45
197.989	2419.64
198.065	2431.44
198.14	2481.46
198.215	2508.02
198.29	2515.46
198.365	2527.98
198.44	2538.17
198.515	2566.6
198.59	2581.98
198.665	2608.22
198.74	2618.32
198.815	2616.56
198.89	2642.47
198.965	2673.06
199.04	2669.96
199.115	2685.68
199.19	2728.02
199.265	2727.64
199.34	2735.02
199.415	2770.16
199.49	2795.55
199.565	2808.46
199.64	2831.61
199.715	2829.47
199.79	2835
199.865	2845.48
199.94	2843.43
200.015	2878.75
200.09	2883.8
200.165	2891.24
200.24	2896.38
200.315	2936.03
200.39	2947.52
200.464	2956.96
200.539	2957.43
200.614	2974.35
200.689	2998.86
200.764	3005.78
200.839	3025.69
200.914	3032.27
200.989	3020.01
201.063	3035.79
201.138	3017.21
201.213	3019.79
201.288	2997.05
201.363	3006.16
201.438	3007.4
201.512	3024.22
201.587	3005.86
201.662	3007.96
201.737	3017.73
201.812	3027.08
201.886	2989.1
201.961	3004.12
202.036	2989.11
202.111	2986.16
202.186	2956.62
202.26	2936.11
202.335	2914.56
202.41	2907.65
202.485	2890.26
202.559	2871.29
202.634	2838.88
202.709	2850.02
202.784	2829.2
202.858	2832.1
202.933	2808.23
203.008	2798.79
203.082	2778.78
203.157	2776.4
203.232	2734.87
203.306	2715.85
203.381	2683.16
203.456	2664.91
203.53	2638.5
203.605	2619.74
203.68	2596.48
203.754	2585.96
203.829	2571.86
203.904	2552.91
203.978	2543.95
204.053	2545.43
204.127	2531.95
204.202	2533.52
204.277	2513.81
204.351	2507.48
204.426	2499.19
204.5	2493.62
204.575	2463.29
204.65	2473.39
204.724	2466.72
204.799	2477.85
204.873	2474.28
204.948	2476.23
205.022	2463.48
205.097	2457.28
205.171	2467.52
205.246	2475.09
205.32	2476.9
205.395	2479.28
205.469	2469.1
205.544	2473.86
205.618	2458.05
205.693	2468.29
205.767	2455.29
205.842	2476.01
205.916	2469.15
205.991	2461.54
206.065	2466.54
206.14	2478.67
206.214	2475.43
206.289	2470.14
206.363	2483.24
206.438	2485.76
206.512	2490
206.586	2508.81
206.661	2516.76
206.735	2496.35
206.81	2501.78
206.884	2519.63
206.958	2504.97
207.033	2524.72
207.107	2528.87
207.181	2559.54
207.256	2557.87
207.33	2578.01
207.405	2591.12
207.479	2612.98
207.553	2621.51
207.628	2610.41
207.702	2625.37
207.776	2623.56
207.851	2630.84
207.925	2646
207.999	2648.48
208.073	2652.95
208.148	2660.1
208.222	2654.52
208.296	2696.86
208.371	2713.78
208.445	2732.08
208.519	2772.91
208.593	2791.64
208.668	2800.17
208.742	2816.14
208.816	2827.1
208.89	2854.9
208.965	2870.35
209.039	2892.95
209.113	2924.41
209.187	2961.81
209.261	2973.92
209.336	3012.01
209.41	3049.83
209.484	3073.11
209.558	3116.66
209.632	3155.34
209.707	3193.88
209.781	3242.39
209.855	3286.92
209.929	3334.34
210.003	3370.47
210.077	3399.73
210.151	3485.39
210.226	3554.88
210.3	3622.74
210.374	3688.89
210.448	3737.53
210.522	3790.42
210.596	3844.31
210.67	3899.34
210.744	3994.56
210.818	4078.63
210.892	4154.7
210.966	4203.5
211.041	4277.04
211.115	4330.59
211.189	4414.34
211.263	4488.72
211.337	4561.14
211.411	4636.72
211.485	4698.62
211.559	4780.45
211.633	4853.07
211.707	4887.37
211.781	4970.55
211.855	5007.2
211.929	5075.86
212.003	5133.6
212.077	5221.74
212.151	5317.35
212.225	5410.6
212.299	5482.35
212.373	5557.7
212.447	5632.57
212.52	5746.45
212.594	5832.98
212.668	5935.33
212.742	6009.55
212.816	6101.2
212.89	6180.84
212.964	6273.59
213.038	6369.8
213.112	6482.02
213.186	6598.25
213.26	6677.97
213.333	6727.39
213.407	6830.18
213.481	6930.16
213.555	7036.67
213.629	7124.13
213.703	7203.23
213.777	7302.97
213.85	7382.13
213.924	7515.07
213.998	7618.25
214.072	7716.75
214.146	7813.7
214.219	7914.41
214.293	8010.2
214.367	8112.86
214.441	8230.85
214.515	8326.41
214.588	8407.68
214.662	8468.02
214.736	8548.53
214.81	8657.83
214.883	8768.4
214.957	8861.33
215.031	8948.82
215.105	9024.95
215.178	9109.63
215.252	9201.29
215.326	9283.38
215.4	9356.12
215.473	9401.58
215.547	9477.48
215.621	9559.7
215.694	9656.65
215.768	9726.06
215.842	9811.98
215.915	9884.43
215.989	9948.64
216.063	10021.43
216.136	10109.54
216.21	10197.88
216.284	10291.58
216.357	10381.77
216.431	10463.77
216.504	10560.18
216.578	10670.33
216.652	10769.05
216.725	10859.25
216.799	10954.38
216.873	11033.99
216.946	11133.92
217.02	11213.19
217.093	11297.05
217.167	11359.17
217.24	11423.22
217.314	11505.59
217.387	11572.72
217.461	11649.79
217.535	11746.71
217.608	11822.43
217.682	11899.79
217.755	11990.46
217.829	12061.75
217.902	12138.39
217.976	12215.37
218.049	12275.71
218.123	12334.43
218.196	12416.28
218.27	12478.7
218.343	12542.04
218.417	12625.39
218.49	12699.53
218.563	12799.41
218.637	12868.72
218.71	12961.33
218.784	13044.58
218.857	13126.38
218.931	13219.66
219.004	13295.49
219.077	13377.2
219.151	13444.54
219.224	13512.18
219.298	13583.18
219.371	13667.35
219.444	13722.45
219.518	13795.05
219.591	13867.84
219.665	13962.52
219.738	14039.12
219.811	14105.5
219.885	14186.1
219.958	14249.92
220.031	14310.76
220.105	14373.95
220.178	14447.27
220.251	14505.27
220.325	14567.93
220.398	14632.77
220.471	14686.18
220.544	14756.99
220.618	14801.58
220.691	14874.85
220.764	14943.3
220.838	15008.85
220.911	15058.12
220.984	15147.63
221.057	15215.16
221.131	15283.9
221.204	15313.64
221.277	15388.59
221.35	15479.64
221.424	15530.35
221.497	15596.1
221.57	15659.14
221.643	15722.19
221.716	15792.8
221.79	15841.68
221.863	15902.55
221.936	15953.36
222.009	16015.58
222.082	16081.42
222.155	16130
222.229	16201.58
222.302	16265.49
222.375	16316.87
222.448	16381.93
222.521	16431.29
222.594	16481.41
222.667	16521.18
222.74	16584.27
222.814	16622.92
222.887	16664.66
222.96	16721.72
223.033	16773.14
223.106	16821.29
223.179	16871.7
223.252	16909.01
223.325	16963.13
223.398	17000.05
223.471	17042.36
223.544	17093.21
223.617	17128.44
223.69	17177.21
223.763	17210.13
223.837	17250.95
223.91	17295.81
223.983	17317.02
224.056	17351.14
224.129	17399.28
224.202	17446.47
224.275	17485.07
224.348	17516.1
224.42	17539.96
224.493	17563.14
224.566	17592.68
224.639	17630.27
224.712	17659.09
224.785	17699.23
224.858	17725.11
224.931	17767.09
225.004	17796.63
225.077	17827.14
225.15	17835.57
225.223	17868.92
225.296	17918.02
225.369	17932.48
225.442	17960.96
225.514	17993.73
225.587	18025.15
225.66	18057.54
225.733	18095.56
225.806	18128.04
225.879	18159.41
225.952	18184.86
226.025	18230.16
226.097	18283.6
226.17	18308.22
226.243	18314.44
226.316	18332.13
226.389	18371.79
226.461	18402.34
226.534	18433.9
226.607	18452.02
226.68	18507.97
226.753	18540.69
226.825	18543.39
226.898	18587.97
226.971	18615.15
227.044	18645.17
227.117	18665.02
227.189	18696.15
227.262	18727.57
227.335	18750.08
227.407	18764.97
227.48	18787.19
227.553	18810.94
227.626	18824.68
227.698	18856.87
227.771	18893.69
227.844	18912.96
227.916	18934.21
227.989	18934.89
228.062	18955.51
228.134	18998.64
228.207	19017.39
228.28	19028.42
228.352	19051.65
228.425	19071.89
228.498	19105.72
228.57	19122.78
228.643	19157.23
228.716	19164.13
228.788	19179.16
228.861	19193.38
228.934	19230.68
229.006	19255.54
229.079	19269.47
229.151	19272.22
229.224	19270.96
229.296	19287.44
229.369	19337.46
229.442	19370.09
229.514	19386.71
229.587	19422.81
229.659	19417.7
229.732	19436.25
229.804	19467.58
229.877	19512.25
229.949	19537.89
230.022	19561.89
230.094	19572.87
230.167	19581.69
230.239	19588.63
230.312	19599.57
230.384	19632.82
230.457	19649.06
230.529	19657.45
230.602	19672
230.674	19686.99
230.747	19721.01
230.819	19745.39
230.892	19710.12
230.964	19725.44
231.037	19741.78
231.109	19740.62
231.181	19769.83
231.254	19766.74
231.326	19764.04
231.399	19754.41
231.471	19754.65
231.544	19736.43
231.616	19761.3
231.688	19779.32
231.761	19782.45
231.833	19787.66
231.905	19777.39
231.978	19779.61
232.05	19783.99
232.122	19789.97
232.195	19796.04
232.267	19804.38
232.339	19812.28
232.412	19840.43
232.484	19836.81
232.556	19849.82
232.629	19878.88
232.701	19878.11
232.773	19882.79
232.846	19875.94
232.918	19869.58
232.99	19869.15
233.062	19879.27
233.135	19878.5
233.207	19859.27
233.279	19874.01
233.351	19875.65
233.424	19872.38
233.496	19859.32
233.568	19875.7
233.64	19863.32
233.713	19848.91
233.785	19846.93
233.857	19834.26
233.929	19821.63
234.001	19829.44
234.074	19822.69
234.146	19789.73
234.218	19783.32
234.29	19776.09
234.362	19772.53
234.434	19755.37
234.507	19744
234.579	19723.56
234.651	19712.62
234.723	19713.4
234.795	19703.66
234.867	19689.49
234.939	19696.63
235.012	19695.95
235.084	19697.16
235.156	19695.85
235.228	19691.13
235.3	19682.51
235.372	19675.95
235.444	19669.88
235.516	19634.8
235.588	19630.46
235.66	19621.45
235.732	19597.93
235.804	19639.38
235.876	19639.13
235.948	19647.57
236.02	19639.66
236.092	19628.29
236.164	19610.32
236.236	19597.74
236.308	19571.48
236.38	19568.05
236.452	19539.86
236.524	19522.56
236.596	19517.89
236.668	19504.2
236.74	19483.53
236.812	19468.64
236.884	19460.3
236.956	19444.06
237.028	19415.87
237.1	19388.26
237.172	19386.33
237.244	19391.49
237.316	19337.56
237.388	19308.65
237.46	19282.62
237.532	19266.91
237.604	19233.71
237.675	19229.9
237.747	19213.38
237.819	19187.69
237.891	19162.25
237.963	19137.24
238.035	19108.71
238.107	19041
238.178	19041.19
238.25	19021.1
238.322	19012.14
238.394	18966.79
238.466	18945.44
238.538	18933.44
238.609	18923.95
238.681	18876.77
238.753	18838.65
238.825	18814.89
238.897	18789.64
238.968	18783.14
239.04	18743.43
239.112	18756.25
239.184	18716.15
239.255	18688.78
239.327	18678.42
239.399	18656.45
239.471	18632.45
239.542	18619.24
239.614	18627.34
239.686	18561.32
239.758	18549.95
239.829	18515.39
239.901	18508.21
239.973	18488.75
240.044	18464.02
240.116	18431.3
240.188	18406.39
240.259	18383.4
240.331	18350.58
240.403	18333.81
240.474	18283.79
240.546	18256.37
240.618	18196.37
240.689	18166.88
240.761	18143.12
240.833	18128.62
240.904	18097.29
240.976	18070.89
241.048	18037.63
241.119	17995.42
241.191	17973.83
241.262	17957.4
241.334	17921.01
241.405	17884.87
241.477	17848.87
241.549	17813.26
241.62	17782.17
241.692	17762.08
241.763	17746.99
241.835	17719.67
241.906	17695.81
241.978	17663.77
242.049	17652.44
242.121	17639.81
242.192	17623.77
242.264	17571.43
242.335	17525.94
242.407	17504.06
242.478	17475
242.55	17445.65
242.621	17417.79
242.693	17386.75
242.764	17341.12
242.836	17307.24
242.907	17281.12
242.979	17238.8
243.05	17218.51
243.122	17188
243.193	17153.4
243.264	17094.89
243.336	17054.36
243.407	17024.96
243.479	17008.77
243.55	16974.36
243.622	16947.08
243.693	16915.52
243.764	16912.82
243.836	16874.84
243.907	16833.2
243.978	16799.32
244.05	16772.33
244.121	16722.49
244.192	16708.52
244.264	16664.71
244.335	16635.21
244.407	16588.17
244.478	16570.96
244.549	16534.43
244.62	16486.14
244.692	16458.52
244.763	16440.88
244.834	16415.82
244.906	16383.91
244.977	16353.4
245.048	16334.61
245.119	16295.76
245.191	16246.99
245.262	16186.5
245.333	16164.61
245.405	16135.65
245.476	16118.25
245.547	16091.16
245.618	16068.84
245.689	16031.39
245.761	16013.9
245.832	15981.17
245.903	15968.93
245.974	15937.65
246.045	15905.21
246.117	15898.08
246.188	15860.19
246.259	15813
246.33	15774.49
246.401	15735.69
246.473	15685.75
246.544	15647.92
246.615	15623.43
246.686	15594.13
246.757	15572.63
246.828	15526.31
246.899	15507.46
246.97	15451.5
247.042	15416.6
247.113	15398.48
247.184	15388.55
247.255	15352.78
247.326	15326.99
247.397	15284.48
247.468	15255.46
247.539	15230.3
247.61	15188.27
247.681	15163.11
247.752	15147.49
247.823	15118.09
247.894	15096.54
247.965	15064.34
248.037	15025.25
248.108	14984.85
248.179	14955.01
248.25	14934.43
248.321	14921.46
248.392	14885.6
248.463	14878.95
248.534	14847.71
248.605	14821.83
248.675	14790.16
248.746	14766.68
248.817	14740.75
248.888	14726.39
248.959	14686.57
249.03	14666.23
249.101	14640.97
249.172	14608.62
249.243	14557.72
249.314	14543.59
249.385	14507.05
249.456	14487.05
249.527	14466.61
249.598	14449.4
249.669	14426.21
249.739	14404.13
249.81	14378.39
249.881	14338.53
249.952	14312.4
250.023	14275.76
250.094	14235.75
250.165	14197.86
250.235	14160.89
250.306	14137.41
250.377	14095.81
250.448	14079.04
250.519	14023.7
250.59	14014.2
250.66	13982.72
250.731	13978.09
250.802	13943.62
250.873	13926.08
250.944	13896.77
251.014	13850.73
251.085	13840.08
251.156	13823.49
251.227	13808.94
251.297	13794.23
251.368	13782.81
251.439	13764.88
251.51	13752.53
251.58	13723.9
251.651	13689.38
251.722	13685.53
251.792	13641.47
251.863	13612.88
251.934	13599.05
252.005	13608.93
252.075	13578.56
252.146	13563.81
252.217	13555.37
252.287	13543.03
252.358	13515.21
252.429	13517.91
252.499	13501.67
252.57	13476.5
252.641	13460.55
252.711	13437.55
252.782	13405.88
252.852	13397.69
252.923	13368.52
252.994	13356.71
253.064	13341.67
253.135	13307.93
253.205	13273.12
253.276	13271.63
253.347	13263.72
253.417	13234.31
253.488	13203.7
253.558	13172.18
253.629	13151.25
253.699	13124.98
253.77	13106.76
253.841	13090.08
253.911	13064.24
253.982	13040.62
254.052	13031.17
254.123	13002.83
254.193	12974.72
254.264	12988.9
254.334	12952.6
254.405	12921.41
254.475	12878.02
254.546	12858.31
254.616	12858.35
254.687	12839.65
254.757	12823.36
254.827	12794.63
254.898	12776.55
254.968	12753.36
255.039	12727.81
255.109	12719.04
255.18	12693.16
255.25	12642.88
255.321	12627.45
255.391	12596.84
255.461	12594.14
255.532	12541.07
255.602	12521.88
255.673	12480.43
255.743	12444.9
255.813	12395.49
255.884	12395.35
255.954	12389.66
256.024	12384.65
256.095	12362.47
256.165	12323.52
256.235	12301.4
256.306	12277.01
256.376	12269.01
256.446	12265.3
256.517	12255.08
256.587	12241.34
256.657	12224.47
256.728	12217.86
256.798	12190.53
256.868	12162.62
256.938	12132.83
257.009	12123.48
257.079	12107.67
257.149	12116.01
257.219	12073.45
257.29	12066.99
257.36	12019.99
257.43	12007.94
257.5	11965.04
257.571	11942.82
257.641	11941.62
257.711	11909.18
257.781	11903.11
257.852	11882.52
257.922	11835.24
257.992	11815.19
258.062	11789.21
258.132	11774.89
258.202	11755.56
258.273	11739.8
258.343	11741.15
258.413	11723.03
258.483	11704.33
258.553	11672.37
258.623	11640.99
258.693	11630.25
258.764	11634.39
258.834	11633.43
258.904	11618.58
258.974	11594.24
259.044	11570.53
259.114	11554.48
259.184	11540.36
259.254	11518.38
259.324	11474.19
259.394	11460.02
259.464	11456.98
259.535	11439.39
259.605	11412.78
259.675	11384.3
259.745	11368.83
259.815	11333.94
259.885	11304.78
259.955	11320.16
260.025	11298.76
260.095	11280.35
260.165	11269.99
260.235	11264.3
260.305	11237.89
260.375	11205.07
260.445	11216.06
260.515	11219.04
260.585	11215.86
260.655	11204.15
260.725	11193.69
260.795	11188.39
260.865	11199.72
260.934	11176.01
261.004	11168.44
261.074	11152.83
261.144	11151.43
261.214	11148.01
261.284	11132.78
261.354	11130.85
261.424	11096.58
261.494	11094.75
261.564	11076.39
261.634	11060.35
261.703	11021.07
261.773	11013.46
261.843	11004.25
261.913	10981.89
261.983	10938.62
262.053	10923.05
262.123	10904.65
262.192	10875.01
262.262	10869.13
262.332	10831.01
262.402	10816.03
262.472	10794.01
262.541	10758.54
262.611	10755.51
262.681	10721.82
262.751	10711.71
262.821	10688.96
262.89	10661.5
262.96	10656.82
263.03	10661.5
263.1	10648
263.169	10632.73
263.239	10620.06
263.309	10619.24
263.379	10603.48
263.448	10595.53
263.518	10583.53
263.588	10568.12
263.657	10575.05
263.727	10572.4
263.797	10565.51
263.867	10551.3
263.936	10527.55
264.006	10528.89
264.076	10506.92
264.145	10492.28
264.215	10474.4
264.285	10471.51
264.354	10441.59
264.424	10416.25
264.494	10387.78
264.563	10369.9
264.633	10376.11
264.702	10366
264.772	10335.64
264.842	10322.78
264.911	10316.61
264.981	10284.28
265.05	10263.81
265.12	10239.63
265.19	10227.72
265.259	10217.12
265.329	10207.68
265.398	10195.16
265.468	10205.08
265.537	10186.53
265.607	10178.06
265.676	10174.78
265.746	10163.6
265.815	10166.78
265.885	10145.44
265.955	10120.25
266.024	10100.6
266.094	10065.38
266.163	10064.18
266.232	10066.63
266.302	10046.55
266.371	10032.82
266.441	10027.14
266.51	10026.41
266.58	10007.68
266.649	9982.58
266.719	9980.55
266.788	9973.37
266.858	9977.85
266.927	9942.45
266.996	9931.9
267.066	9926.22
267.135	9894.81
267.205	9890.77
267.274	9875.88
267.343	9882.48
267.413	9874.87
267.482	9880.6
267.552	9885.52
267.621	9859.12
267.69	9824.92
267.76	9817.26
267.829	9813.75
267.898	9799.73
267.968	9774.35
268.037	9781.67
268.106	9782.63
268.176	9755.85
268.245	9737.65
268.314	9714.72
268.384	9709.52
268.453	9700.32
268.522	9693.48
268.592	9699.26
268.661	9681.73
268.73	9671.18
268.799	9647.77
268.869	9648.01
268.938	9617.77
269.007	9598.07
269.076	9584.58
269.146	9580.06
269.215	9574.66
269.284	9578.28
269.353	9562.53
269.422	9553.62
269.492	9527.9
269.561	9485.33
269.63	9480.32
269.699	9466.02
269.768	9453.6
269.838	9450.32
269.907	9445.84
269.976	9419.65
270.045	9392.63
270.114	9381.94
270.183	9371.06
270.253	9365.86
270.322	9338.32
270.391	9324.93
270.46	9327.2
270.529	9328.88
270.598	9329.41
270.667	9311.45
270.736	9286.46
270.806	9281.93
270.875	9288.24
270.944	9275.86
271.013	9298.45
271.082	9288.38
271.151	9287.03
271.22	9265.23
271.289	9247.41
271.358	9244.33
271.427	9242.84
271.496	9236.19
271.565	9220.64
271.634	9214.81
271.703	9237.88
271.772	9244.19
271.841	9244.62
271.91	9220.16
271.979	9209.57
272.048	9183.86
272.117	9190.02
272.186	9174.86
272.255	9173.31
272.324	9162.48
272.393	9164.41
272.462	9144.52
272.531	9132.96
272.6	9120.21
272.669	9127.52
272.738	9122.71
272.807	9106.77
272.876	9080.2
272.945	9101.53
273.013	9104.95
273.082	9102.39
273.151	9059.35
273.22	9059.3
273.289	9042.02
273.358	9049.29
273.427	9036.72
273.496	9042.21
273.564	9032.44
273.633	9035.81
273.702	9012.36
273.771	9006.1
273.84	8995.99
273.909	8992.05
273.977	8993.54
274.046	8984.73
274.115	8989.35
274.184	8965.62
274.253	8952.58
274.322	8963.6
274.39	8934.47
274.459	8917.29
274.528	8892.83
274.597	8888.93
274.665	8879.69
274.734	8885.9
274.803	8876.51
274.872	8873.1
274.94	8855
275.009	8882.11
275.078	8867.14
275.147	8869.69
275.215	8867.91
275.284	8876.67
275.353	8866.65
275.421	8841.43
275.49	8850.1
275.559	8833.73
275.627	8829.98
275.696	8827.47
275.765	8824.3
275.833	8813.9
275.902	8819
275.971	8834.79
276.039	8844.71
276.108	8846.05
276.177	8845.24
276.245	8834.98
276.314	8824.3
276.383	8838.02
276.451	8805.9
276.52	8807.3
276.588	8814.71
276.657	8814.56
276.725	8804.07
276.794	8806.96
276.863	8820.92
276.931	8798.73
277	8805.03
277.068	8817.83
277.137	8834.82
277.205	8831.79
277.274	8850.27
277.342	8855.81
277.411	8829.24
277.48	8818.27
277.548	8802.58
277.617	8801.23
277.685	8796.32
277.754	8797.52
277.822	8784.67
277.89	8793.82
277.959	8784.19
278.027	8765.09
278.096	8755.51
278.164	8780.93
278.233	8763.74
278.301	8751.23
278.37	8761
278.438	8747.09
278.507	8745.17
278.575	8717.01
278.643	8715.42
278.712	8692.65
278.78	8676
278.849	8687.65
278.917	8699.25
278.985	8699.1
279.054	8702.66
279.122	8710.46
279.191	8707.96
279.259	8702.13
279.327	8681.15
279.396	8697.46
279.464	8697.18
279.532	8705.21
279.601	8692.65
279.669	8698.76
279.737	8712.19
279.806	8708.77
279.874	8719.36
279.942	8715.99
280.011	8712.43
280.079	8713.78
280.147	8731.05
280.215	8732.98
280.284	8725.86
280.352	8705.35
280.42	8711.18
280.488	8699.77
280.557	8695.73
280.625	8699.86
280.693	8701.21
280.761	8701.16
280.83	8687.59
280.898	8700.63
280.966	8675.22
281.034	8641.53
281.102	8620.02
281.171	8608.71
281.239	8615.11
281.307	8604.86
281.375	8599.76
281.443	8623.58
281.512	8621.95
281.58	8624.31
281.648	8607.37
281.716	8608.62
281.784	8611.46
281.852	8607.85
281.92	8604.77
281.989	8609.15
282.057	8595.09
282.125	8639.34
282.193	8638.18
282.261	8629.66
282.329	8621.09
282.397	8629.85
282.465	8638.03
282.533	8656.27
282.601	8645.59
282.67	8625.85
282.738	8620.46
282.806	8632.83
282.874	8614.93
282.942	8619.45
283.01	8614.3
283.078	8626.04
283.146	8623.2
283.214	8629.51
283.282	8632.93
283.35	8640.24
283.418	8635.72
283.486	8644.48
283.554	8599.61
283.622	8601.1
283.69	8602.79
283.758	8598.5
283.826	8605.96
283.894	8621.27
283.962	8639.56
284.03	8661.65
284.098	8662.56
284.165	8657.8
284.233	8647.84
284.301	8647.26
284.369	8641.15
284.437	8633.35
284.505	8627.24
284.573	8644.76
284.641	8635.71
284.709	8638.6
284.777	8621.61
284.845	8629.98
284.912	8628.15
284.98	8634.79
285.048	8624.98
285.116	8632.1
285.184	8640.76
285.252	8636.29
285.319	8616.55
285.387	8607.89
285.455	8586.67
285.523	8596.72
285.591	8596.92
285.659	8600.72
285.726	8612.99
285.794	8597.98
285.862	8598.27
285.93	8602.4
285.997	8598.36
286.065	8590.85
286.133	8587.24
286.201	8591.62
286.269	8579.78
286.336	8573
286.404	8564.67
286.472	8576.27
286.539	8561.64
286.607	8547.88
286.675	8552.69
286.743	8561.74
286.81	8556.73
286.878	8570.4
286.946	8560.53
287.013	8558.32
287.081	8559.19
287.149	8544.12
287.216	8559.47
287.284	8556.59
287.352	8552.06
287.419	8542.24
287.487	8559.38
287.555	8558.9
287.622	8562.84
287.69	8571.51
287.758	8584.93
287.825	8579.4
287.893	8563.9
287.96	8566.65
288.028	8571.84
288.096	8569.72
288.163	8572.13
288.231	8556.88
288.298	8553.41
288.366	8562.27
288.433	8560.25
288.501	8554.47
288.569	8557.26
288.636	8550.86
288.704	8561.35
288.771	8565.11
288.839	8560.53
288.906	8554.09
288.974	8562.17
289.041	8554.71
289.109	8546.68
289.176	8551.34
289.244	8553.99
289.311	8575.41
289.379	8584.69
289.446	8593.84
289.514	8589.99
289.581	8589.8
289.649	8595.71
289.716	8601.78
289.783	8601.78
289.851	8621.99
289.918	8619.2
289.986	8629.84
290.053	8633.59
290.121	8628.68
290.188	8636.52
290.255	8661.89
290.323	8654.96
290.39	8647.06
290.458	8650.67
290.525	8656.06
290.592	8650.87
290.66	8658.32
290.727	8648.51
290.794	8662.27
290.862	8659.29
290.929	8669.01
290.996	8668.34
291.064	8679.89
291.131	8684.46
291.198	8687.83
291.266	8683.16
291.333	8686.48
291.4	8692.69
291.468	8717.24
291.535	8715.94
291.602	8719.84
291.669	8716.32
291.737	8722.43
291.804	8724.84
291.871	8741.21
291.938	8746.02
292.006	8772.5
292.073	8782.12
292.14	8795.89
292.207	8780.68
292.275	8787.51
292.342	8793
292.409	8819.62
292.476	8843.6
292.543	8839.41
292.611	8845.91
292.678	8867.28
292.745	8888.17
292.812	8903.04
292.879	8896.11
292.946	8899.19
293.014	8915.85
293.081	8930.63
293.148	8943.48
293.215	8961.91
293.282	8955.32
293.349	8967.16
293.416	8951.9
293.484	8969.23
293.551	8978.52
293.618	9006.44
293.685	9029.12
293.752	9025.12
293.819	9017.32
293.886	9003.79
293.953	9010.15
294.02	9022.62
294.087	9027.57
294.154	9028.78
294.221	9036.34
294.288	9036.48
294.356	9059.49
294.423	9059.88
294.49	9042.98
294.557	9062.72
294.624	9056.22
294.691	9084.72
294.758	9086.74
294.825	9092.23
294.892	9075.62
294.959	9071.34
295.026	9073.55
295.093	9067.77
295.16	9059.83
295.226	9062.14
295.293	9088.77
295.36	9095.75
295.427	9101.04
295.494	9111.16
295.561	9112.02
295.628	9135.04
295.695	9150.59
295.762	9148.52
295.829	9157.53
295.896	9176.74
295.963	9176.54
296.03	9182.8
296.096	9180.68
296.163	9193.92
296.23	9208.32
296.297	9228.11
296.364	9229.5
296.431	9236.29
296.498	9237.35
296.564	9266.77
296.631	9271.53
296.698	9248.61
296.765	9272.06
296.832	9261.37
296.899	9242.02
296.965	9266
297.032	9244.37
297.099	9258.24
297.166	9269.7
297.233	9269.65
297.299	9263.92
297.366	9266.38
297.433	9269.07
297.5	9281.26
297.566	9274.23
297.633	9275.77
297.7	9274.13
297.767	9273.46
297.833	9275.91
297.9	9276.97
297.967	9259.06
298.033	9270.67
298.1	9307.22
298.167	9293.35
298.234	9306.01
298.3	9318.72
298.367	9310.49
298.434	9318.05
298.5	9312.51
298.567	9306.2
298.634	9306.68
298.7	9319.97
298.767	9317.18
298.834	9329.31
298.9	9320.55
298.967	9318.86
299.033	9328.83
299.1	9349.83
299.167	9369.62
299.233	9366.78
299.3	9377.27
299.366	9399.81
299.433	9418.25
299.5	9388.88
299.566	9394.94
299.633	9404.62
299.699	9420.66
299.766	9418.83
299.832	9422.87
299.899	9433.71
299.965	9450.18
300.032	9448.4
300.099	9460.68
300.165	9467.61
300.232	9466.74
300.298	9471.37
300.365	9493.28
300.431	9495.4
300.498	9486.78
300.564	9490.82
300.631	9506.76
300.697	9522.08
300.763	9524.44
300.83	9514.32
300.896	9530.21
300.963	9541.19
301.029	9546.1
301.096	9547.74
301.162	9555.83
301.229	9553.66
301.295	9539.41
301.361	9546.25
301.428	9547.21
301.494	9530.79
301.561	9540.13
301.627	9539.36
301.693	9541.24
301.76	9536.57
301.826	9533.29
301.892	9537.96
301.959	9544.42
302.025	9535.99
302.092	9533.44
302.158	9541.33
302.224	9547.26
302.291	9542.15
302.357	9536.13
302.423	9533.29
302.49	9532.04
302.556	9550.78
302.622	9550.29
302.688	9564.36
302.755	9573.99
302.821	9585.5
302.887	9596.91
302.954	9592.24
303.02	9601.87
303.086	9604.81
303.152	9599.66
303.219	9594.94
303.285	9607.56
303.351	9611.07
303.417	9614.15
303.483	9602.55
303.55	9588.05
303.616	9586.41
303.682	9583.72
303.748	9577.84
303.815	9593.21
303.881	9600
303.947	9581.94
304.013	9583.72
304.079	9575.39
304.145	9553.14
304.212	9546.73
304.278	9537.25
304.344	9536.28
304.41	9523.38
304.476	9517.31
304.542	9516.83
304.608	9518.9
304.674	9501.9
304.741	9497.47
304.807	9499.2
304.873	9503.87
304.939	9529.64
305.005	9507
305.071	9509.75
305.137	9515.48
305.203	9486.34
305.269	9477.14
305.335	9489.33
305.401	9484.22
305.467	9484.13
305.533	9487.06
305.599	9497.18
305.666	9507.63
305.732	9504.16
305.798	9511.04
305.864	9537.53
305.93	9543.36
305.996	9543.6
306.062	9542.93
306.128	9538.45
306.194	9522.94
306.259	9519.96
306.325	9503.77
306.391	9513.12
306.457	9517.21
306.523	9520
306.589	9550.97
306.655	9544.52
306.721	9526.6
306.787	9516.78
306.853	9526.94
306.919	9518.46
306.985	9510.09
307.051	9509.84
307.117	9509.03
307.183	9507.24
307.248	9476.04
307.314	9476.57
307.38	9477.24
307.446	9480.37
307.512	9464.24
307.578	9475.17
307.644	9469.78
307.709	9467.27
307.775	9468.91
307.841	9472.04
307.907	9471.46
307.973	9450.51
308.039	9454.7
308.104	9461.3
308.17	9460.43
308.236	9441.36
308.302	9441.26
308.368	9432.5
308.433	9423.64
308.499	9420.65
308.565	9411.41
308.631	9419.16
308.696	9397.59
308.762	9385.07
308.828	9384.83
308.894	9369.66
308.959	9348.72
309.025	9344.14
309.091	9339.91
309.156	9333.45
309.222	9322.71
309.288	9306.15
309.354	9285.16
309.419	9280.53
309.485	9269.17
309.551	9273.65
309.616	9261.95
309.682	9256.84
309.748	9248.66
309.813	9243.99
309.879	9226.61
309.945	9216.93
310.01	9207.88
310.076	9212.35
310.141	9211.82
310.207	9194.78
310.273	9200.36
310.338	9202.82
310.404	9186.35
310.469	9177.54
310.535	9163.87
310.601	9140.71
310.666	9151.06
310.732	9157.99
310.797	9145.72
310.863	9131.61
310.928	9125.11
310.994	9131.95
311.059	9123.95
311.125	9120.63
311.191	9131.18
311.256	9122.42
311.322	9123.38
311.387	9101.38
311.453	9440.67
311.518	9412.07
311.584	9413.28
311.649	9418.62
311.715	9408.85
311.78	9408.51
311.846	9394.84
311.911	9403.12
311.976	9410.15
312.042	9387.91
312.107	9370.43
312.173	9357.43
312.238	9355.41
312.304	9350.64
312.369	9333.89
312.434	9330.23
312.5	9326.24
312.565	9293.59
312.631	9299.85
312.696	9294.41
312.761	9300.19
312.827	8952.09
312.892	8990.65
312.958	8986.08
313.023	8977.26
313.088	8979.58
313.154	8970.53
313.219	8963.02
313.284	8950.93
313.35	8949.44
313.415	8940.49
313.48	8937.94
313.546	8951.22
313.611	8958.59
313.676	8948.05
313.741	8946.31
313.807	8955.8
313.872	8958.78
313.937	8970.38
314.003	8982.23
314.068	8980.54
314.133	8981.84
314.198	8970.67
314.264	8944.29
314.329	8935.05
314.394	8935.14
314.459	8926.48
314.525	8937.16
314.59	8933.17
314.655	8924.55
314.72	8926.91
314.785	8928.36
314.851	8924.79
314.916	8894.85
314.981	8878.63
315.046	8871.51
315.111	8858.22
315.176	8841.66
315.242	8837.23
315.307	8828.18
315.372	8803.78
315.437	8794.25
315.502	8787.17
315.567	8793.72
315.632	8781.73
315.698	8782.79
315.763	8781.01
315.828	8771.67
315.893	8773.79
315.958	8775.81
316.023	8766.52
316.088	8743.32
316.153	8725.47
316.218	8716.52
316.283	8706.12
316.348	8686.78
316.413	8686.25
316.479	8668.54
316.544	8638.56
316.609	8610.07
316.674	8577.4
316.739	8541.99
316.804	8510.66
316.869	8474.28
316.934	8440.02
316.999	8409.8
317.064	8359.18
317.129	8311.45
317.194	8279.51
317.259	8226.24
317.324	8171.3
317.389	8124.69
317.454	8087.17
317.518	8049.75
317.583	8028.19
317.648	8005.87
317.713	7977.73
317.778	7913.57
317.843	7893.94
317.908	7857.2
317.973	7822.86
318.038	7789.63
318.103	7757.42
318.168	7727.03
318.233	7697.79
318.297	7641.49
318.362	7609.22
318.427	7569.09
318.492	7546.01
318.557	7497.17
318.622	7469.14
318.687	7446.98
318.751	7407.1
318.816	7374.65
318.881	7342.35
318.946	7281.55
319.011	7235.93
319.075	7190.32
319.14	7153.86
319.205	7106.66
319.27	7067.07
319.335	7019.45
319.399	6977.75
319.464	6950.51
319.529	6893.97
319.594	6854.38
319.658	6830.99
319.723	6787.23
319.788	6759.95
319.853	6703.36
319.917	6672.35
319.982	6619.61
320.047	6576.39
320.112	6553.68
320.176	6504.47
320.241	6470.52
320.306	6442.72
320.37	6396.97
320.435	6365.05
320.5	6342.53
320.564	6301.01
320.629	6262.81
320.694	6231.18
320.758	6192.02
320.823	6146.29
320.888	6128.34
320.952	6080.02
321.017	6033.48
321.082	5989.73
321.146	5955.76
321.211	5926.4
321.275	5885.73
321.34	5841.19
321.405	5802.1
321.469	5751.46
321.534	5708.5
321.598	5660.26
321.663	5629.09
321.727	5602.38
321.792	5551.8
321.857	5502.18
321.921	5463.88
321.986	5417.87
322.05	5357.26
322.115	5320.35
322.179	5275.84
322.244	5216.14
322.308	5180.4
322.373	5139.16
322.437	5102.6
322.502	5071.12
322.566	5021.68
322.631	4989.74
322.695	4954.21
322.76	4911.31
322.824	4878.32
322.889	4842.8
322.953	4799.77
323.018	4734.32
323.082	4667.79
323.146	4620.95
323.211	4571.42
323.275	4524.09
323.34	4484.01
323.404	4451.77
323.468	4405.65
323.533	4362.89
323.597	4317.28
323.662	4270.99
323.726	4237.17
323.79	4186.35
323.855	4119.15
323.919	4068.58
323.983	4023.49
324.048	3955.56
324.112	4102.49
324.177	3976.56
324.241	3766.83
324.305	3563.32
324.37	3364.63
324.434	3174.84
324.498	3131.36
324.562	3082.24
324.627	3024.77
324.691	2968.16
324.755	2904.22
324.82	2830.08
324.884	2754.45
324.948	2685.01
325.012	2587.28
325.077	2460.38
