Data from 20250702_urea_0.5M_MAYP1162681_18-55-00-105.txt Node
Date: Wed Jul 02 18:55:00 BST 2025
User: adleo
Spectrometer: MAYP116268
Trigger mode: 0
Integration Time (sec): 1.000000E0
Scans to average: 1
Electric dark correction enabled: true
Nonlinearity correction enabled: true
Boxcar width: 10
XAxis mode: Wavelengths
Number of Pixels in Spectrum: 2068
>>>>>Begin Spectral Data<<<<<
179.565	1136.35
179.642	1192.68
179.718	1235.82
179.795	1272.08
179.871	1301.04
179.948	1316.72
180.024	1335.66
180.101	1357.48
180.177	1370.92
180.254	1393.49
180.33	1414.95
180.407	1464.37
180.483	1554.25
180.56	1641.19
180.636	1720.67
180.712	1709.78
180.789	1716.39
180.865	1728.83
180.942	1734.39
181.018	1745.75
181.095	1761.29
181.171	1769.47
181.248	1769.37
181.324	1782.83
181.4	1790.76
181.477	1803.03
181.553	1817.42
181.63	1838.19
181.706	1855.5
181.782	1862.72
181.859	1863.34
181.935	1866.28
182.011	1862.86
182.088	1879.6
182.164	1897.43
182.24	1911.07
182.317	1921.1
182.393	1921.29
182.469	1933.65
182.546	1948.62
182.622	1951.67
182.698	1944.11
182.775	1954.52
182.851	1966.98
182.927	1960.08
183.003	1952.57
183.08	1945.25
183.156	1954.38
183.232	1951.15
183.308	1938.83
183.385	1948.43
183.461	1963.7
183.537	1965.74
183.613	1977.87
183.69	1967.88
183.766	1954.85
183.842	1960.74
183.918	1963.88
183.995	1977
184.071	1979.38
184.147	1974.77
184.223	1964.46
184.299	1978.15
184.375	1968.55
184.452	1976.87
184.528	2032.29
184.604	2045.7
184.68	2058.92
184.756	2062.25
184.832	2067.19
184.908	2070.52
184.985	2070.24
185.061	2056.64
185.137	2066.77
185.213	2056.07
185.289	2059.11
185.365	2055.16
185.441	2053.17
185.517	2065.39
185.593	2063.16
185.669	2064.06
185.745	2073.81
185.822	2089.97
185.898	2083.93
185.974	2091.06
186.05	2082.12
186.126	2042.3
186.202	2035.07
186.278	2031.03
186.354	2023.51
186.43	2026.08
186.506	2025.42
186.582	2025.37
186.658	2029.89
186.734	2009.92
186.81	2010.68
186.886	2014.1
186.962	2024.89
187.038	2019.62
187.114	2014.95
187.19	2023.28
187.266	2010.92
187.341	2010.3
187.417	2002.07
187.493	1995.84
187.569	1997.03
187.645	1991.47
187.721	1978.25
187.797	1985.33
187.873	1989.56
187.949	1985.09
188.025	1981.1
188.101	1984.19
188.176	1988.8
188.252	1985.19
188.328	1993.6
188.404	1992.51
188.48	1988.09
188.556	1980.86
188.632	1984.42
188.707	1982.76
188.783	1978
188.859	1973.25
188.935	1963.5
189.011	1970.58
189.086	1966.07
189.162	1961.36
189.238	1956.94
189.314	1954.42
189.39	1950.28
189.465	1942.44
189.541	1961.46
189.617	1947.58
189.693	1942.63
189.768	1944.58
189.844	1966.8
189.92	1958.34
189.996	1968.61
190.071	1977.07
190.147	1977.74
190.223	1985.01
190.298	1980.16
190.374	1969.7
190.45	1983.96
190.526	1992.9
190.601	1990.95
190.677	1994.14
190.753	2016.59
190.828	2023.16
190.904	2040.71
190.98	2054.93
191.055	2066.39
191.131	2053.59
191.207	2073.37
191.282	2081.88
191.358	2075.27
191.433	2062.14
191.509	2075.69
191.585	2074.41
191.66	2074.45
191.736	2081.11
191.811	2071.88
191.887	2088.49
191.963	2108.7
192.038	2113.32
192.114	2111.75
192.189	2114.6
192.265	2113.32
192.34	2095.29
192.416	2094.33
192.491	2088.48
192.567	2089.91
192.642	2089.81
192.718	2089.01
192.793	2077.59
192.869	2073.45
192.944	2073.69
193.02	2081.83
193.095	2085.39
193.171	2090.63
193.246	2093.43
193.322	2089.68
193.397	2087.82
193.473	2071.98
193.548	2055.47
193.624	2059.85
193.699	2058.8
193.775	2071.74
193.85	2071.65
193.925	2078.26
194.001	2078.07
194.076	2072.36
194.152	2061.8
194.227	2056.85
194.302	2049.58
194.378	2055.24
194.453	2053
194.529	2066.99
194.604	2051.34
194.679	2044.63
194.755	2023.86
194.83	2033.76
194.905	2030.28
194.981	2042.7
195.056	2035.33
195.131	2041.13
195.207	2041.7
195.282	2035.37
195.357	2017.44
195.433	2031.37
195.508	2024.48
195.583	2030.33
195.659	2040.17
195.734	2046.55
195.809	2044.74
195.884	2057.43
195.96	2059.1
196.035	2072.94
196.11	2069.13
196.185	2080.78
196.261	2084.4
196.336	2116.22
196.411	2103.23
196.486	2112.93
196.561	2105.98
196.637	2117.06
196.712	2134
196.787	2132.2
196.862	2145.94
196.937	2155.36
197.013	2160.45
197.088	2168.82
197.163	2189.05
197.238	2206.33
197.313	2208.23
197.388	2224.07
197.464	2249.3
197.539	2256.77
197.614	2250.45
197.689	2261.77
197.764	2279.19
197.839	2300.08
197.914	2295.51
197.989	2316.41
198.065	2326.35
198.14	2374.02
198.215	2397.3
198.29	2406.68
198.365	2421.15
198.44	2429.43
198.515	2457.8
198.59	2476.61
198.665	2500.89
198.74	2506.7
198.815	2512.66
198.89	2532.89
198.965	2558.95
199.04	2554.71
199.115	2568.32
199.19	2611.37
199.265	2611.8
199.34	2620.47
199.415	2652.4
199.49	2671.59
199.565	2680.68
199.64	2703.64
199.715	2702.26
199.79	2708.69
199.865	2712.93
199.94	2713.74
200.015	2746.67
200.09	2751.91
200.165	2756.58
200.24	2765.58
200.315	2810.08
200.39	2823.47
200.464	2829.24
200.539	2831.52
200.614	2847.29
200.689	2870.12
200.764	2874.22
200.839	2891.8
200.914	2897.71
200.989	2889.41
201.063	2903.42
201.138	2886.47
201.213	2887.9
201.288	2869.69
201.363	2878.22
201.438	2881.08
201.512	2893.66
201.587	2875.83
201.662	2880.22
201.737	2890.7
201.812	2897.52
201.886	2861.7
201.961	2867.37
202.036	2859.08
202.111	2854.98
202.186	2829.45
202.26	2814.72
202.335	2793.09
202.41	2786.8
202.485	2771.03
202.559	2749.64
202.634	2724.72
202.709	2735.1
202.784	2716.75
202.858	2716.56
202.933	2697.6
203.008	2693.27
203.082	2677.26
203.157	2677.36
203.232	2638.88
203.306	2617.01
203.381	2583.42
203.456	2558.61
203.53	2538.45
203.605	2518.98
203.68	2495.59
203.754	2487.31
203.829	2473.26
203.904	2460.21
203.978	2449.45
204.053	2451.59
204.127	2439.83
204.202	2438.64
204.277	2423.93
204.351	2416.22
204.426	2407.22
204.5	2397.41
204.575	2361.05
204.65	2369.77
204.724	2360.67
204.799	2365.05
204.873	2362.71
204.948	2365.43
205.022	2358.53
205.097	2349.62
205.171	2361.42
205.246	2372.09
205.32	2372.38
205.395	2372.9
205.469	2361.67
205.544	2366.58
205.618	2349.68
205.693	2360.34
205.767	2346.63
205.842	2363.34
205.916	2359.87
205.991	2353.35
206.065	2357.54
206.14	2375
206.214	2368.85
206.289	2361.33
206.363	2373.04
206.438	2377.75
206.512	2381.13
206.586	2399.22
206.661	2407.6
206.735	2386.67
206.81	2386.14
206.884	2402.56
206.958	2389.67
207.033	2408.13
207.107	2417.89
207.181	2450.66
207.256	2449.56
207.33	2472.13
207.405	2487.14
207.479	2507.52
207.553	2520.28
207.628	2513.71
207.702	2526.94
207.776	2529.56
207.851	2540.89
207.925	2561.47
207.999	2563.95
208.073	2571.48
208.148	2582.91
208.222	2580.48
208.296	2623.42
208.371	2649.45
208.445	2672.56
208.519	2716.86
208.593	2744.21
208.668	2757.93
208.742	2778.73
208.816	2799.5
208.89	2830.68
208.965	2855.44
209.039	2888.77
209.113	2930.44
209.187	2974.7
209.261	3002.58
209.336	3050.56
209.41	3104.26
209.484	3139.95
209.558	3200.26
209.632	3252.11
209.707	3301.77
209.781	3368.63
209.855	3427.15
209.929	3492.94
210.003	3551.24
210.077	3602.38
210.151	3703
210.226	3796.43
210.3	3884.66
210.374	3971.41
210.448	4046.89
210.522	4128.04
210.596	4211.68
210.67	4293.88
210.744	4418.46
210.818	4531.42
210.892	4637.48
210.966	4715.9
211.041	4819.67
211.115	4908.14
211.189	5028.62
211.263	5142.99
211.337	5251.44
211.411	5375.42
211.485	5478.88
211.559	5598.61
211.633	5712.23
211.707	5799.32
211.781	5918.76
211.855	6002.82
211.929	6116.99
212.003	6222.14
212.077	6354.65
212.151	6491.2
212.225	6628.66
212.299	6754.21
212.373	6874.86
212.447	7006.09
212.52	7171.46
212.594	7318.63
212.668	7468.95
212.742	7594.76
212.816	7736.98
212.89	7876.86
212.964	8015.11
213.038	8165.01
213.112	8326.52
213.186	8489.65
213.26	8618.83
213.333	8732.41
213.407	8891.06
213.481	9043.52
213.555	9211.16
213.629	9350.6
213.703	9490.05
213.777	9637.98
213.85	9766.68
213.924	9953.46
213.998	10107.02
214.072	10254.54
214.146	10393.05
214.219	10545.48
214.293	10691.07
214.367	10846.03
214.441	11006.97
214.515	11150.62
214.588	11271.14
214.662	11383.86
214.736	11511.33
214.81	11655.13
214.883	11807.57
214.957	11939.91
215.031	12068.16
215.105	12189.62
215.178	12326.61
215.252	12463.51
215.326	12585.75
215.4	12701.67
215.473	12790.37
215.547	12903.51
215.621	13022.72
215.694	13160.64
215.768	13270.4
215.842	13394.05
215.915	13505.98
215.989	13604.95
216.063	13721.75
216.136	13844.82
216.21	13971.5
216.284	14116.26
216.357	14249.16
216.431	14366.21
216.504	14494.43
216.578	14640.59
216.652	14761.68
216.725	14873.65
216.799	14989.72
216.873	15098.62
216.946	15227.22
217.02	15333.7
217.093	15441.05
217.167	15535.33
217.24	15621.95
217.314	15718.78
217.387	15815.91
217.461	15918.91
217.535	16043.74
217.608	16125.3
217.682	16234.61
217.755	16341.03
217.829	16417.66
217.902	16509.96
217.976	16595.7
218.049	16680.72
218.123	16756.82
218.196	16858.13
218.27	16933.65
218.343	17010.37
218.417	17103.68
218.49	17187.68
218.563	17289.76
218.637	17379.49
218.71	17478
218.784	17570.67
218.857	17664.22
218.931	17755.97
219.004	17843.15
219.077	17923.05
219.151	18010.52
219.224	18083
219.298	18156.59
219.371	18233.93
219.444	18300.53
219.518	18386.51
219.591	18463.18
219.665	18573.1
219.738	18642.59
219.811	18711.74
219.885	18789.57
219.958	18868.89
220.031	18928.79
220.105	18993.22
220.178	19061.65
220.251	19123.53
220.325	19198.27
220.398	19267.33
220.471	19329.59
220.544	19393.2
220.618	19439.85
220.691	19504.13
220.764	19562.97
220.838	19628.7
220.911	19685.18
220.984	19754.14
221.057	19807.88
221.131	19855.05
221.204	19860.5
221.277	19924.59
221.35	20010.71
221.424	20058.13
221.497	20103.14
221.57	20160.92
221.643	20213.26
221.716	20269.45
221.79	20310.18
221.863	20350.95
221.936	20395.04
222.009	20438.9
222.082	20482.95
222.155	20520.44
222.229	20580.97
222.302	20621.79
222.375	20658.03
222.448	20711.58
222.521	20754.76
222.594	20794.62
222.667	20827.19
222.74	20878.76
222.814	20915.1
222.887	20938.28
222.96	20985.76
223.033	21027.98
223.106	21068.65
223.179	21107.26
223.252	21133.67
223.325	21161.29
223.398	21181.05
223.471	21210.59
223.544	21246.36
223.617	21278.17
223.69	21311.28
223.763	21325.3
223.837	21368.25
223.91	21391.43
223.983	21395.34
224.056	21408.35
224.129	21433.7
224.202	21458.09
224.275	21470.09
224.348	21470.96
224.42	21470.38
224.493	21465.37
224.566	21480.07
224.639	21492.94
224.712	21510.24
224.785	21518.24
224.858	21545.33
224.931	21560.85
225.004	21561.24
225.077	21563.7
225.15	21545.14
225.223	21559.07
225.296	21588.42
225.369	21585.73
225.442	21587.22
225.514	21613.25
225.587	21632
225.66	21648.39
225.733	21671.38
225.806	21685.69
225.879	21702.13
225.952	21707.05
226.025	21736.4
226.097	21751.2
226.17	21757.76
226.243	21744.4
226.316	21759.06
226.389	21764.26
226.461	21772.12
226.534	21787.16
226.607	21792.12
226.68	21824.32
226.753	21830.06
226.825	21805.52
226.898	21821.96
226.971	21829.57
227.044	21832.52
227.117	21825.82
227.189	21814.01
227.262	21826.83
227.335	21847.02
227.407	21841.58
227.48	21854.79
227.553	21862.45
227.626	21857.82
227.698	21860.81
227.771	21869.39
227.844	21854.98
227.916	21858.83
227.989	21850.16
228.062	21852.76
228.134	21883.03
228.207	21877.83
228.28	21871.42
228.352	21876.43
228.425	21866.93
228.498	21877.3
228.57	21858.35
228.643	21875.37
228.716	21881.01
228.788	21865.05
228.861	21851.46
228.934	21862.88
229.006	21857.68
229.079	21844.33
229.151	21833.48
229.224	21816.13
229.296	21817.57
229.369	21846.45
229.442	21848.66
229.514	21837.67
229.587	21849.34
229.659	21827.31
229.732	21828.23
229.804	21833.19
229.877	21849.97
229.949	21857.24
230.022	21869.97
230.094	21877.01
230.167	21868.33
230.239	21845.63
230.312	21851.7
230.384	21870.84
230.457	21869.54
230.529	21867.66
230.602	21860.52
230.674	21861.39
230.747	21871.23
230.819	21870.16
230.892	21830.74
230.964	21823.41
231.037	21828.71
231.109	21809.91
231.181	21806.78
231.254	21783.79
231.326	21763.4
231.399	21745.51
231.471	21735.34
231.544	21696.59
231.616	21689.16
231.688	21685.36
231.761	21678.66
231.833	21653.06
231.905	21611.61
231.978	21592.18
232.05	21582.3
232.122	21567.84
232.195	21549.67
232.267	21551.45
232.339	21542.68
232.412	21545.43
232.484	21522.05
232.556	21498.96
232.629	21515.11
232.701	21499.4
232.773	21488.46
232.846	21474.67
232.918	21462.04
232.99	21437.41
233.062	21436.16
233.135	21424.83
233.207	21383.24
233.279	21378.13
233.351	21368.83
233.424	21351.19
233.496	21329.64
233.568	21323.62
233.64	21299.62
233.713	21271.28
233.785	21243.95
233.857	21219.22
233.929	21186.98
234.001	21181.05
234.074	21177.39
234.146	21121.96
234.218	21100.65
234.29	21077.62
234.362	21053.91
234.434	21014.38
234.507	20992.55
234.579	20952.21
234.651	20925.27
234.723	20919.15
234.795	20895.63
234.867	20870.57
234.939	20855.24
235.012	20828.25
235.084	20810.28
235.156	20796.64
235.228	20774.61
235.3	20741.17
235.372	20723.14
235.444	20706.9
235.516	20660.25
235.588	20631.43
235.66	20608
235.732	20569.64
235.804	20604.1
235.876	20593.4
235.948	20590.27
236.02	20552.97
236.092	20521.02
236.164	20482.51
236.236	20444.01
236.308	20409.84
236.38	20389.69
236.452	20349.5
236.524	20329.79
236.596	20309.36
236.668	20288.44
236.74	20272.2
236.812	20254.23
236.884	20221.12
236.956	20192.54
237.028	20165.89
237.1	20130.32
237.172	20123.19
237.244	20114.71
237.316	20043.05
237.388	19998.18
237.46	19960.35
237.532	19943.53
237.604	19919.15
237.675	19908.5
237.747	19895.63
237.819	19863.53
237.891	19815.68
237.963	19784.94
238.035	19747.64
238.107	19682.92
238.178	19649.28
238.25	19601.72
238.322	19590.87
238.394	19539.12
238.466	19507.7
238.538	19479.26
238.609	19452.81
238.681	19393.97
238.753	19349.78
238.825	19318.6
238.897	19291.23
238.968	19270.75
239.04	19232.77
239.112	19220.48
239.184	19176.29
239.255	19127.96
239.327	19103
239.399	19086.71
239.471	19070.13
239.542	19042.04
239.614	19026.76
239.686	18973.95
239.758	18960.5
239.829	18901.56
239.901	18888.75
239.973	18854.05
240.044	18821.42
240.116	18795.35
240.188	18761.67
240.259	18730.59
240.331	18693.43
240.403	18665.05
240.474	18608.52
240.546	18564.38
240.618	18510.17
240.689	18469.06
240.761	18442.6
240.833	18420.58
240.904	18376.34
240.976	18335.09
241.048	18303.62
241.119	18277.41
241.191	18253.55
241.262	18234.42
241.334	18191.05
241.405	18149.89
241.477	18104.69
241.549	18068.79
241.62	18029.66
241.692	17997.56
241.763	17981.47
241.835	17937.08
241.906	17904.07
241.978	17871.64
242.049	17850.24
242.121	17824.32
242.192	17806.39
242.264	17762.34
242.335	17714.05
242.407	17687.11
242.478	17649.57
242.55	17616.61
242.621	17573.52
242.693	17543.98
242.764	17496.32
242.836	17465.91
242.907	17439.55
242.979	17418.15
243.05	17391.84
243.122	17361.28
243.193	17336.03
243.264	17267.16
243.336	17236.56
243.407	17210.44
243.479	17189.48
243.55	17165.48
243.622	17140.7
243.693	17110
243.764	17091.16
243.836	17051.16
243.907	17016.75
243.978	16974.96
244.05	16942.09
244.121	16892.16
244.192	16858.62
244.264	16812.16
244.335	16785.07
244.407	16743.1
244.478	16705.65
244.549	16665.5
244.62	16620.97
244.692	16581.25
244.763	16564.87
244.834	16529.64
244.906	16489.1
244.977	16457.73
245.048	16431.32
245.119	16389.1
245.191	16349.62
245.262	16296.61
245.333	16276.6
245.405	16244.46
245.476	16222
245.547	16194.67
245.618	16176.01
245.689	16148.06
245.761	16124.78
245.832	16089.4
245.903	16063.47
245.974	16043.85
246.045	16009.44
246.117	15996.76
246.188	15953.63
246.259	15913.23
246.33	15883.83
246.401	15849.76
246.473	15803.92
246.544	15768.15
246.615	15745.02
246.686	15707.76
246.757	15688.09
246.828	15645.39
246.899	15623.7
246.97	15580.08
247.042	15538.67
247.113	15506.62
247.184	15489.31
247.255	15447.43
247.326	15424.82
247.397	15387.8
247.468	15355.75
247.539	15331.21
247.61	15280.75
247.681	15263.73
247.752	15242.95
247.823	15199.38
247.894	15166.79
247.965	15123.03
248.037	15085.28
248.108	15038.19
248.179	15006.52
248.25	14977.16
248.321	14954.94
248.392	14910.35
248.463	14900.38
248.534	14868.99
248.605	14847.88
248.675	14814.04
248.746	14790.57
248.817	14762.66
248.888	14728.82
248.959	14678.25
249.03	14649.18
249.101	14623.73
249.172	14589.41
249.243	14536.96
249.314	14524.96
249.385	14500.09
249.456	14485.58
249.527	14450.24
249.598	14433.27
249.669	14408.01
249.739	14386.52
249.81	14361.26
249.881	14324.91
249.952	14294.73
250.023	14268.51
250.094	14229.8
250.165	14190.27
250.235	14164
250.306	14139.22
250.377	14108.03
250.448	14087.01
250.519	14054.48
250.59	14046.67
250.66	14020.44
250.731	14016.05
250.802	13987.32
250.873	13960.67
250.944	13932.9
251.014	13907.16
251.085	13898.62
251.156	13873.46
251.227	13859.1
251.297	13844.2
251.368	13838.61
251.439	13819.81
251.51	13812.19
251.58	13775.22
251.651	13747.4
251.722	13730.19
251.792	13684.68
251.863	13662.8
251.934	13649.4
252.005	13648.58
252.075	13618.54
252.146	13601.87
252.217	13584.32
252.287	13569.57
252.358	13537.61
252.429	13529.8
252.499	13507.43
252.57	13483.52
252.641	13464.48
252.711	13436.03
252.782	13397.57
252.852	13388.74
252.923	13363.34
252.994	13330.7
253.064	13315.33
253.135	13279.8
253.205	13250.97
253.276	13242.82
253.347	13235.78
253.417	13208.69
253.488	13169.69
253.558	13142.12
253.629	13112.42
253.699	13093.86
253.77	13074.82
253.841	13051.49
253.911	13029.9
253.982	12999.43
254.052	12979.13
254.123	12957.78
254.193	12938.59
254.264	12954.45
254.334	12915.84
254.405	12881.57
254.475	12853.12
254.546	12834.47
254.616	12833.22
254.687	12818.99
254.757	12800.05
254.827	12778.41
254.898	12763.75
254.968	12748.9
255.039	12724.66
255.109	12712.46
255.18	12684.94
255.25	12641.6
255.321	12629.93
255.391	12600.05
255.461	12601.93
255.532	12561.92
255.602	12537.62
255.673	12493.32
255.743	12461.22
255.813	12421.35
255.884	12416.72
255.954	12406.22
256.024	12405.98
256.095	12383.22
256.165	12349.58
256.235	12335.69
256.306	12313.13
256.376	12301.08
256.446	12288.84
256.517	12271.1
256.587	12262.57
256.657	12248.2
256.728	12228.59
256.798	12212.54
256.868	12181.83
256.938	12151.7
257.009	12134.98
257.079	12119.75
257.149	12126.83
257.219	12087.64
257.29	12072.22
257.36	12032.5
257.43	12020.21
257.5	11974.27
257.571	11953.26
257.641	11941.98
257.711	11907.71
257.781	11883.17
257.852	11871.94
257.922	11823.98
257.992	11807.02
258.062	11781.33
258.132	11765.08
258.202	11749.18
258.273	11734.67
258.343	11735.44
258.413	11706.71
258.483	11698.33
258.553	11669.02
258.623	11641.79
258.693	11620.97
258.764	11625.21
258.834	11618.61
258.904	11599.14
258.974	11580.39
259.044	11559.42
259.114	11542.89
259.184	11531.23
259.254	11517.92
259.324	11477.49
259.394	11469
259.464	11461.58
259.535	11441.44
259.605	11414.93
259.675	11389.91
259.745	11370.73
259.815	11344.51
259.885	11325.24
259.955	11333.05
260.025	11304.95
260.095	11282.49
260.165	11277.72
260.235	11275.5
260.305	11251.99
260.375	11225.58
260.445	11229.67
260.515	11222.68
260.585	11219.21
260.655	11198.92
260.725	11183.6
260.795	11177.43
260.865	11178.88
260.934	11155.94
261.004	11152.27
261.074	11134.68
261.144	11133.09
261.214	11125.96
261.284	11103.55
261.354	11098.73
261.424	11068.76
261.494	11079.79
261.564	11067.55
261.634	11054.01
261.703	11008.56
261.773	10993.82
261.843	10984.86
261.913	10959.31
261.983	10922.26
262.053	10910.21
262.123	10894.69
262.192	10870.46
262.262	10851.13
262.332	10815.86
262.402	10807.09
262.472	10781.65
262.541	10748.83
262.611	10743.1
262.681	10717.37
262.751	10714.09
262.821	10695.88
262.89	10663.69
262.96	10648.94
263.03	10646.44
263.1	10634.49
263.169	10620.37
263.239	10615.94
263.309	10613.86
263.379	10610.64
263.448	10604.28
263.518	10588.18
263.588	10574.5
263.657	10581.68
263.727	10579.27
263.797	10568.09
263.867	10544.05
263.936	10516.01
264.006	10511.82
264.076	10489.94
264.145	10477.46
264.215	10454.77
264.285	10449.9
264.354	10420.03
264.424	10401.58
264.494	10374.89
264.563	10350.85
264.633	10363.13
264.702	10352.29
264.772	10318.85
264.842	10293.22
264.911	10286.48
264.981	10255.84
265.05	10241
265.12	10209.78
265.19	10197.54
265.259	10192.72
265.329	10193.16
265.398	10193.01
265.468	10209.44
265.537	10195.71
265.607	10184.68
265.676	10181.26
265.746	10164.54
265.815	10162.47
265.885	10141.42
265.955	10117.29
266.024	10102.45
266.094	10056.49
266.163	10053.17
266.232	10047.63
266.302	10027.26
266.371	10018.25
266.441	10013.77
266.51	10007.6
266.58	9997.39
266.649	9972.82
266.719	9968.05
266.788	9953.7
266.858	9953.99
266.927	9909.62
266.996	9893.53
267.066	9885.25
267.135	9858.47
267.205	9857.36
267.274	9844.4
267.343	9848.06
267.413	9837.71
267.482	9832.7
267.552	9837.76
267.621	9812.85
267.69	9791.32
267.76	9790.7
267.829	9778.17
267.898	9768.54
267.968	9749.28
268.037	9743.01
268.106	9742.15
268.176	9719.12
268.245	9708.19
268.314	9687.48
268.384	9688.63
268.453	9684.06
268.522	9678.13
268.592	9681.02
268.661	9660.12
268.73	9649.57
268.799	9629.2
268.869	9630.89
268.938	9606.47
269.007	9593.42
269.076	9584.51
269.146	9581.62
269.215	9575.6
269.284	9575.89
269.353	9552.24
269.422	9531.73
269.492	9512.33
269.561	9474.81
269.63	9465.71
269.699	9447.12
269.768	9436.96
269.838	9427.91
269.907	9416.74
269.976	9387.07
270.045	9357.89
270.114	9354.57
270.183	9345.28
270.253	9339.98
270.322	9313.4
270.391	9301.07
270.46	9304.25
270.529	9293.75
270.598	9289.28
270.667	9269.87
270.736	9250.9
270.806	9246.23
270.875	9255.37
270.944	9243.1
271.013	9267.8
271.082	9260.62
271.151	9251.14
271.22	9222.64
271.289	9213.58
271.358	9205.74
271.427	9206.46
271.496	9199.86
271.565	9176.46
271.634	9168.04
271.703	9189.47
271.772	9190.38
271.841	9184.37
271.91	9155.24
271.979	9149.51
272.048	9126.11
272.117	9122.11
272.186	9108.73
272.255	9109.11
272.324	9105.02
272.393	9103.05
272.462	9079.11
272.531	9069.82
272.6	9058.46
272.669	9058.99
272.738	9043.78
272.807	9032.66
272.876	9009.31
272.945	9034.54
273.013	9043.68
273.082	9044.94
273.151	9003.53
273.22	9000.97
273.289	8993.03
273.358	9003.38
273.427	8992.84
273.496	8991.83
273.564	8988.99
273.633	8983.55
273.702	8966.22
273.771	8953.32
273.84	8945.61
273.909	8942.29
273.977	8936.71
274.046	8930.79
274.115	8938.34
274.184	8926.84
274.253	8921.06
274.322	8927.37
274.39	8891.5
274.459	8872.35
274.528	8848.71
274.597	8839.76
274.665	8840.63
274.734	8845.2
274.803	8835.86
274.872	8824.69
274.94	8814.1
275.009	8838.13
275.078	8830.19
275.147	8826.53
275.215	8819.26
275.284	8826.14
275.353	8818.06
275.421	8796.98
275.49	8809.59
275.559	8796.16
275.627	8790.67
275.696	8780.42
275.765	8777.48
275.833	8767.52
275.902	8763.09
275.971	8770.7
276.039	8784.99
276.108	8778.74
276.177	8776.43
276.245	8761.41
276.314	8758.04
276.383	8765.6
276.451	8730.69
276.52	8727.47
276.588	8741.28
276.657	8746.82
276.725	8741.09
276.794	8741.52
276.863	8756.25
276.931	8733.34
277	8738.68
277.068	8748.55
277.137	8770.35
277.205	8771.99
277.274	8790.42
277.342	8807.07
277.411	8795.77
277.48	8778.34
277.548	8770.64
277.617	8768.95
277.685	8765.73
277.754	8766.89
277.822	8751.97
277.89	8772.33
277.959	8765.93
278.027	8743.4
278.096	8730.79
278.164	8752.7
278.233	8740.76
278.301	8731.81
278.37	8735.18
278.438	8721.46
278.507	8717.32
278.575	8695.23
278.643	8684.49
278.712	8664.57
278.78	8643.05
278.849	8648.59
278.917	8658.31
278.985	8650.9
279.054	8652.1
279.122	8659.13
279.191	8660.76
279.259	8660.04
279.327	8631.35
279.396	8647.77
279.464	8645.7
279.532	8657.15
279.601	8648.44
279.669	8648.29
279.737	8655.9
279.806	8655.42
279.874	8674
279.942	8674.04
280.011	8666.25
280.079	8677.41
280.147	8698.73
280.215	8708.98
280.284	8704.08
280.352	8689.69
280.42	8697.29
280.488	8689.59
280.557	8685.45
280.625	8688.19
280.693	8690.17
280.761	8695.41
280.83	8677.51
280.898	8686.17
280.966	8663.94
281.034	8631.83
281.102	8621.25
281.171	8614.89
281.239	8625.96
281.307	8617.35
281.375	8607.05
281.443	8631.02
281.512	8618.22
281.58	8616.72
281.648	8600.55
281.716	8595.26
281.784	8593.62
281.852	8587.51
281.92	8586.65
281.989	8591.51
282.057	8574.86
282.125	8620.73
282.193	8616.74
282.261	8613.85
282.329	8606.59
282.397	8607.79
282.465	8615.78
282.533	8624.87
282.601	8614.43
282.67	8590.7
282.738	8575.83
282.806	8582.62
282.874	8568.27
282.942	8575.35
283.01	8573.52
283.078	8577.75
283.146	8578.52
283.214	8591.95
283.282	8591.56
283.35	8601.91
283.418	8596.43
283.486	8602.59
283.554	8554.59
283.622	8561.28
283.69	8562.1
283.758	8557.91
283.826	8566.04
283.894	8573.02
283.962	8596.32
284.03	8608.44
284.098	8608.06
284.165	8601.8
284.233	8603.87
284.301	8598.63
284.369	8594.97
284.437	8587.9
284.505	8582.46
284.573	8591.79
284.641	8578.17
284.709	8589.1
284.777	8574.85
284.845	8581.49
284.912	8580.1
284.98	8584.38
285.048	8569.75
285.116	8578.65
285.184	8589.96
285.252	8591.84
285.319	8578.8
285.387	8563.68
285.455	8548.09
285.523	8559.02
285.591	8558.54
285.659	8559.45
285.726	8570.76
285.794	8555.84
285.862	8556.37
285.93	8556.42
285.997	8559.84
286.065	8554.45
286.133	8545.16
286.201	8536.55
286.269	8524.27
286.336	8517.44
286.404	8509.89
286.472	8524.47
286.539	8501.52
286.607	8487.17
286.675	8485.92
286.743	8493
286.81	8488.23
286.878	8504.79
286.946	8491.84
287.013	8493.81
287.081	8491.79
287.149	8471.82
287.216	8489.43
287.284	8480.39
287.352	8481.11
287.419	8473.02
287.487	8489.19
287.555	8489.63
287.622	8494.1
287.69	8500.79
287.758	8515.23
287.825	8518.4
287.893	8501.41
287.96	8507.67
288.028	8514.74
288.096	8519.56
288.163	8519.56
288.231	8508.68
288.298	8501.94
288.366	8517.53
288.433	8516.91
288.501	8510.27
288.569	8513.2
288.636	8504.01
288.704	8514.12
288.771	8522.54
288.839	8516.04
288.906	8508.34
288.974	8518.45
289.041	8515.08
289.109	8504.16
289.176	8509.64
289.244	8507.34
289.311	8521.96
289.379	8530.29
289.446	8537.22
289.514	8533.85
289.581	8534.14
289.649	8541.21
289.716	8549.35
289.783	8538.61
289.851	8554.11
289.918	8555.99
289.986	8565.51
290.053	8572.88
290.121	8574.46
290.188	8577.83
290.255	8601.61
290.323	8594.87
290.39	8589.77
290.458	8595.78
290.525	8606.71
290.592	8602.04
290.66	8607.96
290.727	8599.92
290.794	8619.08
290.862	8615.95
290.929	8614.17
290.996	8615.61
291.064	8624.42
291.131	8633.42
291.198	8648.29
291.266	8644.78
291.333	8645.5
291.4	8653.25
291.468	8670.48
291.535	8666.29
291.602	8665.33
291.669	8659.07
291.737	8667.06
291.804	8665.91
291.871	8675.72
291.938	8691.85
292.006	8722.71
292.073	8735.75
292.14	8748.74
292.207	8737.82
292.275	8738.4
292.342	8744.32
292.409	8768.91
292.476	8789.37
292.543	8779.41
292.611	8782.49
292.678	8800.49
292.745	8822.97
292.812	8835.96
292.879	8828.36
292.946	8829.18
293.014	8847.23
293.081	8857.19
293.148	8874.62
293.215	8887.32
293.282	8892.23
293.349	8897.09
293.416	8874.37
293.484	8884.62
293.551	8891.32
293.618	8903.93
293.685	8934.3
293.752	8935.36
293.819	8934.59
293.886	8918.9
293.953	8927.13
294.02	8933.58
294.087	8937.81
294.154	8935.98
294.221	8943.74
294.288	8948.89
294.356	8968
294.423	8968.48
294.49	8967.13
294.557	8974.21
294.624	8971.17
294.691	8985.38
294.758	8984.12
294.825	8998.61
294.892	8990.24
294.959	8992.21
295.026	9001.89
295.093	8996.45
295.16	9001.26
295.226	8997.99
295.293	9025.62
295.36	9029.86
295.427	9039.29
295.494	9056.34
295.561	9057.49
295.628	9085.28
295.695	9097.46
295.762	9102.27
295.829	9108.34
295.896	9117.2
295.963	9128.61
296.03	9141.03
296.096	9142.86
296.163	9157.5
296.23	9166.65
296.297	9180.99
296.364	9183.74
296.431	9186.91
296.498	9179.6
296.564	9206.6
296.631	9208.63
296.698	9191.15
296.765	9213.83
296.832	9211.23
296.899	9197.99
296.965	9224.18
297.032	9201.45
297.099	9218.49
297.166	9226.44
297.233	9227.5
297.299	9222.44
297.366	9222.73
297.433	9220.85
297.5	9236.79
297.566	9235.49
297.633	9233.23
297.7	9235.06
297.767	9230.44
297.833	9242.96
297.9	9251.14
297.967	9230.68
298.033	9246.71
298.1	9278.11
298.167	9267.27
298.234	9273.39
298.3	9277.58
298.367	9271.17
298.434	9271.65
298.5	9260.05
298.567	9253.6
298.634	9254.51
298.7	9272.32
298.767	9269.92
298.834	9283.06
298.9	9273.53
298.967	9267.41
299.033	9273.53
299.1	9292.07
299.167	9308.63
299.233	9304.73
299.3	9313.64
299.366	9331.4
299.433	9345.03
299.5	9323.84
299.566	9332.75
299.633	9350.62
299.699	9365.83
299.766	9358.37
299.832	9371.18
299.899	9383.12
299.965	9399.88
300.032	9401.13
300.099	9410.38
300.165	9418.95
300.232	9419
300.298	9424.63
300.365	9445.1
300.431	9449.19
300.498	9440.18
300.564	9444.47
300.631	9451.02
300.697	9465.22
300.763	9464.41
300.83	9461.47
300.896	9471.24
300.963	9483.38
301.029	9481.74
301.096	9490.02
301.162	9503.41
301.229	9492.29
301.295	9481.31
301.361	9480.78
301.428	9489.25
301.494	9478.99
301.561	9482.65
301.627	9481.98
301.693	9481.5
301.76	9475.96
301.826	9467.05
301.892	9478.71
301.959	9488.67
302.025	9491.56
302.092	9484.82
302.158	9492.14
302.224	9493.2
302.291	9487.23
302.357	9481.16
302.423	9480.3
302.49	9462.33
302.556	9471.43
302.622	9473.07
302.688	9484.77
302.755	9494.21
302.821	9498.4
302.887	9502.16
302.954	9496.57
303.02	9506.4
303.086	9512.7
303.152	9511.02
303.219	9508.61
303.285	9516.17
303.351	9521.66
303.417	9519.02
303.483	9514.3
303.55	9509.43
303.616	9508.13
303.682	9507.12
303.748	9498.31
303.815	9512.52
303.881	9528.12
303.947	9513.62
304.013	9518.82
304.079	9512.47
304.145	9498.98
304.212	9497.25
304.278	9486.61
304.344	9484.01
304.41	9475.34
304.476	9465.61
304.542	9455.74
304.608	9464.75
304.674	9443.6
304.741	9441.68
304.807	9442.45
304.873	9442.69
304.939	9452.99
305.005	9430.84
305.071	9431.37
305.137	9436.43
305.203	9405.17
305.269	9393.62
305.335	9409.07
305.401	9405.17
305.467	9402.86
305.533	9404.93
305.599	9410.28
305.666	9423.47
305.732	9430.74
305.798	9443.17
305.864	9470.28
305.93	9478.13
305.996	9474.23
306.062	9472.06
306.128	9463.88
306.194	9451.89
306.259	9446.98
306.325	9440.23
306.391	9453.43
306.457	9459.11
306.523	9453.28
306.589	9479.09
306.655	9477.41
306.721	9460.51
306.787	9450.15
306.853	9463.69
306.919	9448.57
306.985	9439.27
307.051	9428.73
307.117	9427.38
307.183	9419.19
307.248	9389.43
307.314	9400.41
307.38	9406.48
307.446	9409.89
307.512	9399.2
307.578	9401.9
307.644	9406.62
307.709	9408.31
307.775	9397.18
307.841	9390.83
307.907	9391.26
307.973	9372.24
308.039	9370.46
308.104	9376.57
308.17	9379.17
308.236	9360.34
308.302	9370.21
308.368	9357.69
308.433	9353.6
308.499	9338.34
308.565	9323.79
308.631	9327.65
308.696	9301.55
308.762	9284.21
308.828	9283.88
308.894	9270.4
308.959	9251.47
309.025	9240.01
309.091	9237.56
309.156	9236.93
309.222	9237.32
309.288	9225.52
309.354	9201.69
309.419	9198.61
309.485	9181.03
309.551	9182.77
309.616	9171.21
309.682	9163.32
309.748	9161.34
309.813	9166.64
309.879	9156.48
309.945	9142.76
310.01	9135.44
310.076	9137.27
310.141	9137.12
310.207	9118.2
310.273	9118.49
310.338	9134.14
310.404	9116.18
310.469	9103.52
310.535	9095.72
310.601	9074.68
310.666	9085.56
310.732	9089.22
310.797	9078.29
310.863	9066.4
310.928	9056.91
310.994	9063.7
311.059	9058.41
311.125	9054.99
311.191	9060.77
311.256	9052.39
311.322	9060.67
311.387	9039.3
311.453	9373.48
311.518	9347.14
311.584	9344.88
311.649	9353.02
311.715	9335.06
311.78	9337.76
311.846	9331.59
311.911	9336.84
311.976	9343.87
312.042	9320.33
312.107	9313.2
312.173	9305.16
312.238	9304.01
312.304	9307.52
312.369	9293.42
312.434	9281.05
312.5	9275.27
312.565	9234.54
312.631	9237.43
312.696	9229.49
312.761	9235.51
312.827	8892.86
312.892	8929.78
312.958	8931.99
313.023	8922.8
313.088	8917.98
313.154	8908.74
313.219	8893.82
313.284	8879.76
313.35	8870.28
313.415	8862.24
313.48	8861.47
313.546	8864.84
313.611	8870.81
313.676	8856.42
313.741	8850.3
313.807	8858.97
313.872	8861.28
313.937	8872.64
314.003	8883.95
314.068	8880.87
314.133	8883.61
314.198	8873.17
314.264	8850.49
314.329	8837.83
314.394	8837.11
314.459	8836.96
314.525	8849.09
314.59	8839.42
314.655	8829.94
314.72	8836.24
314.785	8844.86
314.851	8836.44
314.916	8819.3
314.981	8806.21
315.046	8796.73
315.111	8784.36
315.176	8772.08
315.242	8774.92
315.307	8772.85
315.372	8753.84
315.437	8744.55
315.502	8735.6
315.567	8744.45
315.632	8726.89
315.698	8730.3
315.763	8726.6
315.828	8718.42
315.893	8715.87
315.958	8715.62
316.023	8708.98
316.088	8691.46
316.153	8667.79
316.218	8654.89
316.283	8634.44
316.348	8614.13
316.413	8611.2
316.479	8598.69
316.544	8563.61
316.609	8529.54
316.674	8501.44
316.739	8466.41
316.804	8435.37
316.869	8405.4
316.934	8365.89
316.999	8338.61
317.064	8285.79
317.129	8241.81
317.194	8204.14
317.259	8152.08
317.324	8100.23
317.389	8052.37
317.454	8011.72
317.518	7969.73
317.583	7944.24
317.648	7921.49
317.713	7887.25
317.778	7821.45
317.843	7788.41
317.908	7757.83
317.973	7718.16
318.038	7685.36
318.103	7645.89
318.168	7615.02
318.233	7577.47
318.297	7525.21
318.362	7485.35
318.427	7448.58
318.492	7420.22
318.557	7370.23
318.622	7343.6
318.687	7326.73
318.751	7295.21
318.816	7261.03
318.881	7230.47
318.946	7181.78
319.011	7136.52
319.075	7095.34
319.14	7067.71
319.205	7026.82
319.27	6983.25
319.335	6941.12
319.399	6896.29
319.464	6866.61
319.529	6816.51
319.594	6775.96
319.658	6750.03
319.723	6711.85
319.788	6681.83
319.853	6622.67
319.917	6591.89
319.982	6539.16
320.047	6494.55
320.112	6460.32
320.176	6408.81
320.241	6379.86
320.306	6347.79
320.37	6308.67
320.435	6274.93
320.5	6244.64
320.564	6202.21
320.629	6167.47
320.694	6131.29
320.758	6092.9
320.823	6055.52
320.888	6024.29
320.952	5976.46
321.017	5934.58
321.082	5893.71
321.146	5857.59
321.211	5828.67
321.275	5786.62
321.34	5743.61
321.405	5702.76
321.469	5659.22
321.534	5623.65
321.598	5570.62
321.663	5543.52
321.727	5511.73
321.792	5463.23
321.857	5418.6
321.921	5381.21
321.986	5337.56
322.05	5282.23
322.115	5242.98
322.179	5196.6
322.244	5141.19
322.308	5110.38
322.373	5065.55
322.437	5027.04
322.502	5002.6
322.566	4956.34
322.631	4923.64
322.695	4882.18
322.76	4835.79
322.824	4803.52
322.889	4760.68
322.953	4718.57
323.018	4648.53
323.082	4587.47
323.146	4541.31
323.211	4487.2
323.275	4445.09
323.34	4399.46
323.404	4365.03
323.468	4321.02
323.533	4276.41
323.597	4234.39
323.662	4180.98
323.726	4145.93
323.79	4100.08
323.855	4032.41
323.919	3986.04
323.983	3940.87
324.048	3878.74
324.112	3998.3
324.177	3867.66
324.241	3663.91
324.305	3465.03
324.37	3271.89
324.434	3083.2
324.498	3039.04
324.562	2991.61
324.627	2929.27
324.691	2875.82
324.755	2811.68
324.82	2734.7
324.884	2658.13
324.948	2586.28
325.012	2494.1
325.077	2367.93
