Data from 20250702_urea_0.5M_MAYP1162681_10-04-59-731.txt Node
Date: Thu Jul 03 10:04:59 BST 2025
User: adleo
Spectrometer: MAYP116268
Trigger mode: 0
Integration Time (sec): 1.000000E0
Scans to average: 1
Electric dark correction enabled: true
Nonlinearity correction enabled: true
Boxcar width: 10
XAxis mode: Wavelengths
Number of Pixels in Spectrum: 2068
>>>>>Begin Spectral Data<<<<<
179.565	1168.91
179.642	1221.03
179.718	1266.29
179.795	1304.43
179.871	1332.7
179.948	1350.33
180.024	1369.76
180.101	1391.85
180.177	1406.36
180.254	1429.31
180.33	1450.73
180.407	1499.48
180.483	1590.51
180.56	1678.54
180.636	1760.25
180.712	1746.27
180.789	1758.01
180.865	1771.69
180.942	1781.25
181.018	1792.46
181.095	1803.59
181.171	1806.96
181.248	1806.72
181.324	1818.99
181.4	1827.59
181.477	1839.05
181.553	1851.88
181.63	1872.03
181.706	1884.44
181.782	1893.99
181.859	1892.61
181.935	1898.32
182.011	1893.85
182.088	1912.49
182.164	1929.99
182.24	1943.11
182.317	1954.38
182.393	1953.62
182.469	1965.98
182.546	1976.39
182.622	1981.38
182.698	1977.86
182.775	1990.75
182.851	2008.15
182.927	2001.26
183.003	1995.27
183.08	1991.8
183.156	2000.5
183.232	1997.6
183.308	1988.71
183.385	1995.17
183.461	2013.05
183.537	2012.34
183.613	2028.65
183.69	2019.09
183.766	2007.82
183.842	2012.48
183.918	2017.85
183.995	2031.21
184.071	2034.31
184.147	2029.5
184.223	2016.15
184.299	2030.7
184.375	2019.86
184.452	2024.67
184.528	2074.18
184.604	2084.73
184.68	2094.01
184.756	2100.52
184.832	2108.33
184.908	2113.55
184.985	2111.94
185.061	2096.1
185.137	2106.85
185.213	2095.15
185.289	2097.96
185.365	2090.35
185.441	2092.44
185.517	2105.39
185.593	2097.49
185.669	2094.78
185.745	2105.19
185.822	2124.54
185.898	2115.08
185.974	2124.87
186.05	2118.97
186.126	2085.49
186.202	2078.55
186.278	2077.83
186.354	2067.8
186.43	2069.56
186.506	2067.27
186.582	2068.7
186.658	2074.41
186.734	2054.91
186.81	2058
186.886	2058.19
186.962	2072.46
187.038	2068.84
187.114	2062.89
187.19	2072.21
187.266	2061.99
187.341	2062.56
187.417	2055.1
187.493	2054.81
187.569	2056.62
187.645	2050.15
187.721	2041.82
187.797	2050.1
187.873	2054.09
187.949	2049.96
188.025	2046.34
188.101	2049
188.176	2053.66
188.252	2052.29
188.328	2059.51
188.404	2060.89
188.48	2057.28
188.556	2050.33
188.632	2047.95
188.707	2045.53
188.783	2043.53
188.859	2039.68
188.935	2028.98
189.011	2037.11
189.086	2031.07
189.162	2024.51
189.238	2021.85
189.314	2017.76
189.39	2011.38
189.465	2005.53
189.541	2023.61
189.617	2006.54
189.693	2003.59
189.768	2003.92
189.844	2026.86
189.92	2018.87
189.996	2027.24
190.071	2037.99
190.147	2036.42
190.223	2044.98
190.298	2036.75
190.374	2024.44
190.45	2037.13
190.526	2047.45
190.601	2038.32
190.677	2038.61
190.753	2065.59
190.828	2071.44
190.904	2085.28
190.98	2101.26
191.055	2110.44
191.131	2101.59
191.207	2122.33
191.282	2134.27
191.358	2127.23
191.433	2111.57
191.509	2124.88
191.585	2121.93
191.66	2122.31
191.736	2131.54
191.811	2128.69
191.887	2146.96
191.963	2167.27
192.038	2168.6
192.114	2165.7
192.189	2173.35
192.265	2171.07
192.34	2147.85
192.416	2142.71
192.491	2136.62
192.567	2138.48
192.642	2139.14
192.718	2136.38
192.793	2127.73
192.869	2121.16
192.944	2124.16
193.02	2132.96
193.095	2137.91
193.171	2141.38
193.246	2142.24
193.322	2140.62
193.397	2137.53
193.473	2123.77
193.548	2108.88
193.624	2118.16
193.699	2118.16
193.775	2131.82
193.85	2133.96
193.925	2145.42
194.001	2147.04
194.076	2139.48
194.152	2125.63
194.227	2117.55
194.302	2109.27
194.378	2109.51
194.453	2107.18
194.529	2119.6
194.604	2105.33
194.679	2097.57
194.755	2079.03
194.83	2091.54
194.905	2088.21
194.981	2092.54
195.056	2082.51
195.131	2088.22
195.207	2084.79
195.282	2074.99
195.357	2055.72
195.433	2068.8
195.508	2055.25
195.583	2062.95
195.659	2076.89
195.734	2088.45
195.809	2089.02
195.884	2098.77
195.96	2102
196.035	2116.46
196.11	2111.56
196.185	2121.69
196.261	2124.98
196.336	2155.47
196.411	2141.38
196.486	2147.37
196.561	2143.47
196.637	2156.5
196.712	2172.21
196.787	2177.4
196.862	2195.28
196.937	2206.22
197.013	2211.84
197.088	2219.3
197.163	2241.11
197.238	2259.48
197.313	2256.68
197.388	2268.62
197.464	2296.42
197.539	2304.7
197.614	2296.47
197.689	2309.84
197.764	2326.45
197.839	2347.54
197.914	2341.54
197.989	2361.86
198.065	2376.24
198.14	2425.34
198.215	2446.95
198.29	2456.76
198.365	2469.72
198.44	2479.43
198.515	2506.76
198.59	2524.62
198.665	2553.04
198.74	2560.57
198.815	2562.24
198.89	2587.28
198.965	2616.96
199.04	2614.34
199.115	2630.15
199.19	2670.82
199.265	2672.05
199.34	2682.15
199.415	2719
199.49	2738.81
199.565	2748.86
199.64	2770.97
199.715	2772.4
199.79	2783.17
199.865	2790.94
199.94	2787.36
200.015	2819.44
200.09	2825.01
200.165	2831.59
200.24	2839.6
200.315	2879.57
200.39	2893.44
200.464	2897.4
200.539	2902.59
200.614	2917.98
200.689	2942.39
200.764	2951.93
200.839	2971.84
200.914	2976.51
200.989	2959.39
201.063	2976.26
201.138	2959.5
201.213	2959.45
201.288	2938.05
201.363	2942.77
201.438	2944.29
201.512	2959.2
201.587	2941.09
201.662	2943.47
201.737	2954.86
201.812	2960.63
201.886	2924.95
201.961	2935.92
202.036	2922.91
202.111	2917.71
202.186	2893.13
202.26	2876.78
202.335	2853.99
202.41	2846.75
202.485	2830.12
202.559	2813.68
202.634	2787.47
202.709	2799.52
202.784	2779.65
202.858	2781.56
202.933	2762.55
203.008	2754.07
203.082	2734.53
203.157	2733.82
203.232	2694.15
203.306	2671.18
203.381	2640.02
203.456	2617.82
203.53	2592.17
203.605	2575.08
203.68	2553.88
203.754	2542.98
203.829	2527.5
203.904	2508.98
203.978	2494.93
204.053	2498.45
204.127	2486.55
204.202	2486.64
204.277	2465.84
204.351	2458.5
204.426	2450.74
204.5	2441.64
204.575	2411.04
204.65	2422.9
204.724	2413.23
204.799	2419.17
204.873	2415.41
204.948	2415.32
205.022	2406.46
205.097	2399.94
205.171	2413.12
205.246	2418.98
205.32	2420.31
205.395	2420.5
205.469	2412.56
205.544	2418.75
205.618	2401.85
205.693	2415.13
205.767	2399.95
205.842	2420.56
205.916	2415.47
205.991	2404.9
206.065	2409.19
206.14	2424.36
206.214	2416.51
206.289	2412.6
206.363	2426.64
206.438	2429.74
206.512	2437.69
206.586	2457.83
206.661	2466.12
206.735	2445.84
206.81	2449.8
206.884	2463.89
206.958	2453.61
207.033	2468.79
207.107	2480.41
207.181	2515.13
207.256	2506.47
207.33	2528.23
207.405	2543.72
207.479	2564.38
207.553	2573.05
207.628	2560.1
207.702	2570.91
207.776	2570
207.851	2573.05
207.925	2589.68
207.999	2590.77
208.073	2591.16
208.148	2592.39
208.222	2585.92
208.296	2619.57
208.371	2638.4
208.445	2652.93
208.519	2682.7
208.593	2701.8
208.668	2705.33
208.742	2709.95
208.816	2721.91
208.89	2741.83
208.965	2747.36
209.039	2764.66
209.113	2791.64
209.187	2822.73
209.261	2832.74
209.336	2861.47
209.41	2894.89
209.484	2905.66
209.558	2942.38
209.632	2971.55
209.707	3002.25
209.781	3039.34
209.855	3074.11
209.929	3108.86
210.003	3133.47
210.077	3157.46
210.151	3229.08
210.226	3282.54
210.3	3333.97
210.374	3380.62
210.448	3410.21
210.522	3451.94
210.596	3489.94
210.67	3531.52
210.744	3607.44
210.818	3669.11
210.892	3725.94
210.966	3754.73
211.041	3807.46
211.115	3840.56
211.189	3900.56
211.263	3950.48
211.337	3997.88
211.411	4052.47
211.485	4087.37
211.559	4145.19
211.633	4191.35
211.707	4201.35
211.781	4256.43
211.855	4272.59
211.929	4312.46
212.003	4345.2
212.077	4401.14
212.151	4463.63
212.225	4524.25
212.299	4565.14
212.373	4609.83
212.447	4655.79
212.52	4740.8
212.594	4801.23
212.668	4870.83
212.742	4916.61
212.816	4971.06
212.89	5027.13
212.964	5087.03
213.038	5152.67
213.112	5225.75
213.186	5300.91
213.26	5344.25
213.333	5362.42
213.407	5428.29
213.481	5498.48
213.555	5574.85
213.629	5627.16
213.703	5675.12
213.777	5739.63
213.85	5793.59
213.924	5893.05
213.998	5964.2
214.072	6022.47
214.146	6075.15
214.219	6137.24
214.293	6199.62
214.367	6275.74
214.441	6345.09
214.515	6398.82
214.588	6443.22
214.662	6480.24
214.736	6528.15
214.81	6606.62
214.883	6681.41
214.957	6738.49
215.031	6788.86
215.105	6833.03
215.178	6884.52
215.252	6940.86
215.326	6979.05
215.4	7026.71
215.473	7042.52
215.547	7087.74
215.621	7137.11
215.694	7212.19
215.768	7254.82
215.842	7301.82
215.915	7349.66
215.989	7391.82
216.063	7446.72
216.136	7509.32
216.21	7567.44
216.284	7633.93
216.357	7695.39
216.431	7759.92
216.504	7830.86
216.578	7921.42
216.652	7994.65
216.725	8062.67
216.799	8138.39
216.873	8210.26
216.946	8278.04
217.02	8342.45
217.093	8406.93
217.167	8447.15
217.24	8483.63
217.314	8544.69
217.387	8607.43
217.461	8656.04
217.535	8732.18
217.608	8782.86
217.682	8847.41
217.755	8921.82
217.829	8975.5
217.902	9036.3
217.976	9087.14
218.049	9135.28
218.123	9181.36
218.196	9247.27
218.27	9300.19
218.343	9346.13
218.417	9403.01
218.49	9459.49
218.563	9528.21
218.637	9591.59
218.71	9683.63
218.784	9755.44
218.857	9828.89
218.931	9898.92
219.004	9966.06
219.077	10029.03
219.151	10093.91
219.224	10147.77
219.298	10207.22
219.371	10284.59
219.444	10327.89
219.518	10398.43
219.591	10463.22
219.665	10548.75
219.738	10611.39
219.811	10660.19
219.885	10729.87
219.958	10799.74
220.031	10865.22
220.105	10933.75
220.178	10990.9
220.251	11038.03
220.325	11108.01
220.398	11164.49
220.471	11219.47
220.544	11296
220.618	11354.95
220.691	11424.2
220.764	11489.17
220.838	11555.1
220.911	11615.74
220.984	11705.81
221.057	11764.66
221.131	11829.1
221.204	11857.59
221.277	11940.88
221.35	12037.33
221.424	12094.01
221.497	12152.82
221.57	12209.46
221.643	12271.5
221.716	12344.47
221.79	12396.77
221.863	12449.27
221.936	12508.95
222.009	12577.39
222.082	12631.96
222.155	12679.44
222.229	12753
222.302	12813.02
222.375	12868.31
222.448	12926.4
222.521	12978.37
222.594	13032.65
222.667	13081.14
222.74	13146.7
222.814	13185.84
222.887	13237.76
222.96	13306.6
223.033	13366.76
223.106	13421.43
223.179	13476.09
223.252	13532.35
223.325	13596.03
223.398	13650.55
223.471	13706.42
223.544	13758.39
223.617	13812.43
223.69	13874.71
223.763	13911.59
223.837	13970.26
223.91	14026.37
223.983	14055.49
224.056	14091.11
224.129	14149.05
224.202	14203.14
224.275	14252.79
224.348	14290.78
224.42	14314.69
224.493	14329.83
224.566	14366.46
224.639	14423.78
224.712	14462.68
224.785	14490.64
224.858	14529.64
224.931	14560.87
225.004	14589.27
225.077	14635.35
225.15	14650.97
225.223	14695.8
225.296	14762.46
225.369	14776.01
225.442	14810.91
225.514	14865.67
225.587	14915.12
225.66	14956.67
225.733	15008.88
225.806	15047.92
225.879	15093.04
225.952	15132.76
226.025	15199.67
226.097	15258.23
226.17	15294.48
226.243	15322.97
226.316	15367.02
226.389	15412.33
226.461	15473.21
226.534	15527.34
226.607	15560.94
226.68	15626.68
226.753	15662.83
226.825	15679.46
226.898	15746.13
226.971	15782.71
227.044	15824.55
227.117	15860.36
227.189	15905.67
227.262	15954.88
227.335	16001.68
227.407	16038.89
227.48	16085.26
227.553	16121.84
227.626	16153.31
227.698	16195.82
227.771	16242.96
227.844	16273.28
227.916	16304.51
227.989	16316.08
228.062	16345.77
228.134	16400.47
228.207	16425.73
228.28	16453.15
228.352	16479.27
228.425	16512.87
228.498	16551.95
228.57	16577.4
228.643	16625.02
228.716	16656.3
228.788	16677.17
228.861	16704.93
228.934	16750.23
229.006	16782.33
229.079	16815.44
229.151	16840.64
229.224	16847.34
229.296	16875.83
229.369	16931.35
229.442	16979.25
229.514	17009.71
229.587	17060.46
229.659	17072.03
229.732	17119.5
229.804	17164.03
229.877	17229.81
229.949	17267.98
230.022	17319.31
230.094	17350.2
230.167	17383.55
230.239	17392.95
230.312	17426.1
230.384	17471.11
230.457	17498.78
230.529	17529.43
230.602	17560.46
230.674	17593.86
230.747	17645.91
230.819	17684.85
230.892	17680.7
230.964	17706.63
231.037	17752.03
231.109	17766.39
231.181	17802.77
231.254	17819.01
231.326	17835.88
231.399	17846.92
231.471	17860.22
231.544	17859.01
231.616	17892.6
231.688	17916.51
231.761	17946.82
231.833	17960.02
231.905	17957.66
231.978	17971.4
232.05	17988.17
232.122	18006.53
232.195	18014.67
232.267	18035.88
232.339	18051.39
232.412	18093.61
232.484	18106.62
232.556	18103.73
232.629	18141.08
232.701	18164.59
232.773	18172.69
232.846	18182.91
232.918	18192.98
232.99	18215.1
233.062	18240.4
233.135	18254.61
233.207	18254.52
233.279	18280.49
233.351	18296.78
233.424	18302.42
233.496	18307.62
233.568	18332.39
233.64	18328.49
233.713	18343.72
233.785	18348.83
233.857	18361.79
233.929	18342.22
234.001	18365.35
234.074	18397.11
234.146	18382.22
234.218	18377.45
234.29	18381.55
234.362	18379.14
234.434	18366.46
234.507	18353.98
234.579	18335.52
234.651	18328.01
234.723	18329.98
234.795	18327.96
234.867	18326.8
234.939	18359.09
235.012	18370.9
235.084	18380.25
235.156	18392.24
235.228	18382.94
235.3	18385.4
235.372	18383.28
235.444	18401.3
235.516	18374.56
235.588	18366.22
235.66	18368.49
235.732	18354.75
235.804	18412.1
235.876	18422.56
235.948	18426.27
236.02	18428
236.092	18425.59
236.164	18417.98
236.236	18419.71
236.308	18406.8
236.38	18408.53
236.452	18387.67
236.524	18379.76
236.596	18389.84
236.668	18383.76
236.74	18375.86
236.812	18361.74
236.884	18354.08
236.956	18348.54
237.028	18336.15
237.1	18318.61
237.172	18328.01
237.244	18340.15
237.316	18282.08
237.388	18263.34
237.46	18254.42
237.532	18255.67
237.604	18249.84
237.675	18256.44
237.747	18252.2
237.819	18240.49
237.891	18231.92
237.963	18205.55
238.035	18190.28
238.107	18127.92
238.178	18136.98
238.25	18127.34
238.322	18144.79
238.394	18109.22
238.466	18088.35
238.538	18074.48
238.609	18065.37
238.681	18023.97
238.753	17999.49
238.825	17989.9
238.897	17980.6
238.968	17989.27
239.04	17961.9
239.112	17963.93
239.184	17941.71
239.255	17918.29
239.327	17901.71
239.399	17882.43
239.471	17879.78
239.542	17860.75
239.614	17869.76
239.686	17817.18
239.758	17810.63
239.829	17775.45
239.901	17771.02
239.973	17753.14
240.044	17750.53
240.116	17731.88
240.188	17718.15
240.259	17696.56
240.331	17667.07
240.403	17650.54
240.474	17602.3
240.546	17569.19
240.618	17526.92
240.689	17495.5
240.761	17471.45
240.833	17462.78
240.904	17431.31
240.976	17402.59
241.048	17382.78
241.119	17357.48
241.191	17337.33
241.262	17326.39
241.334	17295.84
241.405	17276.37
241.477	17246.78
241.549	17215.55
241.62	17195.98
241.692	17174.15
241.763	17162.68
241.835	17140.8
241.906	17116.99
241.978	17078.77
242.049	17063.83
242.121	17058.48
242.192	17047.54
242.264	17006.72
242.335	16965.71
242.407	16952.5
242.478	16920.31
242.55	16898.67
242.621	16869.13
242.693	16845.51
242.764	16810.47
242.836	16773.51
242.907	16747.82
242.979	16725.12
243.05	16705.55
243.122	16682.37
243.193	16647.19
243.264	16597.64
243.336	16571.81
243.407	16550.99
243.479	16545.69
243.55	16524.67
243.622	16485.73
243.693	16459.03
243.764	16449.58
243.836	16410.25
243.907	16372.42
243.978	16342.68
244.05	16313.47
244.121	16262.87
244.192	16242.14
244.264	16197.12
244.335	16178.62
244.407	16128.15
244.478	16101.69
244.549	16059.52
244.62	16014.79
244.692	15983.94
244.763	15961.63
244.834	15925.81
244.906	15893.81
244.977	15871.74
245.048	15862.91
245.119	15835.01
245.191	15797.17
245.262	15745.89
245.333	15740.73
245.405	15707.95
245.476	15691.81
245.547	15670.02
245.618	15666.93
245.689	15643.03
245.761	15624.08
245.832	15592.66
245.903	15585.48
245.974	15564.12
246.045	15533.76
246.117	15517.99
246.188	15483.87
246.259	15444.87
246.33	15415.37
246.401	15373
246.473	15326.44
246.544	15279.64
246.615	15255.39
246.686	15214.18
246.757	15200.49
246.828	15156.77
246.899	15149.01
246.97	15097.48
247.042	15055.2
247.113	15019.05
247.184	14996.69
247.255	14953.06
247.326	14927.56
247.397	14891.31
247.468	14865.14
247.539	14834.67
247.61	14789.8
247.681	14766.95
247.752	14755.19
247.823	14719.23
247.894	14700.33
247.965	14668.22
248.037	14640.6
248.108	14595.53
248.179	14568.59
248.25	14534.65
248.321	14514.31
248.392	14479.79
248.463	14474.92
248.534	14457.76
248.605	14441.61
248.675	14417.56
248.746	14407.78
248.817	14385.17
248.888	14366.41
248.959	14319.41
249.03	14305.58
249.101	14284.42
249.172	14259.88
249.243	14212.45
249.314	14196.97
249.385	14173.98
249.456	14152.48
249.527	14122.25
249.598	14107.69
249.669	14081.86
249.739	14066.67
249.81	14043.58
249.881	14001.83
249.952	13978.94
250.023	13944.85
250.094	13902.82
250.165	13861.07
250.235	13825.98
250.306	13798.74
250.377	13764.56
250.448	13743.59
250.519	13695.29
250.59	13687.72
250.66	13657.64
250.731	13651.61
250.802	13628.81
250.873	13606.69
250.944	13581.28
251.014	13549.66
251.085	13547.2
251.156	13534.91
251.227	13524.54
251.297	13517.26
251.368	13503.28
251.439	13484.96
251.51	13464.24
251.58	13436.9
251.651	13409.04
251.722	13397.47
251.792	13361.6
251.863	13330.75
251.934	13329.16
252.005	13333.11
252.075	13308.38
252.146	13300.57
252.217	13294.07
252.287	13279.22
252.358	13251.16
252.429	13249.23
252.499	13229.23
252.57	13202.76
252.641	13187.29
252.711	13161.45
252.782	13112.86
252.852	13107.36
252.923	13080.08
252.994	13070.97
253.064	13057.32
253.135	13028.4
253.205	12993.74
253.276	12985.84
253.347	12980.77
253.417	12945.15
253.488	12919.02
253.558	12887.69
253.629	12857.7
253.699	12828.93
253.77	12811.33
253.841	12785.59
253.911	12760.47
253.982	12740.85
254.052	12728.37
254.123	12707.98
254.193	12679.78
254.264	12704.36
254.334	12672.45
254.405	12642.03
254.475	12598.79
254.546	12574.79
254.616	12572.33
254.687	12564.52
254.757	12547.65
254.827	12526.82
254.898	12506.24
254.968	12480.45
255.039	12453.84
255.109	12439.53
255.18	12412.73
255.25	12366.93
255.321	12350.93
255.391	12315.07
255.461	12310.87
255.532	12263.54
255.602	12233.94
255.673	12199.57
255.743	12152.81
255.813	12109.57
255.884	12104.08
255.954	12094.29
256.024	12085.52
256.095	12059.49
256.165	12023.58
256.235	12001.99
256.306	11970.27
256.376	11960.53
256.446	11950.56
256.517	11941.11
256.587	11930.99
256.657	11910.45
256.728	11903.61
256.798	11886.55
256.868	11870.74
256.938	11841.67
257.009	11827.89
257.079	11815.79
257.149	11814.82
257.219	11783.64
257.29	11769.85
257.36	11727.54
257.43	11710.86
257.5	11677.36
257.571	11656.59
257.641	11646.9
257.711	11623.86
257.781	11618.32
257.852	11609.45
257.922	11580.05
257.992	11560.34
258.062	11541.01
258.132	11528.48
258.202	11506.16
258.273	11494.59
258.343	11488.33
258.413	11464.52
258.483	11452.52
258.553	11425.63
258.623	11406.83
258.693	11397.29
258.764	11395.21
258.834	11392.76
258.904	11381
258.974	11361.19
259.044	11343.84
259.114	11333.72
259.184	11313.19
259.254	11290.54
259.324	11248.32
259.394	11236.17
259.464	11231.74
259.535	11209.09
259.605	11186.44
259.675	11157.28
259.745	11141.04
259.815	11114.29
259.885	11086.35
259.955	11092.61
260.025	11064.13
260.095	11044.71
260.165	11025.34
260.235	11025.58
260.305	11004.18
260.375	10978.88
260.445	10976.71
260.515	10970.55
260.585	10959.61
260.655	10944.19
260.725	10942.69
260.795	10934.74
260.865	10935.56
260.934	10912.48
261.004	10903.13
261.074	10890.79
261.144	10893.25
261.214	10885.49
261.284	10866.02
261.354	10865.2
261.424	10839.32
261.494	10849.15
261.564	10827.33
261.634	10823.37
261.703	10784.87
261.773	10771.19
261.843	10760.35
261.913	10743.82
261.983	10707.1
262.053	10696.17
262.123	10681.28
262.192	10643.55
262.262	10636.56
262.332	10602.21
262.402	10591.51
262.472	10573.92
262.541	10539.62
262.611	10527.24
262.681	10496.4
262.751	10496.64
262.821	10474.04
262.89	10437.18
262.96	10427.35
263.03	10436.03
263.1	10423.02
263.169	10410.49
263.239	10403.17
263.309	10402.01
263.379	10393.15
263.448	10394.74
263.518	10383.41
263.588	10368.04
263.657	10368.91
263.727	10359.76
263.797	10349.11
263.867	10328.68
263.936	10300.74
264.006	10290.77
264.076	10278.58
264.145	10266.54
264.215	10244.57
264.285	10244.52
264.354	10221.64
264.424	10183.34
264.494	10147.54
264.563	10131.5
264.633	10139.74
264.702	10129
264.772	10092.14
264.842	10077.21
264.911	10063.24
264.981	10039.3
265.05	10024.46
265.12	10010.73
265.19	10001.67
265.259	9994.06
265.329	9987.85
265.398	9980.48
265.468	9995.6
265.537	9977.2
265.607	9966.51
265.676	9956.06
265.746	9952.11
265.815	9948.83
265.885	9941.46
265.955	9920.08
266.024	9892.86
266.094	9857.12
266.163	9850.47
266.232	9856.06
266.302	9837.76
266.371	9833.33
266.441	9815.7
266.51	9811.55
266.58	9793.35
266.649	9765.89
266.719	9764.83
266.788	9756.98
266.858	9755.78
266.927	9721.39
266.996	9714.31
267.066	9709.06
267.135	9689.26
267.205	9675.44
267.274	9669.71
267.343	9670
267.413	9661.57
267.482	9670.72
267.552	9672.94
267.621	9644.91
267.69	9622.42
267.76	9609.51
267.829	9592.22
267.898	9580.13
267.968	9556.1
268.037	9554.85
268.106	9556.39
268.176	9528.26
268.245	9513.14
268.314	9496.14
268.384	9494.5
268.453	9483
268.522	9474.95
268.592	9472.5
268.661	9453.47
268.73	9443.79
268.799	9425.74
268.869	9434.6
268.938	9403.97
269.007	9380.18
269.076	9371.32
269.146	9369.06
269.215	9368.38
269.284	9373.73
269.353	9355.77
269.422	9347.83
269.492	9326.74
269.561	9287.21
269.63	9283.88
269.699	9269.2
269.768	9261.73
269.838	9259.47
269.907	9253.16
269.976	9222.93
270.045	9197.55
270.114	9188.21
270.183	9171.02
270.253	9163.8
270.322	9132.7
270.391	9123.36
270.46	9124.32
270.529	9130.53
270.598	9127.55
270.667	9112.72
270.736	9091
270.806	9085.03
270.875	9087.39
270.944	9082.53
271.013	9103.71
271.082	9093.12
271.151	9090.04
271.22	9059.37
271.289	9047.29
271.358	9035.88
271.427	9036.7
271.496	9024.91
271.565	9013.88
271.634	9001.22
271.703	9028.33
271.772	9031.41
271.841	9019.95
271.91	8999.83
271.979	8988.08
272.048	8960.6
272.117	8957.8
272.186	8940.57
272.255	8941.05
272.324	8931.62
272.393	8919
272.462	8899.7
272.531	8892.86
272.6	8878.52
272.669	8886.17
272.738	8876.97
272.807	8867.3
272.876	8846.89
272.945	8872.79
273.013	8877.89
273.082	8890.26
273.151	8845.78
273.22	8839.66
273.289	8832.59
273.358	8842.6
273.427	8825.75
273.496	8831.34
273.564	8828.98
273.633	8831.29
273.702	8812.52
273.771	8808.04
273.84	8806.6
273.909	8804.38
273.977	8804.86
274.046	8795.38
274.115	8798.27
274.184	8773
274.253	8769.01
274.322	8781.09
274.39	8749.42
274.459	8730.6
274.528	8701.19
274.597	8692.72
274.665	8693.25
274.734	8697.72
274.803	8685.5
274.872	8679.82
274.94	8660.52
275.009	8715.27
275.078	8698.09
275.147	8697.76
275.215	8689.48
275.284	8693.38
275.353	8684.28
275.421	8657.04
275.49	8672.06
275.559	8665.7
275.627	8662.86
275.696	8655.5
275.765	8646.26
275.833	8636.88
275.902	8633.8
275.971	8645.06
276.039	8663.68
276.108	8663.88
276.177	8666.04
276.245	8655.21
276.314	8648.91
276.383	8657.91
276.451	8586.6
276.52	8596.85
276.588	8607.53
276.657	8611.91
276.725	8603.35
276.794	8601.76
276.863	8616.48
276.931	8593.14
277	8594.49
277.068	8606.47
277.137	8621.05
277.205	8623.84
277.274	8647.86
277.342	8658.93
277.411	8643.29
277.48	8630.44
277.548	8619.37
277.617	8617.73
277.685	8611.62
277.754	8616.96
277.822	8611.28
277.89	8630.25
277.959	8618.07
278.027	8597.47
278.096	8587.94
278.164	8614.08
278.233	8612.06
278.301	8598.44
278.37	8603.4
278.438	8592.81
278.507	8589.2
278.575	8561.72
278.643	8551.71
278.712	8528.66
278.78	8512.97
278.849	8515.33
278.917	8520.96
278.985	8515.24
279.054	8513.89
279.122	8532.61
279.191	8533.96
279.259	8527.99
279.327	8511
279.396	8528.47
279.464	8522.02
279.532	8529.72
279.601	8519.32
279.669	8513.93
279.737	8525
279.806	8528.08
279.874	8535.11
279.942	8539.82
280.011	8544.34
280.079	8552.67
280.147	8563.21
280.215	8567.88
280.284	8565.52
280.352	8544.1
280.42	8552.62
280.488	8540.49
280.557	8528.13
280.625	8529.86
280.693	8530.1
280.761	8528.27
280.83	8504.98
280.898	8522.97
280.966	8499.78
281.034	8467.68
281.102	8450.94
281.171	8445.69
281.239	8450.65
281.307	8443.82
281.375	8428.52
281.443	8445.65
281.512	8445.07
281.58	8450.36
281.648	8438.82
281.716	8435.79
281.784	8440.93
281.852	8436.46
281.92	8436.89
281.989	8443.15
282.057	8425.97
282.125	8475.5
282.193	8471.94
282.261	8476.94
282.329	8468.86
282.397	8475.21
282.465	8480.36
282.533	8496.67
282.601	8487.14
282.67	8466.11
282.738	8454.32
282.806	8465.25
282.874	8451.82
282.942	8447.63
283.01	8451.87
283.078	8457.59
283.146	8458.07
283.214	8466.4
283.282	8463.61
283.35	8478
283.418	8473.09
283.486	8478.57
283.554	8430.29
283.622	8430.05
283.69	8430.82
283.758	8430.19
283.826	8435.82
283.894	8453.2
283.962	8472.21
284.03	8486.5
284.098	8487.75
284.165	8488.33
284.233	8493.19
284.301	8487.89
284.369	8478.75
284.437	8466.38
284.505	8461.38
284.573	8481.97
284.641	8469.03
284.709	8480.15
284.777	8464.03
284.845	8470.52
284.912	8472.83
284.98	8471.49
285.048	8466.39
285.116	8471.44
285.184	8483.95
285.252	8479.81
285.319	8456.28
285.387	8441.6
285.455	8419.9
285.523	8423.7
285.591	8419.66
285.659	8412.25
285.726	8425.96
285.794	8417.55
285.862	8412.16
285.93	8407.97
285.997	8399.26
286.065	8402.15
286.133	8388.58
286.201	8385.88
286.269	8371.93
286.336	8365.91
286.404	8366.06
286.472	8372.89
286.539	8346.43
286.607	8330.69
286.675	8333.77
286.743	8344.93
286.81	8338.53
286.878	8356.72
286.946	8351.62
287.013	8354.32
287.081	8355.66
287.149	8340.26
287.216	8356.05
287.284	8351.72
287.352	8353.35
287.419	8347.82
287.487	8356.38
287.555	8365.57
287.622	8358.5
287.69	8360.67
287.758	8372.6
287.825	8369.18
287.893	8359.18
287.96	8372.69
288.028	8382.08
288.096	8381.55
288.163	8383.04
288.231	8383.09
288.298	8378.37
288.366	8394.49
288.433	8389.58
288.501	8382.66
288.569	8385.35
288.636	8378.04
288.704	8391.12
288.771	8401.28
288.839	8395.55
288.906	8389.01
288.974	8395.7
289.041	8401.42
289.109	8393.15
289.176	8403.16
289.244	8405.13
289.311	8420.1
289.379	8429.81
289.446	8435.64
289.514	8441.51
289.581	8436.31
289.649	8433.57
289.716	8438.38
289.783	8428.32
289.851	8451.18
289.918	8448
289.986	8455.99
290.053	8461.62
290.121	8464.17
290.188	8466.05
290.255	8494.68
290.323	8492.52
290.39	8482.89
290.458	8486.55
290.525	8500.02
290.592	8487.51
290.66	8489.05
290.727	8477.88
290.794	8492.8
290.862	8483.99
290.929	8485.49
290.996	8489.67
291.064	8496.65
291.131	8503.58
291.198	8515.08
291.266	8513.97
291.333	8519.22
291.4	8529.23
291.468	8550.02
291.535	8539.43
291.602	8541.7
291.669	8533.51
291.737	8542.13
291.804	8541.89
291.871	8554.35
291.938	8569.46
292.006	8601.37
292.073	8615.62
292.14	8630.63
292.207	8620.67
292.275	8624.23
292.342	8630.73
292.409	8655.18
292.476	8683.87
292.543	8679.63
292.611	8682.57
292.678	8697.87
292.745	8723.33
292.812	8732.14
292.879	8730.79
292.946	8738.64
293.014	8754.18
293.081	8760.01
293.148	8768.48
293.215	8787.01
293.282	8787.25
293.349	8790.47
293.416	8773.96
293.484	8789.7
293.551	8798.8
293.618	8817.14
293.685	8840.91
293.752	8835.76
293.819	8832.64
293.886	8818.72
293.953	8827.29
294.02	8839.52
294.087	8841.88
294.154	8835.43
294.221	8848.71
294.288	8845.97
294.356	8865.32
294.423	8869.41
294.49	8871
294.557	8888.91
294.624	8880.63
294.691	8898.68
294.758	8900.65
294.825	8902
294.892	8890.16
294.959	8890.93
295.026	8894.06
295.093	8889.96
295.16	8891.75
295.226	8892.95
295.293	8917.89
295.36	8921.83
295.427	8928.77
295.494	8943.74
295.561	8956.11
295.628	8975.95
295.695	8995.25
295.762	8992.94
295.829	9001.32
295.896	9014.7
295.963	9019.47
296.03	9030.25
296.096	9035.26
296.163	9045.13
296.23	9059.43
296.297	9073.67
296.364	9074.78
296.431	9081.28
296.498	9079.4
296.564	9101.4
296.631	9105.01
296.698	9087.05
296.765	9110.36
296.832	9102.08
296.899	9091.77
296.965	9106.31
297.032	9086.23
297.099	9102.94
297.166	9117.48
297.233	9119.26
297.299	9110.5
297.366	9109.06
297.433	9111.22
297.5	9125.09
297.566	9127.45
297.633	9126.58
297.7	9129.52
297.767	9127.93
297.833	9138.19
297.9	9139.87
297.967	9127.55
298.033	9142.14
298.1	9176.13
298.167	9170.16
298.234	9175.94
298.3	9178.97
298.367	9172.52
298.434	9179.5
298.5	9166.64
298.567	9160.19
298.634	9154.56
298.7	9167.17
298.767	9174.06
298.834	9189.22
298.9	9178.2
298.967	9171.6
299.033	9184.26
299.1	9199.77
299.167	9210.65
299.233	9204.72
299.3	9219.46
299.366	9238.52
299.433	9258.94
299.5	9228.6
299.566	9230.48
299.633	9247.48
299.699	9259.85
299.766	9260.62
299.832	9268.43
299.899	9270.01
299.965	9280.94
300.032	9276.47
300.099	9294.43
300.165	9300.16
300.232	9296.84
300.298	9301.07
300.365	9310.08
300.431	9312.34
300.498	9304.88
300.564	9317.35
300.631	9326.16
300.697	9342.96
300.763	9341.23
300.83	9326.93
300.896	9345.46
300.963	9355.48
301.029	9359.09
301.096	9366.12
301.162	9377.97
301.229	9374.84
301.295	9368.63
301.361	9372.82
301.428	9379.6
301.494	9355.67
301.561	9360.05
301.627	9362.32
301.693	9363.86
301.76	9369.78
301.826	9365.5
301.892	9375.37
301.959	9384.42
302.025	9382.93
302.092	9372.62
302.158	9380.28
302.224	9392.8
302.291	9387.98
302.357	9380.86
302.423	9374.5
302.49	9363.04
302.556	9370.46
302.622	9368.19
302.688	9386.11
302.755	9399.01
302.821	9413.17
302.887	9427.95
302.954	9422.12
303.02	9430.5
303.086	9436.81
303.152	9437.97
303.219	9434.69
303.285	9436.81
303.351	9437.24
303.417	9435.13
303.483	9429.35
303.55	9424.1
303.616	9418.46
303.682	9414.32
303.748	9409.94
303.815	9424.39
303.881	9439.89
303.947	9428.24
304.013	9430.7
304.079	9414.23
304.145	9396.84
304.212	9390.97
304.278	9384.85
304.344	9385.09
304.41	9375.99
304.476	9367.47
304.542	9361.55
304.608	9365.64
304.674	9350.67
304.741	9349.94
304.807	9358.76
304.873	9363.96
304.939	9380.04
305.005	9358.8
305.071	9359.14
305.137	9360.54
305.203	9339.78
305.269	9335.16
305.335	9344.31
305.401	9338.05
305.467	9340.99
305.533	9345.8
305.599	9354.47
305.666	9361.5
305.732	9360.49
305.798	9369.88
305.864	9392.17
305.93	9389.81
305.996	9390.01
306.062	9389.91
306.128	9380.38
306.194	9366.36
306.259	9360.83
306.325	9347.58
306.391	9361.45
306.457	9370.84
306.523	9375.32
306.589	9396.6
306.655	9382.35
306.721	9370.31
306.787	9355.29
306.853	9366.51
306.919	9351.63
306.985	9338.49
307.051	9333.57
307.117	9327.94
307.183	9322.5
307.248	9298.56
307.314	9307.23
307.38	9310.51
307.446	9324.33
307.512	9311.18
307.578	9316.24
307.644	9319.08
307.709	9323.36
307.775	9315.85
307.841	9310.03
307.907	9307.14
307.973	9278.68
308.039	9283.64
308.104	9287.73
308.17	9296.06
308.236	9288.02
308.302	9291.44
308.368	9283.2
308.433	9278.48
308.499	9274.73
308.565	9264.33
308.631	9268.32
308.696	9249.79
308.762	9239.43
308.828	9232.79
308.894	9220.75
308.959	9198.85
309.025	9184.6
309.091	9179.44
309.156	9172.13
309.222	9171.12
309.288	9158.65
309.354	9147.91
309.419	9142.57
309.485	9129.08
309.551	9130.96
309.616	9116.08
309.682	9115.65
309.748	9113.2
309.813	9106.6
309.879	9099.52
309.945	9084.17
310.01	9070.35
310.076	9075.98
310.141	9063.46
310.207	9050.7
310.273	9052
310.338	9054.07
310.404	9042.04
310.469	9028.7
310.535	9025.04
310.601	9005.11
310.666	9014.55
310.732	9021.48
310.797	9011.08
310.863	8993.37
310.928	8985.57
310.994	8988.94
311.059	8981.43
311.125	8975.12
311.191	8986.44
311.256	8970.84
311.322	8980.18
311.387	8963.57
311.453	9355.54
311.518	9333.25
311.584	9327.47
311.649	9333.11
311.715	9324.97
311.78	9328.05
311.846	9318.86
311.911	9318.28
311.976	9320.01
312.042	9306
312.107	9293.44
312.173	9287.42
312.238	9287.37
312.304	9287.33
312.369	9280.3
312.434	9271.54
312.5	9260.66
312.565	9227.35
312.631	9233.89
312.696	9228.31
312.761	9233.7
312.827	8828.83
312.892	8866.09
312.958	8864.26
313.023	8866.72
313.088	8867.68
313.154	8851.8
313.219	8839.96
313.284	8835.43
313.35	8825.85
313.415	8805.16
313.48	8800.15
313.546	8801.84
313.611	8810.4
313.676	8802.36
313.741	8790.81
313.807	8794.13
313.872	8801.88
313.937	8807.37
314.003	8820.27
314.068	8817.57
314.133	8824.7
314.198	8815.22
314.264	8795.33
314.329	8779.35
314.394	8772.95
314.459	8768.04
314.525	8785.99
314.59	8785.46
314.655	8770.98
314.72	8783.4
314.785	8792.11
314.851	8786.23
314.916	8767.22
314.981	8753.27
315.046	8742.53
315.111	8732.62
315.176	8717.79
315.242	8712.64
315.307	8717.75
315.372	8693.29
315.437	8682.9
315.502	8663.69
315.567	8672.4
315.632	8656.28
315.698	8659.99
315.763	8656.91
315.828	8648.29
315.893	8645.07
315.958	8645.6
316.023	8639.05
316.088	8615.23
316.153	8593.14
316.218	8587.7
316.283	8567.83
316.348	8551.62
316.413	8550.56
316.479	8532.61
316.544	8503.31
316.609	8480.5
316.674	8440.71
316.739	8403.86
316.804	8371.62
316.869	8339.39
316.934	8301.91
316.999	8275.49
317.064	8227
317.129	8180.66
317.194	8147.62
317.259	8096.91
317.324	8042.55
317.389	7998.88
317.454	7961.5
317.518	7932.6
317.583	7903.49
317.648	7885.75
317.713	7854.58
317.778	7792.34
317.843	7762.91
317.908	7726.66
317.973	7688.43
318.038	7661.07
318.103	7632.9
318.168	7601.69
318.233	7579.96
318.297	7528.96
318.362	7492.75
318.427	7457.81
318.492	7428.58
318.557	7382.49
318.622	7355.28
318.687	7333.27
318.751	7289.73
318.816	7260.12
318.881	7220.67
318.946	7169.87
319.011	7124.22
319.075	7080.78
319.14	7042.49
319.205	7000.21
319.27	6968.21
319.335	6925.46
319.399	6882.8
319.464	6848.21
319.529	6798.59
319.594	6756.8
319.658	6728.75
319.723	6684.33
319.788	6652.15
319.853	6603.36
319.917	6572.53
319.982	6518.18
320.047	6483.79
320.112	6457.73
320.176	6401.27
320.241	6373.04
320.306	6340.73
320.37	6298.69
320.435	6264.03
320.5	6240.08
320.564	6205.48
320.629	6167.09
320.694	6137.34
320.758	6099.14
320.823	6060.27
320.888	6033.5
320.952	5983.32
321.017	5944.03
321.082	5910.31
321.146	5879.75
321.211	5843.01
321.275	5802.58
321.34	5766.43
321.405	5716.32
321.469	5673.55
321.534	5636.31
321.598	5581.94
321.663	5553.07
321.727	5518.89
321.792	5473.59
321.857	5431.98
321.921	5391.19
321.986	5347.25
322.05	5287.22
322.115	5249.98
322.179	5208.2
322.244	5153.3
322.308	5120.06
322.373	5070.92
322.437	5023.02
322.502	4994.7
322.566	4952.94
322.631	4918.65
322.695	4877.71
322.76	4837.02
322.824	4805.9
322.889	4767.09
322.953	4727.08
323.018	4658.39
323.082	4598.63
323.146	4550.22
323.211	4493.66
323.275	4447.77
323.34	4405.45
323.404	4371.06
323.468	4326.14
323.533	4279.04
323.597	4233.53
323.662	4184.18
323.726	4150.81
323.79	4111.27
323.855	4046.99
323.919	3999.86
323.983	3952.63
324.048	3892.11
324.112	4026.47
324.177	3894.97
324.241	3691.84
324.305	3491.72
324.37	3300.3
324.434	3115.43
324.498	3071.48
324.562	3024.6
324.627	2967.93
324.691	2913.33
324.755	2852.54
324.82	2776.95
324.884	2702.96
324.948	2634.41
325.012	2544.15
325.077	2426.63
