Data from 20250702_urea_0.5M_MAYP1162681_07-45-00-402.txt Node
Date: Thu Jul 03 07:45:00 BST 2025
User: adleo
Spectrometer: MAYP116268
Trigger mode: 0
Integration Time (sec): 1.000000E0
Scans to average: 1
Electric dark correction enabled: true
Nonlinearity correction enabled: true
Boxcar width: 10
XAxis mode: Wavelengths
Number of Pixels in Spectrum: 2068
>>>>>Begin Spectral Data<<<<<
179.565	1187.77
179.642	1241.66
179.718	1283.96
179.795	1319.14
179.871	1350.03
179.948	1365.9
180.024	1385.13
180.101	1407.15
180.177	1420.14
180.254	1444.44
180.33	1466.82
180.407	1515.9
180.483	1608.45
180.56	1696.91
180.636	1779.47
180.712	1764.78
180.789	1775.95
180.865	1789.11
180.942	1794.91
181.018	1803.99
181.095	1816.35
181.171	1822.38
181.248	1824.14
181.324	1838.26
181.4	1848.91
181.477	1860.13
181.553	1873.86
181.63	1896.02
181.706	1911.99
181.782	1921.83
181.859	1920.17
181.935	1925.16
182.011	1922.45
182.088	1940.52
182.164	1960.69
182.24	1975.56
182.317	1987.59
182.393	1986.26
182.469	1998.24
182.546	2010.84
182.622	2014.55
182.698	2010.08
182.775	2021.92
182.851	2036.33
182.927	2031.05
183.003	2023.92
183.08	2018.74
183.156	2027.44
183.232	2021.78
183.308	2010.61
183.385	2017.26
183.461	2035.05
183.537	2036.62
183.613	2051.6
183.69	2038.85
183.766	2026.2
183.842	2033.19
183.918	2039.14
183.995	2051.45
184.071	2056.21
184.147	2055.83
184.223	2044.32
184.299	2054.31
184.375	2043.23
184.452	2048.47
184.528	2103.57
184.604	2112.79
184.68	2125.39
184.756	2133.39
184.832	2137.76
184.908	2144.18
184.985	2144.7
185.061	2129.1
185.137	2138.52
185.213	2125.59
185.289	2132.96
185.365	2127.87
185.441	2125.25
185.517	2136.86
185.593	2133.11
185.669	2130.16
185.745	2137.29
185.822	2155.79
185.898	2150.7
185.974	2158.73
186.05	2151.03
186.126	2110.81
186.202	2105.35
186.278	2101.35
186.354	2091.5
186.43	2099.16
186.506	2096.17
186.582	2096.98
186.658	2102.59
186.734	2080.95
186.81	2084.9
186.886	2084.42
186.962	2097.26
187.038	2092.65
187.114	2084.37
187.19	2091.55
187.266	2079.76
187.341	2080.52
187.417	2073.67
187.493	2073.19
187.569	2077.14
187.645	2072.81
187.721	2059.3
187.797	2066.91
187.873	2069.53
187.949	2064.2
188.025	2057.3
188.101	2057.97
188.176	2060.11
188.252	2053.45
188.328	2060.77
188.404	2061.87
188.48	2059.54
188.556	2052.64
188.632	2053.35
188.707	2052.88
188.783	2049.12
188.859	2047.45
188.935	2035.85
189.011	2043.89
189.086	2039.99
189.162	2033.28
189.238	2029.52
189.314	2029.1
189.39	2024.48
189.465	2016.59
189.541	2031.33
189.617	2017.26
189.693	2016.97
189.768	2022.16
189.844	2048.75
189.92	2041.76
189.996	2049.14
190.071	2057.17
190.147	2052.18
190.223	2061.31
190.298	2053.51
190.374	2045.33
190.45	2054.65
190.526	2063.59
190.601	2055.46
190.677	2056.79
190.753	2082.25
190.828	2083.73
190.904	2096.19
190.98	2110.41
191.055	2125.54
191.131	2119.07
191.207	2140.47
191.282	2147.75
191.358	2137.33
191.433	2122.82
191.509	2138.27
191.585	2134.46
191.66	2136.94
191.736	2145.83
191.811	2136.27
191.887	2152.3
191.963	2172
192.038	2179.71
192.114	2179.99
192.189	2185.27
192.265	2180.9
192.34	2160.48
192.416	2163.19
192.491	2161.43
192.567	2165.52
192.642	2163.48
192.718	2163.33
192.793	2150.58
192.869	2147.44
192.944	2150.92
193.02	2157.91
193.095	2157.81
193.171	2164.43
193.246	2162.86
193.322	2161
193.397	2161.57
193.473	2148.25
193.548	2129.65
193.624	2133.41
193.699	2130.79
193.775	2145.83
193.85	2146.35
193.925	2153.54
194.001	2152.11
194.076	2143.93
194.152	2132.98
194.227	2125.94
194.302	2116.48
194.378	2120.9
194.453	2117.43
194.529	2130.23
194.604	2117.19
194.679	2113.91
194.755	2095.46
194.83	2108.5
194.905	2108.59
194.981	2115.92
195.056	2108.26
195.131	2115.3
195.207	2115.68
195.282	2108.83
195.357	2089.9
195.433	2105.45
195.508	2093.75
195.583	2100.17
195.659	2112.73
195.734	2121.82
195.809	2123.15
195.884	2132.04
195.96	2132.56
196.035	2145.31
196.11	2142.22
196.185	2150.21
196.261	2154.01
196.336	2181.75
196.411	2165.61
196.486	2170.23
196.561	2167.42
196.637	2175.89
196.712	2192.45
196.787	2194.73
196.862	2208.34
196.937	2218.23
197.013	2224.09
197.088	2236.41
197.163	2258.64
197.238	2277.64
197.313	2275.78
197.388	2288.25
197.464	2319.58
197.539	2329
197.614	2324.43
197.689	2334.23
197.764	2352.99
197.839	2372.27
197.914	2372.17
197.989	2396.59
198.065	2409.25
198.14	2456.84
198.215	2486.16
198.29	2495.97
198.365	2507.16
198.44	2519.83
198.515	2549.78
198.59	2564.31
198.665	2587.83
198.74	2595.45
198.815	2597.07
198.89	2619.79
198.965	2650.62
199.04	2647.52
199.115	2664.57
199.19	2706.15
199.265	2707.29
199.34	2717.29
199.415	2752.9
199.49	2772.81
199.565	2779.24
199.64	2801.97
199.715	2802.83
199.79	2809.07
199.865	2816.17
199.94	2817.31
200.015	2845.62
200.09	2848.39
200.165	2855.01
200.24	2862.97
200.315	2903.95
200.39	2918.34
200.464	2921.73
200.539	2923.21
200.614	2936.88
200.689	2961.15
200.764	2969.59
200.839	2991.84
200.914	2996.08
200.989	2982.11
201.063	2995.6
201.138	2982.02
201.213	2982.17
201.288	2959.33
201.363	2964.53
201.438	2964.58
201.512	2977.87
201.587	2964.04
201.662	2968.38
201.737	2981.78
201.812	2987.31
201.886	2951.91
201.961	2960.88
202.036	2949.82
202.111	2946.01
202.186	2916.52
202.26	2895.88
202.335	2874.66
202.41	2864.37
202.485	2848.98
202.559	2828.06
202.634	2800.75
202.709	2810.75
202.784	2793.36
202.858	2797.74
202.933	2777.97
203.008	2774.73
203.082	2757.62
203.157	2755.81
203.232	2714.14
203.306	2690.88
203.381	2661.19
203.456	2638.71
203.53	2615.35
203.605	2600.02
203.68	2577.05
203.754	2572.43
203.829	2561.29
203.904	2540.47
203.978	2532.76
204.053	2536.23
204.127	2526.24
204.202	2522.09
204.277	2502.24
204.351	2495.38
204.426	2484.09
204.5	2474.9
204.575	2439.29
204.65	2448.06
204.724	2439.67
204.799	2443.96
204.873	2442.72
204.948	2442
205.022	2431.34
205.097	2424.05
205.171	2435.86
205.246	2444.2
205.32	2440.34
205.395	2438.2
205.469	2429.59
205.544	2434.35
205.618	2416.07
205.693	2427.3
205.767	2417.64
205.842	2439.78
205.916	2430.36
205.991	2420.55
206.065	2427.22
206.14	2441.78
206.214	2437.01
206.289	2428.58
206.363	2442.82
206.438	2444.29
206.512	2453.1
206.586	2473.1
206.661	2480.86
206.735	2458.97
206.81	2459.02
206.884	2477.77
206.958	2465.35
207.033	2481.24
207.107	2487.77
207.181	2521.01
207.256	2514.73
207.33	2533.49
207.405	2545.21
207.479	2570.93
207.553	2579.07
207.628	2569.02
207.702	2585.88
207.776	2582.83
207.851	2591.64
207.925	2611.27
207.999	2610.56
208.073	2608.99
208.148	2615.32
208.222	2607.61
208.296	2646.17
208.371	2668.24
208.445	2682.44
208.519	2717.4
208.593	2737.03
208.668	2738.89
208.742	2747.95
208.816	2757.81
208.89	2780.3
208.965	2789.65
209.039	2805.43
209.113	2834.79
209.187	2864.46
209.261	2867.6
209.336	2901.45
209.41	2934.06
209.484	2947.79
209.558	2984.84
209.632	3018.54
209.707	3047.2
209.781	3086.63
209.855	3118.79
209.929	3154.26
210.003	3183.93
210.077	3209.31
210.151	3280.36
210.226	3341.94
210.3	3396.77
210.374	3449.19
210.448	3480.74
210.522	3519.51
210.596	3564.49
210.67	3609.42
210.744	3691.01
210.818	3759.93
210.892	3818.03
210.966	3853.56
211.041	3912.76
211.115	3952.84
211.189	4015.39
211.263	4077.95
211.337	4130
211.411	4192.49
211.485	4236.35
211.559	4298.64
211.633	4349.3
211.707	4375.87
211.781	4436.23
211.855	4458.19
211.929	4508.4
212.003	4549.91
212.077	4621.52
212.151	4689.49
212.225	4756.17
212.299	4804.22
212.373	4858.79
212.447	4916.7
212.52	5005.73
212.594	5074.33
212.668	5151.97
212.742	5205.05
212.816	5264.08
212.89	5324.73
212.964	5388.83
213.038	5459.73
213.112	5541.81
213.186	5623.15
213.26	5667.05
213.333	5691.6
213.407	5767.39
213.481	5843.09
213.555	5929.28
213.629	5981.58
213.703	6039.35
213.777	6116.86
213.85	6173.06
213.924	6282.09
213.998	6359.15
214.072	6431.81
214.146	6489.23
214.219	6561.6
214.293	6634.04
214.367	6712.37
214.441	6805.26
214.515	6868.33
214.588	6917.52
214.662	6957.3
214.736	7013.55
214.81	7095.28
214.883	7176.16
214.957	7238.19
215.031	7292.48
215.105	7342.92
215.178	7407.13
215.252	7476.16
215.326	7524.57
215.4	7575.76
215.473	7598.27
215.547	7646.6
215.621	7703.07
215.694	7780.31
215.768	7829.75
215.842	7888.47
215.915	7943.41
215.989	7982.86
216.063	8044.1
216.136	8118.03
216.21	8185.14
216.284	8264.71
216.357	8339.29
216.431	8404.05
216.504	8480.56
216.578	8578.87
216.652	8658.98
216.725	8733.63
216.799	8804.78
216.873	8869.42
216.946	8949.36
217.02	9009.62
217.093	9077.11
217.167	9129.55
217.24	9182.61
217.314	9250.78
217.387	9303.4
217.461	9361.86
217.535	9448.44
217.608	9503.96
217.682	9569.31
217.755	9648.15
217.829	9705.85
217.902	9772.07
217.976	9841.72
218.049	9896.77
218.123	9945.52
218.196	10016.76
218.27	10077.65
218.343	10124.67
218.417	10193.51
218.49	10252.19
218.563	10336.54
218.637	10402.31
218.71	10478.24
218.784	10550.76
218.857	10622.94
218.931	10702.09
219.004	10768.92
219.077	10835.28
219.151	10905.63
219.224	10966.69
219.298	11025.86
219.371	11096.8
219.444	11141.76
219.518	11209.62
219.591	11282.29
219.665	11371.74
219.738	11435.5
219.811	11482.73
219.885	11556.71
219.958	11632.82
220.031	11695.28
220.105	11761.7
220.178	11822.24
220.251	11877.04
220.325	11941.48
220.398	12004.58
220.471	12072.21
220.544	12144.89
220.618	12191.51
220.691	12251.95
220.764	12321.6
220.838	12392.32
220.911	12451.51
220.984	12535.24
221.057	12607.79
221.131	12667.8
221.204	12695.71
221.277	12768.22
221.35	12868.29
221.424	12926.57
221.497	12982.78
221.57	13044.77
221.643	13099.29
221.716	13169.86
221.79	13226.7
221.863	13279.58
221.936	13332.37
222.009	13395.52
222.082	13456.26
222.155	13510.39
222.229	13590.9
222.302	13651.01
222.375	13705.05
222.448	13768.39
222.521	13830.48
222.594	13881.44
222.667	13928.68
222.74	13998.34
222.814	14050.01
222.887	14095.81
222.96	14164.41
223.033	14229
223.106	14289.69
223.179	14352.65
223.252	14403.17
223.325	14456.77
223.398	14515.87
223.471	14571.4
223.544	14618.98
223.617	14665.5
223.69	14723.39
223.763	14751.3
223.837	14798.06
223.91	14845.69
223.983	14875.62
224.056	14904.93
224.129	14951.54
224.202	15018.31
224.275	15057.98
224.348	15093.74
224.42	15125.75
224.493	15154.96
224.566	15189.76
224.639	15237.48
224.712	15273.3
224.785	15312.63
224.858	15351.96
224.931	15384.21
225.004	15417.95
225.077	15462.3
225.15	15483.84
225.223	15521.49
225.296	15598.03
225.369	15630.9
225.442	15660.64
225.514	15704.89
225.587	15753.77
225.66	15800.66
225.733	15840.38
225.806	15883.95
225.879	15915.67
225.952	15947.72
226.025	15996.55
226.097	16048.26
226.17	16092.46
226.243	16109.62
226.316	16151.02
226.389	16201.24
226.461	16249.78
226.534	16300.92
226.607	16327.62
226.68	16392.15
226.753	16434.28
226.825	16442.52
226.898	16488.16
226.971	16531.01
227.044	16574.19
227.117	16602.68
227.189	16644.61
227.262	16675.98
227.335	16715.79
227.407	16755.36
227.48	16797.68
227.553	16830.6
227.626	16855.9
227.698	16879.75
227.771	16927.95
227.844	16944.24
227.916	16974.31
227.989	16993.11
228.062	17012.53
228.134	17073.11
228.207	17093.93
228.28	17112.05
228.352	17145.74
228.425	17178.46
228.498	17215.23
228.57	17242.18
228.643	17294.46
228.716	17311.52
228.788	17336.87
228.861	17353.55
228.934	17406.08
229.006	17428.49
229.079	17457.12
229.151	17472.15
229.224	17481.16
229.296	17514.27
229.369	17575.52
229.442	17610.8
229.514	17628.29
229.587	17665.74
229.659	17665.35
229.732	17693.16
229.804	17736.73
229.877	17786.51
229.949	17819.86
230.022	17862.89
230.094	17890.75
230.167	17921.4
230.239	17932.87
230.312	17957.64
230.384	18009.15
230.457	18021.63
230.529	18047.85
230.602	18073.92
230.674	18107.41
230.747	18152.95
230.819	18185.58
230.892	18176.57
230.964	18202.74
231.037	18235.51
231.109	18257.48
231.181	18293.53
231.254	18309.86
231.326	18323.98
231.399	18332.61
231.471	18348.56
231.544	18346.87
231.616	18373.57
231.688	18381.33
231.761	18405.33
231.833	18413.91
231.905	18407.79
231.978	18425.47
232.05	18439.98
232.122	18456.55
232.195	18458.34
232.267	18481.18
232.339	18483.54
232.412	18511.73
232.484	18512.02
232.556	18518.43
232.629	18549.08
232.701	18568.26
232.773	18582.62
232.846	18590.76
232.918	18603.87
232.99	18608.26
233.062	18632.16
233.135	18649.51
233.207	18653.46
233.279	18668.54
233.351	18690.28
233.424	18696.59
233.496	18692.78
233.568	18730.13
233.64	18728.35
233.713	18745.55
233.785	18744.15
233.857	18756.97
233.929	18754.08
234.001	18784.34
234.074	18805.93
234.146	18791.33
234.218	18801.79
234.29	18797.64
234.362	18790.46
234.434	18772.34
234.507	18757.5
234.579	18744.59
234.651	18734.71
234.723	18747.57
234.795	18752.06
234.867	18747.43
234.939	18762.8
235.012	18765.5
235.084	18770.9
235.156	18778.03
235.228	18770.17
235.3	18770.75
235.372	18753.02
235.444	18759.62
235.516	18728.49
235.588	18719.86
235.66	18715
235.732	18689.26
235.804	18747.72
235.876	18761.12
235.948	18781.93
236.02	18780.01
236.092	18769.16
236.164	18764.25
236.236	18745.26
236.308	18727.33
236.38	18730.37
236.452	18708.54
236.524	18708.49
236.596	18697.7
236.668	18703.96
236.74	18693.5
236.812	18684.54
236.884	18690.47
236.956	18681.36
237.028	18662.18
237.1	18644.25
237.172	18650.28
237.244	18656.59
237.316	18603.15
237.388	18589.56
237.46	18563.92
237.532	18576.55
237.604	18554.86
237.675	18547.15
237.747	18537.18
237.819	18514.86
237.891	18491.49
237.963	18473.81
238.035	18454.05
238.107	18406.68
238.178	18389.67
238.25	18368.9
238.322	18376.03
238.394	18342.54
238.466	18322.39
238.538	18311.79
238.609	18301.62
238.681	18261.82
238.753	18226.06
238.825	18214.16
238.897	18194.74
238.968	18187.7
239.04	18155.41
239.112	18163.22
239.184	18139.8
239.255	18124.23
239.327	18115.9
239.399	18101.44
239.471	18091.56
239.542	18068.52
239.614	18063.22
239.686	18012.19
239.758	18001.92
239.829	17965.69
239.901	17971.23
239.973	17948.34
240.044	17938.94
240.116	17916.72
240.188	17895.18
240.259	17884.1
240.331	17849.16
240.403	17831.23
240.474	17794.94
240.546	17763.96
240.618	17719.04
240.689	17687.43
240.761	17654.32
240.833	17645.89
240.904	17608.05
240.976	17577.55
241.048	17561.31
241.119	17538.47
241.191	17519.91
241.262	17513.79
241.334	17478.75
241.405	17438.85
241.477	17407.04
241.549	17381.6
241.62	17359
241.692	17343
241.763	17327.19
241.835	17305.79
241.906	17276.59
241.978	17233.55
242.049	17216.63
242.121	17203.43
242.192	17189.98
242.264	17155.04
242.335	17112.63
242.407	17096.73
242.478	17065.4
242.55	17035.57
242.621	16999.33
242.693	16973.73
242.764	16940.82
242.836	16906.74
242.907	16885.35
242.979	16862.5
243.05	16827.61
243.122	16803.8
243.193	16775.03
243.264	16720.81
243.336	16684.18
243.407	16662.83
243.479	16663.26
243.55	16641.38
243.622	16612.99
243.693	16580.9
243.764	16571.69
243.836	16525.66
243.907	16498.57
243.978	16474.28
244.05	16449.61
244.121	16408.25
244.192	16391.34
244.264	16342.99
244.335	16322.22
244.407	16273.25
244.478	16248.53
244.549	16228.91
244.62	16183.84
244.692	16151.21
244.763	16135.16
244.834	16109.48
244.906	16075.01
244.977	16050.1
245.048	16037.85
245.119	16002.91
245.191	15962.13
245.262	15904.82
245.333	15899.86
245.405	15869.2
245.476	15846.16
245.547	15816.52
245.618	15798.98
245.689	15771.89
245.761	15753.72
245.832	15720.94
245.903	15699.2
245.974	15670.81
246.045	15625.02
246.117	15615.86
246.188	15571.66
246.259	15528.76
246.33	15489.96
246.401	15456.12
246.473	15401.51
246.544	15356.83
246.615	15336.54
246.686	15308.68
246.757	15296.63
246.828	15248.14
246.899	15240.71
246.97	15191.4
247.042	15159.78
247.113	15131
247.184	15116.3
247.255	15074.75
247.326	15049.69
247.397	15027.22
247.468	14999.17
247.539	14975.31
247.61	14925.32
247.681	14910.67
247.752	14891.29
247.823	14857.3
247.894	14828.82
247.965	14790.83
248.037	14758.29
248.108	14712.16
248.179	14686.81
248.25	14658.22
248.321	14641.74
248.392	14584.04
248.463	14576.56
248.534	14546.1
248.605	14526.82
248.675	14491.24
248.746	14471.67
248.817	14444.05
248.888	14421.39
248.959	14387.41
249.03	14365.19
249.101	14345.9
249.172	14315.44
249.243	14267.67
249.314	14261.88
249.385	14239.13
249.456	14222.83
249.527	14186.63
249.598	14171.11
249.669	14140.45
249.739	14112.59
249.81	14093.69
249.881	14068.67
249.952	14040.95
250.023	14014.2
250.094	13975.63
250.165	13942.56
250.235	13912.39
250.306	13896.62
250.377	13859.7
250.448	13831.98
250.519	13792.02
250.59	13780.21
250.66	13749.4
250.731	13746.65
250.802	13712.33
250.873	13694.16
250.944	13674.78
251.014	13653.33
251.085	13646
251.156	13625.99
251.227	13612.4
251.297	13606.47
251.368	13589.31
251.439	13582.03
251.51	13570.22
251.58	13537
251.651	13506.44
251.722	13503.69
251.792	13460.64
251.863	13437.55
251.934	13426.66
252.005	13429.79
252.075	13402.02
252.146	13388.33
252.217	13366.26
252.287	13348.27
252.358	13312.99
252.429	13301.18
252.499	13272.25
252.57	13254.56
252.641	13240.68
252.711	13218.02
252.782	13173
252.852	13178.64
252.923	13148.31
252.994	13127.1
253.064	13121.75
253.135	13096.15
253.205	13060.72
253.276	13052.91
253.347	13043.61
253.417	13012.61
253.488	12983.16
253.558	12960.12
253.629	12932.16
253.699	12918.66
253.77	12911.67
253.841	12891.04
253.911	12874.46
253.982	12855.8
254.052	12838.59
254.123	12823.21
254.193	12802.68
254.264	12810.05
254.334	12765.75
254.405	12730.75
254.475	12691.85
254.546	12664.42
254.616	12649.58
254.687	12633.28
254.757	12611.25
254.827	12588.36
254.898	12571.58
254.968	12548.78
255.039	12516.73
255.109	12509.93
255.18	12481.05
255.25	12439.5
255.321	12425.33
255.391	12385.61
255.461	12385.75
255.532	12341.65
255.602	12318.8
255.673	12277.63
255.743	12246.4
255.813	12204.27
255.884	12197.42
255.954	12190.77
256.024	12186
256.095	12169.75
256.165	12134.33
256.235	12124.16
256.306	12090.17
256.376	12085.45
256.446	12073.16
256.517	12062.94
256.587	12050.99
256.657	12028.81
256.728	12010.5
256.798	11994.2
256.868	11970.63
256.938	11942.1
257.009	11934
257.079	11913.61
257.149	11920.89
257.219	11890.91
257.29	11878.57
257.36	11843.92
257.43	11834.95
257.5	11802.17
257.571	11772.96
257.641	11764.43
257.711	11727.9
257.781	11721.83
257.852	11702.93
257.922	11667.7
257.992	11646.73
258.062	11630.44
258.132	11624.66
258.202	11596.41
258.273	11578.39
258.343	11582.29
258.413	11551.01
258.483	11531.11
258.553	11498.96
258.623	11468.16
258.693	11449.99
258.764	11451.48
258.834	11442.91
258.904	11414.71
258.974	11382.23
259.044	11365.46
259.114	11350.81
259.184	11336.88
259.254	11317.07
259.324	11282.71
259.394	11278.61
259.464	11279.09
259.535	11251.81
259.605	11227.57
259.675	11212.25
259.745	11196.92
259.815	11169.11
259.885	11150.7
259.955	11158.75
260.025	11140.54
260.095	11125.31
260.165	11109.74
260.235	11103.62
260.305	11080.06
260.375	11058.08
260.445	11064.25
260.515	11063.72
260.585	11060.88
260.655	11049.89
260.725	11044.11
260.795	11033.6
260.865	11029.22
260.934	10999.77
261.004	10991.19
261.074	10972.64
261.144	10967.92
261.214	10961.85
261.284	10941.94
261.354	10934.43
261.424	10904.69
261.494	10908.35
261.564	10892.16
261.634	10887.05
261.703	10851.64
261.773	10845.85
261.843	10837.47
261.913	10821.57
261.983	10790.2
262.053	10773.52
262.123	10751.02
262.192	10715.27
262.262	10709.54
262.332	10674.84
262.402	10665.74
262.472	10643.76
262.541	10609.27
262.611	10601.7
262.681	10574.72
262.751	10564.36
262.821	10545.57
262.89	10517.62
262.96	10499.26
263.03	10508.9
263.1	10496.76
263.169	10482.01
263.239	10471.27
263.309	10474.64
263.379	10465.2
263.448	10457.35
263.518	10448.24
263.588	10434.8
263.657	10439.86
263.727	10436
263.797	10417.79
263.867	10403.29
263.936	10379.35
264.006	10381.95
264.076	10364.94
264.145	10346.97
264.215	10320.33
264.285	10314.98
264.354	10287.38
264.424	10273.26
264.494	10234.24
264.563	10209.91
264.633	10214.19
264.702	10198.87
264.772	10163.9
264.842	10142.99
264.911	10123.67
264.981	10090.24
265.05	10079.06
265.12	10062.34
265.19	10042.88
265.259	10039.94
265.329	10034.69
265.398	10025.1
265.468	10033.05
265.537	10014.56
265.607	10006.7
265.676	10009.16
265.746	9997.02
265.815	9993.12
265.885	9970.87
265.955	9953.82
266.024	9933.49
266.094	9900.11
266.163	9905.26
266.232	9897.36
266.302	9880.5
266.371	9874.72
266.441	9866.01
266.51	9860.47
266.58	9843.85
266.649	9821.02
266.719	9818.8
266.788	9803.92
266.858	9806.42
266.927	9767.5
266.996	9756.33
267.066	9749.68
267.135	9723.53
267.205	9722.28
267.274	9712.84
267.343	9711.49
267.413	9699.98
267.482	9708.17
267.552	9708.36
267.621	9675.37
267.69	9657.36
267.76	9656.1
267.829	9646.18
267.898	9636.17
267.968	9618.25
268.037	9613.34
268.106	9608.52
268.176	9583.77
268.245	9572.4
268.314	9556.07
268.384	9560.31
268.453	9552.46
268.522	9535.27
268.592	9541.48
268.661	9520.92
268.73	9510.42
268.799	9498.19
268.869	9507.29
268.938	9478.92
269.007	9462.79
269.076	9454.03
269.146	9451.76
269.215	9441.36
269.284	9450.99
269.353	9434.81
269.422	9418.97
269.492	9396.15
269.561	9355.9
269.63	9350.65
269.699	9332.45
269.768	9321.42
269.838	9308.61
269.907	9306.44
269.976	9291.28
270.045	9256.56
270.114	9245.2
270.183	9234.94
270.253	9222.47
270.322	9183.14
270.391	9173.31
270.46	9172.88
270.529	9174.57
270.598	9169.51
270.667	9153.57
270.736	9129.54
270.806	9120.97
270.875	9124.54
270.944	9117.56
271.013	9142.83
271.082	9132
271.151	9124.82
271.22	9100.9
271.289	9096.52
271.358	9081.74
271.427	9077.07
271.496	9071.58
271.565	9062
271.634	9061.28
271.703	9064.79
271.772	9074.47
271.841	9060.55
271.91	9041.1
271.979	9024.25
272.048	9001.14
272.117	8997.24
272.186	8978.42
272.255	8978.57
272.324	8971.92
272.393	8963.74
272.462	8948.19
272.531	8941.64
272.6	8935.96
272.669	8939.76
272.738	8925.71
272.807	8917.96
272.876	8892.93
272.945	8920.94
273.013	8926.82
273.082	8922.24
273.151	8901.3
273.22	8898.08
273.289	8894.23
273.358	8901.83
273.427	8889.99
273.496	8893.22
273.564	8891.15
273.633	8889.94
273.702	8870.21
273.771	8864
273.84	8865.73
273.909	8857.36
273.977	8857.74
274.046	8844.65
274.115	8850.95
274.184	8836.32
274.253	8826.94
274.322	8839.4
274.39	8805.22
274.459	8786.64
274.528	8760.22
274.597	8753.24
274.665	8749.49
274.734	8756.8
274.803	8745.78
274.872	8741.64
274.94	8726.91
275.009	8757.05
275.078	8748.1
275.147	8748.15
275.215	8741.22
275.284	8747.38
275.353	8745.07
275.421	8721.29
275.49	8737.56
275.559	8719.85
275.627	8709.02
275.696	8705.08
275.765	8706.86
275.833	8700.65
275.902	8697.86
275.971	8712.78
276.039	8725.72
276.108	8729.09
276.177	8725.1
276.245	8713.5
276.314	8712.44
276.383	8717.45
276.451	8680.18
276.52	8687.4
276.588	8694.24
276.657	8701.17
276.725	8686.2
276.794	8678.74
276.863	8690.62
276.931	8663.81
277	8676.33
277.068	8687.93
277.137	8708.05
277.205	8698.9
277.274	8715.5
277.342	8733.12
277.411	8708.67
277.48	8690.72
277.548	8679.36
277.617	8677.82
277.685	8674.65
277.754	8677.87
277.822	8665.84
277.89	8676.19
277.959	8662.71
278.027	8647.65
278.096	8635.28
278.164	8663.01
278.233	8656.17
278.301	8642.79
278.37	8646.6
278.438	8627.06
278.507	8628.26
278.575	8600.73
278.643	8599.81
278.712	8578.59
278.78	8554.72
278.849	8571.85
278.917	8583.5
278.985	8579.5
279.054	8579.45
279.122	8588.84
279.191	8581.81
279.259	8582.97
279.327	8565.21
279.396	8578.92
279.464	8577.24
279.532	8582
279.601	8573.67
279.669	8574.3
279.737	8588.69
279.806	8593.16
279.874	8607.84
279.942	8609.43
280.011	8607.12
280.079	8606.16
280.147	8626.9
280.215	8634.89
280.284	8625.46
280.352	8611.64
280.42	8620.93
280.488	8615.35
280.557	8606.49
280.625	8611.21
280.693	8606.54
280.761	8606.93
280.83	8591.82
280.898	8602.11
280.966	8581.13
281.034	8550.52
281.102	8533.2
281.171	8521.75
281.239	8533.06
281.307	8523.68
281.375	8507.89
281.443	8531.09
281.512	8537.11
281.58	8536.34
281.648	8523.39
281.716	8519.69
281.784	8519.73
281.852	8506.74
281.92	8502.99
281.989	8510.83
282.057	8491.78
282.125	8547.52
282.193	8543.04
282.261	8542.42
282.329	8537.61
282.397	8542.13
282.465	8547.04
282.533	8569.07
282.601	8565.18
282.67	8545.06
282.738	8538.03
282.806	8553.82
282.874	8532.45
282.942	8536.92
283.01	8535.96
283.078	8542.55
283.146	8539.91
283.214	8541.59
283.282	8545.63
283.35	8558.63
283.418	8558.87
283.486	8571.96
283.554	8522.51
283.622	8521.41
283.69	8518.76
283.758	8509.67
283.826	8517.56
283.894	8531.56
283.962	8546.48
284.03	8560.92
284.098	8560.39
284.165	8553.85
284.233	8552.16
284.301	8549.37
284.369	8539.07
284.437	8531.37
284.505	8517.9
284.573	8532.58
284.641	8527.86
284.709	8532.48
284.777	8514.67
284.845	8516.36
284.912	8512.17
284.98	8515.01
285.048	8513.23
285.116	8519.63
285.184	8537.49
285.252	8534.26
285.319	8511.16
285.387	8496.15
285.455	8476.22
285.523	8477.62
285.591	8475.21
285.659	8475.89
285.726	8492.15
285.794	8478.44
285.862	8474.97
285.93	8480.6
285.997	8476.42
286.065	8473
286.133	8465.2
286.201	8461.98
286.269	8449.23
286.336	8439.75
286.404	8431.86
286.472	8440.38
286.539	8425.27
286.607	8407.65
286.675	8404.14
286.743	8414.97
286.81	8419.3
286.878	8434.07
286.946	8428.59
287.013	8429.98
287.081	8426.61
287.149	8404
287.216	8419.97
287.284	8407.94
287.352	8404.67
287.419	8400
287.487	8411.65
287.555	8413.28
287.622	8406.88
287.69	8411.55
287.758	8427.96
287.825	8424.01
287.893	8408.28
287.96	8412.18
288.028	8416.75
288.096	8426.61
288.163	8430.37
288.231	8409.63
288.298	8411.45
288.366	8427.62
288.433	8422.14
288.501	8414.92
288.569	8425.94
288.636	8419.25
288.704	8434.17
288.771	8445.72
288.839	8431.81
288.906	8431.04
288.974	8441.29
289.041	8444.76
289.109	8435.04
289.176	8440.76
289.244	8443.36
289.311	8458.18
289.379	8470.36
289.446	8478.54
289.514	8475.6
289.581	8472.67
289.649	8479.31
289.716	8479.84
289.783	8471.27
289.851	8488.88
289.918	8490.32
289.986	8497.88
290.053	8501.87
290.121	8505.39
290.188	8506.73
290.255	8543.21
290.323	8536.67
290.39	8533.01
290.458	8543.26
290.525	8555.09
290.592	8551.48
290.66	8558.56
290.727	8554.76
290.794	8566.35
290.862	8563.03
290.929	8569.15
290.996	8566.02
291.064	8580.12
291.131	8588.16
291.198	8600.38
291.266	8602.31
291.333	8604.13
291.4	8611.79
291.468	8628.01
291.535	8621.7
291.602	8623.43
291.669	8612.41
291.737	8614.96
291.804	8612.56
291.871	8628.44
291.938	8634.26
292.006	8662.66
292.073	8673.64
292.14	8685.09
292.207	8674.79
292.275	8673.49
292.342	8680.62
292.409	8714.84
292.476	8736.07
292.543	8730.15
292.611	8727.4
292.678	8746.32
292.745	8770.62
292.812	8781.6
292.879	8779.43
292.946	8786.56
293.014	8802.15
293.081	8811.2
293.148	8831.7
293.215	8845.61
293.282	8839.88
293.349	8849.8
293.416	8829.34
293.484	8842.19
293.551	8849.36
293.618	8868.38
293.685	8896.58
293.752	8885.51
293.819	8879.93
293.886	8864.19
293.953	8871.7
294.02	8890.42
294.087	8894.23
294.154	8888.69
294.221	8902.89
294.288	8897.45
294.356	8915.31
294.423	8921.86
294.49	8913.53
294.557	8920.37
294.624	8913.92
294.691	8930.48
294.758	8932.98
294.825	8940.3
294.892	8931.63
294.959	8934.86
295.026	8939.05
295.093	8937.99
295.16	8946.65
295.226	8954.45
295.293	8981.84
295.36	8982.32
295.427	8985.6
295.494	8998.89
295.561	9005.82
295.628	9021.95
295.695	9041.78
295.762	9042.79
295.829	9054.25
295.896	9073.89
295.963	9088.19
296.03	9105.23
296.096	9110.92
296.163	9118.76
296.23	9135.52
296.297	9155.74
296.364	9159.16
296.431	9173.31
296.498	9163.68
296.564	9184.33
296.631	9181.35
296.698	9167.58
296.765	9189.53
296.832	9182.36
296.899	9168.59
296.965	9183.71
297.032	9162.57
297.099	9180.57
297.166	9194.01
297.233	9189.19
297.299	9180.72
297.366	9177.4
297.433	9172.92
297.5	9179.32
297.566	9184.72
297.633	9180.53
297.7	9178.36
297.767	9176.24
297.833	9176.44
297.9	9181.92
297.967	9168.11
298.033	9181.3
298.1	9210.96
298.167	9202.15
298.234	9206.53
298.3	9214.43
298.367	9212.98
298.434	9225.98
298.5	9219.63
298.567	9211.15
298.634	9211.54
298.7	9231.09
298.767	9231.37
298.834	9247.22
298.9	9239.61
298.967	9232.63
299.033	9249.14
299.1	9268.21
299.167	9279.91
299.233	9274.57
299.3	9293.59
299.366	9315.97
299.433	9331.67
299.5	9302.78
299.566	9311.16
299.633	9331
299.699	9347.32
299.766	9350.26
299.832	9346.31
299.899	9349.3
299.965	9364.99
300.032	9362.25
300.099	9372.26
300.165	9379.68
300.232	9376.55
300.298	9380.35
300.365	9398.22
300.431	9396.68
300.498	9383
300.564	9384.69
300.631	9395.13
300.697	9406.69
300.763	9400.19
300.83	9390.7
300.896	9405.15
300.963	9415.55
301.029	9417.19
301.096	9421.96
301.162	9425.62
301.229	9426.29
301.295	9420.94
301.361	9426.1
301.428	9424.99
301.494	9406.16
301.561	9410.54
301.627	9413.58
301.693	9421.33
301.76	9417.29
301.826	9407.17
301.892	9419.79
301.959	9437.9
302.025	9437.32
302.092	9428.02
302.158	9440.83
302.224	9443.96
302.291	9437.51
302.357	9427.06
302.423	9422.49
302.49	9411.36
302.556	9426.77
302.622	9424.17
302.688	9433.47
302.755	9444.64
302.821	9457.11
302.887	9473
302.954	9471.7
303.02	9479.26
303.086	9486.29
303.152	9488.27
303.219	9494.33
303.285	9503.05
303.351	9503.92
303.417	9508.2
303.483	9500.36
303.55	9491.59
303.616	9491.21
303.682	9491.45
303.748	9491.11
303.815	9502.96
303.881	9511.34
303.947	9500.84
304.013	9504.3
304.079	9497.03
304.145	9473.19
304.212	9470.21
304.278	9458.94
304.344	9453.69
304.41	9435.83
304.476	9424.75
304.542	9421.14
304.608	9419.79
304.674	9401.25
304.741	9396.96
304.807	9391.19
304.873	9394.32
304.939	9412.28
305.005	9394.99
305.071	9394.17
305.137	9395.81
305.203	9368.84
305.269	9364.99
305.335	9371.59
305.401	9369.9
305.467	9367.21
305.533	9375.39
305.599	9383.87
305.666	9393.02
305.732	9394.6
305.798	9407.03
305.864	9433.8
305.93	9439.97
305.996	9441.27
306.062	9438.04
306.128	9430.72
306.194	9425.57
306.259	9429.28
306.325	9415.65
306.391	9428.07
306.457	9433.03
306.523	9433.22
306.589	9461.73
306.655	9456.87
306.721	9442.57
306.787	9430.87
306.853	9449.5
306.919	9429.62
306.985	9419.07
307.051	9409.06
307.117	9401.83
307.183	9398.7
307.248	9372.07
307.314	9377.95
307.38	9376.55
307.446	9382.13
307.512	9373.37
307.578	9376.98
307.644	9368.99
307.709	9366.48
307.775	9358.59
307.841	9357.96
307.907	9358.68
307.973	9336.34
308.039	9330.7
308.104	9332
308.17	9331.86
308.236	9311.97
308.302	9321.79
308.368	9314.57
308.433	9317.12
308.499	9312.45
308.565	9300.42
308.631	9298.01
308.696	9267.87
308.762	9262.76
308.828	9265.84
308.894	9249.23
308.959	9228.39
309.025	9217.7
309.091	9214.71
309.156	9212.45
309.222	9207.49
309.288	9196.32
309.354	9174.27
309.419	9174.61
309.485	9160.16
309.551	9167.05
309.616	9151.79
309.682	9147.84
309.748	9140.91
309.813	9140.13
309.879	9129.64
309.945	9124.01
310.01	9116.26
310.076	9123.67
310.141	9115
310.207	9092.56
310.273	9096.56
310.338	9100.65
310.404	9088.23
310.469	9071
310.535	9057.61
310.601	9042.16
310.666	9043.94
310.732	9059.78
310.797	9046.1
310.863	9038.98
310.928	9031.66
310.994	9034.55
311.059	9032.24
311.125	9028.24
311.191	9032.77
311.256	9026.37
311.322	9029.45
311.387	9008.8
311.453	9321.58
311.518	9296.59
311.584	9295
311.649	9300.93
311.715	9292.26
311.78	9298.9
311.846	9294.62
311.911	9293.7
311.976	9296.98
312.042	9284.37
312.107	9267.66
312.173	9265.64
312.238	9261.5
312.304	9254.86
312.369	9242.82
312.434	9225.39
312.5	9215.96
312.565	9183.37
312.631	9183.18
312.696	9173.02
312.761	9178.89
312.827	8857.21
312.892	8893.84
312.958	8891
313.023	8885.75
313.088	8883.15
313.154	8860.92
313.219	8850.95
313.284	8846.43
313.35	8839.98
313.415	8833.05
313.48	8831.89
313.546	8829.87
313.611	8836.8
313.676	8828.09
313.741	8822.07
313.807	8831.89
313.872	8835.41
313.937	8843.69
314.003	8852.93
314.068	8856.63
314.133	8864.24
314.198	8856.39
314.264	8837.14
314.329	8831.31
314.394	8821.39
314.459	8816.77
314.525	8838
314.59	8837.52
314.655	8824.23
314.72	8831.79
314.785	8836.56
314.851	8830.35
314.916	8812.78
314.981	8796.27
315.046	8782.55
315.111	8778.66
315.176	8766.33
315.242	8770.71
315.307	8766.24
315.372	8747.13
315.437	8734.13
315.502	8722.48
315.567	8734.66
315.632	8721.23
315.698	8720.85
315.763	8714.88
315.828	8710.11
315.893	8708.19
315.958	8707.66
316.023	8700.34
316.088	8677.77
316.153	8650.48
316.218	8641.15
316.283	8624.93
316.348	8609.68
316.413	8607.13
316.479	8591.3
316.544	8554.97
316.609	8527.01
316.674	8489.43
316.739	8460.08
316.804	8430.4
316.869	8389.93
316.934	8346.57
316.999	8315.59
317.064	8264.54
317.129	8226.68
317.194	8188.43
317.259	8139.98
317.324	8085.14
317.389	8045.22
317.454	8004.57
317.518	7971.53
317.583	7947.81
317.648	7921.99
317.713	7885.87
317.778	7830.22
317.843	7795.07
317.908	7761.56
317.973	7721.54
318.038	7698.7
318.103	7655.05
318.168	7620.67
318.233	7595.67
318.297	7544.37
318.362	7508.45
318.427	7466.4
318.492	7438.47
318.557	7391.56
318.622	7362.42
318.687	7343.05
318.751	7304.46
318.816	7277.26
318.881	7247.56
318.946	7185.65
319.011	7143.07
319.075	7102.61
319.14	7068.99
319.205	7031.41
319.27	7002.63
319.335	6956.75
319.399	6912.41
319.464	6890.98
319.529	6837.96
319.594	6800.44
319.658	6773.97
319.723	6730.51
319.788	6709.57
319.853	6658.18
319.917	6631.24
319.982	6576.3
320.047	6533.95
320.112	6506.63
320.176	6452.47
320.241	6413.87
320.306	6387.8
320.37	6343.69
320.435	6313.5
320.5	6285.61
320.564	6247.5
320.629	6202.05
320.694	6174.51
320.758	6133.77
320.823	6089.52
320.888	6067.03
320.952	6019.72
321.017	5977.78
321.082	5936.43
321.146	5900.21
321.211	5868.12
321.275	5825.92
321.34	5784.25
321.405	5745.26
321.469	5695.77
321.534	5652.34
321.598	5604.73
321.663	5574.85
321.727	5546.91
321.792	5494.8
321.857	5450.31
321.921	5409.38
321.986	5368.46
322.05	5310.53
322.115	5275.74
322.179	5230.75
322.244	5175.9
322.308	5140.78
322.373	5095.13
322.437	5056.95
322.502	5027.14
322.566	4980.59
322.631	4945.82
322.695	4912.21
322.76	4863.28
322.824	4829.67
322.889	4792.24
322.953	4747.16
323.018	4680.09
323.082	4614.21
323.146	4568.33
323.211	4520.28
323.275	4476.74
323.34	4434.5
323.404	4403.51
323.468	4357.63
323.533	4318.27
323.597	4273.57
323.662	4227.42
323.726	4191.03
323.79	4147.23
323.855	4082.52
323.919	4034
323.983	3985.81
324.048	3917.22
324.112	4040.48
324.177	3913.76
324.241	3710.1
324.305	3511.23
324.37	3316.89
324.434	3132.5
324.498	3089.94
324.562	3038.42
324.627	2978.16
324.691	2921.09
324.755	2851.87
324.82	2775.28
324.884	2693.85
324.948	2621.89
325.012	2519.87
325.077	2395.39
