Data from 20250702_urea_0.5M_MAYP1162681_19-24-59-990.txt Node
Date: Wed Jul 02 19:24:59 BST 2025
User: adleo
Spectrometer: MAYP116268
Trigger mode: 0
Integration Time (sec): 1.000000E0
Scans to average: 1
Electric dark correction enabled: true
Nonlinearity correction enabled: true
Boxcar width: 10
XAxis mode: Wavelengths
Number of Pixels in Spectrum: 2068
>>>>>Begin Spectral Data<<<<<
179.565	1165.94
179.642	1226.28
179.718	1266.43
179.795	1302.99
179.871	1332.54
179.948	1347.61
180.024	1366.6
180.101	1387.64
180.177	1403.58
180.254	1424.8
180.33	1445.72
180.407	1498.51
180.483	1590.2
180.56	1677.29
180.636	1757.95
180.712	1746.96
180.789	1756.42
180.865	1767.68
180.942	1775.47
181.018	1787.45
181.095	1797.24
181.171	1801.47
181.248	1798.72
181.324	1814.12
181.4	1821.72
181.477	1833.85
181.553	1847.77
181.63	1867.92
181.706	1885.61
181.782	1890.12
181.859	1891.31
181.935	1892.93
182.011	1886.79
182.088	1905.62
182.164	1924.17
182.24	1937.91
182.317	1947.51
182.393	1944.13
182.469	1957.59
182.546	1971.38
182.622	1973.18
182.698	1972.33
182.775	1986.26
182.851	1999.76
182.927	1991.39
183.003	1986.4
183.08	1982.79
183.156	1991.44
183.232	1988.97
183.308	1975.8
183.385	1985.16
183.461	1999.57
183.537	2003.9
183.613	2015.41
183.69	2004.23
183.766	1992.72
183.842	1999.23
183.918	2003.37
183.995	2016.45
184.071	2018.25
184.147	2014.59
184.223	2006.18
184.299	2015.83
184.375	2003
184.452	2007.47
184.528	2062.32
184.604	2072.3
184.68	2079.53
184.756	2087.57
184.832	2090.52
184.908	2095.51
184.985	2094.51
185.061	2079.39
185.137	2087.66
185.213	2078.77
185.289	2077.77
185.365	2073.69
185.441	2071.4
185.517	2082.63
185.593	2079.35
185.669	2077.83
185.745	2083.44
185.822	2099.17
185.898	2092.37
185.974	2099.93
186.05	2094.75
186.126	2056.78
186.202	2051.5
186.278	2048.6
186.354	2040.66
186.43	2048.17
186.506	2047.84
186.582	2047.46
186.658	2055.64
186.734	2037.95
186.81	2036.71
186.886	2042.37
186.962	2051.74
187.038	2050.46
187.114	2045.03
187.19	2054.02
187.266	2043.37
187.341	2046.7
187.417	2042.04
187.493	2041.28
187.569	2046.89
187.645	2040.33
187.721	2025.63
187.797	2033.76
187.873	2039.14
187.949	2031.77
188.025	2027.39
188.101	2028.44
188.176	2031.86
188.252	2024.97
188.328	2031.53
188.404	2034.66
188.48	2030.48
188.556	2024.63
188.632	2024.63
188.707	2026.15
188.783	2023.11
188.859	2021.02
188.935	2010.27
189.011	2016.83
189.086	2009.7
189.162	2001.66
189.238	1997.29
189.314	1998.57
189.39	1990.72
189.465	1983.5
189.541	2000.38
189.617	1981.65
189.693	1978.22
189.768	1983.07
189.844	2010.76
189.92	2002.49
189.996	2012.76
190.071	2023.27
190.147	2022.32
190.223	2028.51
190.298	2018.85
190.374	2005.77
190.45	2015.33
190.526	2025.79
190.601	2020.23
190.677	2022.41
190.753	2047.4
190.828	2053.67
190.904	2065.75
190.98	2079.88
191.055	2091.39
191.131	2082.21
191.207	2105.46
191.282	2113.83
191.358	2105.37
191.433	2089.42
191.509	2101.26
191.585	2096.27
191.66	2096.88
191.736	2105.49
191.811	2098.79
191.887	2113.77
191.963	2133.65
192.038	2139.36
192.114	2137.65
192.189	2140.12
192.265	2138.13
192.34	2116.19
192.416	2114.62
192.491	2113.57
192.567	2118.38
192.642	2118.81
192.718	2119.28
192.793	2107.15
192.869	2104.2
192.944	2106.53
193.02	2113.43
193.095	2119.81
193.171	2124.04
193.246	2122.75
193.322	2119.19
193.397	2119.42
193.473	2106.29
193.548	2092.02
193.624	2096.68
193.699	2096.68
193.775	2113.2
193.85	2111.91
193.925	2123.85
194.001	2123.85
194.076	2115.67
194.152	2106.68
194.227	2098.97
194.302	2089.27
194.378	2091.46
194.453	2088.89
194.529	2098.83
194.604	2086.08
194.679	2079.9
194.755	2063.54
194.83	2076.3
194.905	2073.92
194.981	2083.01
195.056	2078.06
195.131	2082.39
195.207	2081.25
195.282	2069.12
195.357	2048.52
195.433	2065.73
195.508	2050.99
195.583	2059.64
195.659	2075.25
195.734	2083.15
195.809	2083.19
195.884	2090.37
195.96	2092.23
196.035	2108.31
196.11	2104.74
196.185	2114.96
196.261	2118.34
196.336	2146.83
196.411	2131.37
196.486	2135.84
196.561	2126.52
196.637	2133.65
196.712	2150.02
196.787	2151.11
196.862	2169.24
196.937	2178.61
197.013	2184.41
197.088	2195.4
197.163	2214.15
197.238	2229.68
197.313	2227.2
197.388	2239.24
197.464	2270.7
197.539	2282.93
197.614	2277.08
197.689	2290.02
197.764	2306.2
197.839	2324.05
197.914	2317.62
197.989	2341.04
198.065	2356.27
198.14	2408.56
198.215	2434.55
198.29	2446.93
198.365	2459.83
198.44	2467.55
198.515	2494.83
198.59	2508.49
198.665	2532.68
198.74	2543.11
198.815	2544.02
198.89	2564.16
198.965	2596.17
199.04	2594.03
199.115	2608.69
199.19	2651.32
199.265	2655.51
199.34	2664.42
199.415	2699.54
199.49	2726.36
199.565	2736.74
199.64	2758.94
199.715	2756.79
199.79	2765.8
199.865	2772.04
199.94	2772.61
200.015	2807.54
200.09	2813.98
200.165	2819.98
200.24	2829.08
200.315	2867.43
200.39	2881.35
200.464	2891.31
200.539	2890.02
200.614	2903.6
200.689	2925.39
200.764	2929.92
200.839	2948.35
200.914	2953.5
200.989	2943.29
201.063	2953.31
201.138	2934.06
201.213	2936.21
201.288	2915.86
201.363	2918.24
201.438	2917.96
201.512	2932.44
201.587	2917.08
201.662	2921.57
201.737	2933.67
201.812	2943.26
201.886	2911.34
201.961	2918.49
202.036	2903.39
202.111	2902.82
202.186	2873.76
202.26	2856.46
202.335	2833.96
202.41	2825.33
202.485	2810.23
202.559	2789.55
202.634	2764.3
202.709	2778.53
202.784	2758.28
202.858	2757.38
202.933	2739.89
203.008	2734.99
203.082	2718.31
203.157	2711.55
203.232	2667.55
203.306	2650.01
203.381	2615.94
203.456	2590.74
203.53	2573.25
203.605	2554.49
203.68	2532.67
203.754	2526.29
203.829	2510.1
203.904	2490.39
203.978	2480.67
204.053	2484.53
204.127	2472.77
204.202	2470.91
204.277	2452.15
204.351	2446.01
204.426	2439.34
204.5	2428.92
204.575	2394.03
204.65	2403.46
204.724	2396.5
204.799	2406.3
204.873	2401.44
204.948	2398.4
205.022	2385.55
205.097	2374.26
205.171	2386.97
205.246	2394.68
205.32	2394.68
205.395	2397.4
205.469	2389.17
205.544	2394.17
205.618	2375.65
205.693	2390.22
205.767	2378.32
205.842	2398.22
205.916	2391.7
205.991	2384.42
206.065	2391.46
206.14	2405.69
206.214	2402.88
206.289	2398.3
206.363	2410.63
206.438	2410.82
206.512	2422.87
206.586	2444.72
206.661	2453.48
206.735	2433.26
206.81	2433.73
206.884	2450.01
206.958	2439.49
207.033	2458.48
207.107	2469.49
207.181	2509.4
207.256	2503.12
207.33	2524.26
207.405	2539.27
207.479	2562.13
207.553	2570.6
207.628	2560.32
207.702	2579.46
207.776	2578.8
207.851	2585.99
207.925	2605.76
207.999	2612.38
208.073	2616.71
208.148	2629.05
208.222	2626.39
208.296	2668.86
208.371	2695.98
208.445	2718.71
208.519	2757.87
208.593	2781.26
208.668	2792.61
208.742	2805.25
208.816	2824.88
208.89	2859.83
208.965	2878.29
209.039	2908.09
209.113	2951.72
209.187	2997.84
209.261	3017.52
209.336	3063.69
209.41	3113.29
209.484	3149.6
209.558	3205.04
209.632	3256.85
209.707	3305.52
209.781	3370.8
209.855	3432.2
209.929	3494.98
210.003	3548.31
210.077	3602.41
210.151	3707
210.226	3793.45
210.3	3880.9
210.374	3965.26
210.448	4034.62
210.522	4114.19
210.596	4192.65
210.67	4273.61
210.744	4394.4
210.818	4505.48
210.892	4606.31
210.966	4684.48
211.041	4788.02
211.115	4875.57
211.189	4989.06
211.263	5098.77
211.337	5197.43
211.411	5308.52
211.485	5403.91
211.559	5522.76
211.633	5634.03
211.707	5712.28
211.781	5835.17
211.855	5916.29
211.929	6028.52
212.003	6120.89
212.077	6244.35
212.151	6386.5
212.225	6523.96
212.299	6638.57
212.373	6755.02
212.447	6881.85
212.52	7044.61
212.594	7175.41
212.668	7319.86
212.742	7444.11
212.816	7578.09
212.89	7715.48
212.964	7855.82
213.038	8006.38
213.112	8167.34
213.186	8323.39
213.26	8439.69
213.333	8542.91
213.407	8698.28
213.481	8845.14
213.555	9011.38
213.629	9159.96
213.703	9286.78
213.777	9429.03
213.85	9557.02
213.924	9745.28
213.998	9894.73
214.072	10042.53
214.146	10188.68
214.219	10332.66
214.293	10473.47
214.367	10618.58
214.441	10774.06
214.515	10903.19
214.588	11022.03
214.662	11127.03
214.736	11250.25
214.81	11415.1
214.883	11559.42
214.957	11682.32
215.031	11816.1
215.105	11931.58
215.178	12043.55
215.252	12172.63
215.326	12290.86
215.4	12416.19
215.473	12502.95
215.547	12619.27
215.621	12730.96
215.694	12863
215.768	12977.14
215.842	13099.01
215.915	13218.36
215.989	13328.51
216.063	13453.37
216.136	13572.05
216.21	13697.19
216.284	13825.37
216.357	13942.65
216.431	14060.23
216.504	14186.48
216.578	14323.72
216.652	14452.66
216.725	14576.41
216.799	14703.9
216.873	14810
216.946	14930.85
217.02	15029.33
217.093	15128.39
217.167	15214.67
217.24	15303.22
217.314	15400.25
217.387	15492.8
217.461	15591.56
217.535	15697.12
217.608	15775.54
217.682	15874.83
217.755	15981.83
217.829	16074.18
217.902	16164.65
217.976	16254.16
218.049	16336.72
218.123	16419.57
218.196	16514.47
218.27	16600.02
218.343	16667.06
218.417	16766.96
218.49	16848.94
218.563	16948.37
218.637	17043.51
218.71	17142.5
218.784	17231.27
218.857	17318.46
218.931	17401.01
219.004	17479.95
219.077	17564.67
219.151	17658.41
219.224	17729.83
219.298	17801.59
219.371	17874.89
219.444	17941.58
219.518	18030.45
219.591	18107.41
219.665	18189.19
219.738	18262.15
219.811	18321.62
219.885	18402.43
219.958	18466.38
220.031	18524.93
220.105	18597.56
220.178	18666.81
220.251	18728.15
220.325	18792.24
220.398	18867.81
220.471	18939.66
220.544	19002.83
220.618	19054.45
220.691	19119.84
220.764	19189.86
220.838	19262.29
220.911	19324.84
220.984	19397.12
221.057	19453.56
221.131	19526.52
221.204	19561.07
221.277	19625.84
221.35	19703.95
221.424	19753.69
221.497	19811.61
221.57	19870.07
221.643	19917.58
221.716	19967.07
221.79	20016.81
221.863	20072.95
221.936	20117.09
222.009	20161.38
222.082	20209.81
222.155	20256.66
222.229	20313.23
222.302	20356.75
222.375	20377.81
222.448	20423.55
222.521	20464.46
222.594	20497.57
222.667	20508.99
222.74	20560.41
222.814	20593.57
222.887	20632.61
222.96	20671.36
223.033	20712.9
223.106	20746.01
223.179	20792.42
223.252	20825.15
223.325	20863.08
223.398	20881.15
223.471	20902.93
223.544	20927.03
223.617	20960.19
223.69	20981.11
223.763	20991.71
223.837	21025.06
223.91	21067.67
223.983	21075.71
224.056	21088.53
224.129	21112.34
224.202	21145.02
224.275	21154.95
224.348	21170.13
224.42	21178.23
224.493	21182.81
224.566	21191.43
224.639	21206.61
224.712	21210.42
224.785	21225.61
224.858	21233.22
224.931	21252.45
225.004	21260.84
225.077	21280.74
225.15	21270.14
225.223	21288.79
225.296	21319.16
225.369	21305.57
225.442	21307.54
225.514	21329.33
225.587	21352.95
225.66	21375.31
225.733	21399.41
225.806	21417.92
225.879	21419.85
225.952	21415.75
226.025	21443.99
226.097	21469.93
226.17	21489.49
226.243	21489.16
226.316	21495.13
226.389	21507.76
226.461	21518.51
226.534	21539.86
226.607	21546.08
226.68	21580.78
226.753	21584.93
226.825	21575.67
226.898	21616.79
226.971	21620.89
227.044	21621.9
227.117	21619.25
227.189	21625.08
227.262	21632.26
227.335	21641.03
227.407	21641.18
227.48	21646.96
227.553	21647.97
227.626	21641.71
227.698	21634.62
227.771	21632.31
227.844	21622.24
227.916	21621.85
227.989	21610.96
228.062	21606.76
228.134	21642.53
228.207	21633.61
228.28	21623.11
228.352	21626.62
228.425	21609.9
228.498	21619.59
228.57	21619.1
228.643	21637.28
228.716	21637.52
228.788	21632.02
228.861	21621.8
228.934	21648.8
229.006	21654.39
229.079	21650.63
229.151	21642.92
229.224	21628.26
229.296	21637.23
229.369	21659.5
229.442	21673.86
229.514	21666.92
229.587	21678.2
229.659	21647.74
229.732	21649.9
229.804	21658.97
229.877	21674.2
229.949	21692.42
230.022	21708.47
230.094	21709
230.167	21700.47
230.239	21686.2
230.312	21671.64
230.384	21701.19
230.457	21686.15
230.529	21689.62
230.602	21687.99
230.674	21694.16
230.747	21713.77
230.819	21728.96
230.892	21700.32
230.964	21689.86
231.037	21691.36
231.109	21672.51
231.181	21677.86
231.254	21668.75
231.326	21662.73
231.399	21647.83
231.471	21616.84
231.544	21582.52
231.616	21582.42
231.688	21568.78
231.761	21549.31
231.833	21546.56
231.905	21494.26
231.978	21489.2
232.05	21469.88
232.122	21462.36
232.195	21442.59
232.267	21431.75
232.339	21402.69
232.412	21409.67
232.484	21402.35
232.556	21378.44
232.629	21396.37
232.701	21387.94
232.773	21371.89
232.846	21352.13
232.918	21340.9
232.99	21337.71
233.062	21327.54
233.135	21318.77
233.207	21294.91
233.279	21284.41
233.351	21271.88
233.424	21262.24
233.496	21228.64
233.568	21239.39
233.64	21207.68
233.713	21187.68
233.785	21173.51
233.857	21165.51
233.929	21130.9
234.001	21123.14
234.074	21127.53
234.146	21081.64
234.218	21046.17
234.29	21030.46
234.362	21005.73
234.434	20965.25
234.507	20933.73
234.579	20907.32
234.651	20870.16
234.723	20850.35
234.795	20838.21
234.867	20812.04
234.939	20801.34
235.012	20794.2
235.084	20764.8
235.156	20747.79
235.228	20716.95
235.3	20688.95
235.372	20661.96
235.444	20645.77
235.516	20601.57
235.588	20577.96
235.66	20554.24
235.732	20526
235.804	20553.81
235.876	20542.97
235.948	20532.08
236.02	20508.13
236.092	20476.37
236.164	20451.45
236.236	20427.36
236.308	20397.62
236.38	20375.36
236.452	20353.52
236.524	20327.21
236.596	20312.9
236.668	20293.91
236.74	20271.84
236.812	20247.6
236.884	20219.84
236.956	20192.23
237.028	20146.16
237.1	20106.49
237.172	20094.98
237.244	20087.8
237.316	20017.87
237.388	19982.73
237.46	19950.64
237.532	19932.86
237.604	19895.94
237.675	19888.81
237.747	19871.37
237.819	19840.14
237.891	19807.32
237.963	19757.68
238.035	19715.47
238.107	19643.18
238.178	19626.22
238.25	19586.37
238.322	19577.69
238.394	19535.33
238.466	19491.91
238.538	19468.98
238.609	19447.92
238.681	19397.51
238.753	19348.65
238.825	19321.8
238.897	19290.24
238.968	19277.81
239.04	19236.22
239.112	19230.39
239.184	19181.28
239.255	19137.48
239.327	19109.33
239.399	19081.48
239.471	19062.3
239.542	19035.75
239.614	19026.01
239.686	18970.79
239.758	18961.01
239.829	18913.2
239.901	18889.97
239.973	18871.52
240.044	18852.43
240.116	18822.32
240.188	18787.04
240.259	18762.27
240.331	18719.67
240.403	18695.58
240.474	18641.65
240.546	18599.15
240.618	18550.33
240.689	18513.37
240.761	18481.13
240.833	18456.7
240.904	18419.83
240.976	18378.53
241.048	18348.03
241.119	18323.07
241.191	18294.25
241.262	18269.48
241.334	18228.95
241.405	18201.15
241.477	18163.46
241.549	18123.12
241.62	18090.69
241.692	18069.68
241.763	18050.79
241.835	18013.54
241.906	17982.12
241.978	17936.77
242.049	17931.76
242.121	17902.41
242.192	17883.23
242.264	17835.81
242.335	17784.92
242.407	17751.76
242.478	17721.55
242.55	17686.9
242.621	17644.82
242.693	17599.19
242.764	17554.95
242.836	17519.14
242.907	17486.32
242.979	17465.74
243.05	17442.42
243.122	17407.04
243.193	17366.95
243.264	17296.01
243.336	17262.22
243.407	17237.07
243.479	17222.95
243.55	17185.31
243.622	17163.91
243.693	17131.52
243.764	17117.88
243.836	17076.53
243.907	17047.09
243.978	17007.66
244.05	16981.73
244.121	16924.24
244.192	16909.59
244.264	16863.8
244.335	16836.47
244.407	16784.57
244.478	16748.13
244.549	16705.86
244.62	16660.08
244.692	16629.57
244.763	16615.35
244.834	16578.87
244.906	16535.35
244.977	16499.78
245.048	16478.04
245.119	16424.35
245.191	16381.31
245.262	16326.94
245.333	16319.67
245.405	16287.18
245.476	16261.78
245.547	16228.43
245.618	16210.55
245.689	16177.19
245.761	16150.78
245.832	16110.1
245.903	16086.05
245.974	16048.12
246.045	16004.21
246.117	15985.03
246.188	15935.14
246.259	15893.16
246.33	15859.95
246.401	15826.84
246.473	15783.26
246.544	15747.02
246.615	15730.34
246.686	15685.08
246.757	15677.46
246.828	15628.06
246.899	15612.39
246.97	15558.75
247.042	15518.98
247.113	15495.7
247.184	15484.95
247.255	15445.47
247.326	15414.96
247.397	15383.97
247.468	15353.31
247.539	15334.22
247.61	15288.63
247.681	15274.65
247.752	15260.72
247.823	15216.61
247.894	15189.47
247.965	15142.91
248.037	15104.83
248.108	15065.01
248.179	15042.84
248.25	15004.61
248.321	14975.93
248.392	14932.12
248.463	14938.29
248.534	14907.1
248.605	14885.65
248.675	14848.58
248.746	14830.7
248.817	14806.6
248.888	14782.88
248.959	14744.65
249.03	14722.09
249.101	14703.39
249.172	14670.03
249.243	14616.19
249.314	14608.62
249.385	14576.47
249.456	14562.78
249.527	14523.06
249.598	14499.73
249.669	14464.82
249.739	14438.89
249.81	14422.79
249.881	14378.1
249.952	14343.88
250.023	14312.93
250.094	14263.9
250.165	14225.29
250.235	14193.72
250.306	14175.69
250.377	14143.97
250.448	14121.22
250.519	14072.29
250.59	14055.03
250.66	14020.71
250.731	14006.1
250.802	13976.89
250.873	13956.45
250.944	13934.42
251.014	13903.47
251.085	13902.12
251.156	13889.1
251.227	13876.18
251.297	13862.4
251.368	13858.3
251.439	13840.27
251.51	13832.56
251.58	13805.71
251.651	13775.29
251.722	13757.98
251.792	13708.52
251.863	13672.66
251.934	13650.92
252.005	13655.4
252.075	13631.54
252.146	13623.92
252.217	13613.65
252.287	13598.66
252.358	13565.25
252.429	13557.35
252.499	13530.59
252.57	13500.85
252.641	13472.07
252.711	13443.14
252.782	13402.55
252.852	13394.79
252.923	13369.1
252.994	13340.75
253.064	13327.02
253.135	13297.66
253.205	13267
253.276	13267.14
253.347	13266.13
253.417	13242.94
253.488	13217.59
253.558	13187.41
253.629	13161.91
253.699	13145.42
253.77	13127.73
253.841	13107.82
253.911	13090.08
253.982	13072.73
254.052	13068.92
254.123	13059.71
254.193	13043.08
254.264	13053.83
254.334	13010.49
254.405	12973.81
254.475	12943.1
254.546	12923.19
254.616	12916.01
254.687	12904.2
254.757	12884.24
254.827	12858.93
254.898	12844.04
254.968	12820.51
255.039	12785.66
255.109	12769.61
255.18	12732.44
255.25	12691.71
255.321	12678.89
255.391	12639.94
255.461	12639.65
255.532	12581.85
255.602	12557.75
255.673	12518.51
255.743	12481.97
255.813	12444.37
255.884	12434.83
255.954	12420.12
256.024	12413.81
256.095	12393.32
256.165	12357.36
256.235	12342.13
256.306	12317.5
256.376	12310.03
256.446	12295.27
256.517	12288.67
256.587	12278.55
256.657	12265.68
256.728	12252.47
256.798	12228.13
256.868	12205.52
256.938	12177.13
257.009	12172.02
257.079	12160.79
257.149	12161.99
257.219	12131.24
257.29	12119.62
257.36	12077.21
257.43	12068.58
257.5	12027.08
257.571	12002.64
257.641	11989.53
257.711	11960.7
257.781	11945.04
257.852	11921.9
257.922	11880.55
257.992	11860.64
258.062	11835.67
258.132	11829.89
258.202	11804.92
258.273	11790.51
258.343	11789.26
258.413	11759.76
258.483	11742.26
258.553	11704.23
258.623	11673.91
258.693	11650.59
258.764	11649.96
258.834	11653.38
258.904	11634.01
258.974	11607.02
259.044	11586.1
259.114	11573.18
259.184	11552.02
259.254	11528.65
259.324	11492.84
259.394	11487.73
259.464	11486.86
259.535	11462.96
259.605	11434.81
259.675	11408.98
259.745	11393.99
259.815	11361.99
259.885	11343.09
259.955	11347.96
260.025	11325.22
260.095	11311.19
260.165	11302.47
260.235	11289.55
260.305	11260.78
260.375	11233.74
260.445	11241.79
260.515	11242.66
260.585	11230.9
260.655	11215.48
260.725	11208.73
260.795	11199.62
260.865	11201.98
260.934	11175.77
261.004	11171.43
261.074	11153.5
261.144	11149.4
261.214	11142.27
261.284	11119.72
261.354	11111.05
261.424	11083.14
261.494	11084.92
261.564	11066.27
261.634	11060.54
261.703	11033.98
261.773	11019.91
261.843	11008.16
261.913	10984.35
261.983	10951.15
262.053	10951.15
262.123	10930.76
262.192	10895.44
262.262	10890.72
262.332	10853.37
262.402	10841.86
262.472	10822.44
262.541	10783.12
262.611	10780.23
262.681	10755.22
262.751	10754.01
262.821	10734.02
262.89	10706.65
262.96	10692.77
263.03	10697.3
263.1	10681.64
263.169	10660.58
263.239	10661.01
263.309	10664.73
263.379	10654.61
263.448	10635.19
263.518	10611.43
263.588	10598.38
263.657	10611.53
263.727	10606.28
263.797	10597.75
263.867	10580.88
263.936	10553.37
264.006	10551.35
264.076	10533.18
264.145	10513.14
264.215	10489.77
264.285	10484.52
264.354	10451.66
264.424	10433.6
264.494	10396.45
264.563	10376.12
264.633	10384.69
264.702	10371.11
264.772	10338.49
264.842	10327.6
264.911	10320.08
264.981	10294.55
265.05	10282.5
265.12	10257.84
265.19	10238.37
265.259	10224.01
265.329	10212.07
265.398	10201.18
265.468	10214.76
265.537	10197.08
265.607	10190.44
265.676	10189.76
265.746	10180.9
265.815	10180.46
265.885	10168.85
265.955	10151.37
266.024	10132.15
266.094	10095.05
266.163	10091.15
266.232	10088.26
266.302	10066.78
266.371	10059.55
266.441	10050.83
266.51	10046.16
266.58	10034.5
266.649	10013.55
266.719	10011.33
266.788	10003.53
266.858	10004.1
266.927	9965.66
266.996	9957.52
267.066	9948.18
267.135	9921.78
267.205	9913.98
267.274	9900.25
267.343	9895.68
267.413	9880.12
267.482	9874.24
267.552	9872.22
267.621	9841.34
267.69	9811.87
267.76	9803.39
267.829	9789.9
267.898	9779.35
267.968	9756.57
268.037	9750.79
268.106	9748.96
268.176	9720.88
268.245	9701.09
268.314	9686.68
268.384	9685.77
268.453	9674.45
268.522	9664.63
268.592	9665.97
268.661	9645.6
268.73	9637.51
268.799	9613.14
268.869	9621.66
268.938	9598.69
269.007	9577.89
269.076	9569.7
269.146	9574.66
269.215	9570.91
269.284	9575.24
269.353	9559.97
269.422	9547.79
269.492	9530.7
269.561	9495.59
269.63	9494.48
269.699	9483.45
269.768	9472.23
269.838	9468.33
269.907	9466.6
269.976	9445.65
270.045	9410.55
270.114	9414.35
270.183	9404.14
270.253	9406.89
270.322	9377.85
270.391	9372.46
270.46	9383.54
270.529	9379.11
270.598	9366.3
270.667	9349.35
270.736	9325.56
270.806	9318.81
270.875	9317.47
270.944	9304.61
271.013	9328.25
271.082	9324.16
271.151	9316.17
271.22	9285.16
271.289	9269.22
271.358	9252.32
271.427	9246.3
271.496	9243.46
271.565	9217.65
271.634	9208.02
271.703	9198.06
271.772	9201.81
271.841	9186.55
271.91	9159.78
271.979	9151.6
272.048	9131.52
272.117	9131.76
272.186	9118.18
272.255	9113.56
272.324	9110
272.393	9103.35
272.462	9075.47
272.531	9063.68
272.6	9053.76
272.669	9060.88
272.738	9049.43
272.807	9038.88
272.876	9018.47
272.945	9040.86
273.013	9045.96
273.082	9049.48
273.151	9036.86
273.22	9034.84
273.289	9028.54
273.358	9035.9
273.427	9023.24
273.496	9024.83
273.564	9022.42
273.633	9024.3
273.702	9011.64
273.771	9007.26
273.84	9002.92
273.909	9008.17
273.977	9005.48
274.046	8994.02
274.115	8996.18
274.184	8985.11
274.253	8974.14
274.322	8980.3
274.39	8950.64
274.459	8933.12
274.528	8909.53
274.597	8895.72
274.665	8892.49
274.734	8899.81
274.803	8891.39
274.872	8887.39
274.94	8871.6
275.009	8923.23
275.078	8910.09
275.147	8904.22
275.215	8895.36
275.284	8902.77
275.353	8887.66
275.421	8857.19
275.49	8873.99
275.559	8867.83
275.627	8862.63
275.696	8860.42
275.765	8859.41
275.833	8849.01
275.902	8849.78
275.971	8858.25
276.039	8876.11
276.108	8873.18
276.177	8870.24
276.245	8858.98
276.314	8853.63
276.383	8863.84
276.451	8796.03
276.52	8797
276.588	8807.25
276.657	8805.61
276.725	8790.69
276.794	8790.3
276.863	8806.19
276.931	8783.85
277	8786.02
277.068	8789.82
277.137	8803.73
277.205	8802.09
277.274	8820.33
277.342	8826.21
277.411	8802.77
277.48	8788.09
277.548	8779.42
277.617	8780.67
277.685	8775.81
277.754	8781.78
277.822	8771.82
277.89	8787.71
277.959	8784.1
278.027	8765.03
278.096	8758.06
278.164	8789.68
278.233	8785.06
278.301	8777.75
278.37	8781.41
278.438	8771.2
278.507	8772.36
278.575	8746.99
278.643	8740.59
278.712	8721.58
278.78	8713.3
278.849	8727.93
278.917	8739.43
278.985	8734.77
279.054	8730.24
279.122	8740.49
279.191	8734.76
279.259	8727.06
279.327	8699.96
279.396	8710.65
279.464	8707.57
279.532	8715.32
279.601	8704.29
279.669	8698.85
279.737	8716.62
279.806	8719.89
279.874	8727.4
279.942	8727.69
280.011	8727.25
280.079	8734.47
280.147	8749.63
280.215	8744.39
280.284	8736.45
280.352	8720.85
280.42	8726.39
280.488	8727.64
280.557	8720.56
280.625	8725.86
280.693	8729.9
280.761	8736.83
280.83	8716.86
280.898	8727.88
280.966	8710.55
281.034	8676.42
281.102	8664.54
281.171	8652.17
281.239	8657.41
281.307	8646.54
281.375	8634.51
281.443	8661.7
281.512	8659.49
281.58	8664.64
281.648	8651.4
281.716	8649.53
281.784	8649.24
281.852	8644.23
281.92	8636.15
281.989	8646.98
282.057	8628.78
282.125	8669.8
282.193	8664.65
282.261	8667.25
282.329	8657.43
282.397	8661.23
282.465	8669.03
282.533	8679.18
282.601	8668.5
282.67	8652.56
282.738	8649.34
282.806	8661.08
282.874	8644.86
282.942	8648.71
283.01	8648.18
283.078	8659.44
283.146	8659.01
283.214	8671.43
283.282	8673.4
283.35	8682.21
283.418	8671.62
283.486	8675.81
283.554	8636.38
283.622	8637.39
283.69	8636.96
283.758	8633.35
283.826	8638.4
283.894	8647.3
283.962	8663.96
284.03	8673.68
284.098	8667.9
284.165	8659
284.233	8659.1
284.301	8656.5
284.369	8646.3
284.437	8631.81
284.505	8621.56
284.573	8634.6
284.641	8620.59
284.709	8621.89
284.777	8607.41
284.845	8617.61
284.912	8621.75
284.98	8620.35
285.048	8612.65
285.116	8620.35
285.184	8629.02
285.252	8624.83
285.319	8608.9
285.387	8604.42
285.455	8591.38
285.523	8599.18
285.591	8602.55
285.659	8598.12
285.726	8604.62
285.794	8592.87
285.862	8592.44
285.93	8592.39
285.997	8586.81
286.065	8575.55
286.133	8570.59
286.201	8574.25
286.269	8561.21
286.336	8550.57
286.404	8551.34
286.472	8565.78
286.539	8541.09
286.607	8532.67
286.675	8536.19
286.743	8547.4
286.81	8538.01
286.878	8546.24
286.946	8538.16
287.013	8531.32
287.081	8531.85
287.149	8520.5
287.216	8535.94
287.284	8532.24
287.352	8537.1
287.419	8532.67
287.487	8551.01
287.555	8556.06
287.622	8547.97
287.69	8551.15
287.758	8566.98
287.825	8561.06
287.893	8545.09
287.96	8553.17
288.028	8556.15
288.096	8557.55
288.163	8552.21
288.231	8541.28
288.298	8540.75
288.366	8555.87
288.433	8556.92
288.501	8551.49
288.569	8548.55
288.636	8540.99
288.704	8556.83
288.771	8557.65
288.839	8550.38
288.906	8548.94
288.974	8559.24
289.041	8554.33
289.109	8544.27
289.176	8547.98
289.244	8548.36
289.311	8568.72
289.379	8579.79
289.446	8586.29
289.514	8581.95
289.581	8587.73
289.649	8595.09
289.716	8601.78
289.783	8595.24
289.851	8614.87
289.918	8617.13
289.986	8628.44
290.053	8636.58
290.121	8629.4
290.188	8638.07
290.255	8666.56
290.323	8656.6
290.39	8651.01
290.458	8663.52
290.525	8677.14
290.592	8671.85
290.66	8676.08
290.727	8664.53
290.794	8679.26
290.862	8675.99
290.929	8676.28
290.996	8671.13
291.064	8679.84
291.131	8689.9
291.198	8698.08
291.266	8694.81
291.333	8695.67
291.4	8705.25
291.468	8721.52
291.535	8719.26
291.602	8719.36
291.669	8707.32
291.737	8711.08
291.804	8710.74
291.871	8722
291.938	8730.86
292.006	8754.21
292.073	8767.25
292.14	8777.55
292.207	8772.83
292.275	8777.69
292.342	8790.11
292.409	8822.46
292.476	8849.47
292.543	8841.91
292.611	8846.39
292.678	8866.7
292.745	8895.92
292.812	8904.78
292.879	8899.58
292.946	8907.18
293.014	8920.42
293.081	8930.77
293.148	8950.02
293.215	8959.21
293.282	8950.5
293.349	8959.17
293.416	8942.56
293.484	8951.37
293.551	8956.33
293.618	8969.85
293.685	9000.38
293.752	8993.59
293.819	8988.48
293.886	8965.57
293.953	8972.07
294.02	8983.53
294.087	8989.78
294.154	8977.07
294.221	8987.04
294.288	8988.49
294.356	9005.48
294.423	9014.19
294.49	9006.2
294.557	9016.55
294.624	9011.69
294.691	9041.25
294.758	9042.26
294.825	9059.69
294.892	9059.54
294.959	9062.38
295.026	9071.58
295.093	9060.12
295.16	9062
295.226	9066.09
295.293	9098.54
295.36	9106.58
295.427	9118.28
295.494	9128.78
295.561	9133.98
295.628	9149.96
295.695	9163.2
295.762	9167.97
295.829	9173.51
295.896	9192.52
295.963	9199.07
296.03	9207.83
296.096	9209.28
296.163	9220.98
296.23	9229.4
296.297	9247.22
296.364	9250.83
296.431	9251.94
296.498	9250.54
296.564	9274.23
296.631	9268.21
296.698	9255.3
296.765	9274.71
296.832	9258.63
296.899	9243.8
296.965	9265.61
297.032	9251.69
297.099	9269.41
297.166	9267.24
297.233	9264.4
297.299	9256.7
297.366	9254.44
297.433	9259.44
297.5	9265.61
297.566	9263.49
297.633	9261.13
297.7	9254.39
297.767	9251.69
297.833	9259.54
297.9	9261.13
297.967	9249.48
298.033	9265.08
298.1	9290.12
298.167	9280.25
298.234	9289.35
298.3	9298.59
298.367	9296.14
298.434	9307.55
298.5	9295.46
298.567	9294.4
298.634	9295.03
298.7	9312.89
298.767	9321.03
298.834	9336.49
298.9	9336.54
298.967	9329.79
299.033	9345.54
299.1	9360.81
299.167	9376.31
299.233	9373.47
299.3	9387.34
299.366	9403.47
299.433	9421.24
299.5	9394.51
299.566	9397.98
299.633	9416.9
299.699	9426.87
299.766	9426.24
299.832	9430.24
299.899	9439.2
299.965	9454.66
300.032	9452.54
300.099	9462.26
300.165	9469.1
300.232	9458.56
300.298	9452.06
300.365	9470.31
300.431	9461.16
300.498	9450.08
300.564	9462.5
300.631	9472.96
300.697	9487.6
300.763	9488.46
300.83	9479.99
300.896	9495.49
300.963	9502.33
301.029	9505.07
301.096	9513.07
301.162	9524.1
301.229	9518.27
301.295	9508.06
301.361	9510.13
301.428	9514.37
301.494	9495.4
301.561	9495.3
301.627	9506.57
301.693	9513.45
301.76	9510.8
301.826	9512.44
301.892	9534.55
301.959	9535.22
302.025	9529.49
302.092	9518.51
302.158	9525.88
302.224	9540.38
302.291	9534.26
302.357	9532.09
302.423	9527.57
302.49	9521.45
302.556	9526.79
302.622	9525.74
302.688	9539.85
302.755	9550.97
302.821	9555.88
302.887	9573.55
302.954	9572.78
303.02	9572.49
303.086	9579.57
303.152	9573.36
303.219	9570.28
303.285	9571.1
303.351	9574.95
303.417	9576.64
303.483	9573.8
303.55	9567.34
303.616	9554.77
303.682	9547.79
303.748	9541.48
303.815	9549.24
303.881	9549.86
303.947	9532.62
304.013	9533.44
304.079	9521.5
304.145	9500.45
304.212	9499.1
304.278	9489.28
304.344	9486.44
304.41	9476.57
304.476	9467.51
304.542	9470.69
304.608	9469.15
304.674	9447.43
304.741	9446.27
304.807	9452.15
304.873	9457.11
304.939	9470.55
305.005	9454.75
305.071	9462.02
305.137	9467.08
305.203	9445.41
305.269	9445.7
305.335	9466.26
305.401	9460.05
305.467	9460.24
305.533	9470.45
305.599	9485.62
305.666	9495.78
305.732	9495.2
305.798	9512.49
305.864	9533.54
305.93	9534.5
305.996	9536.28
306.062	9537.73
306.128	9532.19
306.194	9521.93
306.259	9518.32
306.325	9507.34
306.391	9515.28
306.457	9515.28
306.523	9525.35
306.589	9545.24
306.655	9542.01
306.721	9517.21
306.787	9508.16
306.853	9525.45
306.919	9512.78
306.985	9494.91
307.051	9484.9
307.117	9480.52
307.183	9472.33
307.248	9447.38
307.314	9452.53
307.38	9461.11
307.446	9471.03
307.512	9459.71
307.578	9458.27
307.644	9452.2
307.709	9452.34
307.775	9450.32
307.841	9449.17
307.907	9436.45
307.973	9421.86
308.039	9417.33
308.104	9428.65
308.17	9433.8
308.236	9415.12
308.302	9419.98
308.368	9415.5
308.433	9417.43
308.499	9409.67
308.565	9393.16
308.631	9396.77
308.696	9374.57
308.762	9356.61
308.828	9354.88
308.894	9338.46
308.959	9316.7
309.025	9310.92
309.091	9310.44
309.156	9304.75
309.222	9308.37
309.288	9296.81
309.354	9274.81
309.419	9271.53
309.485	9256.75
309.551	9254.58
309.616	9243.99
309.682	9234.65
309.748	9223.57
309.813	9216.69
309.879	9206.43
309.945	9195.55
310.01	9192.9
310.076	9193.43
310.141	9188.48
310.207	9161.66
310.273	9166.13
310.338	9169.55
310.404	9158.53
310.469	9141
310.535	9128.63
310.601	9103.54
310.666	9111.92
310.732	9118.8
310.797	9108.26
310.863	9100.27
310.928	9092.66
310.994	9095.64
311.059	9088.66
311.125	9087.51
311.191	9101.57
311.256	9092.37
311.322	9099.84
311.387	9074.03
311.453	9331.81
311.518	9311.64
311.584	9318.67
311.649	9320.64
311.715	9311.4
311.78	9308.7
311.846	9301.1
311.911	9305.57
311.976	9307.93
312.042	9288.48
312.107	9270.53
312.173	9263.5
312.238	9248.43
312.304	9238.9
312.369	9223.88
312.434	9218.68
312.5	9209.73
312.565	9175.21
312.631	9181.94
312.696	9171.11
312.761	9175.49
312.827	8909.24
312.892	8941.45
312.958	8936.3
313.023	8931.44
313.088	8927.59
313.154	8913.82
313.219	8907.85
313.284	8897.79
313.35	8894.23
313.415	8888.59
313.48	8893.89
313.546	8897.89
313.611	8912.57
313.676	8909.25
313.741	8897.6
313.807	8904.29
313.872	8913
313.937	8914.06
314.003	8922.92
314.068	8922.29
314.133	8922.1
314.198	8914.78
314.264	8895.72
314.329	8890.04
314.394	8889.51
314.459	8891.48
314.525	8908.66
314.59	8902.07
314.655	8887.78
314.72	8894.13
314.785	8894.27
314.851	8882.82
314.916	8863.23
314.981	8844.45
315.046	8837.81
315.111	8833.1
315.176	8825.54
315.242	8818.99
315.307	8814.47
315.372	8792.95
315.437	8786.21
315.502	8780.67
315.567	8782.65
315.632	8769.07
315.698	8766.19
315.763	8755.79
315.828	8749.72
315.893	8744.04
315.958	8736.2
316.023	8730.38
316.088	8705.49
316.153	8682.68
316.218	8677.44
316.283	8655.88
316.348	8643.32
316.413	8638.36
316.479	8623.59
316.544	8585.81
316.609	8559.68
316.674	8527.64
316.739	8494.48
316.804	8466.57
316.869	8432.6
316.934	8398.1
316.999	8363.17
317.064	8304.62
317.129	8267.28
317.194	8229.9
317.259	8183.51
317.324	8137.29
317.389	8090.78
317.454	8053.5
317.518	8019.25
317.583	7989.71
317.648	7966.82
317.713	7932.38
317.778	7871.92
317.843	7844.12
317.908	7803.82
317.973	7762.47
318.038	7736.45
318.103	7699.09
318.168	7662.31
318.233	7633.55
318.297	7580.23
318.362	7548.45
318.427	7518.41
318.492	7490.19
318.557	7439.09
318.622	7410.97
318.687	7385.3
318.751	7350.85
318.816	7315.95
318.881	7282.17
318.946	7229.06
319.011	7184.65
319.075	7140.63
319.14	7108.63
319.205	7061.39
319.27	7027.72
319.335	6985.54
319.399	6937.88
319.464	6908.91
319.529	6858.04
319.594	6813.26
319.658	6788.96
319.723	6743.52
319.788	6714.23
319.853	6653.85
319.917	6626.34
319.982	6575.38
320.047	6534.33
320.112	6506.53
320.176	6457.41
320.241	6420.93
320.306	6393.99
320.37	6349.64
320.435	6317.38
320.5	6282.73
320.564	6243.99
320.629	6204.64
320.694	6173.88
320.758	6137.56
320.823	6088.61
320.888	6059.83
320.952	6013.91
321.017	5968.87
321.082	5927.18
321.146	5895.42
321.211	5866.4
321.275	5825.97
321.34	5778.45
321.405	5736.82
321.469	5688.63
321.534	5649.37
321.598	5604.15
321.663	5569.76
321.727	5540.28
321.792	5489.66
321.857	5450.35
321.921	5411.34
321.986	5367.73
322.05	5309.23
322.115	5268.97
322.179	5229.64
322.244	5175.61
322.308	5142.84
322.373	5099.97
322.437	5058.83
322.502	5028.92
322.566	4985.62
322.631	4948.41
322.695	4911.64
322.76	4869.84
322.824	4837.52
322.889	4797.27
322.953	4751.95
323.018	4684.45
323.082	4621.19
323.146	4573.73
323.211	4520.57
323.275	4478.18
323.34	4432.69
323.404	4402.75
323.468	4357.07
323.533	4312.02
323.597	4271.86
323.662	4218.11
323.726	4180.71
323.79	4140.22
323.855	4074.59
323.919	4023.78
323.983	3978.79
324.048	3909.92
324.112	4062.16
324.177	3932.28
324.241	3727.67
324.305	3528.07
324.37	3334.89
324.434	3148.72
324.498	3107.35
324.562	3060.2
324.627	3000.55
324.691	2948.71
324.755	2882.74
324.82	2811.51
324.884	2738.93
324.948	2664.6
325.012	2576.45
325.077	2461.24
