Data from 20250702_urea_0.5M_MAYP1162681_23-04-59-929.txt Node
Date: Wed Jul 02 23:04:59 BST 2025
User: adleo
Spectrometer: MAYP116268
Trigger mode: 0
Integration Time (sec): 1.000000E0
Scans to average: 1
Electric dark correction enabled: true
Nonlinearity correction enabled: true
Boxcar width: 10
XAxis mode: Wavelengths
Number of Pixels in Spectrum: 2068
>>>>>Begin Spectral Data<<<<<
179.565	1227.4
179.642	1283.24
179.718	1328.5
179.795	1371.21
179.871	1405.43
179.948	1424.21
180.024	1445.47
180.101	1467.31
180.177	1482.44
180.254	1506.04
180.33	1530
180.407	1586.84
180.483	1683.47
180.56	1776.22
180.636	1861.25
180.712	1846.6
180.789	1856.92
180.865	1868.32
180.942	1877.02
181.018	1887.81
181.095	1897.42
181.171	1904.74
181.248	1906.45
181.324	1917.96
181.4	1922.19
181.477	1932.7
181.553	1948.1
181.63	1969.73
181.706	1986.09
181.782	1995.08
181.859	1993.22
181.935	1994.93
182.011	1988.94
182.088	2004.49
182.164	2025.57
182.24	2043.59
182.317	2055.57
182.393	2051.39
182.469	2069.56
182.546	2084.4
182.622	2089.82
182.698	2087.39
182.775	2097.14
182.851	2109.22
182.927	2105.04
183.003	2100.38
183.08	2096.86
183.156	2103.9
183.232	2099.76
183.308	2090.72
183.385	2097.24
183.461	2116.83
183.537	2120.07
183.613	2134.72
183.69	2125.06
183.766	2110.17
183.842	2112.69
183.918	2118.68
183.995	2135.62
184.071	2135.76
184.147	2130.57
184.223	2120.3
184.299	2133.91
184.375	2123.59
184.452	2132.39
184.528	2188.6
184.604	2200.63
184.68	2210.72
184.756	2219.52
184.832	2220.57
184.908	2222.42
184.985	2222.9
185.061	2206.48
185.137	2212.67
185.213	2201.78
185.289	2205.87
185.365	2199.59
185.441	2199.64
185.517	2211.63
185.593	2208.06
185.669	2206.11
185.745	2215.91
185.822	2234.27
185.898	2223.99
185.974	2233.07
186.05	2226.17
186.126	2185.05
186.202	2178.39
186.278	2174.54
186.354	2163.5
186.43	2171.92
186.506	2172.59
186.582	2172.63
186.658	2181.29
186.734	2165.88
186.81	2167.88
186.886	2168.54
186.962	2178.29
187.038	2172.06
187.114	2164.26
187.19	2171.73
187.266	2161.88
187.341	2164.07
187.417	2155.22
187.493	2156.46
187.569	2161.12
187.645	2154.56
187.721	2142.14
187.797	2149.42
187.873	2152.75
187.949	2148.51
188.025	2145.37
188.101	2149.56
188.176	2153.12
188.252	2145.94
188.328	2156.17
188.404	2154.07
188.48	2152.98
188.556	2147.94
188.632	2151.98
188.707	2150.79
188.783	2145.56
188.859	2139.76
188.935	2128.1
189.011	2136
189.086	2130.91
189.162	2120.63
189.238	2117.92
189.314	2116.78
189.39	2111.74
189.465	2104.79
189.541	2119.78
189.617	2104.27
189.693	2095.61
189.768	2098.94
189.844	2126.79
189.92	2114.09
189.996	2123.37
190.071	2133.83
190.147	2132.79
190.223	2140.02
190.298	2135.4
190.374	2122.42
190.45	2133.78
190.526	2144.15
190.601	2137.02
190.677	2138.35
190.753	2166.53
190.828	2169.19
190.904	2185.51
190.98	2199.41
191.055	2211.06
191.131	2199.93
191.207	2218.39
191.282	2230.13
191.358	2221.14
191.433	2201.77
191.509	2214.89
191.585	2212.7
191.66	2217.65
191.736	2226.07
191.811	2218.84
191.887	2234.41
191.963	2258.72
192.038	2266.81
192.114	2265.43
192.189	2269.62
192.265	2266
192.34	2243.2
192.416	2244.1
192.491	2237.39
192.567	2241.87
192.642	2243.1
192.718	2246.96
192.793	2236.54
192.869	2230.88
192.944	2232.64
193.02	2243.25
193.095	2250.67
193.171	2258
193.246	2252.91
193.322	2250.34
193.397	2250.1
193.473	2233.77
193.548	2214.64
193.624	2218.78
193.699	2215.64
193.775	2232.92
193.85	2232.87
193.925	2241.91
194.001	2239.54
194.076	2234.92
194.152	2222.31
194.227	2217.31
194.302	2206.7
194.378	2208.08
194.453	2208.04
194.529	2220.93
194.604	2205.13
194.679	2194.1
194.755	2171.41
194.83	2183.88
194.905	2184.64
194.981	2192.68
195.056	2188.4
195.131	2195.82
195.207	2196.35
195.282	2186.69
195.357	2165.56
195.433	2179.5
195.508	2168.46
195.583	2179.12
195.659	2194.54
195.734	2203.53
195.809	2200.91
195.884	2210.57
195.96	2214.09
196.035	2229.13
196.11	2224.41
196.185	2235.69
196.261	2241.68
196.336	2276.56
196.411	2260.38
196.486	2267.42
196.561	2264.42
196.637	2272.6
196.712	2288.84
196.787	2291.84
196.862	2308.01
196.937	2320.72
197.013	2330
197.088	2342.18
197.163	2362.47
197.238	2378.42
197.313	2377.19
197.388	2393.18
197.464	2423.51
197.539	2433.41
197.614	2423.99
197.689	2437.8
197.764	2454.98
197.839	2475.12
197.914	2467.07
197.989	2491.98
198.065	2505.64
198.14	2551.57
198.215	2578.72
198.29	2587.63
198.365	2599.1
198.44	2609.01
198.515	2636.97
198.59	2654.02
198.665	2680.22
198.74	2688.18
198.815	2687.47
198.89	2710.81
198.965	2741.12
199.04	2735.73
199.115	2751.31
199.19	2797.19
199.265	2800
199.34	2808.95
199.415	2845.19
199.49	2870.82
199.565	2878.68
199.64	2899.32
199.715	2899.51
199.79	2906.14
199.865	2914.67
199.94	2912.95
200.015	2945.46
200.09	2950.75
200.165	2955.38
200.24	2961.1
200.315	3002.99
200.39	3019.3
200.464	3026.45
200.539	3026.4
200.614	3041.08
200.689	3065.73
200.764	3074.23
200.839	3093.72
200.914	3100.39
200.989	3090.56
201.063	3102.44
201.138	3088.1
201.213	3089.76
201.288	3070.12
201.363	3073.41
201.438	3073.36
201.512	3088.76
201.587	3073.4
201.662	3078.74
201.737	3091.62
201.812	3097.24
201.886	3063.07
201.961	3073.81
202.036	3061.94
202.111	3057.27
202.186	3029.87
202.26	3012.51
202.335	2988.14
202.41	2980.23
202.485	2962.26
202.559	2940.38
202.634	2912.3
202.709	2919.45
202.784	2900.48
202.858	2900.33
202.933	2882.32
203.008	2875.98
203.082	2856.63
203.157	2855.35
203.232	2810.09
203.306	2790.49
203.381	2759.61
203.456	2735.11
203.53	2712.94
203.605	2691.22
203.68	2669.63
203.754	2662.97
203.829	2647.67
203.904	2628.28
203.978	2615.71
204.053	2623.19
204.127	2610.61
204.202	2612.19
204.277	2593.14
204.351	2586.66
204.426	2577.46
204.5	2569.03
204.575	2536.66
204.65	2548.19
204.724	2538.8
204.799	2547.79
204.873	2539.55
204.948	2538.84
205.022	2527.41
205.097	2518.16
205.171	2531.07
205.246	2541.07
205.32	2541.41
205.395	2542.93
205.469	2532.79
205.544	2540.32
205.618	2519.13
205.693	2529.65
205.767	2515.89
205.842	2540.08
205.916	2533.04
205.991	2522.42
206.065	2527.75
206.14	2542.27
206.214	2538.84
206.289	2531.98
206.363	2544.79
206.438	2550.41
206.512	2560.51
206.586	2579.36
206.661	2582.74
206.735	2564.51
206.81	2565.42
206.884	2579.99
206.958	2565.13
207.033	2584.37
207.107	2590.37
207.181	2624.34
207.256	2619.48
207.33	2640.72
207.405	2653.5
207.479	2675.84
207.553	2686.75
207.628	2675.03
207.702	2688.56
207.776	2684.84
207.851	2692.42
207.925	2711.53
207.999	2713.58
208.073	2717.34
208.148	2728.3
208.222	2725.97
208.296	2766.45
208.371	2788.92
208.445	2809.79
208.519	2850.86
208.593	2872.55
208.668	2881.94
208.742	2898.35
208.816	2913.41
208.89	2939.64
208.965	2955.76
209.039	2982.05
209.113	3021.53
209.187	3064.03
209.261	3084.82
209.336	3129.99
209.41	3175.16
209.484	3199.35
209.558	3245.82
209.632	3289.57
209.707	3333.24
209.781	3387.59
209.855	3437.05
209.929	3487.4
210.003	3534.33
210.077	3573.58
210.151	3668.84
210.226	3745.81
210.3	3820.4
210.374	3894.8
210.448	3954.44
210.522	4017.4
210.596	4082.42
210.67	4147.67
210.744	4252.21
210.818	4345.48
210.892	4428.78
210.966	4488.94
211.041	4576.97
211.115	4645.91
211.189	4742.21
211.263	4828.85
211.337	4914.96
211.411	5006.87
211.485	5087.36
211.559	5179.17
211.633	5266.17
211.707	5320.2
211.781	5416.34
211.855	5472.19
211.929	5558.31
212.003	5629.9
212.077	5737.3
212.151	5845.37
212.225	5952.58
212.299	6041.33
212.373	6132.5
212.447	6228.6
212.52	6372.27
212.594	6481.69
212.668	6602.38
212.742	6695.93
212.816	6802.8
212.89	6906.34
212.964	7014.99
213.038	7134.27
213.112	7267.31
213.186	7399.36
213.26	7492.15
213.333	7567.62
213.407	7688.85
213.481	7809.31
213.555	7943.29
213.629	8046.8
213.703	8146.47
213.777	8266.75
213.85	8367.89
213.924	8524.67
213.998	8650.43
214.072	8763.23
214.146	8873.5
214.219	8989.22
214.293	9100.03
214.367	9226.94
214.441	9353.31
214.515	9465.27
214.588	9561.2
214.662	9642.35
214.736	9737.7
214.81	9861.17
214.883	9989.22
214.957	10097.68
215.031	10198.88
215.105	10289.53
215.178	10386.16
215.252	10499.28
215.326	10580.32
215.4	10680.29
215.473	10742.5
215.547	10830.64
215.621	10916.33
215.694	11028.23
215.768	11118.25
215.842	11213.86
215.915	11302.53
215.989	11384.85
216.063	11483.61
216.136	11583.37
216.21	11686.51
216.284	11799.63
216.357	11903.65
216.431	11994.5
216.504	12102.72
216.578	12232.81
216.652	12342.8
216.725	12454.59
216.799	12561.89
216.873	12673.43
216.946	12773.21
217.02	12866.53
217.093	12952.58
217.167	13031.49
217.24	13110.98
217.314	13194.86
217.387	13279.99
217.461	13362.04
217.535	13474.99
217.608	13544.5
217.682	13631.17
217.755	13724.89
217.829	13799.27
217.902	13887.78
217.976	13980.57
218.049	14051.19
218.123	14115.5
218.196	14206.75
218.27	14280.84
218.343	14347.9
218.417	14425.27
218.49	14495.36
218.563	14583.33
218.637	14676.85
218.71	14782.85
218.784	14868.74
218.857	14960.67
218.931	15049.51
219.004	15122.2
219.077	15194.89
219.151	15279.82
219.224	15349.86
219.298	15425.87
219.371	15513.02
219.444	15565.66
219.518	15627.55
219.591	15712.33
219.665	15811.67
219.738	15887.78
219.811	15947.35
219.885	16025.48
219.958	16110.26
220.031	16186.13
220.105	16264.74
220.178	16334.77
220.251	16381.52
220.325	16450.15
220.398	16518.78
220.471	16593.44
220.544	16674.07
220.618	16736.1
220.691	16799.62
220.764	16872.35
220.838	16942.04
220.911	17002.57
220.984	17093.28
221.057	17168.6
221.131	17226.68
221.204	17255.3
221.277	17327.4
221.35	17419.59
221.424	17474.63
221.497	17526.2
221.57	17585.38
221.643	17642
221.716	17699.64
221.79	17758.48
221.863	17806.43
221.936	17868.36
222.009	17911.4
222.082	17963.01
222.155	18007.34
222.229	18074.67
222.302	18116.11
222.375	18165.75
222.448	18218.52
222.521	18255.48
222.594	18304.39
222.667	18337.21
222.74	18393.5
222.814	18429.64
222.887	18464.05
222.96	18516.04
223.033	18564.86
223.106	18615.89
223.179	18667.41
223.252	18712.13
223.325	18754.54
223.398	18806.2
223.471	18836.17
223.544	18880.75
223.617	18928.02
223.69	18971.01
223.763	18999.29
223.837	19048.16
223.91	19087.53
223.983	19106.03
224.056	19132.83
224.129	19167.28
224.202	19218.7
224.275	19240.29
224.348	19267.71
224.42	19280.53
224.493	19295.76
224.566	19319.56
224.639	19348.96
224.712	19363.46
224.785	19391.17
224.858	19422.01
224.931	19440.9
225.004	19456.71
225.077	19484.32
225.15	19480.52
225.223	19501.82
225.296	19548.95
225.369	19557.62
225.442	19572.22
225.514	19604.65
225.587	19635.88
225.66	19663.25
225.733	19687.25
225.806	19727.06
225.879	19747.15
225.952	19769.22
226.025	19800.45
226.097	19841.61
226.17	19859.92
226.243	19861.46
226.316	19875.44
226.389	19897.7
226.461	19915.87
226.534	19955
226.607	19982.33
226.68	20026.9
226.753	20052.11
226.825	20050.08
226.898	20087.14
226.971	20113.4
227.044	20140.05
227.117	20162.27
227.189	20181.89
227.262	20212.68
227.335	20218.56
227.407	20228.87
227.48	20251.47
227.553	20275.62
227.626	20275.09
227.698	20286.65
227.771	20318.99
227.844	20324.48
227.916	20334.56
227.989	20339.33
228.062	20339.47
228.134	20367.14
228.207	20379.04
228.28	20381.88
228.352	20399.71
228.425	20407.71
228.498	20425.21
228.57	20418.12
228.643	20451.14
228.716	20465.3
228.788	20456.15
228.861	20468.49
228.934	20500.77
229.006	20514.9
229.079	20523.47
229.151	20544.97
229.224	20539.72
229.296	20548.34
229.369	20585.26
229.442	20611.96
229.514	20612.25
229.587	20632.78
229.659	20618.13
229.732	20630.8
229.804	20649.02
229.877	20673.16
229.949	20697.21
230.022	20720.54
230.094	20733.89
230.167	20735.19
230.239	20731.24
230.312	20744.88
230.384	20780.93
230.457	20784.35
230.529	20795.39
230.602	20799.29
230.674	20804.5
230.747	20832.11
230.819	20847.48
230.892	20824.59
230.964	20830.09
231.037	20845.99
231.109	20857.07
231.181	20874.18
231.254	20872.16
231.326	20875.1
231.399	20875.97
231.471	20866.95
231.544	20843.58
231.616	20852.83
231.688	20853.27
231.761	20846.37
231.833	20848.64
231.905	20819.72
231.978	20825.7
232.05	20818.32
232.122	20817.5
232.195	20800.35
232.267	20814.42
232.339	20799.38
232.412	20806.52
232.484	20788.3
232.556	20775.09
232.629	20782.03
232.701	20791.09
232.773	20782.71
232.846	20772.78
232.918	20757.98
232.99	20749.02
233.062	20751.38
233.135	20750.8
233.207	20732.35
233.279	20732.59
233.351	20724.59
233.424	20711.33
233.496	20685.55
233.568	20699.14
233.64	20683.86
233.713	20681.07
233.785	20666.37
233.857	20667.48
233.929	20647.28
234.001	20657.93
234.074	20669.21
234.146	20634.03
234.218	20609.35
234.29	20599.43
234.362	20581.06
234.434	20562.17
234.507	20549.26
234.579	20523.67
234.651	20508.29
234.723	20502.99
234.795	20505.55
234.867	20489.64
234.939	20496.77
235.012	20484.53
235.084	20468.29
235.156	20457.16
235.228	20431.71
235.3	20408.15
235.372	20396.15
235.444	20388
235.516	20348.15
235.588	20325.93
235.66	20321.01
235.732	20298.22
235.804	20334.46
235.876	20328.58
235.948	20324.15
236.02	20302.03
236.092	20283.33
236.164	20266.95
236.236	20235.96
236.308	20201.02
236.38	20179.19
236.452	20152.83
236.524	20129.21
236.596	20131.62
236.668	20123
236.74	20097.31
236.812	20082.42
236.884	20061.46
236.956	20050.95
237.028	20025.22
237.1	20000.98
237.172	19984.79
237.244	19983.58
237.316	19917.27
237.388	19885.89
237.46	19851.34
237.532	19841.08
237.604	19813.46
237.675	19799.68
237.747	19784.26
237.819	19757.23
237.891	19737.03
237.963	19696.84
238.035	19668.51
238.107	19596.03
238.178	19570.05
238.25	19544.51
238.322	19541.67
238.394	19497.19
238.466	19455.27
238.538	19432.47
238.609	19408.28
238.681	19369.34
238.753	19325.63
238.825	19308
238.897	19287.42
238.968	19276.34
239.04	19237.69
239.112	19230.56
239.184	19192.68
239.255	19165.6
239.327	19142.22
239.399	19109.31
239.471	19092.35
239.542	19072.3
239.614	19054.71
239.686	19005.46
239.758	18994.62
239.829	18948.69
239.901	18935.59
239.973	18917.71
240.044	18898.24
240.116	18872.65
240.188	18834.97
240.259	18806.68
240.331	18765.91
240.403	18743.5
240.474	18703.22
240.546	18670.45
240.618	18625.2
240.689	18583.22
240.761	18548.96
240.833	18540.86
240.904	18518.26
240.976	18488.96
241.048	18466.07
241.119	18454.36
241.191	18433.93
241.262	18422.46
241.334	18390.17
241.405	18356.97
241.477	18309.98
241.549	18275.62
241.62	18238.95
241.692	18222.86
241.763	18189.94
241.835	18153.32
241.906	18112.35
241.978	18059.39
242.049	18039.34
242.121	18020.02
242.192	18012.84
242.264	17976.98
242.335	17916.17
242.407	17888.55
242.478	17847.78
242.55	17820.89
242.621	17772.03
242.693	17735.98
242.764	17689.48
242.836	17650.49
242.907	17629.33
242.979	17613.81
243.05	17579.16
243.122	17559.16
243.193	17519.94
243.264	17475.12
243.336	17443.98
243.407	17434.68
243.479	17426.88
243.55	17401.43
243.622	17370.39
243.693	17324.66
243.764	17297.72
243.836	17261.09
243.907	17224.9
243.978	17196.17
244.05	17168.75
244.121	17121.28
244.192	17102.82
244.264	17052.27
244.335	17022.34
244.407	16971.11
244.478	16936.17
244.549	16897.13
244.62	16848.74
244.692	16813.51
244.763	16802.09
244.834	16760.98
244.906	16713.84
244.977	16681.79
245.048	16658.9
245.119	16610.17
245.191	16572.72
245.262	16532.24
245.333	16519.76
245.405	16482.6
245.476	16457.44
245.547	16419.17
245.618	16400.57
245.689	16361.43
245.761	16342.92
245.832	16304.12
245.903	16282.44
245.974	16253.95
246.045	16220.69
246.117	16211.29
246.188	16164.93
246.259	16113.84
246.33	16093.4
246.401	16061.2
246.473	16019.95
246.544	15980.18
246.615	15963.84
246.686	15926.2
246.757	15905.14
246.828	15860.5
246.899	15846.77
246.97	15793.94
247.042	15755.48
247.113	15727.23
247.184	15718.07
247.255	15674.07
247.326	15645.77
247.397	15607.74
247.468	15581.18
247.539	15555.64
247.61	15504.06
247.681	15489.26
247.752	15472.35
247.823	15429.54
247.894	15394.74
247.965	15353.19
248.037	15313.91
248.108	15261.32
248.179	15237.8
248.25	15203.76
248.321	15181.25
248.392	15130.35
248.463	15126.35
248.534	15093.38
248.605	15073.91
248.675	15038.53
248.746	15011.73
248.817	14993.89
248.888	14972.3
248.959	14916.86
249.03	14896.95
249.101	14872.08
249.172	14834.58
249.243	14786.18
249.314	14768.97
249.385	14748.1
249.456	14727.23
249.527	14702.4
249.598	14689.92
249.669	14658.87
249.739	14632.36
249.81	14607.49
249.881	14576.01
249.952	14542.17
250.023	14511.32
250.094	14466.15
250.165	14421.32
250.235	14392.06
250.306	14359.47
250.377	14314.45
250.448	14298.44
250.519	14251.64
250.59	14237.51
250.66	14208.88
250.731	14201.5
250.802	14175.86
250.873	14145.97
250.944	14124.37
251.014	14086
251.085	14085.13
251.156	14066.62
251.227	14061.22
251.297	14048.93
251.368	14034.47
251.439	14027.29
251.51	14018.71
251.58	13990.65
251.651	13969.97
251.722	13962.79
251.792	13920.22
251.863	13901.95
251.934	13896.12
252.005	13906.34
252.075	13877.94
252.146	13867
252.217	13850.76
252.287	13834.61
252.358	13810.12
252.429	13802.65
252.499	13772.13
252.57	13747.11
252.641	13731.06
252.711	13700.74
252.782	13657.3
252.852	13658.17
252.923	13628.76
252.994	13609.48
253.064	13597.09
253.135	13557.27
253.205	13530.62
253.276	13525.84
253.347	13516.44
253.417	13480.43
253.488	13443.46
253.558	13418.39
253.629	13394.77
253.699	13373.7
253.77	13358.18
253.841	13337.84
253.911	13323.81
253.982	13303.71
254.052	13287.37
254.123	13269.38
254.193	13245.86
254.264	13263.46
254.334	13226.72
254.405	13194.33
254.475	13155.76
254.546	13128.43
254.616	13123.27
254.687	13098.06
254.757	13082.3
254.827	13053.85
254.898	13044.21
254.968	13024.45
255.039	12996.25
255.109	12978.6
255.18	12949.63
255.25	12899.5
255.321	12881.66
255.391	12833.51
255.461	12842.71
255.532	12791.86
255.602	12752.91
255.673	12712.22
255.743	12676.45
255.813	12625.35
255.884	12611.66
255.954	12599.81
256.024	12593.15
256.095	12577.29
256.165	12542.44
256.235	12519.74
256.306	12493.66
256.376	12472.5
256.446	12454.32
256.517	12440.39
256.587	12435.67
256.657	12414.85
256.728	12410.55
256.798	12385.3
256.868	12368.09
256.938	12334.63
257.009	12324.75
257.079	12323.93
257.149	12329.57
257.219	12294.38
257.29	12289.03
257.36	12248.93
257.43	12235.58
257.5	12198.22
257.571	12173.3
257.641	12173.64
257.711	12146.06
257.781	12134.01
257.852	12125
257.922	12088.56
257.992	12070.97
258.062	12045.37
258.132	12035.87
258.202	12009.75
258.273	11993.22
258.343	11985.74
258.413	11958.37
258.483	11936.82
258.553	11899.85
258.623	11874.3
258.693	11851.99
258.764	11851.26
258.834	11850.4
258.904	11832.32
258.974	11807.11
259.044	11785.66
259.114	11761.52
259.184	11752.26
259.254	11735.92
259.324	11689.07
259.394	11681.6
259.464	11676.78
259.535	11653.94
259.605	11628.87
259.675	11602.32
259.745	11582.99
259.815	11558.84
259.885	11532.48
259.955	11544.92
260.025	11518.84
260.095	11495.42
260.165	11484.43
260.235	11479.37
260.305	11454.21
260.375	11421.44
260.445	11431.32
260.515	11429.05
260.585	11421.68
260.655	11403.27
260.725	11394.54
260.795	11394.74
260.865	11394.25
260.934	11363.26
261.004	11353.48
261.074	11333.05
261.144	11334.3
261.214	11336.32
261.284	11316.18
261.354	11312.13
261.424	11282.92
261.494	11284.46
261.564	11269.86
261.634	11262.49
261.703	11224.37
261.773	11211.69
261.843	11209.57
261.913	11189.43
261.983	11154.44
262.053	11142.54
262.123	11120.99
262.192	11090.83
262.262	11082.44
262.332	11049.77
262.402	11049.04
262.472	11034.63
262.541	11005.48
262.611	10995.46
262.681	10967.03
262.751	10955.22
262.821	10937.63
262.89	10906.88
262.96	10906.16
263.03	10914.31
263.1	10901.58
263.169	10886.89
263.239	10874.94
263.309	10880.14
263.379	10866.5
263.448	10851.95
263.518	10846.31
263.588	10835.42
263.657	10834.7
263.727	10824.39
263.797	10808.87
263.867	10785.94
263.936	10756.54
264.006	10750.95
264.076	10731.58
264.145	10717.66
264.215	10696.07
264.285	10692.8
264.354	10660.8
264.424	10631.8
264.494	10591.71
264.563	10570.94
264.633	10578.36
264.702	10575.32
264.772	10534.07
264.842	10514.8
264.911	10510.8
264.981	10476.3
265.05	10463.29
265.12	10450.67
265.19	10439.1
265.259	10434.62
265.329	10429.04
265.398	10416.94
265.468	10434.91
265.537	10420.85
265.607	10406.2
265.676	10407.26
265.746	10392.04
265.815	10389.58
265.885	10373.49
265.955	10353.83
266.024	10331.77
266.094	10286.72
266.163	10279.16
266.232	10282.53
266.302	10267.45
266.371	10253
266.441	10242.01
266.51	10231.51
266.58	10211.62
266.649	10184.93
266.719	10185.84
266.788	10176.06
266.858	10176.35
266.927	10133.09
266.996	10126.15
267.066	10118.44
267.135	10089.39
267.205	10086.94
267.274	10083.66
267.343	10088
267.413	10078.65
267.482	10084.34
267.552	10087.95
267.621	10057.6
267.69	10024.75
267.76	10010.25
267.829	9997.82
267.898	9987.85
267.968	9962.08
268.037	9959.82
268.106	9962.18
268.176	9932.41
268.245	9916.75
268.314	9899.26
268.384	9897.05
268.453	9887.7
268.522	9876.77
268.592	9883.18
268.661	9860.44
268.73	9848.59
268.799	9823.83
268.869	9828.26
268.938	9802.01
269.007	9783.9
269.076	9776.97
269.146	9773.88
269.215	9771.09
269.284	9781.16
269.353	9762.81
269.422	9756.55
269.492	9735.89
269.561	9692.2
269.63	9689.8
269.699	9670.05
269.768	9658.54
269.838	9654.01
269.907	9643.22
269.976	9618.85
270.045	9579.22
270.114	9578.5
270.183	9565.06
270.253	9551.82
270.322	9520.85
270.391	9501.21
270.46	9505.25
270.529	9502.41
270.598	9503.57
270.667	9489.6
270.736	9458.87
270.806	9449.05
270.875	9447.85
270.944	9430.13
271.013	9451.07
271.082	9437.54
271.151	9438.6
271.22	9415.97
271.289	9401.95
271.358	9393.24
271.427	9390.83
271.496	9389.72
271.565	9371.66
271.634	9362.85
271.703	9396.95
271.772	9403.69
271.841	9398.78
271.91	9377.21
271.979	9369.21
272.048	9338.78
272.117	9341.38
272.186	9331.13
272.255	9330.11
272.324	9327.66
272.393	9332.71
272.462	9321.78
272.531	9316.58
272.6	9299.34
272.669	9303.53
272.738	9289.42
272.807	9281.86
272.876	9263.57
272.945	9283.21
273.013	9289.86
273.082	9292.41
273.151	9244.83
273.22	9238.72
273.289	9233.47
273.358	9243.19
273.427	9229.86
273.496	9233.8
273.564	9223.79
273.633	9228.89
273.702	9213.2
273.771	9202.46
273.84	9192.98
273.909	9184.89
273.977	9181.47
274.046	9173.43
274.115	9180.94
274.184	9167.75
274.253	9157.83
274.322	9164.47
274.39	9133.18
274.459	9114.83
274.528	9082.39
274.597	9072.66
274.665	9068.38
274.734	9074.2
274.803	9063.03
274.872	9052.97
274.94	9037.71
275.009	9090.31
275.078	9069.32
275.147	9068.06
275.215	9062.33
275.284	9067.92
275.353	9054.73
275.421	9031.38
275.49	9044.91
275.559	9031.96
275.627	9025.46
275.696	9013.04
275.765	9015.25
275.833	9012.94
275.902	9010.44
275.971	9026.47
276.039	9048.37
276.108	9049.53
276.177	9045.2
276.245	9025.94
276.314	9020.41
276.383	9023.44
276.451	8957.94
276.52	8961.6
276.588	8974.31
276.657	8979.46
276.725	8965.35
276.794	8964.63
276.863	8976.62
276.931	8950.48
277	8949.42
277.068	8961.21
277.137	8983.89
277.205	8979.55
277.274	8994.24
277.342	8998.66
277.411	8978.02
277.48	8957.02
277.548	8947.83
277.617	8949.32
277.685	8946.43
277.754	8948.22
277.822	8942.92
277.89	8961.22
277.959	8952.5
278.027	8931.03
278.096	8920.2
278.164	8952.32
278.233	8945.62
278.301	8931.47
278.37	8938.98
278.438	8930.37
278.507	8928.49
278.575	8898.45
278.643	8892.96
278.712	8874.09
278.78	8858.59
278.849	8866.19
278.917	8874.96
278.985	8864.94
279.054	8860.03
279.122	8875.92
279.191	8871.49
279.259	8865.28
279.327	8842.94
279.396	8861.23
279.464	8860.46
279.532	8864.8
279.601	8853.96
279.669	8854.68
279.737	8867.05
279.806	8869.7
279.874	8876.06
279.942	8877.36
280.011	8876.88
280.079	8883.33
280.147	8903.21
280.215	8907.73
280.284	8911.92
280.352	8897.57
280.42	8910.52
280.488	8902.82
280.557	8892.04
280.625	8901.86
280.693	8904.79
280.761	8906
280.83	8894.15
280.898	8907.68
280.966	8886.74
281.034	8857.18
281.102	8845.2
281.171	8842.84
281.239	8851.99
281.307	8845.68
281.375	8830.09
281.443	8854.69
281.512	8857.09
281.58	8862.58
281.648	8852.19
281.716	8845.11
281.784	8848.14
281.852	8835.87
281.92	8831.92
281.989	8844.58
282.057	8823.16
282.125	8873.53
282.193	8870.54
282.261	8863.71
282.329	8859.52
282.397	8864.33
282.465	8863.66
282.533	8871.79
282.601	8855.76
282.67	8827.84
282.738	8820.62
282.806	8836.22
282.874	8816.19
282.942	8813.69
283.01	8803.72
283.078	8807.24
283.146	8807.52
283.214	8816
283.282	8823.17
283.35	8837.27
283.418	8827.07
283.486	8831.83
283.554	8782.82
283.622	8789.22
283.69	8791.58
283.758	8781.52
283.826	8789.7
283.894	8798.75
283.962	8822
284.03	8833.31
284.098	8839.13
284.165	8832.01
284.233	8821.85
284.301	8822.91
284.369	8811.84
284.437	8805.68
284.505	8801.01
284.573	8820.27
284.641	8804.57
284.709	8807.41
284.777	8792.69
284.845	8806.02
284.912	8817.72
284.98	8822.63
285.048	8809.44
285.116	8811.8
285.184	8822.53
285.252	8822.19
285.319	8809.2
285.387	8797.45
285.455	8785.47
285.523	8789.99
285.591	8790.86
285.659	8798.8
285.726	8806.36
285.794	8792.64
285.862	8787.97
285.93	8787.54
285.997	8775.65
286.065	8774.11
286.133	8769.29
286.201	8768.38
286.269	8749.85
286.336	8742.91
286.404	8733.34
286.472	8745.66
286.539	8723.38
286.607	8710.57
286.675	8712.93
286.743	8719.33
286.81	8717.74
286.878	8733.29
286.946	8726.31
287.013	8727.66
287.081	8726.5
287.149	8711.01
287.216	8730.45
287.284	8723.37
287.352	8722.94
287.419	8715.96
287.487	8731.89
287.555	8735.02
287.622	8733
287.69	8738.87
287.758	8741.62
287.825	8739.45
287.893	8727.66
287.96	8737.86
288.028	8753.26
288.096	8751.53
288.163	8760.63
288.231	8751.34
288.298	8749.46
288.366	8758.99
288.433	8753.84
288.501	8745.51
288.569	8751.68
288.636	8747.82
288.704	8768.47
288.771	8779.93
288.839	8779.45
288.906	8775.5
288.974	8786.57
289.041	8778.44
289.109	8767.08
289.176	8782.87
289.244	8790.23
289.311	8806.79
289.379	8812.18
289.446	8810.64
289.514	8810.55
289.581	8811.08
289.649	8810.93
289.716	8812.28
289.783	8805.16
289.851	8828.26
289.918	8825.52
289.986	8831.48
290.053	8832.35
290.121	8822.53
290.188	8816.47
290.255	8843.28
290.323	8832.11
290.39	8823.93
290.458	8833.89
290.525	8851.99
290.592	8839.09
290.66	8836.01
290.727	8824.6
290.794	8839.23
290.862	8839.52
290.929	8840.96
290.996	8835.52
291.064	8844.09
291.131	8851.46
291.198	8870.38
291.266	8865.27
291.333	8873.89
291.4	8881.83
291.468	8903.64
291.535	8902.53
291.602	8915.77
291.669	8907.73
291.737	8917.12
291.804	8922.56
291.871	8939.64
291.938	8945.61
292.006	8984.37
292.073	8995.35
292.14	9008.01
292.207	8999.25
292.275	8994.29
292.342	9003.15
292.409	9030.49
292.476	9057.98
292.543	9054.61
292.611	9045.95
292.678	9065.01
292.745	9085.95
292.812	9095.78
292.879	9085.14
292.946	9085.95
293.014	9096.21
293.081	9106.32
293.148	9121.92
293.215	9127.26
293.282	9124.04
293.349	9138.48
293.416	9110.55
293.484	9129.47
293.551	9141.27
293.618	9158.5
293.685	9186.14
293.752	9182.43
293.819	9179.01
293.886	9156.34
293.953	9164.09
294.02	9179.83
294.087	9188.55
294.154	9181.42
294.221	9198.76
294.288	9205.21
294.356	9228.85
294.423	9237.56
294.49	9229.76
294.557	9236.94
294.624	9225.24
294.691	9248.06
294.758	9241.94
294.825	9253.79
294.892	9243.44
294.959	9239.34
295.026	9249.74
295.093	9243.05
295.16	9246.66
295.226	9247.91
295.293	9280.27
295.36	9284.51
295.427	9292.36
295.494	9306.03
295.561	9320.43
295.628	9342.11
295.695	9357.08
295.762	9357.8
295.829	9362.23
295.896	9374.99
295.963	9386.02
296.03	9404.89
296.096	9405.18
296.163	9420.69
296.23	9435.81
296.297	9455.65
296.364	9458.49
296.431	9465.57
296.498	9462.68
296.564	9486.27
296.631	9485.17
296.698	9464.8
296.765	9484.59
296.832	9477.36
296.899	9457.62
296.965	9471.3
297.032	9449.77
297.099	9460.99
297.166	9468.26
297.233	9464.74
297.299	9458.05
297.366	9456.65
297.433	9460.12
297.5	9467.73
297.566	9460.02
297.633	9454.92
297.7	9458.44
297.767	9457.33
297.833	9460.65
297.9	9465.71
297.967	9449.05
298.033	9464.36
298.1	9497.69
298.167	9486.22
298.234	9490.56
298.3	9501.25
298.367	9495.13
298.434	9496.67
298.5	9494.84
298.567	9491.66
298.634	9496.24
298.7	9516.61
298.767	9519.6
298.834	9531.25
298.9	9531.78
298.967	9532.41
299.033	9547.62
299.1	9562.46
299.167	9575.99
299.233	9574.5
299.3	9590.92
299.366	9614.8
299.433	9628.58
299.5	9600.21
299.566	9609.31
299.633	9639.32
299.699	9647.94
299.766	9649.72
299.832	9657.04
299.899	9662.58
299.965	9673.13
300.032	9669.85
300.099	9678.86
300.165	9687.1
300.232	9681.94
300.298	9678.28
300.365	9695.38
300.431	9694.37
300.498	9676.5
300.564	9681.94
300.631	9690.42
300.697	9701.79
300.763	9699.57
300.83	9698.51
300.896	9717.05
300.963	9731.45
301.029	9730.63
301.096	9734.78
301.162	9745.18
301.229	9743.11
301.295	9731.4
301.361	9739.35
301.428	9744.17
301.494	9731.5
301.561	9734.73
301.627	9738
301.693	9739.3
301.76	9737.81
301.826	9736.46
301.892	9750.81
301.959	9761.51
302.025	9762.57
302.092	9759.63
302.158	9762.18
302.224	9766.23
302.291	9756.93
302.357	9745.13
302.423	9741.47
302.49	9739.35
302.556	9747.68
302.622	9751.83
302.688	9768.06
302.755	9779.71
302.821	9787.23
302.887	9792.76
302.954	9789.97
303.02	9797.97
303.086	9807.41
303.152	9803.41
303.219	9794.88
303.285	9802.21
303.351	9809
303.417	9807.46
303.483	9798.06
303.55	9795.41
303.616	9793.2
303.682	9791.13
303.748	9788.77
303.815	9796.91
303.881	9805.68
303.947	9792.19
304.013	9788.48
304.079	9776.87
304.145	9755.97
304.212	9747.59
304.278	9740.41
304.344	9739.88
304.41	9731.26
304.476	9719.51
304.542	9721.82
304.608	9727.65
304.674	9711.66
304.741	9701.11
304.807	9704.48
304.873	9709.49
304.939	9725.77
305.005	9703.76
305.071	9708.96
305.137	9705.93
305.203	9683.05
305.269	9675.44
305.335	9692.01
305.401	9689.55
305.467	9686.03
305.533	9696.2
305.599	9711.51
305.666	9719.12
305.732	9715.37
305.798	9723.36
305.864	9750.19
305.93	9750.62
305.996	9753.03
306.062	9756.26
306.128	9752.84
306.194	9738.68
306.259	9737.81
306.325	9725.14
306.391	9740.12
306.457	9746.38
306.523	9748.45
306.589	9774.08
306.655	9768.3
306.721	9743.01
306.787	9731.45
306.853	9747.25
306.919	9734.68
306.985	9724.52
307.051	9719.65
307.117	9710.84
307.183	9708.05
307.248	9676.64
307.314	9679.73
307.38	9683.2
307.446	9690.18
307.512	9678.76
307.578	9686.47
307.644	9673.85
307.709	9675.63
307.775	9665.91
307.841	9659.74
307.907	9664.7
307.973	9639.12
308.039	9637.39
308.104	9644.95
308.17	9648.13
308.236	9634.16
308.302	9632.53
308.368	9617.69
308.433	9619.23
308.499	9615.04
308.565	9604.5
308.631	9611.29
308.696	9587.02
308.762	9562.41
308.828	9555.61
308.894	9542.37
308.959	9516.18
309.025	9510.83
309.091	9501.15
309.156	9499.18
309.222	9497.88
309.288	9483.43
309.354	9463.2
309.419	9459.69
309.485	9446.06
309.551	9446.97
309.616	9436.57
309.682	9433.59
309.748	9427.33
309.813	9415.91
309.879	9407.39
309.945	9393.91
310.01	9390.59
310.076	9395.3
310.141	9393.04
310.207	9372.82
310.273	9375.03
310.338	9391.93
310.404	9374.31
310.469	9367.47
310.535	9361.93
310.601	9340.31
310.666	9344.41
310.732	9352.59
310.797	9333.23
310.863	9322.93
310.928	9312.77
310.994	9303.48
311.059	9301.12
311.125	9299.86
311.191	9318.69
311.256	9307.57
311.322	9308.34
311.387	9285.86
311.453	9581.25
311.518	9560.59
311.584	9570.18
311.649	9579.13
311.715	9561.65
311.78	9571.09
311.846	9555.01
311.911	9554.29
311.976	9561.27
312.042	9541.62
312.107	9524.58
312.173	9524.05
312.238	9519.43
312.304	9516.64
312.369	9516.59
312.434	9508.59
312.5	9502.72
312.565	9462.18
312.631	9466.32
312.696	9466.07
312.761	9470.22
312.827	9163.36
312.892	9203.04
312.958	9193.36
313.023	9185.42
313.088	9177.76
313.154	9158.94
313.219	9153.26
313.284	9140.5
313.35	9134.05
313.415	9127.21
313.48	9127.07
313.546	9131.45
313.611	9144.3
313.676	9133.9
313.741	9123.65
313.807	9120.76
313.872	9126.01
313.937	9129.42
314.003	9147.63
314.068	9139.54
314.133	9143.39
314.198	9132.94
314.264	9109.87
314.329	9097.55
314.394	9093.07
314.459	9098.17
314.525	9117
314.59	9117.05
314.655	9108.24
314.72	9114.54
314.785	9120.37
314.851	9105.45
314.916	9085.71
314.981	9058.41
315.046	9048.35
315.111	9040.84
315.176	9033.23
315.242	9037.33
315.307	9034.73
315.372	9007.86
315.437	9006.27
315.502	8995.15
315.567	9002.66
315.632	8987.01
315.698	8990.91
315.763	8982.68
315.828	8966.56
315.893	8960.1
315.958	8950.43
316.023	8940.18
316.088	8917.84
316.153	8895.7
316.218	8896.76
316.283	8882.99
316.348	8871.34
316.413	8871.1
316.479	8853.01
316.544	8816.19
316.609	8778.69
316.674	8742.21
316.739	8707.32
316.804	8668.05
316.869	8636.91
316.934	8600.38
316.999	8570.21
317.064	8516.51
317.129	8474.68
317.194	8440.67
317.259	8392.88
317.324	8341.69
317.389	8297.24
317.454	8257.39
317.518	8220.74
317.583	8192.25
317.648	8165.12
317.713	8130.24
317.778	8067.22
317.843	8035.37
317.908	7998.63
317.973	7962.36
318.038	7933.98
318.103	7896.96
318.168	7865.98
318.233	7831.21
318.297	7781.34
318.362	7743.49
318.427	7699.07
318.492	7671.28
318.557	7627.09
318.622	7599.2
318.687	7579.11
318.751	7537.39
318.816	7503.25
318.881	7473.25
318.946	7421.81
319.011	7378.35
319.075	7336.68
319.14	7302.99
319.205	7255.36
319.27	7222.45
319.335	7175.45
319.399	7140.65
319.464	7114.51
319.529	7060.66
319.594	7022.45
319.658	6993.58
319.723	6951.63
319.788	6929.73
319.853	6874.63
319.917	6846.1
319.982	6791.57
320.047	6751.8
320.112	6725.24
320.176	6669.63
320.241	6631.59
320.306	6603.59
320.37	6561.24
320.435	6526.52
320.5	6498.2
320.564	6463.53
320.629	6423.16
320.694	6390.95
320.758	6344.68
320.823	6297.69
320.888	6276.28
320.952	6222.63
321.017	6175.98
321.082	6132.07
321.146	6095.94
321.211	6067.1
321.275	6020.9
321.34	5972.89
321.405	5931.15
321.469	5884.24
321.534	5841.23
321.598	5794.75
321.663	5756.51
321.727	5722.61
321.792	5673.51
321.857	5630.06
321.921	5592.56
321.986	5546.98
322.05	5487.83
322.115	5450.92
322.179	5407.55
322.244	5348.6
322.308	5313.05
322.373	5267.92
322.437	5225.52
322.502	5195.22
322.566	5140.99
322.631	5105.78
322.695	5069.67
322.76	5025.6
322.824	4992.27
322.889	4956.12
322.953	4905.75
323.018	4841.73
323.082	4775.34
323.146	4723.27
323.211	4668.66
323.275	4623.18
323.34	4578.2
323.404	4546.15
323.468	4500.73
323.533	4457.48
323.597	4413.01
323.662	4364.51
323.726	4330.5
323.79	4288.74
323.855	4221.05
323.919	4175.2
323.983	4131.73
324.048	4066.7
324.112	4181.37
324.177	4050.16
324.241	3838.14
324.305	3631.14
324.37	3427.19
324.434	3234.77
324.498	3194.06
324.562	3143.15
324.627	3078.1
324.691	3021.29
324.755	2952.85
324.82	2872.28
324.884	2789.6
324.948	2711.1
325.012	2612.49
325.077	2482.45
