Data from 20250702_urea_0.5M_MAYP1162681_12-54-59-878.txt Node
Date: Wed Jul 02 12:54:59 BST 2025
User: adleo
Spectrometer: MAYP116268
Trigger mode: 0
Integration Time (sec): 1.000000E0
Scans to average: 1
Electric dark correction enabled: true
Nonlinearity correction enabled: true
Boxcar width: 10
XAxis mode: Wavelengths
Number of Pixels in Spectrum: 2068
>>>>>Begin Spectral Data<<<<<
179.565	1073.94
179.642	1124.18
179.718	1165.15
179.795	1195.71
179.871	1225.32
179.948	1240.44
180.024	1259.13
180.101	1279.17
180.177	1293.01
180.254	1313.7
180.33	1333.41
180.407	1376.17
180.483	1461.68
180.56	1542.73
180.636	1618.26
180.712	1606.72
180.789	1616.41
180.865	1627.66
180.942	1637.78
181.018	1648.66
181.095	1658.06
181.171	1665.24
181.248	1667.04
181.324	1680.59
181.4	1686.86
181.477	1698.12
181.553	1710.8
181.63	1730.14
181.706	1745.59
181.782	1754.24
181.859	1754.71
181.935	1761.08
182.011	1758.75
182.088	1773.91
182.164	1789.31
182.24	1801.48
182.317	1811.88
182.393	1810.31
182.469	1824
182.546	1836.5
182.622	1842.2
182.698	1842.06
182.775	1849
182.851	1863.02
182.927	1856.08
183.003	1853.95
183.08	1847.43
183.156	1856.18
183.232	1852.95
183.308	1839.21
183.385	1842.59
183.461	1859.03
183.537	1858.89
183.613	1869.73
183.69	1860.84
183.766	1852.23
183.842	1860.74
183.918	1865.73
183.995	1875.62
184.071	1878.28
184.147	1873.82
184.223	1862.41
184.299	1872.44
184.375	1863.13
184.452	1867.5
184.528	1920.34
184.604	1930.98
184.68	1941.96
184.756	1947
184.832	1949.9
184.908	1957.03
184.985	1959.88
185.061	1943.34
185.137	1952.8
185.213	1943.67
185.289	1947.81
185.365	1942.91
185.441	1939.63
185.517	1953.76
185.593	1953.05
185.669	1950.1
185.745	1956.75
185.822	1973.62
185.898	1966.35
185.974	1974.14
186.05	1965.92
186.126	1926.06
186.202	1917.89
186.278	1914.18
186.354	1906.48
186.43	1912.99
186.506	1911.38
186.582	1908.05
186.658	1914.32
186.734	1894.79
186.81	1895.31
186.886	1895.98
186.962	1907
187.038	1904.77
187.114	1894.54
187.19	1899.49
187.266	1887.89
187.341	1890.22
187.417	1883.23
187.493	1883.42
187.569	1885.23
187.645	1878.86
187.721	1868.26
187.797	1876.1
187.873	1880.9
187.949	1877.34
188.025	1871.01
188.101	1875.1
188.176	1881.33
188.252	1878.09
188.328	1885.98
188.404	1887.64
188.48	1884.7
188.556	1879.04
188.632	1878.37
188.707	1878.23
188.783	1874.57
188.859	1871.43
188.935	1860.02
189.011	1867.16
189.086	1860.64
189.162	1853.75
189.238	1854.18
189.314	1850.95
189.39	1845.91
189.465	1837.3
189.541	1850.14
189.617	1838.35
189.693	1831.46
189.768	1838.79
189.844	1860.18
189.92	1851.73
189.996	1860.33
190.071	1867.75
190.147	1865.51
190.223	1873.31
190.298	1866.51
190.374	1858.52
190.45	1869.55
190.526	1880.63
190.601	1874.73
190.677	1877.25
190.753	1903.31
190.828	1906.4
190.904	1922.95
190.98	1938.21
191.055	1949
191.131	1941.73
191.207	1958.84
191.282	1968.96
191.358	1956.94
191.433	1943.86
191.509	1957.45
191.585	1953.93
191.66	1955.55
191.736	1963.58
191.811	1957.64
191.887	1970.76
191.963	1988.07
192.038	1996.29
192.114	1994.72
192.189	1998.96
192.265	1997.43
192.34	1976.32
192.416	1975.94
192.491	1970.42
192.567	1972.84
192.642	1972.99
192.718	1973.84
192.793	1963.29
192.869	1960.91
192.944	1963.19
193.02	1970.8
193.095	1971.51
193.171	1974.84
193.246	1976.22
193.322	1972.89
193.397	1968.61
193.473	1956.01
193.548	1941.32
193.624	1945.03
193.699	1945.08
193.775	1958.11
193.85	1957.11
193.925	1966.05
194.001	1964.67
194.076	1959.25
194.152	1951.12
194.227	1945.65
194.302	1934.72
194.378	1938.52
194.453	1934.39
194.529	1944.66
194.604	1930.3
194.679	1926.21
194.755	1913
194.83	1923.22
194.905	1920.51
194.981	1931.45
195.056	1925.93
195.131	1932.07
195.207	1930.93
195.282	1922.99
195.357	1907.29
195.433	1919.89
195.508	1910.86
195.583	1917.84
195.659	1930.45
195.734	1935.3
195.809	1934.63
195.884	1944.9
195.96	1945.75
196.035	1962.58
196.11	1960.25
196.185	1971.19
196.261	1974.33
196.336	2000.81
196.411	1987.64
196.486	1995.48
196.561	1989.2
196.637	1998.28
196.712	2012.94
196.787	2015.03
196.862	2027.87
196.937	2036.14
197.013	2043.89
197.088	2051.93
197.163	2071.39
197.238	2088.43
197.313	2088.76
197.388	2101.98
197.464	2129.1
197.539	2137.85
197.614	2128.48
197.689	2141.85
197.764	2157.22
197.839	2176.82
197.914	2170.58
197.989	2190.52
198.065	2203.55
198.14	2248.78
198.215	2274.99
198.29	2286.13
198.365	2297.03
198.44	2307.5
198.515	2334.77
198.59	2348.72
198.665	2373.85
198.74	2380.27
198.815	2380.7
198.89	2400.12
198.965	2429.17
199.04	2426.93
199.115	2440.97
199.19	2482.57
199.265	2484.09
199.34	2493.43
199.415	2525.3
199.49	2545.62
199.565	2557.14
199.64	2576.24
199.715	2576.52
199.79	2582.38
199.865	2587.67
199.94	2587.81
200.015	2614.2
200.09	2619.25
200.165	2627.06
200.24	2633.2
200.315	2671.53
200.39	2683.15
200.464	2693.73
200.539	2693.35
200.614	2708.3
200.689	2732.22
200.764	2736.94
200.839	2755.6
200.914	2757.32
200.989	2746.74
201.063	2757.79
201.138	2738.98
201.213	2739.84
201.288	2719.17
201.363	2722.93
201.438	2723.93
201.512	2738.88
201.587	2726.83
201.662	2729.35
201.737	2740.31
201.812	2747.75
201.886	2714.04
201.961	2725.86
202.036	2711.95
202.111	2710.72
202.186	2683.62
202.26	2665.95
202.335	2644.18
202.41	2632.46
202.485	2620.41
202.559	2601.65
202.634	2575.5
202.709	2584.17
202.784	2566.64
202.858	2567.83
202.933	2551.21
203.008	2544.78
203.082	2528.11
203.157	2524.78
203.232	2486.27
203.306	2465.31
203.381	2437.83
203.456	2420.93
203.53	2397.29
203.605	2379.45
203.68	2358.4
203.754	2351.69
203.829	2339.84
203.904	2324.42
203.978	2313.9
204.053	2317.42
204.127	2307.48
204.202	2310.05
204.277	2297.05
204.351	2288.54
204.426	2281.68
204.5	2273.21
204.575	2242.05
204.65	2248.85
204.724	2241.19
204.799	2248.42
204.873	2245.23
204.948	2242.33
205.022	2228.82
205.097	2223.96
205.171	2236.23
205.246	2243.09
205.32	2244.75
205.395	2244.52
205.469	2236.19
205.544	2244.09
205.618	2229.11
205.693	2240.86
205.767	2230.54
205.842	2250
205.916	2248.53
205.991	2241.25
206.065	2248.34
206.14	2261.99
206.214	2257.32
206.289	2253.13
206.363	2263.5
206.438	2265.69
206.512	2274.36
206.586	2295.1
206.661	2300.72
206.735	2282.93
206.81	2284.12
206.884	2296.39
206.958	2286.12
207.033	2304.43
207.107	2313.91
207.181	2346.52
207.256	2343.24
207.33	2363.75
207.405	2381.76
207.479	2402.99
207.553	2413.79
207.628	2405.51
207.702	2422.17
207.776	2426.12
207.851	2438.79
207.925	2464.22
207.999	2474.32
208.073	2483.08
208.148	2497.22
208.222	2499.75
208.296	2544.45
208.371	2576.43
208.445	2606.68
208.519	2653.54
208.593	2686.03
208.668	2709.53
208.742	2738.38
208.816	2770.25
208.89	2812.06
208.965	2841.55
209.039	2884.61
209.113	2940.1
209.187	3000.33
209.261	3042.95
209.336	3108.63
209.41	3170.5
209.484	3219.9
209.558	3293.15
209.632	3361.24
209.707	3438.39
209.781	3522.59
209.855	3604.89
209.929	3694.61
210.003	3777.31
210.077	3858.49
210.151	3984.42
210.226	4097.9
210.3	4214.27
210.374	4330.51
210.448	4433.46
210.522	4548.1
210.596	4660.52
210.67	4777.27
210.744	4928.79
210.818	5077.22
210.892	5218.33
210.966	5346.67
211.041	5491.55
211.115	5617.75
211.189	5777.5
211.263	5926.66
211.337	6078
211.411	6243.29
211.485	6390.79
211.559	6554.37
211.633	6715.61
211.707	6850.57
211.781	7026.13
211.855	7156.88
211.929	7317.94
212.003	7476.17
212.077	7659.71
212.151	7855.86
212.225	8051.84
212.299	8226.68
212.373	8402.42
212.447	8585.77
212.52	8800.5
212.594	9001.85
212.668	9209.54
212.742	9395.19
212.816	9581.52
212.89	9779.04
212.964	9969.39
213.038	10172.67
213.112	10388.19
213.186	10603.62
213.26	10791.55
213.333	10958.85
213.407	11174.89
213.481	11378.8
213.555	11600.02
213.629	11797.09
213.703	11983.86
213.777	12188.8
213.85	12383.23
213.924	12619.03
213.998	12825.96
214.072	13024.46
214.146	13215.01
214.219	13425.56
214.293	13629.41
214.367	13845.46
214.441	14048.5
214.515	14244.88
214.588	14418.56
214.662	14582.31
214.736	14758.35
214.81	14954.88
214.883	15155.98
214.957	15339.34
215.031	15521.35
215.105	15684.13
215.178	15853.31
215.252	16031.84
215.326	16188.15
215.4	16343.64
215.473	16483.5
215.547	16636.62
215.621	16799.43
215.694	16974.18
215.768	17115.49
215.842	17275.11
215.915	17429.52
215.989	17581.04
216.063	17734.96
216.136	17897.42
216.21	18057.71
216.284	18221.51
216.357	18376.21
216.431	18523.28
216.504	18673.64
216.578	18850.6
216.652	19009.48
216.725	19149.72
216.799	19300.36
216.873	19435.06
216.946	19582.71
217.02	19709.55
217.093	19838.99
217.167	19942.27
217.24	20055.95
217.314	20173.73
217.387	20280.24
217.461	20384.19
217.535	20510.55
217.608	20611.13
217.682	20727.33
217.755	20845.31
217.829	20944.35
217.902	21049.18
217.976	21150.83
218.049	21248.77
218.123	21320.63
218.196	21426.72
218.27	21527.55
218.343	21621.31
218.417	21722.77
218.49	21817.35
218.563	21914.57
218.637	22010.54
218.71	22123.92
218.784	22208
218.857	22307.59
218.931	22399.42
219.004	22492.37
219.077	22580.36
219.151	22664.77
219.224	22733.33
219.298	22807
219.371	22893.16
219.444	22956.99
219.518	23023.77
219.591	23095.42
219.665	23197.55
219.738	23258.59
219.811	23313.66
219.885	23371.57
219.958	23437.11
220.031	23494.3
220.105	23562.05
220.178	23624.31
220.251	23678.09
220.325	23746.96
220.398	23803.19
220.471	23860.87
220.544	23914.98
220.618	23948.12
220.691	24000.4
220.764	24053.79
220.838	24114.18
220.911	24161.89
220.984	24231.39
221.057	24279.53
221.131	24315.75
221.204	24331
221.277	24385.51
221.35	24448.41
221.424	24479.23
221.497	24522.07
221.57	24552.61
221.643	24585.46
221.716	24620.05
221.79	24630.28
221.863	24650.78
221.936	24678.66
222.009	24706.21
222.082	24746.11
222.155	24771.44
222.229	24808.49
222.302	24828.85
222.375	24840.05
222.448	24857.8
222.521	24868.23
222.594	24883.18
222.667	24892.78
222.74	24910.15
222.814	24922.65
222.887	24939.05
222.96	24961.59
223.033	24973.8
223.106	24994.16
223.179	25013.65
223.252	25029.86
223.325	25049.5
223.398	25053.07
223.471	25056.88
223.544	25066.1
223.617	25064.17
223.69	25080.72
223.763	25070.58
223.837	25085.3
223.91	25091.14
223.983	25085.01
224.056	25074.64
224.129	25085.54
224.202	25106.15
224.275	25103.35
224.348	25081.15
224.42	25053.79
224.493	25038.83
224.566	25023.1
224.639	25029.47
224.712	25012.1
224.785	24986.91
224.858	24983.44
224.931	24983.44
225.004	24963.32
225.077	24948.94
225.15	24918.02
225.223	24901.95
225.296	24916.13
225.369	24875.7
225.442	24861.13
225.514	24851.92
225.587	24843.09
225.66	24828.32
225.733	24815.83
225.806	24809.41
225.879	24804.97
225.952	24784.18
226.025	24787.6
226.097	24782.92
226.17	24750.31
226.243	24710.36
226.316	24703.71
226.389	24683.01
226.461	24665.4
226.534	24672.54
226.607	24655.65
226.68	24665.59
226.753	24638.82
226.825	24598.34
226.898	24602.78
226.971	24582.61
227.044	24553.42
227.117	24537.5
227.189	24514.49
227.262	24495.73
227.335	24474.21
227.407	24444.74
227.48	24434.51
227.553	24406.91
227.626	24385.16
227.698	24370.01
227.771	24368.32
227.844	24336.78
227.916	24323.65
227.989	24296.21
228.062	24252.12
228.134	24255.11
228.207	24217.05
228.28	24197.47
228.352	24175.95
228.425	24163.8
228.498	24149.81
228.57	24122.22
228.643	24107.17
228.716	24084.84
228.788	24057.73
228.861	24028.17
228.934	24023.44
229.006	24002.02
229.079	23970.77
229.151	23952.68
229.224	23920.13
229.296	23899.87
229.369	23904.69
229.442	23889.36
229.514	23862.3
229.587	23861.48
229.659	23814.7
229.732	23801.19
229.804	23786.1
229.877	23777.08
229.949	23769.22
230.022	23761.5
230.094	23754.55
230.167	23743.12
230.239	23716.07
230.312	23693.89
230.384	23691.04
230.457	23668.76
230.529	23648.17
230.602	23631.82
230.674	23609.01
230.747	23595.6
230.819	23582.1
230.892	23522.35
230.964	23491.58
231.037	23464.92
231.109	23433.14
231.181	23411.06
231.254	23379.23
231.326	23347.6
231.399	23322.18
231.471	23264.99
231.544	23210.93
231.616	23190.73
231.688	23155.48
231.761	23131.08
231.833	23097.76
231.905	23047.09
231.978	23018.44
232.05	22980.98
232.122	22956
232.195	22921.91
232.267	22905.91
232.339	22872.97
232.412	22860.34
232.484	22833.97
232.556	22810.1
232.629	22791.54
232.701	22765.26
232.773	22735.32
232.846	22702.78
232.918	22661.56
232.99	22646.61
233.062	22627.14
233.135	22592.47
233.207	22546.43
233.279	22517.6
233.351	22496.78
233.424	22463.37
233.496	22409.95
233.568	22398.34
233.64	22355.19
233.713	22314.89
233.785	22277.28
233.857	22235.39
233.929	22189.55
234.001	22171.76
234.074	22151.9
234.146	22112.27
234.218	22085.28
234.29	22042.71
234.362	22004.3
234.434	21965.01
234.507	21915.7
234.579	21868.79
234.651	21833.46
234.723	21810.81
234.795	21777.88
234.867	21735.13
234.939	21714.59
235.012	21689.19
235.084	21661.43
235.156	21638.97
235.228	21599.68
235.3	21550.18
235.372	21516.44
235.444	21496.2
235.516	21434.5
235.588	21402.11
235.66	21368.76
235.732	21320.17
235.804	21347.5
235.876	21326.44
235.948	21306.77
236.02	21270
236.092	21231.93
236.164	21201.13
236.236	21164.88
236.308	21129.02
236.38	21096.59
236.452	21046.85
236.524	21023.33
236.596	20998.03
236.668	20963.57
236.74	20939.23
236.812	20910.94
236.884	20888.72
236.956	20860.53
237.028	20827.22
237.1	20770.11
237.172	20740.38
237.244	20725.92
237.316	20644.99
237.388	20602.3
237.46	20550.25
237.532	20522.92
237.604	20481.14
237.675	20453.67
237.747	20425.57
237.819	20376.56
237.891	20339.79
237.963	20305.53
238.035	20251.6
238.107	20176.13
238.178	20149.96
238.25	20104.08
238.322	20084.08
238.394	20038.78
238.466	19990.06
238.538	19948.04
238.609	19920.62
238.681	19864.76
238.753	19813.63
238.825	19778.41
238.897	19737.54
238.968	19721.97
239.04	19684.39
239.112	19677.25
239.184	19620.73
239.255	19568.78
239.327	19540.15
239.399	19506.13
239.471	19474.81
239.542	19453.36
239.614	19434.04
239.686	19356.84
239.758	19334.19
239.829	19286.05
239.901	19247.74
239.973	19206.39
240.044	19179.16
240.116	19140.9
240.188	19104.27
240.259	19062.88
240.331	19019.6
240.403	18988.04
240.474	18934.6
240.546	18886.17
240.618	18823.09
240.689	18782.08
240.761	18750.8
240.833	18729.45
240.904	18687.43
240.976	18637.99
241.048	18590.28
241.119	18555.83
241.191	18535.39
241.262	18504.79
241.334	18457.81
241.405	18425.38
241.477	18384.41
241.549	18339.26
241.62	18302.73
241.692	18266.68
241.763	18240.23
241.835	18194.16
241.906	18157.34
241.978	18111.27
242.049	18087.8
242.121	18064.62
242.192	18045.87
242.264	17995.47
242.335	17942.79
242.407	17908.82
242.478	17869.88
242.55	17838.56
242.621	17791.09
242.693	17753.98
242.764	17703.76
242.836	17670.13
242.907	17635.43
242.979	17602.8
243.05	17573.6
243.122	17538.22
243.193	17501.21
243.264	17442.32
243.336	17415
243.407	17382.18
243.479	17362.9
243.55	17320.15
243.622	17284.63
243.693	17241.36
243.764	17218.9
243.836	17163.33
243.907	17124.68
243.978	17101.11
244.05	17072.48
244.121	17029.49
244.192	16999.57
244.264	16953.3
244.335	16926.31
244.407	16876.52
244.478	16851.03
244.549	16808.43
244.62	16764.13
244.692	16728.03
244.763	16703.99
244.834	16660.51
244.906	16615.02
244.977	16578.92
245.048	16564.17
245.119	16526.87
245.191	16479.3
245.262	16423.97
245.333	16413.84
245.405	16374.85
245.476	16338.85
245.547	16303.57
245.618	16276.82
245.689	16243.61
245.761	16210.88
245.832	16175.85
245.903	16151.75
245.974	16117.14
246.045	16086.44
246.117	16065.28
246.188	16020.26
246.259	15976.54
246.33	15934.46
246.401	15898.31
246.473	15848.81
246.544	15805.48
246.615	15778.49
246.686	15749.91
246.757	15735.35
246.828	15690.05
246.899	15676.6
246.97	15627.91
247.042	15587.71
247.113	15563.9
247.184	15552.77
247.255	15518.11
247.326	15481.09
247.397	15438.05
247.468	15408.55
247.539	15382.76
247.61	15340.64
247.681	15324.63
247.752	15309.4
247.823	15275.08
247.894	15259.32
247.965	15220.71
248.037	15186.39
248.108	15135.92
248.179	15107.87
248.25	15074.27
248.321	15051.95
248.392	15005.58
248.463	15001.43
248.534	14971.07
248.605	14942.91
248.675	14911.73
248.746	14890.52
248.817	14869.12
248.888	14848.05
248.959	14801.92
249.03	14771.5
249.101	14747.06
249.172	14707.58
249.243	14657.07
249.314	14641.64
249.385	14605.2
249.456	14583.89
249.527	14554.15
249.598	14542.05
249.669	14508.59
249.739	14482.81
249.81	14455.23
249.881	14414.59
249.952	14381.43
250.023	14350.67
250.094	14311.53
250.165	14271.09
250.235	14245.06
250.306	14223.17
250.377	14187.84
250.448	14162.24
250.519	14115.34
250.59	14100.78
250.66	14072.72
250.731	14063.51
250.802	14036.66
250.873	14017.24
250.944	13997.18
251.014	13963.87
251.085	13950.76
251.156	13930.27
251.227	13909.01
251.297	13901.4
251.368	13894.74
251.439	13879.99
251.51	13863.41
251.58	13829.95
251.651	13796.84
251.722	13782.57
251.792	13738.31
251.863	13712.72
251.934	13706.5
252.005	13716.96
252.075	13686.83
252.146	13672.66
252.217	13651.25
252.287	13642.48
252.358	13613.56
252.429	13609.94
252.499	13580.82
252.57	13556.53
252.641	13539.46
252.711	13520.13
252.782	13470.14
252.852	13463.2
252.923	13439.63
252.994	13420.05
253.064	13407.13
253.135	13376.62
253.205	13339.89
253.276	13334.68
253.347	13325.47
253.417	13292.07
253.488	13252.58
253.558	13227.42
253.629	13203.99
253.699	13190.59
253.77	13164.27
253.841	13140.55
253.911	13115.2
253.982	13095.58
254.052	13080.25
254.123	13060.53
254.193	13039.61
254.264	13054.89
254.334	13019.17
254.405	12979.45
254.475	12944.93
254.546	12917.79
254.616	12910.75
254.687	12896.44
254.757	12874.65
254.827	12844.62
254.898	12831.79
254.968	12813.43
255.039	12788.17
255.109	12774.33
255.18	12742.9
255.25	12705.11
255.321	12690.36
255.391	12655.6
255.461	12654.3
255.532	12606.1
255.602	12579.97
255.673	12547.62
255.743	12524.87
255.813	12484.91
255.884	12476.33
255.954	12468.47
256.024	12468.13
256.095	12446.92
256.165	12416.27
256.235	12397.76
256.306	12376.84
256.376	12359.1
256.446	12351.53
256.517	12340.3
256.587	12332.1
256.657	12320.39
256.728	12301.11
256.798	12281.83
256.868	12254.74
256.938	12221.81
257.009	12218.34
257.079	12202.73
257.149	12201.23
257.219	12152.98
257.29	12142.42
257.36	12107.96
257.43	12093.74
257.5	12058.12
257.571	12034.31
257.641	12020.09
257.711	11984.42
257.781	11970.73
257.852	11958.68
257.922	11917.28
257.992	11889.66
258.062	11863.1
258.132	11851.34
258.202	11832.01
258.273	11812.87
258.343	11814.13
258.413	11794.99
258.483	11776.34
258.553	11745.83
258.623	11720.14
258.693	11699.65
258.764	11689.96
258.834	11685.24
258.904	11666.2
258.974	11639.89
259.044	11615.4
259.114	11606.34
259.184	11597.67
259.254	11582.24
259.324	11539.73
259.394	11528.7
259.464	11527.68
259.535	11501.42
259.605	11471.58
259.675	11445.61
259.745	11428.69
259.815	11396.69
259.885	11367.91
259.955	11371.29
260.025	11348.11
260.095	11326.13
260.165	11324.54
260.235	11319.34
260.305	11293.84
260.375	11257.79
260.445	11263.48
260.515	11259.09
260.585	11249.16
260.655	11230.61
260.725	11214.47
260.795	11213.84
260.865	11211.38
260.934	11186.37
261.004	11177.36
261.074	11158.22
261.144	11161.5
261.214	11153.84
261.284	11142.13
261.354	11139.43
261.424	11107.76
261.494	11111.47
261.564	11096.53
261.634	11084.39
261.703	11053.21
261.773	11041.6
261.843	11038.27
261.913	11014.47
261.983	10986.32
262.053	10971.48
262.123	10949.6
262.192	10927.87
262.262	10913.51
262.332	10880.93
262.402	10864.31
262.472	10849.76
262.541	10816.41
262.611	10807.88
262.681	10782.2
262.751	10766.01
262.821	10741.05
262.89	10713.68
262.96	10700.19
263.03	10696.14
263.1	10680.04
263.169	10662.26
263.239	10652.53
263.309	10653.88
263.379	10645.59
263.448	10632.25
263.518	10616.54
263.588	10605.21
263.657	10600.35
263.727	10594.37
263.797	10586.13
263.867	10572.02
263.936	10549.8
264.006	10546.91
264.076	10529.57
264.145	10514.15
264.215	10493.05
264.285	10490.3
264.354	10458.5
264.424	10436.78
264.494	10411.24
264.563	10390.38
264.633	10396.83
264.702	10382.28
264.772	10349.86
264.842	10329.57
264.911	10319.6
264.981	10295.9
265.05	10279.37
265.12	10261.64
265.19	10255.67
265.259	10250.75
265.329	10242.37
265.398	10226.76
265.468	10240.3
265.537	10216.4
265.607	10207.64
265.676	10208.7
265.746	10201.52
265.815	10207.54
265.885	10195.98
265.955	10173.19
266.024	10157.1
266.094	10121.31
266.163	10124.87
266.232	10127.14
266.302	10112.35
266.371	10097.66
266.441	10083.16
266.51	10080.94
266.58	10063.94
266.649	10031.13
266.719	10022.41
266.788	10009.74
266.858	10018.61
266.927	9982.86
266.996	9975.11
267.066	9963.74
267.135	9934.31
267.205	9927.08
267.274	9911.43
267.343	9908.92
267.413	9896.21
267.482	9899.58
267.552	9901.55
267.621	9869.23
267.69	9835.37
267.76	9825.88
267.829	9820.1
267.898	9806.91
267.968	9782.73
268.037	9773.67
268.106	9772.81
268.176	9748.53
268.245	9737.16
268.314	9709.9
268.384	9707.68
268.453	9700.03
268.522	9691.98
268.592	9698.15
268.661	9679.8
268.73	9665.25
268.799	9639.34
268.869	9641.7
268.938	9612.47
269.007	9590.94
269.076	9583.14
269.146	9587.91
269.215	9576.59
269.284	9579.09
269.353	9567.05
269.422	9552.22
269.492	9541.19
269.561	9504.16
269.63	9501.42
269.699	9485.28
269.768	9481.82
269.838	9472.09
269.907	9462.36
269.976	9437.46
270.045	9401.16
270.114	9392.44
270.183	9384.01
270.253	9377.03
270.322	9353.39
270.391	9343.09
270.46	9345.98
270.529	9338.85
270.598	9333.98
270.667	9321.66
270.736	9299.99
270.806	9290.69
270.875	9298.35
270.944	9288.77
271.013	9309.95
271.082	9296.33
271.151	9297.24
271.22	9269.56
271.289	9256.65
271.358	9247.5
271.427	9241.73
271.496	9237.54
271.565	9224.2
271.634	9213.94
271.703	9237.69
271.772	9236.05
271.841	9222.67
271.91	9193.44
271.979	9182.9
272.048	9155.5
272.117	9154.59
272.186	9139.28
272.255	9139.9
272.324	9135.71
272.393	9122.23
272.462	9099.46
272.531	9090.74
272.6	9077.93
272.669	9083.13
272.738	9073.99
272.807	9060.31
272.876	9045.1
272.945	9067.97
273.013	9069.9
273.082	9079.91
273.151	9040.76
273.22	9038.26
273.289	9039.13
273.358	9058.34
273.427	9052.61
273.496	9057.18
273.564	9053.28
273.633	9048.03
273.702	9033.16
273.771	9016.89
273.84	9015.3
273.909	9013.13
273.977	9008.17
274.046	8995.32
274.115	8999.03
274.184	8981.55
274.253	8983.48
274.322	8986.56
274.39	8954.98
274.459	8941.11
274.528	8911.27
274.597	8899.96
274.665	8894.08
274.734	8892.21
274.803	8876.32
274.872	8870.06
274.94	8852.88
275.009	8899.93
275.078	8896.17
275.147	8891.55
275.215	8886.79
275.284	8894.15
275.353	8889.19
275.421	8869.22
275.49	8879.28
275.559	8868.54
275.627	8867.77
275.696	8856.03
275.765	8858.92
275.833	8847.9
275.902	8844.24
275.971	8850.16
276.039	8868.64
276.108	8867.97
276.177	8866.96
276.245	8853.38
276.314	8846.93
276.383	8852.08
276.451	8793.67
276.52	8789.24
276.588	8797.81
276.657	8801.86
276.725	8790.45
276.794	8790.16
276.863	8797.71
276.931	8778.22
277	8783.61
277.068	8786.26
277.137	8802.48
277.205	8796.75
277.274	8819.18
277.342	8828.52
277.411	8814.85
277.48	8799.88
277.548	8792.61
277.617	8791.6
277.685	8789.63
277.754	8795.89
277.822	8787.66
277.89	8803.64
277.959	8800.08
278.027	8784.24
278.096	8769.08
278.164	8793.39
278.233	8779.24
278.301	8773.08
278.37	8778.86
278.438	8758.21
278.507	8761.05
278.575	8735.63
278.643	8736.4
278.712	8717.49
278.78	8702.76
278.849	8708.82
278.917	8715.99
278.985	8709.83
279.054	8712.43
279.122	8718.78
279.191	8710.99
279.259	8708.97
279.327	8685.91
279.396	8700.68
279.464	8695.63
279.532	8709.73
279.601	8703.18
279.669	8703.86
279.737	8717.62
279.806	8719.69
279.874	8733.65
279.942	8725.13
280.011	8726.53
280.079	8732.31
280.147	8750.11
280.215	8754.45
280.284	8752.52
280.352	8734.04
280.42	8743.52
280.488	8731.68
280.557	8727.2
280.625	8732.16
280.693	8727.97
280.761	8728.89
280.83	8713.53
280.898	8724.12
280.966	8704.92
281.034	8673.3
281.102	8660.83
281.171	8649.38
281.239	8656.02
281.307	8647.84
281.375	8645.96
281.443	8664.88
281.512	8661.6
281.58	8664.35
281.648	8650.01
281.716	8648.03
281.784	8656.07
281.852	8645.19
281.92	8644.47
281.989	8655.59
282.057	8637.35
282.125	8680.53
282.193	8675.14
282.261	8674.66
282.329	8671.91
282.397	8680
282.465	8683.85
282.533	8696.7
282.601	8693.81
282.67	8667.72
282.738	8660.07
282.806	8668.59
282.874	8647.8
282.942	8648.9
283.01	8641.92
283.078	8649.24
283.146	8645.92
283.214	8649.82
283.282	8660.89
283.35	8671.19
283.418	8665.89
283.486	8674.5
283.554	8635.27
283.622	8642.3
283.69	8639.56
283.758	8630.56
283.826	8630.32
283.894	8642.35
283.962	8663.91
284.03	8669.16
284.098	8673.3
284.165	8667.23
284.233	8658.04
284.301	8657.56
284.369	8650.2
284.437	8640.38
284.505	8630.37
284.573	8641.05
284.641	8629.89
284.709	8628.97
284.777	8613.91
284.845	8618.58
284.912	8622.18
284.98	8627.29
285.048	8621.99
285.116	8621.7
285.184	8634.31
285.252	8630.61
285.319	8609.24
285.387	8594.46
285.455	8582.29
285.523	8589.84
285.591	8588.73
285.659	8595.91
285.726	8607.6
285.794	8590.95
285.862	8591.77
285.93	8593.26
285.997	8592.87
286.065	8589.03
286.133	8584.84
286.201	8582.43
286.269	8568.57
286.336	8558.18
286.404	8550.19
286.472	8552.79
286.539	8541
286.607	8531.23
286.675	8536.18
286.743	8546.63
286.81	8539.31
286.878	8557.31
286.946	8544.12
287.013	8541.29
287.081	8534.07
287.149	8521.31
287.216	8541.43
287.284	8533.78
287.352	8532.09
287.419	8525.84
287.487	8537.24
287.555	8532.81
287.622	8529.88
287.69	8541.14
287.758	8551.63
287.825	8548.55
287.893	8545.57
287.96	8549.9
288.028	8556.88
288.096	8552.5
288.163	8555.29
288.231	8543.84
288.298	8531.27
288.366	8545.71
288.433	8546.72
288.501	8548.02
288.569	8550.52
288.636	8540.61
288.704	8556.11
288.771	8565.59
288.839	8559.57
288.906	8557.31
288.974	8571.27
289.041	8571.7
289.109	8557.45
289.176	8565.54
289.244	8565.54
289.311	8567.61
289.379	8576.61
289.446	8574.44
289.514	8578.29
289.581	8577.47
289.649	8578.77
289.716	8580.84
289.783	8575.26
289.851	8587.82
289.918	8589.41
289.986	8598.55
290.053	8609.19
290.121	8603.46
290.188	8608.13
290.255	8635.08
290.323	8629.21
290.39	8619.2
290.458	8629.79
290.525	8649.33
290.592	8643.41
290.66	8647.01
290.727	8650.19
290.794	8660.59
290.862	8664.53
290.929	8666.12
290.996	8672.04
291.064	8686.53
291.131	8704.63
291.198	8712.47
291.266	8718.44
291.333	8722.05
291.4	8729.46
291.468	8737.02
291.535	8735.33
291.602	8741.16
291.669	8733.84
291.737	8737.88
291.804	8747.61
291.871	8753.38
291.938	8748.62
292.006	8774.8
292.073	8787.94
292.14	8796.37
292.207	8796.8
292.275	8802.09
292.342	8817.21
292.409	8834.87
292.476	8853.94
292.543	8843.4
292.611	8852.06
292.678	8865.73
292.745	8882.91
292.812	8889.27
292.879	8892.35
292.946	8898.22
293.014	8908.23
293.081	8915.65
293.148	8930.76
293.215	8942.51
293.282	8940.77
293.349	8954.4
293.416	8939.04
293.484	8951.12
293.551	8956.9
293.618	8969.75
293.685	8993.25
293.752	8983.52
293.819	8985.55
293.886	8979.38
293.953	8982.22
294.02	8986.41
294.087	8989.68
294.154	8986.75
294.221	9006.83
294.288	9009.86
294.356	9028.97
294.423	9034.75
294.49	9023.58
294.557	9033.59
294.624	9022.71
294.691	9041.15
294.758	9044.47
294.825	9049.14
294.892	9044.04
294.959	9043.61
295.026	9054.68
295.093	9043.22
295.16	9047.6
295.226	9046.01
295.293	9065.9
295.36	9073.84
295.427	9083.42
295.494	9097.58
295.561	9110.09
295.628	9128.44
295.695	9139.18
295.762	9140.58
295.829	9148.09
295.896	9167.05
295.963	9176.06
296.03	9186.89
296.096	9189.1
296.163	9198.88
296.23	9214.91
296.297	9228.97
296.364	9230.17
296.431	9227.28
296.498	9226.99
296.564	9252.75
296.631	9255.16
296.698	9245.82
296.765	9271
296.832	9263.83
296.899	9258.67
296.965	9272.78
297.032	9253.13
297.099	9270.81
297.166	9276.58
297.233	9276.06
297.299	9271.24
297.366	9273.84
297.433	9271.1
297.5	9283.33
297.566	9284.58
297.633	9285.01
297.7	9287.81
297.767	9289.97
297.833	9293.78
297.9	9291.08
297.967	9271.34
298.033	9289.35
298.1	9317.76
298.167	9304.71
298.234	9310.54
298.3	9318.24
298.367	9310.97
298.434	9317.18
298.5	9305.67
298.567	9302.78
298.634	9297.49
298.7	9312.75
298.767	9318.72
298.834	9339.09
298.9	9339.81
298.967	9333.41
299.033	9341.16
299.1	9360.28
299.167	9372.7
299.233	9373.37
299.3	9390.66
299.366	9411.84
299.433	9416.42
299.5	9386.76
299.566	9391.71
299.633	9405.87
299.699	9411.17
299.766	9414.25
299.832	9412.13
299.899	9425.23
299.965	9438.57
300.032	9439.87
300.099	9450.37
300.165	9454.89
300.232	9447.53
300.298	9443.91
300.365	9455.23
300.431	9457.54
300.498	9444.01
300.564	9452.68
300.631	9466.98
300.697	9477.67
300.763	9478.2
300.83	9481.72
300.896	9501.65
300.963	9513.11
301.029	9517.54
301.096	9521.54
301.162	9527.13
301.229	9530.69
301.295	9520.05
301.361	9519.28
301.428	9521.3
301.494	9506.23
301.561	9502.76
301.627	9503.96
301.693	9508.92
301.76	9511.91
301.826	9504.21
301.892	9518.56
301.959	9522.07
302.025	9514.17
302.092	9508.88
302.158	9510.61
302.224	9507.67
302.291	9497.13
302.357	9496.16
302.423	9490.38
302.49	9476.95
302.556	9492.12
302.622	9490.39
302.688	9494.57
302.755	9510.56
302.821	9521.16
302.887	9534.45
302.954	9535.27
303.02	9548.75
303.086	9552.6
303.152	9548.85
303.219	9549.57
303.285	9552.08
303.351	9563.88
303.417	9569.03
303.483	9560.75
303.55	9558.53
303.616	9561.37
303.682	9556.08
303.748	9550.06
303.815	9563.59
303.881	9577.55
303.947	9554.58
304.013	9555.79
304.079	9552.61
304.145	9535.41
304.212	9538.59
304.278	9531.37
304.344	9525.49
304.41	9511.82
304.476	9503.53
304.542	9506.23
304.608	9513.41
304.674	9497.95
304.741	9487.25
304.807	9484.89
304.873	9490.24
304.939	9498.33
305.005	9477.77
305.071	9484.89
305.137	9481.23
305.203	9461.3
305.269	9466.5
305.335	9491.45
305.401	9488.46
305.467	9477.87
305.533	9482.2
305.599	9477.82
305.666	9487.64
305.732	9493.76
305.798	9508.11
305.864	9528.14
305.93	9525.45
305.996	9521.64
306.062	9521.55
306.128	9513.02
306.194	9502.86
306.259	9503.39
306.325	9498.43
306.391	9511.82
306.457	9518.37
306.523	9526.89
306.589	9551.31
306.655	9537.58
306.721	9510.85
306.787	9503.77
306.853	9520.87
306.919	9503.05
306.985	9498.43
307.051	9487.64
307.117	9471.17
307.183	9460.96
307.248	9435.2
307.314	9434.77
307.38	9435.15
307.446	9438.04
307.512	9428.7
307.578	9436.02
307.644	9429.66
307.709	9430.19
307.775	9426.1
307.841	9420.85
307.907	9415.36
307.973	9392.63
308.039	9392.19
308.104	9396.91
308.17	9396.67
308.236	9381.79
308.302	9386.66
308.368	9379.05
308.433	9376.69
308.499	9375.48
308.565	9367.83
308.631	9371.63
308.696	9357.52
308.762	9351.31
308.828	9350.93
308.894	9329.74
308.959	9308.37
309.025	9303.07
309.091	9294.93
309.156	9285.2
309.222	9280.53
309.288	9268.5
309.354	9252.56
309.419	9252.08
309.485	9237.54
309.551	9235.27
309.616	9221.45
309.682	9218.13
309.748	9209.9
309.813	9204.51
309.879	9197.67
309.945	9188.76
310.01	9179.13
310.076	9180.53
310.141	9164.98
310.207	9149.95
310.273	9163.43
310.338	9161.51
310.404	9145.57
310.469	9133.44
310.535	9121.93
310.601	9100.36
310.666	9107.34
310.732	9113.41
310.797	9099.16
310.863	9089.05
310.928	9081.01
310.994	9082.74
311.059	9076.15
311.125	9072.68
311.191	9080.67
311.256	9075.67
311.322	9074.65
311.387	9057.52
311.453	9253.55
311.518	9235.11
311.584	9231.6
311.649	9234
311.715	9227.79
311.78	9230.15
311.846	9220.24
311.911	9231.55
311.976	9236.07
312.042	9219.75
312.107	9206.8
312.173	9201.03
312.238	9199.92
312.304	9199.24
312.369	9189.62
312.434	9175.08
312.5	9168.29
312.565	9138.15
312.631	9132.67
312.696	9122.12
312.761	9127.47
312.827	8918.29
312.892	8953.49
312.958	8946.55
313.023	8939.14
313.088	8942.08
313.154	8927.64
313.219	8918.01
313.284	8902.27
313.35	8898.61
313.415	8883.01
313.48	8875.89
313.546	8873.72
313.611	8877.77
313.676	8866.5
313.741	8863.76
313.807	8870.16
313.872	8876.56
313.937	8877.09
314.003	8891.63
314.068	8897.36
314.133	8900.29
314.198	8892.11
314.264	8870.49
314.329	8864.09
314.394	8857.06
314.459	8843.54
314.525	8860.24
314.59	8860.58
314.655	8850.18
314.72	8851.14
314.785	8851.33
314.851	8849.12
314.916	8833.43
314.981	8819.28
315.046	8807.82
315.111	8798.53
315.176	8788.14
315.242	8788.23
315.307	8787.27
315.372	8768.5
315.437	8749.1
315.502	8739.76
315.567	8745.78
315.632	8732.3
315.698	8733.26
315.763	8730.86
315.828	8726.28
315.893	8727.01
315.958	8719.26
316.023	8710.88
316.088	8693.94
316.153	8678.78
316.218	8665.69
316.283	8647.74
316.348	8632.39
316.413	8630.13
316.479	8612.18
316.544	8581.58
316.609	8542.94
316.674	8504.16
316.739	8470.19
316.804	8443.1
316.869	8405.86
316.934	8368.66
316.999	8337
317.064	8281.92
317.129	8242.61
317.194	8206.05
317.259	8146.19
317.324	8101.31
317.389	8056.77
317.454	8014.87
317.518	7984.28
317.583	7957.91
317.648	7927.32
317.713	7889.71
317.778	7825.36
317.843	7798
317.908	7757.75
317.973	7716.3
318.038	7689.47
318.103	7648.61
318.168	7613.08
318.233	7584.32
318.297	7536
318.362	7499.66
318.427	7463.51
318.492	7431.97
318.557	7387.47
318.622	7359.63
318.687	7334.98
318.751	7292.11
318.816	7256.64
318.881	7216.18
318.946	7162.39
319.011	7118.81
319.075	7076.38
319.14	7048.18
319.205	6999.45
319.27	6966.26
319.335	6927.93
319.399	6885.99
319.464	6860.19
319.529	6812.64
319.594	6770.9
319.658	6737.23
319.723	6692.04
319.788	6656.99
319.853	6605.3
319.917	6573.71
319.982	6524.73
320.047	6480.51
320.112	6455.83
320.176	6405.37
320.241	6369.08
320.306	6336.92
320.37	6296.6
320.435	6265.64
320.5	6232.76
320.564	6194.46
320.629	6153.29
320.694	6121.05
320.758	6079.74
320.823	6034.01
320.888	6006.33
320.952	5955.81
321.017	5917.48
321.082	5879.25
321.146	5851.05
321.211	5814.55
321.275	5773.02
321.34	5729.96
321.405	5687.05
321.469	5638.57
321.534	5596.39
321.598	5547.87
321.663	5513.06
321.727	5480.51
321.792	5427.21
321.857	5381.53
321.921	5340.6
321.986	5299.69
322.05	5242.77
322.115	5207.7
322.179	5161.04
322.244	5103.32
322.308	5066.83
322.373	5022.14
322.437	4981.71
322.502	4949.56
322.566	4903.83
322.631	4865.33
322.695	4824.16
322.76	4776.72
322.824	4747.23
322.889	4706.7
322.953	4661.1
323.018	4597.92
323.082	4537.4
323.146	4487.8
323.211	4437.32
323.275	4394.55
323.34	4346.78
323.404	4312.58
323.468	4265.23
323.533	4224.83
323.597	4181.39
323.662	4129.95
323.726	4092.17
323.79	4043.13
323.855	3982.35
323.919	3936.42
323.983	3893.64
324.048	3825.88
324.112	3961.23
324.177	3824.98
324.241	3626.69
324.305	3431.58
324.37	3240.69
324.434	3054.77
324.498	3015.35
324.562	2967.09
324.627	2906.83
324.691	2854.65
324.755	2789.55
324.82	2718.51
324.884	2641.7
324.948	2571.43
325.012	2487.28
325.077	2364.94
