Data from 20250702_urea_0.5M_MAYP1162681_13-24-59-730.txt Node
Date: Wed Jul 02 13:24:59 BST 2025
User: adleo
Spectrometer: MAYP116268
Trigger mode: 0
Integration Time (sec): 1.000000E0
Scans to average: 1
Electric dark correction enabled: true
Nonlinearity correction enabled: true
Boxcar width: 10
XAxis mode: Wavelengths
Number of Pixels in Spectrum: 2068
>>>>>Begin Spectral Data<<<<<
179.565	1098.98
179.642	1148.53
179.718	1187.31
179.795	1222.12
179.871	1253.41
179.948	1267.02
180.024	1285.37
180.101	1306.66
180.177	1319.57
180.254	1338.81
180.33	1360.74
180.407	1405.84
180.483	1492.59
180.56	1572.83
180.636	1647.22
180.712	1636.14
180.789	1644.65
180.865	1655.19
180.942	1666.16
181.018	1676.85
181.095	1689.07
181.171	1696.01
181.248	1696.81
181.324	1713.69
181.4	1719.58
181.477	1731.22
181.553	1743.62
181.63	1763.72
181.706	1777.22
181.782	1786.15
181.859	1788.1
181.935	1792.42
182.011	1786.01
182.088	1803.55
182.164	1823.18
182.24	1839.91
182.317	1845.66
182.393	1844.56
182.469	1857.83
182.546	1869.33
182.622	1874.37
182.698	1871.66
182.775	1883.21
182.851	1899.09
182.927	1890.53
183.003	1886.35
183.08	1877.98
183.156	1887.15
183.232	1885.54
183.308	1875.46
183.385	1881.83
183.461	1896.57
183.537	1896
183.613	1912.2
183.69	1903.17
183.766	1892
183.842	1895.75
183.918	1902.55
183.995	1913.48
184.071	1916.86
184.147	1909.68
184.223	1897.94
184.299	1908.83
184.375	1897.95
184.452	1903.37
184.528	1953.63
184.604	1965.18
184.68	1977.73
184.756	1985.1
184.832	1988.76
184.908	1993.47
184.985	1991.71
185.061	1977.5
185.137	1987.2
185.213	1975.07
185.289	1976.36
185.365	1966.8
185.441	1969.8
185.517	1982.97
185.593	1982.17
185.669	1980.26
185.745	1992.82
185.822	2010.26
185.898	2002.27
185.974	2011.35
186.05	2000.6
186.126	1967.03
186.202	1963.65
186.278	1959.71
186.354	1952.24
186.43	1957.24
186.506	1956.71
186.582	1956.95
186.658	1962.23
186.734	1944.21
186.81	1947.39
186.886	1950.58
186.962	1967.88
187.038	1961.22
187.114	1952.52
187.19	1960.79
187.266	1949.96
187.341	1950.48
187.417	1942.97
187.493	1941.49
187.569	1942.97
187.645	1940.73
187.721	1929.6
187.797	1932.79
187.873	1938.54
187.949	1929.8
188.025	1923.85
188.101	1925.56
188.176	1929.89
188.252	1927.61
188.328	1935.12
188.404	1934.83
188.48	1928.08
188.556	1921.61
188.632	1922.04
188.707	1923.95
188.783	1919.9
188.859	1916.81
188.935	1905.78
189.011	1914.2
189.086	1910.16
189.162	1902.5
189.238	1899.51
189.314	1895.56
189.39	1889.71
189.465	1880.87
189.541	1901.17
189.617	1887.91
189.693	1880.78
189.768	1885.06
189.844	1908.13
189.92	1901.24
189.996	1907.94
190.071	1919.3
190.147	1917.59
190.223	1924.25
190.298	1917.02
190.374	1904.09
190.45	1915.92
190.526	1922.77
190.601	1914.97
190.677	1915.16
190.753	1942.23
190.828	1946.41
190.904	1959.92
190.98	1976.46
191.055	1985.36
191.131	1974.18
191.207	1992.1
191.282	2002.42
191.358	1994.19
191.433	1978.83
191.509	1989.66
191.585	1989
191.66	1990.47
191.736	1996.75
191.811	1989.76
191.887	2005.84
191.963	2028.76
192.038	2031.89
192.114	2030.9
192.189	2037.46
192.265	2036.27
192.34	2016.05
192.416	2015.1
192.491	2010.87
192.567	2011.91
192.642	2014.48
192.718	2015.86
192.793	2005.06
192.869	2002.12
192.944	2005.21
193.02	2011.82
193.095	2017.1
193.171	2020.85
193.246	2019.09
193.322	2016.14
193.397	2018.76
193.473	2004.2
193.548	1985.18
193.624	1992.7
193.699	1992.55
193.775	2003.02
193.85	2004.92
193.925	2011.72
194.001	2011.2
194.076	2002.83
194.152	1993.46
194.227	1986.47
194.302	1978.1
194.378	1980.38
194.453	1978.1
194.529	1987.04
194.604	1973.78
194.679	1964.27
194.755	1946.39
194.83	1959.05
194.905	1958.71
194.981	1966.42
195.056	1960.48
195.131	1966.75
195.207	1962
195.282	1952.68
195.357	1937.98
195.433	1952.2
195.508	1939.93
195.583	1945.68
195.659	1961.66
195.734	1967.8
195.809	1967.7
195.884	1974.98
195.96	1977.97
196.035	1993.47
196.11	1991.86
196.185	2002.6
196.261	2008.21
196.336	2037.31
196.411	2022.14
196.486	2027.42
196.561	2020.76
196.637	2030.31
196.712	2045.44
196.787	2049.63
196.862	2063.32
196.937	2071.12
197.013	2077.35
197.088	2091.76
197.163	2112.46
197.238	2130.5
197.313	2131.31
197.388	2143.3
197.464	2172.23
197.539	2182.07
197.614	2174.7
197.689	2186.83
197.764	2203.68
197.839	2222.57
197.914	2218.24
197.989	2240.03
198.065	2252.78
198.14	2300.87
198.215	2326.23
198.29	2337.52
198.365	2348.7
198.44	2359.41
198.515	2388.35
198.59	2398.44
198.665	2419.96
198.74	2427
198.815	2425.43
198.89	2448.38
198.965	2478.09
199.04	2474.47
199.115	2492.04
199.19	2533.46
199.265	2534.03
199.34	2543.31
199.415	2577
199.49	2598.99
199.565	2607.85
199.64	2630.14
199.715	2625.75
199.79	2632.28
199.865	2639.52
199.94	2639.43
200.015	2668.96
200.09	2670.39
200.165	2679.15
200.24	2685.73
200.315	2724.01
200.39	2738.21
200.464	2739.73
200.539	2740.16
200.614	2755.4
200.689	2772.08
200.764	2775.42
200.839	2794.09
200.914	2798.99
200.989	2784.55
201.063	2796.03
201.138	2781.94
201.213	2780.46
201.288	2765.93
201.363	2770.46
201.438	2769.41
201.512	2785.08
201.587	2771.11
201.662	2778.5
201.737	2790.08
201.812	2798.47
201.886	2767.57
201.961	2775.19
202.036	2765.57
202.111	2762.05
202.186	2734.76
202.26	2720.04
202.335	2702.27
202.41	2694.17
202.485	2678.26
202.559	2661.21
202.634	2634.87
202.709	2642.96
202.784	2626.29
202.858	2623.48
202.933	2602.38
203.008	2598.76
203.082	2580.62
203.157	2579.71
203.232	2538.01
203.306	2518.57
203.381	2487.42
203.456	2466.71
203.53	2445.93
203.605	2429.94
203.68	2409.94
203.754	2404.13
203.829	2391.23
203.904	2374.09
203.978	2365.28
204.053	2370.14
204.127	2359.48
204.202	2359.38
204.277	2342.15
204.351	2337.54
204.426	2331.92
204.5	2326.87
204.575	2295.37
204.65	2304.08
204.724	2295.46
204.799	2303.5
204.873	2299.03
204.948	2297.46
205.022	2285.37
205.097	2277.18
205.171	2290.27
205.246	2296.6
205.32	2294.84
205.395	2295.65
205.469	2285.76
205.544	2293.8
205.618	2276.48
205.693	2288.71
205.767	2277.1
205.842	2298.28
205.916	2292.48
205.991	2282.91
206.065	2288.67
206.14	2299.8
206.214	2297.08
206.289	2292.18
206.363	2301.46
206.438	2305.41
206.512	2312.22
206.586	2332.06
206.661	2339.92
206.735	2317.8
206.81	2320.13
206.884	2337.5
206.958	2326.41
207.033	2344.39
207.107	2349.35
207.181	2382.06
207.256	2379.91
207.33	2401.86
207.405	2420.49
207.479	2441.1
207.553	2450.81
207.628	2441.01
207.702	2460.62
207.776	2462.52
207.851	2473.62
207.925	2499.39
207.999	2508.2
208.073	2521.25
208.148	2534.96
208.222	2538.92
208.296	2587.57
208.371	2617.6
208.445	2645.95
208.519	2692.63
208.593	2726.27
208.668	2747.86
208.742	2778
208.816	2804.11
208.89	2846.73
208.965	2873.97
209.039	2915.08
209.113	2968.48
209.187	3026.51
209.261	3065.04
209.336	3124.85
209.41	3191.26
209.484	3240.57
209.558	3310.96
209.632	3378.3
209.707	3449.71
209.781	3536.56
209.855	3614.51
209.929	3703.57
210.003	3783.5
210.077	3860.91
210.151	3983.58
210.226	4095.72
210.3	4209.51
210.374	4327.36
210.448	4425.44
210.522	4530.33
210.596	4645.73
210.67	4762.95
210.744	4913.2
210.818	5063.75
210.892	5206.57
210.966	5323.99
211.041	5465.66
211.115	5595.89
211.189	5750.42
211.263	5904.95
211.337	6053.42
211.411	6220.15
211.485	6364.67
211.559	6523.77
211.633	6678.51
211.707	6811.6
211.781	6980.98
211.855	7106.58
211.929	7271.09
212.003	7428.02
212.077	7612.82
212.151	7801.61
212.225	7990.26
212.299	8165.48
212.373	8338.48
212.447	8514.7
212.52	8735.43
212.594	8929.06
212.668	9131.46
212.742	9315.94
212.816	9509.31
212.89	9694.07
212.964	9885.48
213.038	10082.92
213.112	10300.65
213.186	10518.95
213.26	10700.8
213.333	10863.08
213.407	11071.2
213.481	11266.01
213.555	11474.93
213.629	11669.54
213.703	11855.81
213.777	12051.01
213.85	12238.12
213.924	12467.16
213.998	12679.54
214.072	12868.88
214.146	13059.57
214.219	13259.09
214.293	13459.9
214.367	13653.2
214.441	13865.15
214.515	14039.12
214.588	14213.43
214.662	14366.82
214.736	14533.07
214.81	14723.82
214.883	14924.01
214.957	15105.78
215.031	15287.55
215.105	15453.27
215.178	15624.34
215.252	15797.71
215.326	15955.76
215.4	16108.41
215.473	16237
215.547	16393.69
215.621	16550.47
215.694	16717.85
215.768	16862.92
215.842	17007.22
215.915	17163.95
215.989	17301.49
216.063	17455.66
216.136	17619.32
216.21	17773.25
216.284	17940.43
216.357	18097.97
216.431	18243.03
216.504	18393.72
216.578	18567.65
216.652	18715.88
216.725	18851.54
216.799	19005.17
216.873	19143.58
216.946	19283.14
217.02	19412.33
217.093	19533.78
217.167	19642.16
217.24	19753.77
217.314	19875.88
217.387	19994.87
217.461	20108.89
217.535	20237.66
217.608	20341.47
217.682	20447.11
217.755	20559.2
217.829	20658.97
217.902	20759.31
217.976	20863.07
218.049	20957.92
218.123	21039.57
218.196	21153.84
218.27	21240.79
218.343	21315.21
218.417	21412.18
218.49	21506.6
218.563	21605.94
218.637	21693.38
218.71	21806.47
218.784	21906.15
218.857	21986.07
218.931	22067.92
219.004	22142.5
219.077	22219.63
219.151	22306.35
219.224	22376.25
219.298	22453.67
219.371	22535.29
219.444	22599.46
219.518	22672.89
219.591	22748.1
219.665	22832.67
219.738	22891.88
219.811	22953.49
219.885	23025.91
219.958	23096.12
220.031	23161.84
220.105	23231.18
220.178	23295.16
220.251	23336.06
220.325	23396.68
220.398	23468
220.471	23525.43
220.544	23585.18
220.618	23627.37
220.691	23674.49
220.764	23725.66
220.838	23788.5
220.911	23825.49
220.984	23891.61
221.057	23942.97
221.131	23987.15
221.204	24002.92
221.277	24058.44
221.35	24133.06
221.424	24166.97
221.497	24202.71
221.57	24240.81
221.643	24276.17
221.716	24313.8
221.79	24342.01
221.863	24365.17
221.936	24389.34
222.009	24423.58
222.082	24446.69
222.155	24471.05
222.229	24514.8
222.302	24539.89
222.375	24553.83
222.448	24587.21
222.521	24596.43
222.594	24614.13
222.667	24618.23
222.74	24633.82
222.814	24647.32
222.887	24650.22
222.96	24671.11
223.033	24686.89
223.106	24698.85
223.179	24712.41
223.252	24718.1
223.325	24728.38
223.398	24736.43
223.471	24741.5
223.544	24755.44
223.617	24760.22
223.69	24763.69
223.763	24751.2
223.837	24765.81
223.91	24773.53
223.983	24760.65
224.056	24749.99
224.129	24743.09
224.202	24762.58
224.275	24770.06
224.348	24757.61
224.42	24743.04
224.493	24723.17
224.566	24719.88
224.639	24719.79
224.712	24708.26
224.785	24697.69
224.858	24690.84
224.931	24668.07
225.004	24651.67
225.077	24639.6
225.15	24611.14
225.223	24607.91
225.296	24633.24
225.369	24611.82
225.442	24590.59
225.514	24570.09
225.587	24572.99
225.66	24571.97
225.733	24553.06
225.806	24545.49
225.879	24527.54
225.952	24514.9
226.025	24520.69
226.097	24509.98
226.17	24490.64
226.243	24459.09
226.316	24445.77
226.389	24428.89
226.461	24434.05
226.534	24430.39
226.607	24412.25
226.68	24421.61
226.753	24401.44
226.825	24353.01
226.898	24339.45
226.971	24328.69
227.044	24320.25
227.117	24306.84
227.189	24289.48
227.262	24285.57
227.335	24262.17
227.407	24243.12
227.48	24231.01
227.553	24213.65
227.626	24196.91
227.698	24176.79
227.771	24168.31
227.844	24136.91
227.916	24125.28
227.989	24087.47
228.062	24053.22
228.134	24053.03
228.207	24023.61
228.28	24006.68
228.352	23992.35
228.425	23976.24
228.498	23959.89
228.57	23936.12
228.643	23926.52
228.716	23902.64
228.788	23862.47
228.861	23836.47
228.934	23833.53
229.006	23803.53
229.079	23769.82
229.151	23738.28
229.224	23707.61
229.296	23685.18
229.369	23694.01
229.442	23684.7
229.514	23657.89
229.587	23656.68
229.659	23609.47
229.732	23603.49
229.804	23579.76
229.877	23573.06
229.949	23559.26
230.022	23560.81
230.094	23542.77
230.167	23517.69
230.239	23482.73
230.312	23471.35
230.384	23475.4
230.457	23460.64
230.529	23445.7
230.602	23428.34
230.674	23416.96
230.747	23408.71
230.819	23390
230.892	23329.2
230.964	23307.69
231.037	23286.52
231.109	23252.48
231.181	23243.03
231.254	23203.15
231.326	23178.51
231.399	23147.02
231.471	23115.92
231.544	23067.17
231.616	23045.47
231.688	23026.09
231.761	22996.2
231.833	22959.07
231.905	22895.62
231.978	22858.83
232.05	22826.33
232.122	22800.49
232.195	22761
232.267	22740.32
232.339	22714.67
232.412	22702.57
232.484	22673.54
232.556	22646.35
232.629	22628.66
232.701	22603.92
232.773	22580.64
232.846	22547.42
232.918	22518.01
232.99	22485.28
233.062	22460.16
233.135	22428.05
233.207	22374.93
233.279	22353.62
233.351	22335.4
233.424	22310.76
233.496	22265.35
233.568	22252.77
233.64	22207.46
233.713	22178.53
233.785	22140.02
233.857	22128.16
233.929	22091.23
234.001	22070.79
234.074	22050.26
234.146	21999.31
234.218	21955.68
234.29	21923.91
234.362	21889.06
234.434	21848.81
234.507	21811.75
234.579	21755.83
234.651	21727.3
234.723	21703.87
234.795	21673.12
234.867	21633.59
234.939	21611.85
235.012	21577.92
235.084	21546.25
235.156	21523.55
235.228	21481.33
235.3	21448.07
235.372	21395.72
235.444	21372.93
235.516	21312.72
235.588	21283.85
235.66	21257.78
235.732	21214.83
235.804	21228.81
235.876	21205.97
235.948	21175.03
236.02	21139.12
236.092	21112.47
236.164	21071.5
236.236	21031.06
236.308	20987.69
236.38	20953.04
236.452	20911.25
236.524	20881.08
236.596	20849.03
236.668	20808.5
236.74	20780.21
236.812	20744.74
236.884	20706.37
236.956	20664.93
237.028	20623.63
237.1	20577.94
237.172	20562.76
237.244	20540.06
237.316	20464.97
237.388	20413.98
237.46	20370.03
237.532	20351.81
237.604	20309.16
237.675	20298.03
237.747	20270.08
237.819	20229.45
237.891	20190.71
237.963	20142.56
238.035	20101.6
238.107	20043.58
238.178	20033.46
238.25	19984.74
238.322	19961.46
238.394	19906.86
238.466	19871.87
238.538	19842.72
238.609	19814.14
238.681	19758.05
238.753	19719.16
238.825	19693.81
238.897	19665.18
238.968	19647.79
239.04	19594.92
239.112	19576.95
239.184	19522.68
239.255	19483.36
239.327	19451.07
239.399	19423.94
239.471	19403.94
239.542	19375.9
239.614	19348.48
239.686	19282.6
239.758	19260.58
239.829	19222.03
239.901	19196.82
239.973	19156.83
240.044	19105.99
240.116	19064.3
240.188	19023.2
240.259	18988.11
240.331	18924.12
240.403	18892.26
240.474	18841.28
240.546	18800.41
240.618	18751.16
240.689	18703.26
240.761	18668.9
240.833	18647.17
240.904	18601.68
240.976	18557.68
241.048	18515.8
241.119	18485.01
241.191	18461.49
241.262	18433.5
241.334	18385.84
241.405	18354.75
241.477	18315.43
241.549	18290.23
241.62	18250.32
241.692	18221.46
241.763	18188.16
241.835	18160.98
241.906	18128.93
241.978	18076.6
242.049	18039.25
242.121	18018
242.192	17995.59
242.264	17941.76
242.335	17887.83
242.407	17854.39
242.478	17814.68
242.55	17783.21
242.621	17738.49
242.693	17694.97
242.764	17655.5
242.836	17612.37
242.907	17585.96
242.979	17551.93
243.05	17512.22
243.122	17481.57
243.193	17447.94
243.264	17388.66
243.336	17351.21
243.407	17314.92
243.479	17292.42
243.55	17266.2
243.622	17226.15
243.693	17186.97
243.764	17175.31
243.836	17130.63
243.907	17099.06
243.978	17063.88
244.05	17029.13
244.121	16976.55
244.192	16944.89
244.264	16892.16
244.335	16865.08
244.407	16803.15
244.478	16772.69
244.549	16739.05
244.62	16694.03
244.692	16649.36
244.763	16635.67
244.834	16593.16
244.906	16560.14
244.977	16530.17
245.048	16509.92
245.119	16473.63
245.191	16432.67
245.262	16371.99
245.333	16355.31
245.405	16314
245.476	16289.81
245.547	16252.99
245.618	16225.46
245.689	16202.43
245.761	16178.28
245.832	16143.72
245.903	16125.41
245.974	16093.69
246.045	16058.22
246.117	16047.76
246.188	16010.02
246.259	15956.47
246.33	15924.37
246.401	15878.67
246.473	15835.87
246.544	15795.68
246.615	15773.7
246.686	15742.17
246.757	15725.3
246.828	15684.04
246.899	15660.57
246.97	15608.8
247.042	15581.81
247.113	15557.56
247.184	15534.72
247.255	15496.16
247.326	15461.4
247.397	15428.19
247.468	15396.48
247.539	15363.36
247.61	15308.51
247.681	15279.54
247.752	15265.08
247.823	15223.96
247.894	15200.92
247.965	15162.98
248.037	15123.84
248.108	15070.87
248.179	15035.49
248.25	14999.14
248.321	14976.92
248.392	14946.36
248.463	14945.01
248.534	14907.27
248.605	14882.93
248.675	14847.45
248.746	14818.48
248.817	14790.71
248.888	14763.57
248.959	14719.42
249.03	14698.79
249.101	14671.12
249.172	14647.45
249.243	14599.49
249.314	14593.32
249.385	14568.97
249.456	14549.5
249.527	14525.11
249.598	14500.14
249.669	14471.07
249.739	14446.96
249.81	14421.66
249.881	14379.48
249.952	14341.01
250.023	14309.97
250.094	14273.47
250.165	14231.01
250.235	14210.66
250.306	14193.16
250.377	14161.01
250.448	14135.17
250.519	14091.5
250.59	14083.88
250.66	14042.86
250.731	14035.67
250.802	14006.85
250.873	13973.92
250.944	13942.4
251.014	13906.72
251.085	13905.71
251.156	13884.31
251.227	13870.86
251.297	13853.6
251.368	13835.57
251.439	13829.21
251.51	13823.42
251.58	13795.41
251.651	13769.14
251.722	13749.14
251.792	13702.38
251.863	13673.21
251.934	13663.09
252.005	13670.61
252.075	13637.39
252.146	13630.6
252.217	13618.74
252.287	13600.27
252.358	13573.42
252.429	13566.43
252.499	13538.23
252.57	13511.28
252.641	13497.5
252.711	13467.08
252.782	13429.57
252.852	13427.84
252.923	13400.31
252.994	13371.73
253.064	13354.18
253.135	13320.39
253.205	13290.35
253.276	13294.02
253.347	13290.93
253.417	13267.31
253.488	13235.35
253.558	13215.1
253.629	13190.71
253.699	13162.46
253.77	13146.31
253.841	13125.05
253.911	13106.01
253.982	13088.9
254.052	13077.38
254.123	13057.13
254.193	13037.46
254.264	13051.06
254.334	13013.99
254.405	12981.3
254.475	12949.25
254.546	12922.06
254.616	12918.97
254.687	12904.8
254.757	12878.87
254.827	12852.11
254.898	12828.2
254.968	12807.86
255.039	12778.07
255.109	12762.11
255.18	12730.06
255.25	12685.56
255.321	12670.38
255.391	12637.84
255.461	12639.57
255.532	12593.73
255.602	12567.22
255.673	12535.69
255.743	12503.64
255.813	12465.12
255.884	12449.46
255.954	12437.11
256.024	12433.02
256.095	12411.52
256.165	12377.49
256.235	12360.66
256.306	12325.62
256.376	12316.56
256.446	12303.93
256.517	12298.77
256.587	12282.62
256.657	12269.03
256.728	12248.93
256.798	12229.7
256.868	12201.74
256.938	12163.22
257.009	12155.27
257.079	12148.47
257.149	12151.8
257.219	12112.9
257.29	12090.68
257.36	12053.81
257.43	12042.82
257.5	12005.89
257.571	11988.4
257.641	11971.96
257.711	11935.86
257.781	11925.54
257.852	11912
257.922	11864.04
257.992	11833.58
258.062	11816.32
258.132	11800.32
258.202	11782.29
258.273	11765.13
258.343	11766.92
258.413	11740.84
258.483	11710.72
258.553	11676.78
258.623	11644.83
258.693	11632.34
258.764	11641.36
258.834	11634.42
258.904	11617.06
258.974	11588.97
259.044	11561.3
259.114	11553.78
259.184	11543.81
259.254	11521.78
259.324	11477.05
259.394	11471.94
259.464	11468.91
259.535	11446.88
259.605	11428.9
259.675	11400.38
259.745	11380.57
259.815	11346.59
259.885	11327.84
259.955	11341.14
260.025	11313.14
260.095	11294.11
260.165	11276.9
260.235	11262.2
260.305	11241.77
260.375	11209.57
260.445	11217.96
260.515	11214.92
260.585	11202.54
260.655	11184.9
260.725	11181.67
260.795	11174.2
260.865	11177.81
260.934	11148.9
261.004	11136.37
261.074	11114.06
261.144	11121.43
261.214	11117.14
261.284	11107.21
261.354	11101.57
261.424	11076.51
261.494	11082.49
261.564	11066.2
261.634	11054.68
261.703	11020.66
261.773	11007.41
261.843	11000.66
261.913	10977.63
261.983	10943.56
262.053	10939.65
262.123	10925.73
262.192	10894.31
262.262	10894.21
262.332	10863.56
262.402	10852.38
262.472	10835.9
262.541	10802.13
262.611	10789.26
262.681	10768.01
262.751	10757.79
262.821	10739.63
262.89	10710.43
262.96	10695.44
263.03	10696.21
263.1	10687.49
263.169	10677.13
263.239	10666.67
263.309	10667.3
263.379	10658.39
263.448	10648.8
263.518	10628.9
263.588	10609.91
263.657	10616.13
263.727	10603.89
263.797	10583.8
263.867	10573.82
263.936	10555.71
264.006	10558.55
264.076	10539.95
264.145	10522.46
264.215	10497.07
264.285	10486.28
264.354	10451.98
264.424	10433.96
264.494	10404.95
264.563	10380.96
264.633	10381.97
264.702	10368.53
264.772	10338.03
264.842	10319.58
264.911	10305.99
264.981	10276.84
265.05	10263.79
265.12	10243.02
265.19	10231.5
265.259	10225.92
265.329	10209.63
265.398	10192.39
265.468	10200.43
265.537	10185.16
265.607	10175.91
265.676	10170.18
265.746	10160.49
265.815	10160.88
265.885	10146.19
265.955	10126.34
266.024	10108.18
266.094	10077.3
266.163	10082.74
266.232	10080.87
266.302	10065.21
266.371	10058.27
266.441	10048.11
266.51	10041.17
266.58	10027.06
266.649	10007.36
266.719	10008.18
266.788	9997.14
266.858	9994.74
266.927	9954.85
266.996	9938.96
267.066	9929.37
267.135	9906.39
267.205	9905.53
267.274	9898.5
267.343	9896.18
267.413	9881.64
267.482	9882.75
267.552	9879.62
267.621	9845.66
267.69	9821.96
267.76	9813.62
267.829	9805.48
267.898	9795.47
267.968	9780
268.037	9768.16
268.106	9757.46
268.176	9734.39
268.245	9729.72
268.314	9711.7
268.384	9707.47
268.453	9700.39
268.522	9685.12
268.592	9686.71
268.661	9661.66
268.73	9647.41
268.799	9625.45
268.869	9630.17
268.938	9601.03
269.007	9589.04
269.076	9583.06
269.146	9574.59
269.215	9561.68
269.284	9563.27
269.353	9542.71
269.422	9525.37
269.492	9513.14
269.561	9483.19
269.63	9474.14
269.699	9452.99
269.768	9450.87
269.838	9447.74
269.907	9442.01
269.976	9422.8
270.045	9387.22
270.114	9385.29
270.183	9373.3
270.253	9369.79
270.322	9337.04
270.391	9330.88
270.46	9326.6
270.529	9319.66
270.598	9317.16
270.667	9313.5
270.736	9292.79
270.806	9286.96
270.875	9287.44
270.944	9271.6
271.013	9289.57
271.082	9283.98
271.151	9279.02
271.22	9244.93
271.289	9234.96
271.358	9225.05
271.427	9225.58
271.496	9225.29
271.565	9208.24
271.634	9195.43
271.703	9187.68
271.772	9197.36
271.841	9185.56
271.91	9164.96
271.979	9156.39
272.048	9135.25
272.117	9129.23
272.186	9109.59
272.255	9106.46
272.324	9104.24
272.393	9099.57
272.462	9079.4
272.531	9067.7
272.6	9053.64
272.669	9063.22
272.738	9050.7
272.807	9046.85
272.876	9026.05
272.945	9050.37
273.013	9050.75
273.082	9060.28
273.151	9043.92
273.22	9036.93
273.289	9033.37
273.358	9044.83
273.427	9031.98
273.496	9028.75
273.564	9024.8
273.633	9029.18
273.702	9014.94
273.771	9006.22
273.84	9010.84
273.909	9011.47
273.977	9005.84
274.046	9000.54
274.115	9008
274.184	8989.52
274.253	8977.39
274.322	8984.03
274.39	8953.03
274.459	8939.26
274.528	8913.03
274.597	8903.06
274.665	8902.82
274.734	8904.65
274.803	8892.42
274.872	8880.15
274.94	8871.53
275.009	8922.68
275.078	8902.08
275.147	8895.72
275.215	8888.07
275.284	8886.48
275.353	8873.53
275.421	8849.9
275.49	8859.48
275.559	8843.35
275.627	8839.74
275.696	8831.99
275.765	8825.21
275.833	8816.69
275.902	8813.9
275.971	8820.59
276.039	8835.27
276.108	8834.11
276.177	8835.65
276.245	8825.83
276.314	8826.36
276.383	8820.59
276.451	8757.26
276.52	8765.59
276.588	8781.62
276.657	8784.46
276.725	8772.81
276.794	8776.08
276.863	8790.33
276.931	8772.71
277	8778.2
277.068	8789.36
277.137	8811.99
277.205	8811.55
277.274	8830.76
277.342	8842.74
277.411	8828.21
277.48	8820.56
277.548	8808.71
277.617	8808.71
277.685	8801.98
277.754	8805.49
277.822	8803.66
277.89	8815.65
277.959	8807.18
278.027	8788.02
278.096	8778.1
278.164	8800.59
278.233	8790.72
278.301	8779.31
278.37	8784.03
278.438	8771.61
278.507	8772.52
278.575	8739.94
278.643	8731.71
278.712	8711.06
278.78	8699.07
278.849	8707.83
278.917	8719.29
278.985	8715.29
279.054	8711.01
279.122	8719.34
279.191	8719.91
279.259	8717.99
279.327	8698.54
279.396	8714.62
279.464	8707.01
279.532	8712.89
279.601	8704.32
279.669	8698.59
279.737	8713.61
279.806	8712.5
279.874	8721.26
279.942	8716.54
280.011	8716.98
280.079	8725.06
280.147	8745.04
280.215	8738.01
280.284	8730.31
280.352	8712.98
280.42	8717.46
280.488	8709.76
280.557	8705.04
280.625	8704.36
280.693	8704.03
280.761	8707.01
280.83	8688.29
280.898	8702.77
280.966	8685.26
281.034	8663.64
281.102	8651.71
281.171	8642.95
281.239	8647.81
281.307	8636.12
281.375	8626.35
281.443	8652.58
281.512	8653.3
281.58	8653.88
281.648	8648.68
281.716	8649.6
281.784	8645.46
281.852	8640.07
281.92	8640.11
281.989	8649.74
282.057	8633.96
282.125	8676.46
282.193	8672.81
282.261	8673.67
282.329	8668.04
282.397	8670.88
282.465	8668.52
282.533	8684.31
282.601	8673.48
282.67	8656.05
282.738	8651.39
282.806	8659.9
282.874	8639.93
282.942	8640.99
283.01	8631.94
283.078	8635.74
283.146	8632.71
283.214	8643.15
283.282	8647.29
283.35	8655.57
283.418	8647.39
283.486	8649.22
283.554	8601.75
283.622	8602.42
283.69	8604.73
283.758	8596.46
283.826	8603.24
283.894	8609.26
283.962	8627.12
284.03	8637.18
284.098	8636.93
284.165	8629.67
284.233	8632.51
284.301	8630.2
284.369	8619.27
284.437	8610.61
284.505	8603.39
284.573	8620.81
284.641	8610.51
284.709	8614.03
284.777	8600.84
284.845	8603.82
284.912	8606.66
284.98	8614.12
285.048	8603.2
285.116	8607.38
285.184	8623.27
285.252	8617.92
285.319	8606.13
285.387	8598.24
285.455	8581.93
285.523	8588.52
285.591	8592.22
285.659	8594.2
285.726	8602.67
285.794	8588.76
285.862	8588.18
285.93	8591.5
285.997	8584.33
286.065	8571.97
286.133	8568.89
286.201	8567.44
286.269	8561.38
286.336	8559.45
286.404	8556.95
286.472	8575.96
286.539	8553.3
286.607	8542.03
286.675	8541.12
286.743	8547.76
286.81	8537.6
286.878	8552.91
286.946	8546.31
287.013	8540.3
287.081	8538.28
287.149	8522.2
287.216	8545.5
287.284	8540.88
287.352	8542.56
287.419	8533.08
287.487	8551.32
287.555	8551.61
287.622	8548.09
287.69	8544.92
287.758	8558.25
287.825	8552.04
287.893	8538.23
287.96	8549.34
288.028	8556.42
288.096	8557.48
288.163	8563.01
288.231	8553.87
288.298	8552.52
288.366	8561.04
288.433	8563.83
288.501	8557.43
288.569	8566.91
288.636	8555.98
288.704	8572.01
288.771	8572.11
288.839	8566.76
288.906	8560.7
288.974	8567.29
289.041	8563.35
289.109	8558.97
289.176	8563.83
289.244	8570.95
289.311	8579.42
289.379	8584.38
289.446	8585.97
289.514	8591.12
289.581	8591.84
289.649	8595.55
289.716	8593.43
289.783	8589.29
289.851	8605.7
289.918	8602.04
289.986	8613.11
290.053	8616.29
290.121	8607.19
290.188	8615.57
290.255	8647.04
290.323	8639.58
290.39	8638.14
290.458	8653.68
290.525	8665.52
290.592	8654.45
290.66	8658.2
290.727	8652.14
290.794	8662.25
290.862	8664.61
290.929	8663.84
290.996	8659.7
291.064	8665.42
291.131	8681.69
291.198	8694.69
291.266	8691.37
291.333	8694.45
291.4	8694.54
291.468	8715.92
291.535	8717.07
291.602	8717.74
291.669	8705.37
291.737	8708.74
291.804	8703.98
291.871	8715.91
291.938	8724.39
292.006	8749.85
292.073	8753.51
292.14	8764
292.207	8762.84
292.275	8762.51
292.342	8774.88
292.409	8800.92
292.476	8822.34
292.543	8813.68
292.611	8814.45
292.678	8832.5
292.745	8855.07
292.812	8863.16
292.879	8854.78
292.946	8860.03
293.014	8871.58
293.081	8886.26
293.148	8899.83
293.215	8919.23
293.282	8910.81
293.349	8920.68
293.416	8907.97
293.484	8926.98
293.551	8938.87
293.618	8951.44
293.685	8974.93
293.752	8973.63
293.819	8972.23
293.886	8965.54
293.953	8973.24
294.02	8983.93
294.087	8988.46
294.154	8985.18
294.221	8999.87
294.288	9007.91
294.356	9021.34
294.423	9029.71
294.49	9016.52
294.557	9036.7
294.624	9030.29
294.691	9050.9
294.758	9053.69
294.825	9060.04
294.892	9053.45
294.959	9053.5
295.026	9062.6
295.093	9054.03
295.16	9051.81
295.226	9056.91
295.293	9080.51
295.36	9087.49
295.427	9098.85
295.494	9109.01
295.561	9117.15
295.628	9138.09
295.695	9150.08
295.762	9160.68
295.829	9172.18
295.896	9188.41
295.963	9196.25
296.03	9203.09
296.096	9206.46
296.163	9212
296.23	9229.19
296.297	9239.25
296.364	9240.69
296.431	9242.76
296.498	9245.46
296.564	9271.17
296.631	9271.65
296.698	9256.1
296.765	9268.81
296.832	9251.62
296.899	9242.04
296.965	9259.9
297.032	9242.37
297.099	9258.6
297.166	9264.76
297.233	9256.1
297.299	9254.6
297.366	9253.02
297.433	9256.14
297.5	9263.56
297.566	9267.94
297.633	9269.15
297.7	9275.21
297.767	9277.38
297.833	9281.52
297.9	9283.49
297.967	9272.03
298.033	9279.84
298.1	9306.18
298.167	9301.6
298.234	9313.4
298.3	9323.99
298.367	9315.76
298.434	9319.42
298.5	9310.75
298.567	9301.55
298.634	9304.92
298.7	9321.72
298.767	9317.92
298.834	9325.05
298.9	9319.27
298.967	9315.46
299.033	9318.88
299.1	9333.23
299.167	9343.35
299.233	9339.93
299.3	9351.1
299.366	9361.59
299.433	9390.11
299.5	9371.47
299.566	9377.68
299.633	9400.94
299.699	9405.32
299.766	9407.15
299.832	9410.81
299.899	9423.86
299.965	9443.17
300.032	9437.97
300.099	9448.81
300.165	9461.86
300.232	9466.48
300.298	9476.16
300.365	9483.24
300.431	9487.28
300.498	9477.89
300.564	9482.76
300.631	9501.25
300.697	9515.5
300.763	9517
300.83	9504.14
300.896	9517.62
300.963	9530.09
301.029	9522.82
301.096	9535.53
301.162	9545.93
301.229	9546.13
301.295	9530.04
301.361	9523.16
301.428	9527.54
301.494	9505.48
301.561	9509.91
301.627	9509.82
301.693	9505.39
301.76	9514.63
301.826	9509.14
301.892	9520.27
301.959	9526.82
302.025	9521.09
302.092	9510.39
302.158	9517.57
302.224	9516.7
302.291	9501.63
302.357	9496.19
302.423	9493.93
302.49	9480.44
302.556	9492.87
302.622	9485.21
302.688	9493.01
302.755	9509.92
302.821	9517.38
302.887	9531.01
302.954	9528.65
303.02	9536.59
303.086	9542.42
303.152	9538.13
303.219	9528.65
303.285	9529.42
303.351	9536.69
303.417	9537.27
303.483	9530.38
303.55	9523.3
303.616	9524.99
303.682	9525.9
303.748	9518.05
303.815	9530.87
303.881	9541.65
303.947	9526.87
304.013	9532.02
304.079	9522.34
304.145	9502.21
304.212	9503.22
304.278	9497.49
304.344	9492.24
304.41	9480.11
304.476	9475.24
304.542	9466.38
304.608	9478.81
304.674	9465.18
304.741	9460.02
304.807	9462.05
304.873	9468.93
304.939	9480.06
305.005	9463.54
305.071	9468.98
305.137	9471.1
305.203	9449.33
305.269	9442.3
305.335	9448.27
305.401	9445.09
305.467	9450.44
305.533	9459.97
305.599	9465.56
305.666	9470.52
305.732	9469.17
305.798	9480.78
305.864	9498.26
305.93	9510.59
305.996	9508.95
306.062	9509.96
306.128	9505.48
306.194	9491.66
306.259	9492.53
306.325	9483.71
306.391	9493.54
306.457	9496.76
306.523	9500.28
306.589	9526.05
306.655	9520.27
306.721	9503.99
306.787	9490.8
306.853	9504.86
306.919	9486.8
306.985	9473.32
307.051	9466.24
307.117	9461.52
307.183	9455.93
307.248	9434.41
307.314	9426.12
307.38	9425.02
307.446	9431.85
307.512	9419.67
307.578	9431.18
307.644	9422.61
307.709	9419.86
307.775	9409.7
307.841	9404.26
307.907	9405.51
307.973	9378.79
308.039	9375.51
308.104	9382.78
308.17	9387.79
308.236	9371.08
308.302	9377.63
308.368	9370.21
308.433	9373.97
308.499	9363.95
308.565	9350.95
308.631	9355.04
308.696	9333.81
308.762	9324.47
308.828	9319.27
308.894	9301.02
308.959	9269.53
309.025	9264
309.091	9261.11
309.156	9253.64
309.222	9257.16
309.288	9239.25
309.354	9222.44
309.419	9220.66
309.485	9204.1
309.551	9208.91
309.616	9195.05
309.682	9189.27
309.748	9186.77
309.813	9179.3
309.879	9174.44
309.945	9159.76
310.01	9144.35
310.076	9149.26
310.141	9147
310.207	9124.94
310.273	9127.25
310.338	9134.76
310.404	9121.96
310.469	9113.77
310.535	9102.07
310.601	9079.69
310.666	9089.41
310.732	9098.75
310.797	9089.7
310.863	9078.43
310.928	9065.58
310.994	9067.36
311.059	9063.51
311.125	9059.56
311.191	9064.42
311.256	9051.43
311.322	9054.99
311.387	9035.35
311.453	9355.11
311.518	9329.41
311.584	9336.63
311.649	9339.71
311.715	9332.68
311.78	9331.19
311.846	9320.36
311.911	9327.05
311.976	9329.26
312.042	9311.59
312.107	9296.62
312.173	9285.94
312.238	9279.77
312.304	9277.9
312.369	9265.96
312.434	9259.12
312.5	9249.93
312.565	9222.1
312.631	9227.78
312.696	9228.12
312.761	9233.6
312.827	8901.28
312.892	8925.59
312.958	8916.29
313.023	8914.37
313.088	8910.37
313.154	8896.17
313.219	8890.73
313.284	8883.71
313.35	8875.62
313.415	8864.11
313.48	8858.29
313.546	8860.46
313.611	8873.41
313.676	8863.39
313.741	8860.89
313.807	8856.8
313.872	8857.52
313.937	8861.27
314.003	8867.39
314.068	8865.85
314.133	8874.56
314.198	8866.62
314.264	8858.39
314.329	8852.42
314.394	8851.26
314.459	8848.32
314.525	8871.53
314.59	8862
314.655	8845.78
314.72	8849.67
314.785	8850.3
314.851	8842.07
314.916	8820.36
314.981	8804.09
315.046	8800.05
315.111	8784.65
315.176	8770.98
315.242	8772.04
315.307	8773.34
315.372	8755.19
315.437	8741.62
315.502	8732.62
315.567	8744.79
315.632	8724.92
315.698	8716.83
315.763	8713.46
315.828	8698.93
315.893	8686.7
315.958	8683.91
316.023	8680.44
316.088	8664.17
316.153	8643.58
316.218	8633.76
316.283	8619.71
316.348	8600.37
316.413	8589.92
316.479	8571.35
316.544	8539.12
316.609	8506.73
316.674	8467.71
316.739	8430.9
316.804	8403.14
316.869	8358.49
316.934	8314.8
316.999	8281.74
317.064	8235.85
317.129	8189.37
317.194	8159.45
317.259	8114.32
317.324	8056.6
317.389	8005.95
317.454	7969.87
317.518	7935.63
317.583	7911.77
317.648	7886.47
317.713	7849.78
317.778	7790.43
317.843	7764.75
317.908	7729.65
317.973	7694.21
318.038	7667.18
318.103	7639.35
318.168	7602.37
318.233	7578.71
318.297	7530.06
318.362	7493.53
318.427	7456.71
318.492	7430.46
318.557	7384.8
318.622	7353.55
318.687	7333.37
318.751	7298.1
318.816	7260.51
318.881	7222.74
318.946	7165.11
319.011	7121.72
319.075	7078.72
319.14	7040.53
319.205	6996.66
319.27	6966.11
319.335	6920.56
319.399	6877.95
319.464	6845.62
319.529	6792.16
319.594	6752.38
319.658	6723.42
319.723	6680.59
319.788	6652.01
319.853	6600.04
319.917	6571.43
319.982	6517.11
320.047	6483.31
320.112	6459.69
320.176	6404.63
320.241	6369.44
320.306	6340.06
320.37	6304.01
320.435	6277.47
320.5	6250.07
320.564	6205.29
320.629	6165.18
320.694	6131.59
320.758	6086.72
320.823	6037.88
320.888	6011.88
320.952	5960.5
321.017	5917.61
321.082	5881.5
321.146	5843.36
321.211	5804.75
321.275	5754.26
321.34	5711.73
321.405	5663.49
321.469	5611.41
321.534	5574.79
321.598	5527.24
321.663	5498.32
321.727	5458.72
321.792	5408.54
321.857	5367.46
321.921	5331.61
321.986	5287.86
322.05	5231.81
322.115	5194.68
322.179	5149.37
322.244	5094.19
322.308	5058.32
322.373	5014.64
322.437	4970.34
322.502	4943.12
322.566	4897.87
322.631	4863.88
322.695	4822.9
322.76	4780.83
322.824	4745.4
322.889	4701.23
322.953	4660.17
323.018	4595.22
323.082	4533.79
323.146	4481.46
323.211	4425.82
323.275	4381.42
323.34	4336.99
323.404	4301.37
323.468	4256.55
323.533	4217.34
323.597	4175.09
323.662	4124.03
323.726	4089.75
323.79	4046.53
323.855	3984.65
323.919	3936.1
323.983	3892.22
324.048	3827.04
324.112	3951.35
324.177	3823.13
324.241	3624.55
324.305	3426.34
324.37	3233.34
324.434	3050.24
324.498	3010
324.562	2963.74
324.627	2903.58
324.691	2847.68
324.755	2787.04
324.82	2712.24
324.884	2637
324.948	2563.83
325.012	2474.38
325.077	2349.88
