Data from 20250702_urea_0.5M_MAYP1162681_19-05-00-058.txt Node
Date: Wed Jul 02 19:05:00 BST 2025
User: adleo
Spectrometer: MAYP116268
Trigger mode: 0
Integration Time (sec): 1.000000E0
Scans to average: 1
Electric dark correction enabled: true
Nonlinearity correction enabled: true
Boxcar width: 10
XAxis mode: Wavelengths
Number of Pixels in Spectrum: 2068
>>>>>Begin Spectral Data<<<<<
179.565	1140.42
179.642	1193.43
179.718	1235.75
179.795	1271.39
179.871	1302.87
179.948	1319.07
180.024	1338.64
180.101	1360.86
180.177	1375.13
180.254	1397
180.33	1419.01
180.407	1466.77
180.483	1557.79
180.56	1644.64
180.636	1724.87
180.712	1712.99
180.789	1722.35
180.865	1736.51
180.942	1746.44
181.018	1756.94
181.095	1771.63
181.171	1777
181.248	1779.09
181.324	1792.07
181.4	1801.52
181.477	1811.46
181.553	1825.62
181.63	1845.01
181.706	1861.22
181.782	1867.3
181.859	1865.21
181.935	1868.44
182.011	1867.83
182.088	1884.13
182.164	1901.21
182.24	1916.46
182.317	1924.12
182.393	1920.5
182.469	1931.77
182.546	1942.61
182.622	1947.55
182.698	1941.42
182.775	1955.64
182.851	1969.66
182.927	1966.34
183.003	1962.67
183.08	1956.16
183.156	1966.24
183.232	1965.48
183.308	1955.35
183.385	1963.34
183.461	1982.55
183.537	1981.84
183.613	1990.73
183.69	1982.12
183.766	1970.99
183.842	1977.79
183.918	1985.78
183.995	2002.8
184.071	2004.32
184.147	2000.66
184.223	1989.92
184.299	2002.76
184.375	1989.4
184.452	1993.11
184.528	2045.2
184.604	2052.76
184.68	2065.79
184.756	2070.07
184.832	2070.88
184.908	2072.3
184.985	2072.49
185.061	2056.09
185.137	2070.31
185.213	2060.56
185.289	2062.08
185.365	2057.23
185.441	2054.66
185.517	2066.89
185.593	2060.95
185.669	2060.33
185.745	2069.46
185.822	2085.96
185.898	2076.35
185.974	2085.43
186.05	2080.72
186.126	2039.76
186.202	2032.25
186.278	2028.73
186.354	2019.5
186.43	2027.87
186.506	2028.25
186.582	2028.58
186.658	2033.43
186.734	2011.7
186.81	2015.7
186.886	2019.22
186.962	2031.06
187.038	2026.3
187.114	2018.16
187.19	2027.01
187.266	2015.7
187.341	2016.88
187.417	2008.04
187.493	2011.04
187.569	2013.18
187.645	2005.95
187.721	1996.48
187.797	2005.75
187.873	2010.08
187.949	2005.04
188.025	1996.77
188.101	2000.76
188.176	2006.13
188.252	2002.95
188.328	2010.17
188.404	2010.41
188.48	2003.23
188.556	1993.43
188.632	1991.01
188.707	1992.29
188.783	1988.73
188.859	1983.93
188.935	1973.27
189.011	1979.6
189.086	1972.99
189.162	1969.13
189.238	1968.42
189.314	1965.66
189.39	1960.05
189.465	1950.97
189.541	1966.28
189.617	1954.06
189.693	1946.51
189.768	1949.93
189.844	1975.38
189.92	1968.63
189.996	1976.81
190.071	1988.75
190.147	1989.89
190.223	1999.87
190.298	1992.36
190.374	1977.57
190.45	1991.45
190.526	2000.06
190.601	1995.02
190.677	1995.59
190.753	2021.19
190.828	2020.19
190.904	2033.13
190.98	2049.92
191.055	2062.28
191.131	2054.86
191.207	2077.69
191.282	2086.96
191.358	2076.83
191.433	2062.37
191.509	2076.06
191.585	2073.54
191.66	2072.21
191.736	2077.1
191.811	2070.4
191.887	2084.72
191.963	2113.45
192.038	2119.01
192.114	2116.44
192.189	2120.3
192.265	2115.88
192.34	2095.41
192.416	2099.69
192.491	2097.22
192.567	2095.5
192.642	2095.03
192.718	2095.07
192.793	2081.33
192.869	2078.95
192.944	2079.71
193.02	2086.04
193.095	2088.75
193.171	2093.84
193.246	2096.45
193.322	2093.84
193.397	2091.7
193.473	2077.52
193.548	2054.3
193.624	2058.82
193.699	2059.59
193.775	2077.76
193.85	2081.09
193.925	2088.37
194.001	2085.32
194.076	2077.62
194.152	2070.77
194.227	2065.68
194.302	2056.03
194.378	2057.79
194.453	2056.5
194.529	2069.96
194.604	2054.89
194.679	2048.75
194.755	2030.02
194.83	2039.77
194.905	2038.16
194.981	2051.62
195.056	2046.24
195.131	2053.04
195.207	2051.9
195.282	2044.82
195.357	2025.07
195.433	2041.15
195.508	2028.68
195.583	2037.48
195.659	2052.9
195.734	2058.27
195.809	2057.7
195.884	2069.87
195.96	2069.78
196.035	2079.81
196.11	2076.01
196.185	2089.47
196.261	2092.6
196.336	2125.19
196.411	2108.68
196.486	2115.53
196.561	2107.91
196.637	2115.67
196.712	2132.61
196.787	2135.98
196.862	2149.4
196.937	2159.29
197.013	2163.05
197.088	2171.75
197.163	2191.31
197.238	2206.88
197.313	2206.03
197.388	2218.21
197.464	2244.77
197.539	2257.61
197.614	2251.9
197.689	2264.61
197.764	2280.03
197.839	2301.35
197.914	2292.59
197.989	2316.62
198.065	2332.04
198.14	2376.04
198.215	2401.65
198.29	2408.75
198.365	2420.27
198.44	2433.17
198.515	2461.35
198.59	2476.49
198.665	2505.4
198.74	2512.59
198.815	2513.68
198.89	2535.49
198.965	2564.97
199.04	2560.49
199.115	2575.44
199.19	2617.25
199.265	2619.01
199.34	2627.77
199.415	2656.32
199.49	2677.94
199.565	2688.04
199.64	2711.38
199.715	2709.09
199.79	2716.05
199.865	2726.48
199.94	2726.43
200.015	2755.6
200.09	2758.07
200.165	2761.5
200.24	2767.7
200.315	2804.61
200.39	2816.81
200.464	2823.29
200.539	2826.72
200.614	2843.73
200.689	2867.42
200.764	2874.9
200.839	2893.1
200.914	2897.63
200.989	2890.43
201.063	2903.68
201.138	2889.39
201.213	2890.68
201.288	2874.24
201.363	2880.19
201.438	2880.72
201.512	2898.06
201.587	2880.28
201.662	2883.61
201.737	2897.53
201.812	2903.25
201.886	2874.39
201.961	2883.41
202.036	2872.26
202.111	2866.49
202.186	2840.77
202.26	2822.13
202.335	2803.16
202.41	2798.73
202.485	2781.72
202.559	2760.57
202.634	2735.03
202.709	2744.98
202.784	2724.59
202.858	2724.64
202.933	2705.77
203.008	2698.39
203.082	2674.71
203.157	2673
203.232	2633.43
203.306	2616.04
203.381	2585.31
203.456	2564.49
203.53	2545.52
203.605	2527.77
203.68	2508.28
203.754	2499.76
203.829	2486.47
203.904	2464.48
203.978	2453.29
204.053	2460.19
204.127	2447.81
204.202	2447.01
204.277	2428.96
204.351	2420.92
204.426	2413.11
204.5	2404.92
204.575	2372.13
204.65	2381.84
204.724	2376.55
204.799	2385.5
204.873	2380.97
204.948	2381.69
205.022	2367.17
205.097	2361.17
205.171	2375.21
205.246	2382.54
205.32	2383.16
205.395	2383.97
205.469	2377.41
205.544	2380.93
205.618	2362.84
205.693	2377.65
205.767	2364.13
205.842	2382.94
205.916	2378.56
205.991	2371.04
206.065	2379.03
206.14	2394.78
206.214	2394.16
206.289	2386.83
206.363	2397.78
206.438	2398.54
206.512	2405.44
206.586	2425.76
206.661	2434.05
206.735	2412.35
206.81	2411.83
206.884	2427.87
206.958	2414.93
207.033	2434.77
207.107	2444.35
207.181	2478.02
207.256	2476.21
207.33	2497.96
207.405	2515.12
207.479	2537.4
207.553	2549.16
207.628	2538.83
207.702	2553.35
207.776	2550.31
207.851	2560.16
207.925	2581.36
207.999	2584.89
208.073	2588.7
208.148	2601.51
208.222	2598.42
208.296	2641.79
208.371	2672.68
208.445	2693.79
208.519	2733.52
208.593	2758.25
208.668	2769.21
208.742	2790.72
208.816	2807.11
208.89	2840.19
208.965	2858.37
209.039	2887.12
209.113	2929.74
209.187	2974.24
209.261	2997.02
209.336	3048.14
209.41	3096.75
209.484	3130.24
209.558	3190.73
209.632	3243.2
209.707	3293.54
209.781	3360.12
209.855	3421.95
209.929	3486.6
210.003	3545.24
210.077	3604.93
210.151	3704.15
210.226	3798.15
210.3	3885.23
210.374	3971.59
210.448	4041.47
210.522	4118.93
210.596	4207.25
210.67	4287.49
210.744	4411.82
210.818	4528.46
210.892	4632.84
210.966	4716.09
211.041	4826.14
211.115	4918.35
211.189	5036.39
211.263	5152.44
211.337	5256.25
211.411	5373.29
211.485	5472.83
211.559	5592.84
211.633	5698.42
211.707	5781.55
211.781	5902.01
211.855	5985.49
211.929	6099.74
212.003	6208.43
212.077	6346.11
212.151	6487.14
212.225	6631.52
212.299	6755.77
212.373	6873.87
212.447	6996.48
212.52	7160.89
212.594	7295.95
212.668	7441.19
212.742	7566.36
212.816	7698.48
212.89	7834.93
212.964	7971.06
213.038	8115.47
213.112	8268.85
213.186	8428.06
213.26	8559.49
213.333	8670.13
213.407	8823.19
213.481	8978.15
213.555	9136.1
213.629	9279.88
213.703	9407.34
213.777	9555.04
213.85	9687.73
213.924	9876.29
213.998	10037.36
214.072	10183.91
214.146	10327.81
214.219	10471.85
214.293	10617.73
214.367	10767.13
214.441	10920.79
214.515	11060.67
214.588	11185.1
214.662	11295.12
214.736	11428.65
214.81	11578.62
214.883	11732.93
214.957	11863.78
215.031	11993.24
215.105	12116.28
215.178	12237.27
215.252	12369.87
215.326	12479.34
215.4	12589.24
215.473	12677.6
215.547	12786.4
215.621	12897.36
215.694	13029.64
215.768	13139.31
215.842	13255.82
215.915	13372.81
215.989	13480.55
216.063	13599.62
216.136	13724.28
216.21	13851.98
216.284	13976.54
216.357	14107.71
216.431	14213.28
216.504	14347.77
216.578	14492.04
216.652	14614.34
216.725	14738.13
216.799	14864.18
216.873	14982.42
216.946	15104.95
217.02	15209.46
217.093	15326.73
217.167	15416.39
217.24	15494.62
217.314	15604.38
217.387	15703.43
217.461	15795.59
217.535	15915.08
217.608	15997.74
217.682	16096.21
217.755	16209.76
217.829	16307.08
217.902	16395.37
217.976	16497.02
218.049	16573.56
218.123	16655.05
218.196	16755.16
218.27	16833.47
218.343	16897.91
218.417	16990.69
218.49	17071.56
218.563	17180.62
218.637	17261.58
218.71	17367.8
218.784	17475.32
218.857	17562.46
218.931	17656.53
219.004	17742.07
219.077	17818.12
219.151	17908.33
219.224	17982.07
219.298	18052.38
219.371	18140.42
219.444	18200.32
219.518	18266.83
219.591	18349.76
219.665	18440.99
219.738	18514.24
219.811	18576.3
219.885	18672.35
219.958	18744.25
220.031	18817.69
220.105	18872.96
220.178	18938.55
220.251	19002.35
220.325	19071.84
220.398	19138.01
220.471	19203.26
220.544	19269.28
220.618	19324.94
220.691	19389.17
220.764	19455.43
220.838	19521.21
220.911	19563
220.984	19641.4
221.057	19711.23
221.131	19763.27
221.204	19782.12
221.277	19849.68
221.35	19933.49
221.424	19968.86
221.497	20019.41
221.57	20072.32
221.643	20131.94
221.716	20188.47
221.79	20227.12
221.863	20266.78
221.936	20311.5
222.009	20362.87
222.082	20420.7
222.155	20457.09
222.229	20509.19
222.302	20548.03
222.375	20579.31
222.448	20632.66
222.521	20675.89
222.594	20710.2
222.667	20733.67
222.74	20788.85
222.814	20821.43
222.887	20848.86
222.96	20903.61
223.033	20944.19
223.106	20976.62
223.179	21010.55
223.252	21043.23
223.325	21081.07
223.398	21117.07
223.471	21146.95
223.544	21165.99
223.617	21179.68
223.69	21217.61
223.763	21231.44
223.837	21264.02
223.91	21292.99
223.983	21300.17
224.056	21307.35
224.129	21337.28
224.202	21379.65
224.275	21390.49
224.348	21393.62
224.42	21396.03
224.493	21392.9
224.566	21406.64
224.639	21428.95
224.712	21443.8
224.785	21451.66
224.858	21457.49
224.931	21460.81
225.004	21469.01
225.077	21483.71
225.15	21493.11
225.223	21505.3
225.296	21540.44
225.369	21541.89
225.442	21556.68
225.514	21573.17
225.587	21594.76
225.66	21603.44
225.733	21616.64
225.806	21637.85
225.879	21646.63
225.952	21658.29
226.025	21680.85
226.097	21702.78
226.17	21707.89
226.243	21695.65
226.316	21707.99
226.389	21722.64
226.461	21734.11
226.534	21748.76
226.607	21752.28
226.68	21777.01
226.753	21787.13
226.825	21775.52
226.898	21796.77
226.971	21797.16
227.044	21801.01
227.117	21794.17
227.189	21803.23
227.262	21812.1
227.335	21807.23
227.407	21810.9
227.48	21817.69
227.553	21823.43
227.626	21815.62
227.698	21821.79
227.771	21826.37
227.844	21811.57
227.916	21814.66
227.989	21797.83
228.062	21795.23
228.134	21818.51
228.207	21810.13
228.28	21797.11
228.352	21789.59
228.425	21785.98
228.498	21798.8
228.57	21793.59
228.643	21812.25
228.716	21802.9
228.788	21784.1
228.861	21787.71
228.934	21803.47
229.006	21799.04
229.079	21783.33
229.151	21774.31
229.224	21757.97
229.296	21766.31
229.369	21795.86
229.442	21806.66
229.514	21798.99
229.587	21799.72
229.659	21766.65
229.732	21763.42
229.804	21766.12
229.877	21794.27
229.949	21793.31
230.022	21795.57
230.094	21788.58
230.167	21779.47
230.239	21768.14
230.312	21764.77
230.384	21770.89
230.457	21765.69
230.529	21764.19
230.602	21768.77
230.674	21771.23
230.747	21772.92
230.819	21783.47
230.892	21748.91
230.964	21742.26
231.037	21752.43
231.109	21741.2
231.181	21746.69
231.254	21731.85
231.326	21719.41
231.399	21701.77
231.471	21692.76
231.544	21657.71
231.616	21666.39
231.688	21660.46
231.761	21640.36
231.833	21630.72
231.905	21600.35
231.978	21580.64
232.05	21567.92
232.122	21553.6
232.195	21531.76
232.267	21528.63
232.339	21492.87
232.412	21488.19
232.484	21465.15
232.556	21444.72
232.629	21458.65
232.701	21454.69
232.773	21436.28
232.846	21425.15
232.918	21402.2
232.99	21388.71
233.062	21388.23
233.135	21372.51
233.207	21339.02
233.279	21332.46
233.351	21326.29
233.424	21310.24
233.496	21291.69
233.568	21287.01
233.64	21252.55
233.713	21234.96
233.785	21218.57
233.857	21210.42
233.929	21178.57
234.001	21176.01
234.074	21171.87
234.146	21133.55
234.218	21108.01
234.29	21097.16
234.362	21072.05
234.434	21042.17
234.507	21005.3
234.579	20964.28
234.651	20926.55
234.723	20915.08
234.795	20901.87
234.867	20865.53
234.939	20853.68
235.012	20827.31
235.084	20803.17
235.156	20794.16
235.228	20757.09
235.3	20720.32
235.372	20693.09
235.444	20681
235.516	20633.09
235.588	20603.26
235.66	20575.84
235.732	20546.2
235.804	20569.81
235.876	20550.82
235.948	20530.97
236.02	20500.17
236.092	20482.39
236.164	20462.63
236.236	20429.67
236.308	20399.64
236.38	20391.26
236.452	20354.58
236.524	20333.67
236.596	20319.79
236.668	20299.07
236.74	20280.13
236.812	20259.93
236.884	20240.66
236.956	20217.48
237.028	20174.83
237.1	20140.32
237.172	20120.56
237.244	20098.45
237.316	20028.56
237.388	19990.11
237.46	19959.41
237.532	19949.15
237.604	19912.52
237.675	19890.35
237.747	19872.14
237.819	19834.11
237.891	19792.43
237.963	19750.84
238.035	19712
238.107	19650.89
238.178	19627.47
238.25	19590.56
238.322	19572.25
238.394	19520.54
238.466	19487.72
238.538	19472.2
238.609	19442.71
238.681	19397.41
238.753	19365.61
238.825	19338.81
238.897	19317.27
238.968	19295.64
239.04	19255.59
239.112	19253.23
239.184	19214.44
239.255	19179.98
239.327	19159.11
239.399	19132.03
239.471	19110.83
239.542	19093.48
239.614	19071.84
239.686	19018.54
239.758	19010.59
239.829	18972.09
239.901	18963.13
239.973	18925.97
240.044	18902.21
240.116	18867.42
240.188	18834.65
240.259	18794.27
240.331	18750.27
240.403	18724.68
240.474	18677.55
240.546	18636.45
240.618	18572.88
240.689	18529.03
240.761	18494.24
240.833	18470.24
240.904	18422.58
240.976	18388.32
241.048	18347.07
241.119	18325.33
241.191	18289.91
241.262	18247.02
241.334	18204.08
241.405	18153.97
241.477	18114.79
241.549	18065.05
241.62	18045.92
241.692	18018.41
241.763	18001.78
241.835	17972.67
241.906	17930.65
241.978	17886.99
242.049	17868
242.121	17842.94
242.192	17820.39
242.264	17777.88
242.335	17720.29
242.407	17703.57
242.478	17661.6
242.55	17635.04
242.621	17591.77
242.693	17558.18
242.764	17531.28
242.836	17499.33
242.907	17470.42
242.979	17436.54
243.05	17410.46
243.122	17373.26
243.193	17337.21
243.264	17279.81
243.336	17245.26
243.407	17221.31
243.479	17203.04
243.55	17171.14
243.622	17138.37
243.693	17108.53
243.764	17077.06
243.836	17037.74
243.907	16995.04
243.978	16968.96
244.05	16931.61
244.121	16883.66
244.192	16867.8
244.264	16816.67
244.335	16783.46
244.407	16741.72
244.478	16719.17
244.549	16689.09
244.62	16638.82
244.692	16603.11
244.763	16583.5
244.834	16545.47
244.906	16507.01
244.977	16488.6
245.048	16463.01
245.119	16427.87
245.191	16384.54
245.262	16335.96
245.333	16320.39
245.405	16294.99
245.476	16258.17
245.547	16232.38
245.618	16206.26
245.689	16164.86
245.761	16149.34
245.832	16118.25
245.903	16090.15
245.974	16053.04
246.045	16007.97
246.117	15991.15
246.188	15945.84
246.259	15894.22
246.33	15857.1
246.401	15816.86
246.473	15760.32
246.544	15720.6
246.615	15695.2
246.686	15657.8
246.757	15642.33
246.828	15602.99
246.899	15585.16
246.97	15539.47
247.042	15493.14
247.113	15464.37
247.184	15455.64
247.255	15404.74
247.326	15370.71
247.397	15337.5
247.468	15319.96
247.539	15299.66
247.61	15258.64
247.681	15243.07
247.752	15219.41
247.823	15183.93
247.894	15157.18
247.965	15115.67
248.037	15080.1
248.108	15040.33
248.179	15014.64
248.25	14989.24
248.321	14957.23
248.392	14909.61
248.463	14909.27
248.534	14881.5
248.605	14855.86
248.675	14814.31
248.746	14793.58
248.817	14773.14
248.888	14753.19
248.959	14702.14
249.03	14677.46
249.101	14652.97
249.172	14617.06
249.243	14577.24
249.314	14560.22
249.385	14534.92
249.456	14512.02
249.527	14483.14
249.598	14461.45
249.669	14433.44
249.739	14401.77
249.81	14380.18
249.881	14344.26
249.952	14309.99
250.023	14281.26
250.094	14253.59
250.165	14219.03
250.235	14187.5
250.306	14163.16
250.377	14119.53
250.448	14093.4
250.519	14049.44
250.59	14035.75
250.66	14009.38
250.731	14002.29
250.802	13974.43
250.873	13947.87
250.944	13926.32
251.014	13896.43
251.085	13891.18
251.156	13881.39
251.227	13868.76
251.297	13858.97
251.368	13839.88
251.439	13823.01
251.51	13805.85
251.58	13767.82
251.651	13739.09
251.722	13725.3
251.792	13679.41
251.863	13662.29
251.934	13650.63
252.005	13651.73
252.075	13625.94
252.146	13607.77
252.217	13591.09
252.287	13575.57
252.358	13548.14
252.429	13546.4
252.499	13518.44
252.57	13495.79
252.641	13469.9
252.711	13439.43
252.782	13400.34
252.852	13395.28
252.923	13372.86
252.994	13354.83
253.064	13338.01
253.135	13307.11
253.205	13279.44
253.276	13279.34
253.347	13262.27
253.417	13236.44
253.488	13208.52
253.558	13182.4
253.629	13157.76
253.699	13142.19
253.77	13133.03
253.841	13110.66
253.911	13091.38
253.982	13072.73
254.052	13048.14
254.123	13029.2
254.193	13009.82
254.264	13027.41
254.334	12991.98
254.405	12950.77
254.475	12913.84
254.546	12892.63
254.616	12889.01
254.687	12868.96
254.757	12844.28
254.827	12828.13
254.898	12807.84
254.968	12789.52
255.039	12754.57
255.109	12740.44
255.18	12705.45
255.25	12651.94
255.321	12632.85
255.391	12592.5
255.461	12589.03
255.532	12550.42
255.602	12524.29
255.673	12485.63
255.743	12455.41
255.813	12412.51
255.884	12410.43
255.954	12402.63
256.024	12398.48
256.095	12371.05
256.165	12338.61
256.235	12327.24
256.306	12299.23
256.376	12292.34
256.446	12278.98
256.517	12267.46
256.587	12255.17
256.657	12240.52
256.728	12230.25
256.798	12214.15
256.868	12189.76
256.938	12157.32
257.009	12149.22
257.079	12134.76
257.149	12140.64
257.219	12092.39
257.29	12086.65
257.36	12047.52
257.43	12042.41
257.5	12004.33
257.571	11982.2
257.641	11974.06
257.711	11940.75
257.781	11923.78
257.852	11904.02
257.922	11856.98
257.992	11840.64
258.062	11821.5
258.132	11807.67
258.202	11785.64
258.273	11766.02
258.343	11762.55
258.413	11742.5
258.483	11717.53
258.553	11687.84
258.623	11657.14
258.693	11638.34
258.764	11630.34
258.834	11621.67
258.904	11592.31
258.974	11562.39
259.044	11540.75
259.114	11526.43
259.184	11511.1
259.254	11489.42
259.324	11459.05
259.394	11456.35
259.464	11456.88
259.535	11434.23
259.605	11408.73
259.675	11379.77
259.745	11370.37
259.815	11342.03
259.885	11318.47
259.955	11330.32
260.025	11303.53
260.095	11286.85
260.165	11285.12
260.235	11285.02
260.305	11262.47
260.375	11235.58
260.445	11246.18
260.515	11248.01
260.585	11235.29
260.655	11215.19
260.725	11204.88
260.795	11191.29
260.865	11189.31
260.934	11157.5
261.004	11148.88
261.074	11130.66
261.144	11134.03
261.214	11115.82
261.284	11100.68
261.354	11092.25
261.424	11059.77
261.494	11065.74
261.564	11052.97
261.634	11037.89
261.703	11001.31
261.773	10987.43
261.843	10977.46
261.913	10958.04
261.983	10921.03
262.053	10916.79
262.123	10906.96
262.192	10876.89
262.262	10868.79
262.332	10831.69
262.402	10818.77
262.472	10796.12
262.541	10761.92
262.611	10748.13
262.681	10726.69
262.751	10716.33
262.821	10699.9
262.89	10673.16
262.96	10658.56
263.03	10652.77
263.1	10638.46
263.169	10623.57
263.239	10616.06
263.309	10615.48
263.379	10597.8
263.448	10587.34
263.518	10568.11
263.588	10549.61
263.657	10552.5
263.727	10543.88
263.797	10534.39
263.867	10517.67
263.936	10489.82
264.006	10495.94
264.076	10487.94
264.145	10470.16
264.215	10449.15
264.285	10443.37
264.354	10406.04
264.424	10384.6
264.494	10358.92
264.563	10337.09
264.633	10341.76
264.702	10336.95
264.772	10306.98
264.842	10292.48
264.911	10283.03
264.981	10259.09
265.05	10242.28
265.12	10225.51
265.19	10211.87
265.259	10206.62
265.329	10192.7
265.398	10182.44
265.468	10195.59
265.537	10174.44
265.607	10166.83
265.676	10165.1
265.746	10148.43
265.815	10153.1
265.885	10140.91
265.955	10122.03
266.024	10112.4
266.094	10073.18
266.163	10074.77
266.232	10071.79
266.302	10051.61
266.371	10036.38
266.441	10021.21
266.51	10020.58
266.58	10007.87
266.649	9983.49
266.719	9978.53
266.788	9968.99
266.858	9979.49
266.927	9939.36
266.996	9925.11
267.066	9915.91
267.135	9885.37
267.205	9882.05
267.274	9873.57
267.343	9873.18
267.413	9855.17
267.482	9849.92
267.552	9855.7
267.621	9822.32
267.69	9791.83
267.76	9788.89
267.829	9778.59
267.898	9768.71
267.968	9741.31
268.037	9737.26
268.106	9737.84
268.176	9709.71
268.245	9702.58
268.314	9679.75
268.384	9677.15
268.453	9663.67
268.522	9656.59
268.592	9660.1
268.661	9640.74
268.73	9634.09
268.799	9610.73
268.869	9621.71
268.938	9593.54
269.007	9579.38
269.076	9562.29
269.146	9570.86
269.215	9563.73
269.284	9569.7
269.353	9550.58
269.422	9539.27
269.492	9519.14
269.561	9477.34
269.63	9474.07
269.699	9454.32
269.768	9444.35
269.838	9436.65
269.907	9436.55
269.976	9413.82
270.045	9383.01
270.114	9385.37
270.183	9370.15
270.253	9360.18
270.322	9329.32
270.391	9321.37
270.46	9313.38
270.529	9313.14
270.598	9306.35
270.667	9291.03
270.736	9268.06
270.806	9263.83
270.875	9263.44
270.944	9246.83
271.013	9271.15
271.082	9258.39
271.151	9256.22
271.22	9227.14
271.289	9214.19
271.358	9197.19
271.427	9191.8
271.496	9183.57
271.565	9167.05
271.634	9157.76
271.703	9183.38
271.772	9184.87
271.841	9169.46
271.91	9146.93
271.979	9143.13
272.048	9119.44
272.117	9119.87
272.186	9106.92
272.255	9105.96
272.324	9102.25
272.393	9098.79
272.462	9085.35
272.531	9077.99
272.6	9065.8
272.669	9077.94
272.738	9062.92
272.807	9057.38
272.876	9034.8
272.945	9062.1
273.013	9057.77
273.082	9059.02
273.151	9020.83
273.22	9022.23
273.289	9021.41
273.358	9032.53
273.427	9015.73
273.496	9017.99
273.564	9012.89
273.633	9010.72
273.702	8993.87
273.771	8985.31
273.84	8985.16
273.909	8975.97
273.977	8972.93
274.046	8962.39
274.115	8959.65
274.184	8947.66
274.253	8942.41
274.322	8950.45
274.39	8918.68
274.459	8908.71
274.528	8879.64
274.597	8872.23
274.665	8863.23
274.734	8870.93
274.803	8859.37
274.872	8854.8
274.94	8834.39
275.009	8888.33
275.078	8876.01
275.147	8871.82
275.215	8864.75
275.284	8870.96
275.353	8863.54
275.421	8841.12
275.49	8860.81
275.559	8850.6
275.627	8839.1
275.696	8833.9
275.765	8832.55
275.833	8824.71
275.902	8816.72
275.971	8835.06
276.039	8843.48
276.108	8844.49
276.177	8838.23
276.245	8828.17
276.314	8818.69
276.383	8830.96
276.451	8763.5
276.52	8769.51
276.588	8777.84
276.657	8784.29
276.725	8775.29
276.794	8777.12
276.863	8793
276.931	8767.97
277	8770.13
277.068	8781.54
277.137	8793.81
277.205	8796.61
277.274	8814.94
277.342	8825.05
277.411	8803.06
277.48	8790.2
277.548	8782.74
277.617	8781.16
277.685	8779.81
277.754	8790.54
277.822	8774.37
277.89	8787.27
277.959	8778.51
278.027	8763.21
278.096	8753.29
278.164	8773.89
278.233	8758.4
278.301	8743.81
278.37	8744.63
278.438	8736.69
278.507	8738.76
278.575	8720.81
278.643	8711.95
278.712	8693.76
278.78	8673.25
278.849	8685.04
278.917	8694.19
278.985	8690.63
279.054	8692.55
279.122	8698.81
279.191	8692.79
279.259	8691.49
279.327	8663
279.396	8675.61
279.464	8674.65
279.532	8679.32
279.601	8674.4
279.669	8674.45
279.737	8688.02
279.806	8688.22
279.874	8690.77
279.942	8691.78
280.011	8686.2
280.079	8692.31
280.147	8704.97
280.215	8720.51
280.284	8717.91
280.352	8700.25
280.42	8701.45
280.488	8690.82
280.557	8686.1
280.625	8688.26
280.693	8689.32
280.761	8690.43
280.83	8675.46
280.898	8684.85
280.966	8668
281.034	8631.81
281.102	8615.54
281.171	8607.75
281.239	8615.16
281.307	8611.36
281.375	8600.91
281.443	8619.88
281.512	8614.24
281.58	8621.03
281.648	8593.79
281.716	8591.34
281.784	8590.52
281.852	8583.93
281.92	8583.78
281.989	8587.97
282.057	8571.56
282.125	8619.12
282.193	8622.73
282.261	8627.06
282.329	8618.16
282.397	8617.73
282.465	8627.06
282.533	8641.83
282.601	8634.52
282.67	8613.58
282.738	8605.4
282.806	8609.3
282.874	8594.33
282.942	8599.53
283.01	8592.21
283.078	8606.99
283.146	8599.19
283.214	8613
283.282	8614.45
283.35	8628.16
283.418	8623.88
283.486	8635.14
283.554	8585.37
283.622	8588.97
283.69	8578.15
283.758	8577.81
283.826	8585.37
283.894	8589.26
283.962	8608.61
284.03	8616.84
284.098	8615.93
284.165	8607.56
284.233	8605.05
284.301	8601.4
284.369	8589.41
284.437	8581.86
284.505	8577.81
284.573	8594.08
284.641	8579.54
284.709	8589.46
284.777	8571.03
284.845	8577.14
284.912	8576.13
284.98	8583.35
285.048	8573.05
285.116	8579.5
285.184	8593.89
285.252	8587.29
285.319	8576.42
285.387	8567.37
285.455	8553.85
285.523	8561.88
285.591	8554.23
285.659	8560.92
285.726	8570.64
285.794	8562.46
285.862	8558.56
285.93	8556.3
285.997	8553.37
286.065	8547.3
286.133	8537.82
286.201	8535.75
286.269	8520.93
286.336	8516.36
286.404	8508.18
286.472	8518.96
286.539	8499.52
286.607	8473.82
286.675	8483.78
286.743	8488.31
286.81	8482.63
286.878	8500.96
286.946	8498.12
287.013	8507.55
287.081	8500.77
287.149	8488.69
287.216	8501.44
287.284	8494.08
287.352	8496.87
287.419	8486.47
287.487	8498.55
287.555	8497.25
287.622	8489.99
287.69	8493.5
287.758	8499.08
287.825	8498.07
287.893	8491.33
287.96	8494.03
288.028	8511.54
288.096	8507.55
288.163	8513.47
288.231	8500.96
288.298	8493.88
288.366	8507.16
288.433	8504.33
288.501	8495.95
288.569	8498.6
288.636	8495.71
288.704	8512.75
288.771	8523.91
288.839	8524.88
288.906	8520.93
288.974	8536.67
289.041	8534.36
289.109	8526.66
289.176	8538.74
289.244	8548.08
289.311	8556.69
289.379	8570.26
289.446	8571.99
289.514	8571.7
289.581	8571.32
289.649	8577
289.716	8579.84
289.783	8571.32
289.851	8585.56
289.918	8591.58
289.986	8601.01
290.053	8608.32
290.121	8608.9
290.188	8601.44
290.255	8625.17
290.323	8620.16
290.39	8608.61
290.458	8619.92
290.525	8638.59
290.592	8622.71
290.66	8621.41
290.727	8615.78
290.794	8630.51
290.862	8630.99
290.929	8637.53
290.996	8632.1
291.064	8638.59
291.131	8646.68
291.198	8657.12
291.266	8658.18
291.333	8658.71
291.4	8662.61
291.468	8675.65
291.535	8670.46
291.602	8674.21
291.669	8669.2
291.737	8674.3
291.804	8677.67
291.871	8696.25
291.938	8700.92
292.006	8733.99
292.073	8738.23
292.14	8756.28
292.207	8750.12
292.275	8752.86
292.342	8759.55
292.409	8792.47
292.476	8819.91
292.543	8816.4
292.611	8816.93
292.678	8838.4
292.745	8861.07
292.812	8869.39
292.879	8867.18
292.946	8869.63
293.014	8884.94
293.081	8888.69
293.148	8903.18
293.215	8913.15
293.282	8904.87
293.349	8914.74
293.416	8893.55
293.484	8911.89
293.551	8917.53
293.618	8932.5
293.685	8959.7
293.752	8951.56
293.819	8942.7
293.886	8928.16
293.953	8933.41
294.02	8948.14
294.087	8952.96
294.154	8950.6
294.221	8967.69
294.288	8966.1
294.356	8989.21
294.423	8997.1
294.49	8989.02
294.557	9004.52
294.624	8999.37
294.691	9018.19
294.758	9018.62
294.825	9023.92
294.892	9014.29
294.959	9011.21
295.026	9019.05
295.093	9008.13
295.16	9012.84
295.226	9014.72
295.293	9039.51
295.36	9049.53
295.427	9058.68
295.494	9070.14
295.561	9078.61
295.628	9092.67
295.695	9110
295.762	9105.91
295.829	9113.95
295.896	9133.11
295.963	9138.31
296.03	9151.45
296.096	9156.36
296.163	9164.69
296.23	9186.7
296.297	9204.27
296.364	9203.88
296.431	9209.03
296.498	9204.36
296.564	9231.42
296.631	9236.96
296.698	9222.56
296.765	9242.25
296.832	9231.42
296.899	9218.85
296.965	9234.84
297.032	9223.81
297.099	9234.98
297.166	9245.53
297.233	9244.23
297.299	9239.27
297.366	9246.11
297.433	9247.41
297.5	9253.67
297.566	9253.47
297.633	9254.1
297.7	9254.15
297.767	9259.35
297.833	9270.95
297.9	9279.76
297.967	9262.57
298.033	9277.64
298.1	9307.02
298.167	9296.43
298.234	9297.58
298.3	9303.26
298.367	9298.11
298.434	9305.57
298.5	9293.97
298.567	9289.88
298.634	9286.99
298.7	9305.62
298.767	9305
298.834	9322.57
298.9	9326.09
298.967	9323.73
299.033	9330.57
299.1	9351.75
299.167	9359.22
299.233	9350.84
299.3	9357.43
299.366	9375.59
299.433	9382.62
299.5	9357.96
299.566	9360.85
299.633	9383.1
299.699	9396.53
299.766	9395.18
299.832	9398.17
299.899	9417.62
299.965	9430.63
300.032	9419.46
300.099	9423.93
300.165	9427.98
300.232	9418.73
300.298	9413.24
300.365	9425.67
300.431	9429.23
300.498	9416.61
300.564	9426.73
300.631	9436.07
300.697	9450.37
300.763	9445.56
300.83	9442.67
300.896	9459.47
300.963	9471.37
301.029	9468.43
301.096	9468.24
301.162	9481.67
301.229	9473.29
301.295	9460.82
301.361	9465.3
301.428	9475.6
301.494	9462.69
301.561	9460.14
301.627	9465.39
301.693	9473.38
301.76	9477.67
301.826	9471.22
301.892	9489.61
301.959	9498.67
302.025	9494.67
302.092	9489.28
302.158	9501.32
302.224	9504.59
302.291	9494.14
302.357	9486.68
302.423	9484.41
302.49	9476.8
302.556	9488.27
302.622	9488.94
302.688	9494.48
302.755	9504.4
302.821	9519.14
302.887	9532.28
302.954	9538.83
303.02	9543.5
303.086	9540.18
303.152	9539.36
303.219	9530.5
303.285	9531.8
303.351	9530.07
303.417	9537.44
303.483	9527.61
303.55	9518.17
303.616	9522.46
303.682	9522.6
303.748	9517.64
303.815	9525.83
303.881	9540.47
303.947	9523.33
304.013	9526.02
304.079	9520.97
304.145	9500.07
304.212	9498.19
304.278	9485.72
304.344	9477.87
304.41	9467.99
304.476	9465.2
304.542	9457.11
304.608	9468.14
304.674	9441.7
304.741	9442.37
304.807	9440.69
304.873	9447.09
304.939	9465.83
305.005	9439.2
305.071	9439.2
305.137	9442.23
305.203	9421.72
305.269	9417.24
305.335	9429.42
305.401	9428.6
305.467	9426.15
305.533	9439.97
305.599	9439.97
305.666	9449.69
305.732	9450.95
305.798	9466.02
305.864	9489.76
305.93	9494.05
305.996	9491.83
306.062	9500.93
306.128	9494.34
306.194	9480.37
306.259	9482.68
306.325	9470.5
306.391	9488.41
306.457	9491.88
306.523	9491.06
306.589	9514.03
306.655	9508.93
306.721	9490.43
306.787	9478.44
306.853	9493.37
306.919	9475.27
306.985	9471.32
307.051	9462.22
307.117	9456.82
307.183	9447.82
307.248	9415.17
307.314	9422.68
307.38	9424.94
307.446	9427.35
307.512	9421.19
307.578	9425.95
307.644	9422.15
307.709	9426.72
307.775	9412.61
307.841	9404.67
307.907	9408.62
307.973	9387.57
308.039	9382.95
308.104	9392.15
308.17	9392.97
308.236	9380.88
308.302	9388.1
308.368	9375.68
308.433	9376.02
308.499	9373.22
308.565	9362
308.631	9368.6
308.696	9340.96
308.762	9331.72
308.828	9329.6
308.894	9315.06
308.959	9297.58
309.025	9282.22
309.091	9273.45
309.156	9267.72
309.222	9276.73
309.288	9258.87
309.354	9244.42
309.419	9241.48
309.485	9222.13
309.551	9225.69
309.616	9204.51
309.682	9199.69
309.748	9197.38
309.813	9193.09
309.879	9183.99
309.945	9174.08
310.01	9164.45
310.076	9168.92
310.141	9159.15
310.207	9145.67
310.273	9139.22
310.338	9142.11
310.404	9136.04
310.469	9120.05
310.535	9118.56
310.601	9091.36
310.666	9098.29
310.732	9105.37
310.797	9094.68
310.863	9087.51
310.928	9079.95
310.994	9086.45
311.059	9080.43
311.125	9075.61
311.191	9080.19
311.256	9064.78
311.322	9063.82
311.387	9044.47
311.453	9360.48
311.518	9338.24
311.584	9328.66
311.649	9337.71
311.715	9332.32
311.78	9327.7
311.846	9325.1
311.911	9323.41
311.976	9327.07
312.042	9314.17
312.107	9296.79
312.173	9286.87
312.238	9282.83
312.304	9277.15
312.369	9260.88
312.434	9248.79
312.5	9240.66
312.565	9211.29
312.631	9221.25
312.696	9219.52
312.761	9227.85
312.827	8903.56
312.892	8939.57
312.958	8939.33
313.023	8932.4
313.088	8924.41
313.154	8911.46
313.219	8898.99
313.284	8891.58
313.35	8883.4
313.415	8870.16
313.48	8867.42
313.546	8870.83
313.611	8884.36
313.676	8873.58
313.741	8866.98
313.807	8872.38
313.872	8875.65
313.937	8880.99
314.003	8881.62
314.068	8876.8
314.133	8878.06
314.198	8865.78
314.264	8844.5
314.329	8834.25
314.394	8835.31
314.459	8829.19
314.525	8850.61
314.59	8843.35
314.655	8835.16
314.72	8845.13
314.785	8847.15
314.851	8842.77
314.916	8824
314.981	8800.56
315.046	8796.95
315.111	8788.91
315.176	8772.98
315.242	8777.36
315.307	8774.81
315.372	8760.75
315.437	8750.26
315.502	8740.1
315.567	8756.13
315.632	8739.86
315.698	8747.42
315.763	8743.62
315.828	8740.49
315.893	8728.31
315.958	8724.36
316.023	8708.63
316.088	8684.42
316.153	8662.81
316.218	8651.5
316.283	8632.83
316.348	8614.69
316.413	8608.14
316.479	8597.66
316.544	8563.4
316.609	8529.18
316.674	8493
316.739	8459.75
316.804	8436.17
316.869	8400.57
316.934	8354.08
316.999	8324.25
317.064	8268.29
317.129	8220.32
317.194	8184.62
317.259	8136.85
317.324	8088.75
317.389	8048.01
317.454	8012.75
317.518	7979.37
317.583	7955.7
317.648	7937.04
317.713	7901.69
317.778	7836.19
317.843	7804.06
317.908	7768.87
317.973	7729.91
318.038	7702.6
318.103	7667.12
318.168	7631.39
318.233	7603.31
318.297	7554.75
318.362	7515.62
318.427	7476.06
318.492	7451.11
318.557	7399.68
318.622	7374.3
318.687	7351.9
318.751	7318.02
318.816	7281.63
318.881	7248.71
318.946	7193.44
319.011	7149.7
319.075	7108.53
319.14	7076.2
319.205	7033.14
319.27	7005.81
319.335	6960.36
319.399	6920.1
319.464	6889.3
319.529	6839.01
319.594	6796.02
319.658	6762.16
319.723	6726.38
319.788	6702.32
319.853	6643.48
319.917	6616.26
319.982	6561.51
320.047	6523.24
320.112	6489.1
320.176	6440.33
320.241	6409.16
320.306	6379.16
320.37	6334.37
320.435	6307.3
320.5	6281.76
320.564	6241.93
320.629	6198.31
320.694	6165.43
320.758	6124.26
320.823	6080.93
320.888	6051.86
320.952	6007.48
321.017	5974.67
321.082	5929.72
321.146	5886.78
321.211	5854.36
321.275	5809.48
321.34	5768.67
321.405	5722.83
321.469	5675.65
321.534	5636.67
321.598	5582.88
321.663	5548.44
321.727	5518.29
321.792	5464.69
321.857	5419.49
321.921	5382.01
321.986	5339.41
322.05	5283.06
322.115	5247.22
322.179	5201.13
322.244	5147.38
322.308	5111.17
322.373	5059.82
322.437	5019.97
322.502	4998.93
322.566	4952.81
322.631	4919.06
322.695	4876.74
322.76	4833.7
322.824	4802.49
322.889	4760.99
322.953	4717.01
323.018	4655.79
323.082	4592.57
323.146	4546.31
323.211	4495.64
323.275	4449.94
323.34	4404.07
323.404	4372.03
323.468	4325.63
323.533	4284.6
323.597	4240.09
323.662	4188.21
323.726	4156.75
323.79	4111.23
323.855	4045.23
323.919	3998.77
323.983	3954.51
324.048	3890.09
324.112	4026.51
324.177	3899.03
324.241	3695.28
324.305	3496.89
324.37	3302.55
324.434	3114
324.498	3070.32
324.562	3021.15
324.627	2962.6
324.691	2908.1
324.755	2843.39
324.82	2767.78
324.884	2691.19
324.948	2617.48
325.012	2529.48
325.077	2405.41
