Data from 20250702_urea_0.5M_MAYP1162681_22-25-00-091.txt Node
Date: Wed Jul 02 22:25:00 BST 2025
User: adleo
Spectrometer: MAYP116268
Trigger mode: 0
Integration Time (sec): 1.000000E0
Scans to average: 1
Electric dark correction enabled: true
Nonlinearity correction enabled: true
Boxcar width: 10
XAxis mode: Wavelengths
Number of Pixels in Spectrum: 2068
>>>>>Begin Spectral Data<<<<<
179.565	1231.34
179.642	1288.82
179.718	1333.62
179.795	1373.8
179.871	1407.3
179.948	1424
180.024	1447.9
180.101	1470.7
180.177	1482.74
180.254	1507.31
180.33	1530.1
180.407	1584.75
180.483	1682.81
180.56	1774.74
180.636	1860.68
180.712	1843.94
180.789	1853.11
180.865	1866.47
180.942	1879.16
181.018	1889.19
181.095	1902.41
181.171	1908.78
181.248	1908.45
181.324	1923.9
181.4	1930.04
181.477	1941.54
181.553	1954.99
181.63	1972.16
181.706	1989.23
181.782	1999.93
181.859	1998.07
181.935	2004.21
182.011	1999.64
182.088	2015.29
182.164	2033.46
182.24	2048.73
182.317	2061.85
182.393	2061.94
182.469	2074.88
182.546	2085.1
182.622	2087.86
182.698	2084.3
182.775	2095.19
182.851	2109.98
182.927	2105.13
183.003	2099.66
183.08	2092.38
183.156	2101.51
183.232	2098.28
183.308	2085.91
183.385	2093.62
183.461	2111.17
183.537	2109.36
183.613	2126.06
183.69	2116.64
183.766	2107.79
183.842	2114.69
183.918	2118.83
183.995	2129.39
184.071	2133.43
184.147	2129.1
184.223	2117.36
184.299	2129.11
184.375	2119.12
184.452	2127.35
184.528	2183.66
184.604	2195.41
184.68	2206.73
184.756	2215.01
184.832	2220.72
184.908	2225.62
184.985	2226.52
185.061	2208.11
185.137	2218.25
185.213	2205.5
185.289	2208.63
185.365	2199.12
185.441	2195.51
185.517	2210.74
185.593	2207.55
185.669	2203.36
185.745	2216.16
185.822	2233
185.898	2225.38
185.974	2233.85
186.05	2223.09
186.126	2177.35
186.202	2172.54
186.278	2171.11
186.354	2163.41
186.43	2172.93
186.506	2169.36
186.582	2168.12
186.658	2177.35
186.734	2155.71
186.81	2159.18
186.886	2160.27
186.962	2173.88
187.038	2171.69
187.114	2162.83
187.19	2173.68
187.266	2163.89
187.341	2160.89
187.417	2154.09
187.493	2154.7
187.569	2158.8
187.645	2153.85
187.721	2142.57
187.797	2147.19
187.873	2150.04
187.949	2141.72
188.025	2133.63
188.101	2140.81
188.176	2145.47
188.252	2141.76
188.328	2152.27
188.404	2151.46
188.48	2148.84
188.556	2144.28
188.632	2144.37
188.707	2141.9
188.783	2133.47
188.859	2129.53
188.935	2120.68
189.011	2128.81
189.086	2122.34
189.162	2112.49
189.238	2112.07
189.314	2110.93
189.39	2106.88
189.465	2097.42
189.541	2113.16
189.617	2097.42
189.693	2088.81
189.768	2091.38
189.844	2115.55
189.92	2107.47
189.996	2114.75
190.071	2125.22
190.147	2123.93
190.223	2132.12
190.298	2124.98
190.374	2114.99
190.45	2126.97
190.526	2135.3
190.601	2130.88
190.677	2133.06
190.753	2160.24
190.828	2163.38
190.904	2178.27
190.98	2192.69
191.055	2206.87
191.131	2200.92
191.207	2221.47
191.282	2232.74
191.358	2225.66
191.433	2211.23
191.509	2225.17
191.585	2223.21
191.66	2225.21
191.736	2230.97
191.811	2220.74
191.887	2242.3
191.963	2266.33
192.038	2272.42
192.114	2273.42
192.189	2274.85
192.265	2270
192.34	2247.77
192.416	2246.58
192.491	2244.67
192.567	2250.24
192.642	2253.05
192.718	2251.29
192.793	2238.25
192.869	2232.31
192.944	2234.59
193.02	2239.73
193.095	2240.68
193.171	2246.63
193.246	2245.73
193.322	2242.16
193.397	2243.68
193.473	2226.35
193.548	2206.32
193.624	2213.08
193.699	2211.46
193.775	2231.64
193.85	2236.63
193.925	2247.91
194.001	2249.44
194.076	2240.68
194.152	2227.31
194.227	2218.79
194.302	2210.65
194.378	2214.36
194.453	2211.99
194.529	2223.17
194.604	2210.27
194.679	2205.18
194.755	2185.92
194.83	2199.73
194.905	2200.82
194.981	2212.05
195.056	2204.53
195.131	2213.1
195.207	2209.91
195.282	2200.39
195.357	2177.64
195.433	2190.92
195.508	2177.64
195.583	2181.92
195.659	2194.34
195.734	2203.58
195.809	2202.72
195.884	2213.14
195.96	2215.04
196.035	2233.55
196.11	2228.03
196.185	2240.73
196.261	2245.39
196.336	2277.42
196.411	2258
196.486	2261.8
196.561	2256.28
196.637	2265.8
196.712	2279.12
196.787	2281.55
196.862	2295.92
196.937	2307.34
197.013	2312.44
197.088	2323.95
197.163	2348.81
197.238	2370.15
197.313	2368
197.388	2383.33
197.464	2410.9
197.539	2423.8
197.614	2414.33
197.689	2429.09
197.764	2447.09
197.839	2466.51
197.914	2459.18
197.989	2484.55
198.065	2498.26
198.14	2549.39
198.215	2578.01
198.29	2592.97
198.365	2605.97
198.44	2618.21
198.515	2647.89
198.59	2662.03
198.665	2688.42
198.74	2694.1
198.815	2693.81
198.89	2718.48
198.965	2747.51
199.04	2744.31
199.115	2759.03
199.19	2804.05
199.265	2806.34
199.34	2817.78
199.415	2854.54
199.49	2880.79
199.565	2892.22
199.64	2918.58
199.715	2911.04
199.79	2914.04
199.865	2919.53
199.94	2918.53
200.015	2950.32
200.09	2953.95
200.165	2963.15
200.24	2969.11
200.315	3011.86
200.39	3025.83
200.464	3030.83
200.539	3034.32
200.614	3053.48
200.689	3076.22
200.764	3084.1
200.839	3104.64
200.914	3107.07
200.989	3093.57
201.063	3106.78
201.138	3090.15
201.213	3088.77
201.288	3073.75
201.363	3084.33
201.438	3085.62
201.512	3102.2
201.587	3083.56
201.662	3085.94
201.737	3099.82
201.812	3106.97
201.886	3069.94
201.961	3079.1
202.036	3067.37
202.111	3062.41
202.186	3031.68
202.26	3015.08
202.335	2990.86
202.41	2982.42
202.485	2964.26
202.559	2944.24
202.634	2914.11
202.709	2920.59
202.784	2899.05
202.858	2895.9
202.933	2872.5
203.008	2863.63
203.082	2843.57
203.157	2843.43
203.232	2803.94
203.306	2784.29
203.381	2757.07
203.456	2735.39
203.53	2712.36
203.605	2693.31
203.68	2668.81
203.754	2661.1
203.829	2645.76
203.904	2624.23
203.978	2612.94
204.053	2618.08
204.127	2607.89
204.202	2607.13
204.277	2589.75
204.351	2585.75
204.426	2579.27
204.5	2570.84
204.575	2537.75
204.65	2548.7
204.724	2540.17
204.799	2547.03
204.873	2538.26
204.948	2531.21
205.022	2519.88
205.097	2515.5
205.171	2529.5
205.246	2538.26
205.32	2535.93
205.395	2536.31
205.469	2529.84
205.544	2535.17
205.618	2517.65
205.693	2532.89
205.767	2520.75
205.842	2542.13
205.916	2534.71
205.991	2526.75
206.065	2533.99
206.14	2547.32
206.214	2542.98
206.289	2538.03
206.363	2551.5
206.438	2551.65
206.512	2562.93
206.586	2585.31
206.661	2585.84
206.735	2565.13
206.81	2566.61
206.884	2582.27
206.958	2569.03
207.033	2588.74
207.107	2595.37
207.181	2630.25
207.256	2620.86
207.33	2639.2
207.405	2654.98
207.479	2679.18
207.553	2688.51
207.628	2676.23
207.702	2694.09
207.776	2695.66
207.851	2701.28
207.925	2718.72
207.999	2724.49
208.073	2727.35
208.148	2734.54
208.222	2735.5
208.296	2773.84
208.371	2797.97
208.445	2822.47
208.519	2864.64
208.593	2883.65
208.668	2893.28
208.742	2907.69
208.816	2925.7
208.89	2956.37
208.965	2967.82
209.039	2990.52
209.113	3024.14
209.187	3065.12
209.261	3082.99
209.336	3124.35
209.41	3172.01
209.484	3199.4
209.558	3252.46
209.632	3294.92
209.707	3340.78
209.781	3395.09
209.855	3446.41
209.929	3500.78
210.003	3546.28
210.077	3584.34
210.151	3678.45
210.226	3758.48
210.3	3833.88
210.374	3905.66
210.448	3967.18
210.522	4036.45
210.596	4108.25
210.67	4176.75
210.744	4282.25
210.818	4379.68
210.892	4461.87
210.966	4523.86
211.041	4614.44
211.115	4683.11
211.189	4785.92
211.263	4877.79
211.337	4966.08
211.411	5060.15
211.485	5140.55
211.559	5236.53
211.633	5323.82
211.707	5382.8
211.781	5481.73
211.855	5542.15
211.929	5637.72
212.003	5710.38
212.077	5820.33
212.151	5931.69
212.225	6047.74
212.299	6142.6
212.373	6236.17
212.447	6346.5
212.52	6482.49
212.594	6593.04
212.668	6717.45
212.742	6818.38
212.816	6927.18
212.89	7037.24
212.964	7150.7
213.038	7273.8
213.112	7407.09
213.186	7545.84
213.26	7646.38
213.333	7726.43
213.407	7852.39
213.481	7974.62
213.555	8117.66
213.629	8235.68
213.703	8346.73
213.777	8471.7
213.85	8581.66
213.924	8741.11
213.998	8865.73
214.072	8986
214.146	9095.32
214.219	9216.45
214.293	9331.18
214.367	9448.9
214.441	9581.47
214.515	9696.71
214.588	9798.38
214.662	9886.19
214.736	9988.54
214.81	10118.52
214.883	10245.05
214.957	10355.98
215.031	10458.25
215.105	10553.11
215.178	10648.41
215.252	10760.39
215.326	10849.53
215.4	10945.23
215.473	11010.67
215.547	11100.6
215.621	11200.22
215.694	11326.34
215.768	11412.85
215.842	11514.83
215.915	11618.41
215.989	11704.01
216.063	11798.96
216.136	11900.23
216.21	12013.59
216.284	12130.29
216.357	12233.1
216.431	12328.3
216.504	12440.71
216.578	12566.66
216.652	12678.92
216.725	12787.43
216.799	12887.99
216.873	12995.53
216.946	13100.91
217.02	13194.19
217.093	13287.37
217.167	13357.56
217.24	13428.76
217.314	13524.4
217.387	13611.6
217.461	13707.24
217.535	13807.32
217.608	13898.43
217.682	13991.51
217.755	14079.01
217.829	14155.46
217.902	14252.88
217.976	14348.48
218.049	14420.21
218.123	14494.15
218.196	14577.21
218.27	14652.94
218.343	14724.42
218.417	14804.44
218.49	14878.24
218.563	14975.28
218.637	15067.01
218.71	15171.85
218.784	15261.36
218.857	15352.99
218.931	15438.5
219.004	15509.36
219.077	15593.08
219.151	15666.64
219.224	15743.32
219.298	15818.85
219.371	15908.79
219.444	15953.57
219.518	16030.3
219.591	16107.61
219.665	16213.02
219.738	16289.12
219.811	16350.63
219.885	16427.89
219.958	16505.05
220.031	16573.44
220.105	16652.05
220.178	16721.64
220.251	16778.37
220.325	16855.09
220.398	16926.04
220.471	16996.35
220.544	17066.24
220.618	17125.47
220.691	17194.48
220.764	17253.86
220.838	17321.57
220.911	17373.23
220.984	17464.99
221.057	17533.67
221.131	17599.21
221.204	17613.62
221.277	17692.31
221.35	17781.57
221.424	17846.09
221.497	17899.83
221.57	17961.23
221.643	18017.95
221.716	18078.57
221.79	18126.81
221.863	18179.53
221.936	18220.49
222.009	18270.22
222.082	18330.7
222.155	18381.69
222.229	18449.16
222.302	18502.17
222.375	18540.62
222.448	18596.38
222.521	18636.23
222.594	18672.66
222.667	18703.5
222.74	18773.86
222.814	18806.92
222.887	18842.68
222.96	18878.63
223.033	18934.14
223.106	18978.33
223.179	19023.63
223.252	19057.31
223.325	19102.8
223.398	19136.92
223.471	19169.07
223.544	19204.63
223.617	19235.13
223.69	19275.52
223.763	19296.62
223.837	19335.27
223.91	19379.27
223.983	19397.87
224.056	19424.66
224.129	19465.48
224.202	19511.02
224.275	19532.18
224.348	19556.08
224.42	19565.62
224.493	19588.03
224.566	19603.45
224.639	19630.72
224.712	19645.71
224.785	19670.14
224.858	19693.23
224.931	19718.72
225.004	19744.74
225.077	19776.98
225.15	19780.74
225.223	19800.98
225.296	19847.73
225.369	19854.96
225.442	19867.39
225.514	19892.11
225.587	19910.04
225.66	19931.77
225.733	19959.43
225.806	19982.42
225.879	20007.29
225.952	20023.05
226.025	20060.01
226.097	20085.98
226.17	20114.71
226.243	20119.28
226.316	20130.66
226.389	20157.69
226.461	20173.84
226.534	20192.44
226.607	20198.22
226.68	20243.23
226.753	20262.13
226.825	20260.68
226.898	20298.94
226.971	20315.62
227.044	20339.76
227.117	20361.11
227.189	20377.21
227.262	20400.77
227.335	20424.34
227.407	20430.89
227.48	20452.87
227.553	20464.73
227.626	20477.21
227.698	20494.27
227.771	20511.67
227.844	20523.91
227.916	20532.15
227.989	20523.52
228.062	20541.74
228.134	20583.96
228.207	20589.16
228.28	20586.8
228.352	20599.52
228.425	20610.85
228.498	20641.4
228.57	20652.63
228.643	20686.32
228.716	20694.08
228.788	20688.97
228.861	20679.14
228.934	20705.45
229.006	20715
229.079	20721.41
229.151	20730.51
229.224	20718.08
229.296	20734.18
229.369	20770.76
229.442	20791.87
229.514	20804.54
229.587	20817.84
229.659	20801.36
229.732	20812.01
229.804	20830.57
229.877	20845.31
229.949	20850.52
230.022	20868.88
230.094	20856.83
230.167	20856.01
230.239	20852.01
230.312	20856.01
230.384	20888.74
230.457	20888.84
230.529	20896.21
230.602	20902.43
230.674	20910.57
230.747	20938.76
230.819	20952.69
230.892	20928.79
230.964	20930.43
231.037	20937.03
231.109	20930.09
231.181	20940.88
231.254	20923.39
231.326	20916.16
231.399	20916.55
231.471	20919.05
231.544	20896.45
231.616	20916.79
231.688	20912.79
231.761	20903.24
231.833	20899.73
231.905	20881.41
231.978	20882.38
232.05	20866.23
232.122	20859.58
232.195	20846.95
232.267	20852.78
232.339	20840.06
232.412	20849.99
232.484	20840.49
232.556	20827.48
232.629	20853.27
232.701	20848.93
232.773	20858.23
232.846	20858.23
232.918	20853.6
232.99	20844.01
233.062	20840.21
233.135	20829.89
233.207	20805.65
233.279	20815.72
233.351	20806.76
233.424	20784.64
233.496	20755.43
233.568	20770.32
233.64	20754.23
233.713	20740.11
233.785	20713.98
233.857	20694.8
233.929	20662.85
234.001	20674.51
234.074	20685.6
234.146	20652.78
234.218	20645.55
234.29	20624.87
234.362	20604.78
234.434	20573.21
234.507	20542.51
234.579	20511.71
234.651	20491.33
234.723	20491.09
234.795	20477.06
234.867	20467.09
234.939	20464.29
235.012	20458.27
235.084	20454.22
235.156	20443.62
235.228	20420.92
235.3	20402.03
235.372	20396.05
235.444	20398.99
235.516	20339.14
235.588	20322.12
235.66	20301.4
235.732	20265.45
235.804	20303.91
235.876	20294.61
235.948	20297.74
236.02	20279.19
236.092	20270.03
236.164	20249.74
236.236	20220.15
236.308	20193.6
236.38	20174.47
236.452	20145.55
236.524	20130.37
236.596	20120.49
236.668	20105.07
236.74	20093.46
236.812	20080.49
236.884	20075.91
236.956	20045.46
237.028	20029.7
237.1	19991.05
237.172	19988.59
237.244	19981.89
237.316	19919.72
237.388	19892.3
237.46	19851.87
237.532	19842.67
237.604	19801.9
237.675	19788.55
237.747	19777.13
237.819	19747.01
237.891	19730.38
237.963	19698.87
238.035	19660.12
238.107	19596.99
238.178	19583.21
238.25	19550.39
238.322	19544.8
238.394	19482.88
238.466	19448.52
238.538	19429.24
238.609	19414.74
238.681	19355.56
238.753	19324.48
238.825	19295.76
238.897	19269.59
238.968	19262.46
239.04	19232.92
239.112	19230.94
239.184	19193.74
239.255	19153.93
239.327	19133.98
239.399	19094.9
239.471	19074.42
239.542	19054.76
239.614	19037.65
239.686	18984.4
239.758	18975.49
239.829	18929.66
239.901	18924.65
239.973	18901.27
240.044	18871.59
240.116	18835.16
240.188	18812.08
240.259	18768.08
240.331	18728.76
240.403	18702.83
240.474	18650.88
240.546	18612.43
240.618	18571.27
240.689	18542.74
240.761	18520.29
240.833	18501.01
240.904	18467.42
240.976	18432.05
241.048	18398.08
241.119	18376.44
241.191	18349.74
241.262	18319.38
241.334	18279.62
241.405	18233.94
241.477	18197.07
241.549	18166.95
241.62	18141.65
241.692	18112.26
241.763	18107.05
241.835	18077.71
241.906	18043.44
241.978	17999.25
242.049	17978.87
242.121	17956.12
242.192	17930.05
242.264	17878.05
242.335	17824.8
242.407	17802.48
242.478	17768.17
242.55	17746.1
242.621	17701.57
242.693	17652.94
242.764	17619.6
242.836	17585.04
242.907	17560.8
242.979	17532.08
243.05	17496.13
243.122	17462.39
243.193	17434.63
243.264	17376.95
243.336	17343.74
243.407	17321.04
243.479	17307.6
243.55	17276.32
243.622	17240.51
243.693	17210.1
243.764	17199.21
243.836	17161.72
243.907	17125.43
243.978	17093.38
244.05	17056.8
244.121	17004.51
244.192	16998.72
244.264	16957.28
244.335	16926.53
244.407	16888.41
244.478	16854.38
244.549	16825.8
244.62	16779.58
244.692	16742.52
244.763	16720.93
244.834	16676.1
244.906	16631.09
244.977	16599.52
245.048	16581.59
245.119	16545.93
245.191	16504.14
245.262	16445.05
245.333	16426.21
245.405	16398.01
245.476	16371.45
245.547	16347.98
245.618	16335.45
245.689	16299.4
245.761	16261.23
245.832	16223.54
245.903	16192.02
245.974	16170.47
246.045	16135
246.117	16115.81
246.188	16065.45
246.259	16020.19
246.33	15995.41
246.401	15964.37
246.473	15925.43
246.544	15880.31
246.615	15858.72
246.686	15818.96
246.757	15802.95
246.828	15761.02
246.899	15744.01
246.97	15699.95
247.042	15658.59
247.113	15633.82
247.184	15617.14
247.255	15581.52
247.326	15555.78
247.397	15516.02
247.468	15485.36
247.539	15459.38
247.61	15420.19
247.681	15405.11
247.752	15384.47
247.823	15340.66
247.894	15314.15
247.965	15269.7
248.037	15237.27
248.108	15188.97
248.179	15165.2
248.25	15141.97
248.321	15121.15
248.392	15072.56
248.463	15067.54
248.534	15042.77
248.605	15022.43
248.675	14988.35
248.746	14963.23
248.817	14946.85
248.888	14933.73
248.959	14883.31
249.03	14857.04
249.101	14828.02
249.172	14797.61
249.243	14748.73
249.314	14739.18
249.385	14711.32
249.456	14689.92
249.527	14656.13
249.598	14638.68
249.669	14603.2
249.739	14572.97
249.81	14553.59
249.881	14510.84
249.952	14483.99
250.023	14439.97
250.094	14394.03
250.165	14364.24
250.235	14342.89
250.306	14302.98
250.377	14261.71
250.448	14241.47
250.519	14190.95
250.59	14183.76
250.66	14154.98
250.731	14153.06
250.802	14122.73
250.873	14093.67
250.944	14075.78
251.014	14044.11
251.085	14043.34
251.156	14028.06
251.227	14016.87
251.297	14001.26
251.368	13999.42
251.439	13978.74
251.51	13978.65
251.58	13949.24
251.651	13918.15
251.722	13906.19
251.792	13879.53
251.863	13851.19
251.934	13843.81
252.005	13849.21
252.075	13821.49
252.146	13805.49
252.217	13792.86
252.287	13783.22
252.358	13758.39
252.429	13752.37
252.499	13721.03
252.57	13691.87
252.641	13671.57
252.711	13641.83
252.782	13597.04
252.852	13586.39
252.923	13563.44
252.994	13537.12
253.064	13522.57
253.135	13488.29
253.205	13446.4
253.276	13437.67
253.347	13442.45
253.417	13410.58
253.488	13386.09
253.558	13356.35
253.629	13336.63
253.699	13309.68
253.77	13291.9
253.841	13271.84
253.911	13245.71
253.982	13231.45
254.052	13224.12
254.123	13208.6
254.193	13193.17
254.264	13208.93
254.334	13176.25
254.405	13139.18
254.475	13100.9
254.546	13075.02
254.616	13065.76
254.687	13050.43
254.757	13029.7
254.827	12994.08
254.898	12975.86
254.968	12955.8
255.039	12927.46
255.109	12905.86
255.18	12873.23
255.25	12824.73
255.321	12809.11
255.391	12775.03
255.461	12776.04
255.532	12719.4
255.602	12692.6
255.673	12646.71
255.743	12616.34
255.813	12571.46
255.884	12559.17
255.954	12550.35
256.024	12552.76
256.095	12533.67
256.165	12500.36
256.235	12483.73
256.306	12462.95
256.376	12454.32
256.446	12441.02
256.517	12432.44
256.587	12429.31
256.657	12415.47
256.728	12403.08
256.798	12386.31
256.868	12362.4
256.938	12334.92
257.009	12327.74
257.079	12314.2
257.149	12327.84
257.219	12282
257.29	12269.9
257.36	12229.22
257.43	12218.37
257.5	12175.18
257.571	12148.86
257.641	12143.32
257.711	12107.07
257.781	12085.67
257.852	12071.59
257.922	12029.13
257.992	12005.46
258.062	11980.3
258.132	11964.97
258.202	11940.68
258.273	11919.32
258.343	11919.76
258.413	11889.97
258.483	11865.97
258.553	11833.19
258.623	11802.82
258.693	11788.94
258.764	11780.8
258.834	11784.31
258.904	11760.79
258.974	11734.09
259.044	11715.2
259.114	11695.53
259.184	11684.35
259.254	11662.76
259.324	11619.43
259.394	11611.19
259.464	11606.75
259.535	11580.63
259.605	11560.67
259.675	11540.14
259.745	11524.09
259.815	11490.64
259.885	11467.22
259.955	11480.91
260.025	11455.03
260.095	11435.56
260.165	11428.47
260.235	11432.28
260.305	11406.16
260.375	11377.34
260.445	11382.69
260.515	11378.35
260.585	11372.18
260.655	11352.95
260.725	11352.28
260.795	11348.66
260.865	11349.67
260.934	11326.49
261.004	11318.97
261.074	11305.09
261.144	11303.65
261.214	11296.08
261.284	11278.39
261.354	11273.48
261.424	11240.85
261.494	11252.51
261.564	11232.03
261.634	11222.05
261.703	11181.47
261.773	11171.79
261.843	11162.68
261.913	11142.39
261.983	11108.9
262.053	11109.33
262.123	11095.79
262.192	11062.25
262.262	11055.17
262.332	11026.2
262.402	11022.64
262.472	11009.96
262.541	10966.11
262.611	10959.56
262.681	10940.19
262.751	10935.95
262.821	10912.53
262.89	10889.44
262.96	10874.55
263.03	10880.43
263.1	10862.89
263.169	10852.05
263.239	10843.23
263.309	10848.15
263.379	10843.38
263.448	10831.86
263.518	10809.88
263.588	10791.91
263.657	10797.31
263.727	10785.12
263.797	10766.08
263.867	10736.21
263.936	10702.48
264.006	10703.63
264.076	10680.99
264.145	10656.51
264.215	10630.59
264.285	10630.39
264.354	10593.63
264.424	10571.81
264.494	10538.56
264.563	10515.91
264.633	10525.4
264.702	10512.49
264.772	10477.65
264.842	10455.2
264.911	10445.18
264.981	10414.58
265.05	10399.02
265.12	10375.12
265.19	10367.66
265.259	10362.11
265.329	10358.98
265.398	10354.6
265.468	10367.99
265.537	10346.7
265.607	10338.56
265.676	10334.51
265.746	10320.73
265.815	10322.61
265.885	10302.91
265.955	10282.96
266.024	10264.32
266.094	10222.98
266.163	10219.46
266.232	10224.57
266.302	10207.13
266.371	10193.79
266.441	10180.88
266.51	10175.87
266.58	10161.27
266.649	10132.75
266.719	10131.83
266.788	10122.73
266.858	10123.45
266.927	10086.69
266.996	10080
267.066	10074.41
267.135	10050.95
267.205	10048.59
267.274	10031.15
267.343	10032.07
267.413	10019.26
267.482	10022.39
267.552	10018.29
267.621	9989.05
267.69	9956.78
267.76	9948.11
267.829	9937.7
267.898	9925.13
267.968	9900.13
268.037	9894.69
268.106	9894.4
268.176	9871.86
268.245	9852.98
268.314	9837.85
268.384	9836.02
268.453	9827.3
268.522	9814.3
268.592	9811.41
268.661	9790.84
268.73	9789.54
268.799	9766.47
268.869	9769.89
268.938	9747.15
269.007	9731.6
269.076	9727.45
269.146	9730.39
269.215	9719.02
269.284	9729.38
269.353	9717.44
269.422	9709.01
269.492	9692.3
269.561	9649.58
269.63	9641.06
269.699	9627.96
269.768	9616.2
269.838	9606.57
269.907	9601.8
269.976	9579.12
270.045	9551.91
270.114	9540.93
270.183	9525.28
270.253	9516.61
270.322	9487.14
270.391	9477.27
270.46	9478.72
270.529	9470.67
270.598	9460.85
270.667	9450.78
270.736	9421.16
270.806	9414.66
270.875	9417.74
270.944	9407.78
271.013	9435.13
271.082	9423.71
271.151	9421.6
271.22	9391.21
271.289	9378.6
271.358	9366.8
271.427	9356.93
271.496	9349.08
271.565	9335.45
271.634	9329.05
271.703	9333.43
271.772	9334.63
271.841	9321.25
271.91	9300.16
271.979	9289.81
272.048	9264.57
272.117	9264.62
272.186	9253.93
272.255	9252.01
272.324	9245.22
272.393	9242.23
272.462	9221.24
272.531	9210.69
272.6	9196.34
272.669	9201.3
272.738	9192.25
272.807	9182.43
272.876	9167.7
272.945	9200.05
273.013	9200.29
273.082	9205.11
273.151	9181.08
273.22	9179.4
273.289	9168.61
273.358	9176.75
273.427	9169.77
273.496	9173.43
273.564	9166.11
273.633	9166.11
273.702	9147.38
273.771	9137.17
273.84	9123.26
273.909	9122.88
273.977	9122.64
274.046	9110.21
274.115	9117.73
274.184	9103.81
274.253	9093.9
274.322	9099.72
274.39	9060.05
274.459	9048.35
274.528	9017.68
274.597	9011.71
274.665	9006.95
274.734	9014.74
274.803	9004.92
274.872	8996.74
274.94	8983.4
275.009	9043.71
275.078	9034.32
275.147	9027.05
275.215	9019.78
275.284	9033.98
275.353	9018.72
275.421	8995.13
275.49	9006.98
275.559	8992.68
275.627	8988.35
275.696	8981.65
275.765	8983.1
275.833	8976.46
275.902	8979.88
275.971	8992.34
276.039	9012.51
276.108	9016.17
276.177	9016.61
276.245	9005.92
276.314	8994.46
276.383	8999.08
276.451	8928.29
276.52	8924.43
276.588	8942.44
276.657	8946.05
276.725	8931.32
276.794	8932.81
276.863	8946.05
276.931	8930.45
277	8930.11
277.068	8936.13
277.137	8953.17
277.205	8948.74
277.274	8962.89
277.342	8963.95
277.411	8942.53
277.48	8927.47
277.548	8918.41
277.617	8912.97
277.685	8906.33
277.754	8915.33
277.822	8909.03
277.89	8921.88
277.959	8914.04
278.027	8890.26
278.096	8882.94
278.164	8916.83
278.233	8911.59
278.301	8893.49
278.37	8895.37
278.438	8885.74
278.507	8885.93
278.575	8862.97
278.643	8857
278.712	8839.39
278.78	8823.55
278.849	8832.55
278.917	8839.77
278.985	8833.94
279.054	8836.06
279.122	8841.41
279.191	8832.21
279.259	8823.74
279.327	8799
279.396	8809.68
279.464	8807.47
279.532	8810.07
279.601	8796.06
279.669	8789.41
279.737	8805.87
279.806	8807.56
279.874	8821.66
279.942	8816.13
280.011	8812.04
280.079	8821.71
280.147	8843.66
280.215	8852.66
280.284	8852.42
280.352	8834.8
280.42	8846.31
280.488	8838.95
280.557	8836.68
280.625	8849.1
280.693	8850.02
280.761	8858.54
280.83	8847.95
280.898	8863.97
280.966	8847.32
281.034	8814.06
281.102	8800.05
281.171	8801.88
281.239	8810.26
281.307	8797.65
281.375	8791.01
281.443	8816.61
281.512	8805.5
281.58	8810.17
281.648	8792.07
281.716	8791.35
281.784	8796.64
281.852	8782.68
281.92	8781.38
281.989	8789.61
282.057	8766.46
282.125	8816.48
282.193	8812.1
282.261	8812.2
282.329	8803.34
282.397	8800.89
282.465	8811.57
282.533	8830.29
282.601	8810.08
282.67	8787.02
282.738	8777.83
282.806	8786.54
282.874	8775.9
282.942	8784.13
283.01	8777.2
283.078	8785.57
283.146	8782.2
283.214	8791.4
283.282	8796.64
283.35	8810.94
283.418	8804.97
283.486	8814.17
283.554	8766.64
283.622	8762.6
283.69	8763.08
283.758	8754.08
283.826	8772.42
283.894	8777.14
283.962	8797.6
284.03	8814.97
284.098	8816.66
284.165	8817.86
284.233	8814.92
284.301	8805.63
284.369	8797.4
284.437	8789.7
284.505	8784.55
284.573	8796.06
284.641	8778.53
284.709	8778.73
284.777	8760
284.845	8777.53
284.912	8781.09
284.98	8788.31
285.048	8782.34
285.116	8790.14
285.184	8808.86
285.252	8801.35
285.319	8786.24
285.387	8768.57
285.455	8747.1
285.523	8747.97
285.591	8738.11
285.659	8741.23
285.726	8752.16
285.794	8736.38
285.862	8729.59
285.93	8729.25
285.997	8721.41
286.065	8717.7
286.133	8711.68
286.201	8703.45
286.269	8685.74
286.336	8678.95
286.404	8674.96
286.472	8684.87
286.539	8657.92
286.607	8637.18
286.675	8639.01
286.743	8642.57
286.81	8637.66
286.878	8651.61
286.946	8645.21
287.013	8649.69
287.081	8652.82
287.149	8637.85
287.216	8660.08
287.284	8656.91
287.352	8653.97
287.419	8652.14
287.487	8669.81
287.555	8670.62
287.622	8673.27
287.69	8671.78
287.758	8678.37
287.825	8663.36
287.893	8653.54
287.96	8662.68
288.028	8676.35
288.096	8680.54
288.163	8688.53
288.231	8677.89
288.298	8675.97
288.366	8690.41
288.433	8687.85
288.501	8674.96
288.569	8681.07
288.636	8673.22
288.704	8682.8
288.771	8689.63
288.839	8684.77
288.906	8674.52
288.974	8685.4
289.041	8686.41
289.109	8674.76
289.176	8688.92
289.244	8697.19
289.311	8708.79
289.379	8716.93
289.446	8721.88
289.514	8716.97
289.581	8712.16
289.649	8717.74
289.716	8722.08
289.783	8713.94
289.851	8730.11
289.918	8731.07
289.986	8737.96
290.053	8745.37
290.121	8744.12
290.188	8748.74
290.255	8773.72
290.323	8767.56
290.39	8763.66
290.458	8771.41
290.525	8787.05
290.592	8773.48
290.66	8776.41
290.727	8777.13
290.794	8790.85
290.862	8783.87
290.929	8788.3
290.996	8793.45
291.064	8804.14
291.131	8813.48
291.198	8830.76
291.266	8831.33
291.333	8835.52
291.4	8842.45
291.468	8855.55
291.535	8854.73
291.602	8860.12
291.669	8858.92
291.737	8868.59
291.804	8869.55
291.871	8883.47
291.938	8891.89
292.006	8923.52
292.073	8937.09
292.14	8946.63
292.207	8939.21
292.275	8942.39
292.342	8949.9
292.409	8971.18
292.476	8989.47
292.543	8983.89
292.611	8980.04
292.678	8996.26
292.745	9020.28
292.812	9023.51
292.879	9016.29
292.946	9017.54
293.014	9029.14
293.081	9033.18
293.148	9044.4
293.215	9060.48
293.282	9055.33
293.349	9065.87
293.416	9046.08
293.484	9063.32
293.551	9074.59
293.618	9095.38
293.685	9121.53
293.752	9120.71
293.819	9123.55
293.886	9115.12
293.953	9119.12
294.02	9137.17
294.087	9144.15
294.154	9136.79
294.221	9157.2
294.288	9165.73
294.356	9187.82
294.423	9197.84
294.49	9189.08
294.557	9204.19
294.624	9195.82
294.691	9215.36
294.758	9214.26
294.825	9226.53
294.892	9213.82
294.959	9210.36
295.026	9215.08
295.093	9205.35
295.16	9205.64
295.226	9205.54
295.293	9229.57
295.36	9239.25
295.427	9243.05
295.494	9256.53
295.561	9268.14
295.628	9288.32
295.695	9296.7
295.762	9299.73
295.829	9308.11
295.896	9328.23
295.963	9333.39
296.03	9346
296.096	9350.14
296.163	9362.47
296.23	9369.55
296.297	9381.05
296.364	9379.37
296.431	9387.17
296.498	9388.13
296.564	9407.44
296.631	9403.78
296.698	9388.32
296.765	9408.6
296.832	9397.67
296.899	9384.52
296.965	9404.6
297.032	9384.18
297.099	9405.56
297.166	9411.24
297.233	9401.71
297.299	9392.08
297.366	9399.06
297.433	9400.12
297.5	9405.61
297.566	9401.33
297.633	9409.42
297.7	9419.77
297.767	9418.85
297.833	9426.94
297.9	9424.92
297.967	9410.43
298.033	9433.83
298.1	9464.17
298.167	9457.19
298.234	9467.4
298.3	9478.28
298.367	9470.96
298.434	9477.75
298.5	9459.84
298.567	9455.55
298.634	9459.55
298.7	9477.99
298.767	9473.32
298.834	9490.13
298.9	9486.08
298.967	9481.41
299.033	9484.11
299.1	9494.41
299.167	9507.27
299.233	9500.96
299.3	9518.01
299.366	9537.03
299.433	9547.14
299.5	9521.57
299.566	9520.51
299.633	9535.44
299.699	9542.13
299.766	9538.47
299.832	9546.18
299.899	9562.26
299.965	9574.4
300.032	9567.99
300.099	9573.87
300.165	9581.86
300.232	9570.88
300.298	9575.51
300.365	9595.78
300.431	9600.89
300.498	9595.73
300.564	9604.59
300.631	9614.42
300.697	9632.19
300.763	9634.21
300.83	9629.54
300.896	9645.15
300.963	9660.51
301.029	9669.03
301.096	9675.82
301.162	9685.36
301.229	9676.31
301.295	9664.7
301.361	9669.47
301.428	9679.87
301.494	9666.67
301.561	9669.66
301.627	9672.11
301.693	9674.52
301.76	9673.75
301.826	9667.11
301.892	9678.95
301.959	9688.59
302.025	9684.16
302.092	9679.58
302.158	9688.2
302.224	9693.64
302.291	9685.89
302.357	9676.98
302.423	9667.88
302.49	9655.26
302.556	9670.33
302.622	9678.14
302.688	9687.48
302.755	9699.14
302.821	9707.37
302.887	9713.39
302.954	9713.78
303.02	9721.82
303.086	9721.82
303.152	9718.88
303.219	9716.38
303.285	9719.51
303.351	9724.32
303.417	9724.37
303.483	9704.63
303.55	9695.52
303.616	9689.12
303.682	9690.13
303.748	9687.82
303.815	9702.27
303.881	9717.82
303.947	9702.8
304.013	9702.75
304.079	9694.13
304.145	9675.78
304.212	9675.3
304.278	9667.69
304.344	9662.53
304.41	9656.03
304.476	9654.3
304.542	9650.45
304.608	9658.49
304.674	9642.06
304.741	9634.21
304.807	9639.7
304.873	9651.84
304.939	9664.75
305.005	9647.94
305.071	9647.22
305.137	9648.61
305.203	9623.42
305.269	9617.02
305.335	9627.52
305.401	9621.21
305.467	9623.04
305.533	9635.85
305.599	9640.33
305.666	9658.92
305.732	9657.67
305.798	9664.6
305.864	9684.73
305.93	9689.84
305.996	9688.68
306.062	9688.83
306.128	9685.7
306.194	9677.32
306.259	9681.51
306.325	9670.14
306.391	9677.7
306.457	9677.46
306.523	9680.69
306.589	9702.99
306.655	9697.74
306.721	9676.21
306.787	9663.78
306.853	9679.63
306.919	9660.56
306.985	9649.05
307.051	9639.61
307.117	9637.06
307.183	9630.17
307.248	9607.87
307.314	9608.64
307.38	9609.94
307.446	9616.54
307.512	9608.98
307.578	9605.7
307.644	9594.09
307.709	9596.7
307.775	9598.57
307.841	9598.62
307.907	9597.22
307.973	9571.02
308.039	9567.27
308.104	9573.72
308.17	9568.33
308.236	9548.82
308.302	9547.23
308.368	9542.37
308.433	9537.51
308.499	9530.04
308.565	9520.31
308.631	9521.08
308.696	9499.8
308.762	9486.31
308.828	9485.16
308.894	9467.68
308.959	9452.56
309.025	9445.91
309.091	9442.64
309.156	9435.32
309.222	9444.71
309.288	9427.95
309.354	9416.93
309.419	9414.13
309.485	9403.54
309.551	9414.85
309.616	9404.02
309.682	9402.72
309.748	9390.87
309.813	9390.78
309.879	9381.63
309.945	9371.61
310.01	9366.08
310.076	9369.88
310.141	9366.27
310.207	9347.34
310.273	9349.56
310.338	9349.8
310.404	9333.43
310.469	9319.37
310.535	9303.19
310.601	9270.69
310.666	9277.38
310.732	9283.97
310.797	9271.36
310.863	9262.11
310.928	9256.91
310.994	9254.7
311.059	9247.81
311.125	9249.02
311.191	9252.39
311.256	9238.76
311.322	9246.51
311.387	9224.85
311.453	9584.44
311.518	9550.25
311.584	9546.88
311.649	9547.46
311.715	9538.99
311.78	9537.5
311.846	9527.14
311.911	9537.45
311.976	9540.43
312.042	9530.47
312.107	9517.08
312.173	9508.27
312.238	9502.01
312.304	9496.04
312.369	9491.03
312.434	9475.92
312.5	9468.5
312.565	9435.57
312.631	9445.87
312.696	9427.58
312.761	9428.4
312.827	9062.4
312.892	9104.15
312.958	9099.62
313.023	9098.9
313.088	9101.79
313.154	9091.24
313.219	9084.12
313.284	9071.31
313.35	9062.16
313.415	9049.84
313.48	9046.47
313.546	9057.06
313.611	9061.06
313.676	9052.87
313.741	9040.31
313.807	9055.14
313.872	9059.47
313.937	9066.59
314.003	9074.06
314.068	9082
314.133	9084.5
314.198	9074.78
314.264	9050.9
314.329	9043.72
314.394	9035.49
314.459	9029.57
314.525	9047.77
314.59	9040.02
314.655	9033.32
314.72	9048.54
314.785	9047.48
314.851	9040.64
314.916	9019.6
314.981	9010.75
315.046	8994.67
315.111	8988.6
315.176	8974.88
315.242	8976.09
315.307	8974.93
315.372	8960.2
315.437	8947.73
315.502	8943.06
315.567	8948.6
315.632	8935.5
315.698	8936.8
315.763	8941.91
315.828	8931.17
315.893	8923.13
315.958	8921.98
316.023	8907.54
316.088	8886.11
316.153	8863.69
316.218	8856.8
316.283	8835.97
316.348	8812.38
316.413	8812.33
316.479	8801.99
316.544	8768.44
316.609	8731.86
316.674	8696.59
316.739	8658.52
316.804	8627.34
316.869	8592.01
316.934	8546.58
316.999	8516.99
317.064	8460.74
317.129	8407.75
317.194	8370.08
317.259	8324.75
317.324	8274.14
317.389	8232.09
317.454	8192.3
317.518	8162.57
317.583	8131.68
317.648	8111.86
317.713	8075.59
317.778	8017.38
317.843	7983.37
317.908	7943.17
317.973	7907.05
318.038	7875.98
318.103	7835.3
318.168	7807.69
318.233	7770.52
318.297	7726.33
318.362	7690.89
318.427	7655.07
318.492	7632.14
318.557	7590.41
318.622	7562.85
318.687	7540.89
318.751	7502.14
318.816	7465.85
318.881	7432.39
318.946	7376.58
319.011	7326.35
319.075	7285.45
319.14	7248.06
319.205	7201.4
319.27	7166.85
319.335	7124.22
319.399	7083.19
319.464	7055.13
319.529	6996.85
319.594	6963.02
319.658	6939.48
319.723	6900.42
319.788	6874.63
319.853	6815.92
319.917	6780.53
319.982	6721.54
320.047	6680.72
320.112	6653.63
320.176	6602.97
320.241	6567.72
320.306	6540.16
320.37	6499.01
320.435	6475.05
320.5	6447.97
320.564	6408.9
320.629	6369.93
320.694	6336.13
320.758	6292.7
320.823	6252.04
320.888	6227.95
320.952	6176.75
321.017	6127.89
321.082	6085.95
321.146	6047.47
321.211	6016.34
321.275	5975.32
321.34	5936.91
321.405	5897.57
321.469	5848.12
321.534	5805.87
321.598	5753.07
321.663	5720.98
321.727	5692.01
321.792	5639.12
321.857	5594.91
321.921	5558.52
321.986	5512.27
322.05	5456.76
322.115	5422.83
322.179	5375.96
322.244	5318.13
322.308	5283.1
322.373	5240.84
322.437	5198.82
322.502	5171.3
322.566	5128.04
322.631	5096.09
322.695	5058.06
322.76	5014.38
322.824	4982.39
322.889	4942.41
322.953	4900.62
323.018	4836.98
323.082	4771.12
323.146	4722.92
323.211	4666.64
323.275	4619.39
323.34	4578.2
323.404	4541.56
323.468	4496.38
323.533	4453.04
323.597	4407.43
323.662	4358.16
323.726	4322.52
323.79	4276.9
323.855	4211.41
323.919	4162.11
323.983	4111.13
324.048	4043.76
324.112	4197.36
324.177	4065.25
324.241	3855.76
324.305	3648.61
324.37	3446.1
324.434	3253.1
324.498	3207.4
324.562	3160.49
324.627	3101.33
324.691	3047.08
324.755	2981.6
324.82	2904.65
324.884	2828.81
324.948	2761.38
325.012	2669.25
325.077	2542.12
