Data from 20250702_urea_0.5M_MAYP1162681_05-54-59-916.txt Node
Date: Thu Jul 03 05:54:59 BST 2025
User: adleo
Spectrometer: MAYP116268
Trigger mode: 0
Integration Time (sec): 1.000000E0
Scans to average: 1
Electric dark correction enabled: true
Nonlinearity correction enabled: true
Boxcar width: 10
XAxis mode: Wavelengths
Number of Pixels in Spectrum: 2068
>>>>>Begin Spectral Data<<<<<
179.565	1164.65
179.642	1218.21
179.718	1259.91
179.795	1299.16
179.871	1330.77
179.948	1349.64
180.024	1367
180.101	1384.53
180.177	1397.33
180.254	1419.53
180.33	1441.51
180.407	1493.5
180.483	1584.62
180.56	1671.18
180.636	1751.84
180.712	1739.24
180.789	1749.7
180.865	1762.9
180.942	1767.42
181.018	1776.97
181.095	1790.52
181.171	1798.31
181.248	1801.78
181.324	1816
181.4	1821.27
181.477	1832.26
181.553	1843.66
181.63	1865.15
181.706	1883.16
181.782	1892.81
181.859	1891.38
181.935	1897.04
182.011	1892.76
182.088	1910.3
182.164	1929.8
182.24	1944.01
182.317	1953.9
182.393	1952.9
182.469	1967.17
182.546	1982.52
182.622	1986.28
182.698	1980.38
182.775	1987.99
182.851	1999.26
182.927	1993.79
183.003	1990.42
183.08	1984.28
183.156	1993.18
183.232	1988.89
183.308	1978.53
183.385	1984.09
183.461	2002.59
183.537	2003.83
183.613	2016.38
183.69	2007.16
183.766	1998.02
183.842	2004.58
183.918	2009.2
183.995	2020.47
184.071	2021.23
184.147	2014.81
184.223	2005.68
184.299	2017.62
184.375	2009.2
184.452	2014.82
184.528	2071.87
184.604	2082.95
184.68	2096.02
184.756	2101.92
184.832	2105.44
184.908	2109.2
184.985	2110.29
185.061	2096.64
185.137	2103.01
185.213	2090.79
185.289	2093.17
185.365	2084.8
185.441	2081.66
185.517	2095.51
185.593	2091.23
185.669	2088.23
185.745	2098.08
185.822	2116.33
185.898	2108.58
185.974	2119.18
186.05	2111.19
186.126	2067.36
186.202	2060.42
186.278	2055.09
186.354	2047.34
186.43	2054.9
186.506	2054.05
186.582	2054.38
186.658	2059.94
186.734	2040.74
186.81	2045.82
186.886	2046.82
186.962	2058.66
187.038	2057.85
187.114	2048.48
187.19	2055.61
187.266	2047.39
187.341	2050.01
187.417	2043.25
187.493	2043.3
187.569	2045.35
187.645	2040.45
187.721	2028.22
187.797	2036.93
187.873	2041.68
187.949	2037.59
188.025	2031.5
188.101	2036.21
188.176	2041.77
188.252	2035.59
188.328	2045.53
188.404	2041.39
188.48	2039.73
188.556	2032.07
188.632	2029.64
188.707	2029.55
188.783	2025.93
188.859	2021.37
188.935	2009.29
189.011	2015.47
189.086	2010.29
189.162	2000.49
189.238	1999.35
189.314	2000.3
189.39	1993.41
189.465	1987.6
189.541	2001.54
189.617	1988.37
189.693	1981
189.768	1981.24
189.844	2005.21
189.92	1999.03
189.996	2011.21
190.071	2020.63
190.147	2022.72
190.223	2034.75
190.298	2027.19
190.374	2015.78
190.45	2029.47
190.526	2037.56
190.601	2033.8
190.677	2038.69
190.753	2067.86
190.828	2070.72
190.904	2082.37
190.98	2093.88
191.055	2101.44
191.131	2093.36
191.207	2113.57
191.282	2125.46
191.358	2118.75
191.433	2102.62
191.509	2114.46
191.585	2110.99
191.66	2111.08
191.736	2117.84
191.811	2105.95
191.887	2121.83
191.963	2143.24
192.038	2147.66
192.114	2147.9
192.189	2149.09
192.265	2141.86
192.34	2118.21
192.416	2116.5
192.491	2113.41
192.567	2117.64
192.642	2119.21
192.718	2120.45
192.793	2106.75
192.869	2100.42
192.944	2101.09
193.02	2110.46
193.095	2112.08
193.171	2115.88
193.246	2115.65
193.322	2110.98
193.397	2114.12
193.473	2103.08
193.548	2084.72
193.624	2090.67
193.699	2090.67
193.775	2107.09
193.85	2108.46
193.925	2117.12
194.001	2118.12
194.076	2110.94
194.152	2100.38
194.227	2094.62
194.302	2083.21
194.378	2087.82
194.453	2086.25
194.529	2099.29
194.604	2084.73
194.679	2078.64
194.755	2060.15
194.83	2073.57
194.905	2073.33
194.981	2079.7
195.056	2072.09
195.131	2079.37
195.207	2078.18
195.282	2065.44
195.357	2044.69
195.433	2061.48
195.508	2051.35
195.583	2058.29
195.659	2073.14
195.734	2082.22
195.809	2080.75
195.884	2091.07
195.96	2095.01
196.035	2107.76
196.11	2104.1
196.185	2116.56
196.261	2118.7
196.336	2149.28
196.411	2133.34
196.486	2140.05
196.561	2136.24
196.637	2143.99
196.712	2160.65
196.787	2161.22
196.862	2179.87
196.937	2190.42
197.013	2195.61
197.088	2204.93
197.163	2225.26
197.238	2242.88
197.313	2244.07
197.388	2259.15
197.464	2290.95
197.539	2297.66
197.614	2291.19
197.689	2303.37
197.764	2319.03
197.839	2340.78
197.914	2334.35
197.989	2355.63
198.065	2364.96
198.14	2413.11
198.215	2440.39
198.29	2451.1
198.365	2464.77
198.44	2476
198.515	2505.24
198.59	2519.29
198.665	2546.76
198.74	2555.34
198.815	2554.05
198.89	2572.43
198.965	2602.59
199.04	2596.87
199.115	2615.11
199.19	2658.87
199.265	2661.72
199.34	2673.54
199.415	2706.23
199.49	2726.76
199.565	2736.71
199.64	2763.77
199.715	2761.77
199.79	2768.63
199.865	2773.82
199.94	2771.44
200.015	2803.8
200.09	2806.62
200.165	2812.91
200.24	2817.39
200.315	2857.55
200.39	2873.75
200.464	2879.18
200.539	2876.66
200.614	2891.81
200.689	2914.45
200.764	2921.89
200.839	2940.57
200.914	2942.76
200.989	2931.55
201.063	2945.76
201.138	2928.7
201.213	2924.65
201.288	2905.4
201.363	2911.21
201.438	2911.4
201.512	2929.94
201.587	2911.91
201.662	2916.68
201.737	2928.12
201.812	2932.17
201.886	2899.35
201.961	2910.51
202.036	2901.7
202.111	2901.51
202.186	2872.83
202.26	2855.62
202.335	2835.69
202.41	2828.64
202.485	2813.44
202.559	2794.53
202.634	2770.56
202.709	2779.32
202.784	2761.45
202.858	2763.93
202.933	2743.06
203.008	2743.44
203.082	2722.2
203.157	2719.05
203.232	2677.53
203.306	2657.65
203.381	2629.93
203.456	2605.87
203.53	2580.17
203.605	2560.7
203.68	2536.69
203.754	2530.36
203.829	2512.31
203.904	2491.5
203.978	2481.26
204.053	2484.93
204.127	2473.03
204.202	2470.55
204.277	2453.32
204.351	2445.18
204.426	2437.13
204.5	2429.51
204.575	2392.14
204.65	2401.67
204.724	2395.76
204.799	2404.42
204.873	2399.89
204.948	2399.18
205.022	2388.57
205.097	2383.8
205.171	2396.13
205.246	2402.18
205.32	2400.66
205.395	2401.8
205.469	2391.38
205.544	2393.95
205.618	2376.1
205.693	2387.33
205.767	2372.63
205.842	2396.96
205.916	2393.53
205.991	2382.82
206.065	2386.53
206.14	2402.23
206.214	2395.42
206.289	2388.09
206.363	2398.56
206.438	2399.8
206.512	2406.61
206.586	2427.17
206.661	2433.03
206.735	2413.33
206.81	2416.43
206.884	2434.66
206.958	2424.23
207.033	2442.27
207.107	2451.6
207.181	2486.42
207.256	2484.04
207.33	2505.46
207.405	2515.8
207.479	2538.18
207.553	2544.9
207.628	2531.43
207.702	2542.38
207.776	2542.85
207.851	2548.81
207.925	2568.63
207.999	2574.29
208.073	2575.39
208.148	2580.96
208.222	2572.06
208.296	2607.19
208.371	2623.11
208.445	2638.35
208.519	2673.41
208.593	2692.79
208.668	2696.51
208.742	2703.33
208.816	2714.71
208.89	2737.54
208.965	2748.37
209.039	2762.19
209.113	2793.16
209.187	2830.45
209.261	2843.89
209.336	2877.06
209.41	2911.67
209.484	2929.6
209.558	2968.32
209.632	3000.59
209.707	3032.64
209.781	3078.6
209.855	3115.81
209.929	3162.39
210.003	3193.21
210.077	3219.54
210.151	3295.61
210.226	3359.73
210.3	3419.62
210.374	3472.29
210.448	3515.55
210.522	3557.28
210.596	3608.51
210.67	3655.88
210.744	3736.22
210.818	3808.18
210.892	3872.35
210.966	3911.27
211.041	3970.91
211.115	4008.79
211.189	4080.72
211.263	4145.68
211.337	4199.83
211.411	4269.99
211.485	4315.87
211.559	4385.2
211.633	4445.05
211.707	4473.49
211.781	4537.74
211.855	4566.31
211.929	4617.78
212.003	4659.2
212.077	4736.67
212.151	4815.35
212.225	4889.37
212.299	4945.95
212.373	5004.85
212.447	5068.72
212.52	5166.35
212.594	5241.77
212.668	5332.47
212.742	5391.36
212.816	5463.41
212.89	5537.6
212.964	5610.4
213.038	5691.11
213.112	5779.23
213.186	5869.81
213.26	5922.35
213.333	5961.16
213.407	6044.71
213.481	6130.17
213.555	6218.42
213.629	6288.65
213.703	6352.06
213.777	6429.26
213.85	6497.87
213.924	6611.31
213.998	6693.78
214.072	6768.24
214.146	6833.95
214.219	6908.08
214.293	6987.57
214.367	7069.74
214.441	7159.54
214.515	7225.58
214.588	7286.47
214.662	7332.99
214.736	7397.21
214.81	7492.59
214.883	7578.62
214.957	7651.73
215.031	7724.66
215.105	7785.51
215.178	7850.91
215.252	7921.75
215.326	7984.18
215.4	8043.57
215.473	8073.79
215.547	8131.71
215.621	8198.6
215.694	8282.51
215.768	8340.39
215.842	8406.26
215.915	8466.9
215.989	8514.73
216.063	8584.28
216.136	8658.88
216.21	8731.25
216.284	8814.05
216.357	8883.36
216.431	8955.04
216.504	9034.91
216.578	9131.59
216.652	9217.46
216.725	9293.54
216.799	9378.97
216.873	9452.4
216.946	9530.74
217.02	9600.7
217.093	9671.25
217.167	9719.37
217.24	9777.5
217.314	9842.23
217.387	9905.56
217.461	9965.92
217.535	10048.48
217.608	10107.01
217.682	10180.52
217.755	10260.49
217.829	10323.99
217.902	10393.99
217.976	10461.54
218.049	10522.05
218.123	10572.55
218.196	10647.57
218.27	10705.83
218.343	10759.32
218.417	10829.91
218.49	10894.24
218.563	10975.87
218.637	11048.06
218.71	11136.06
218.784	11205.94
218.857	11285.31
218.931	11359.52
219.004	11430.03
219.077	11505.75
219.151	11578.91
219.224	11635.11
219.298	11708.42
219.371	11784.33
219.444	11837.73
219.518	11912.3
219.591	11976.89
219.665	12075.61
219.738	12141.26
219.811	12202.23
219.885	12276.56
219.958	12344.96
220.031	12412.64
220.105	12484.8
220.178	12555.66
220.251	12617.31
220.325	12695.26
220.398	12762.22
220.471	12832.45
220.544	12909
220.618	12958.6
220.691	13026.38
220.764	13099.8
220.838	13161.93
220.911	13216.75
220.984	13305.64
221.057	13373.08
221.131	13444.18
221.204	13462.69
221.277	13540.16
221.35	13626.5
221.424	13677.79
221.497	13743.3
221.57	13799.56
221.643	13859.19
221.716	13918.44
221.79	13966.93
221.863	14026.32
221.936	14089.23
222.009	14145.53
222.082	14202.18
222.155	14260.17
222.229	14329.15
222.302	14376.97
222.375	14429.13
222.448	14489.91
222.521	14534.94
222.594	14588.93
222.667	14628.5
222.74	14699.89
222.814	14746.65
222.887	14792.93
222.96	14866.77
223.033	14925.34
223.106	14983.48
223.179	15041.95
223.252	15091.79
223.325	15149.25
223.398	15193.98
223.471	15242.18
223.544	15294.09
223.617	15344.13
223.69	15399.56
223.763	15433.3
223.837	15499.19
223.91	15544.55
223.983	15579.16
224.056	15618.59
224.129	15661.05
224.202	15720.97
224.275	15760.2
224.348	15793.7
224.42	15827.25
224.493	15841.42
224.566	15867.16
224.639	15912.85
224.712	15944.37
224.785	15978.01
224.858	16019.85
224.931	16052.05
225.004	16082.7
225.077	16116.06
225.15	16133.94
225.223	16166.23
225.296	16228.36
225.369	16236.84
225.442	16267.16
225.514	16310.24
225.587	16352.08
225.66	16390.78
225.733	16425.34
225.806	16466.55
225.879	16509.2
225.952	16543.42
226.025	16603.14
226.097	16664.1
226.17	16699.91
226.243	16716.39
226.316	16762.37
226.389	16800.16
226.461	16843.97
226.534	16885.61
226.607	16922.04
226.68	16980.21
226.753	17027.54
226.825	17047.88
226.898	17102.63
226.971	17142.53
227.044	17179.64
227.117	17211.07
227.189	17244.61
227.262	17286.3
227.335	17324.99
227.407	17352.75
227.48	17390.68
227.553	17419.89
227.626	17439.02
227.698	17470.78
227.771	17510.1
227.844	17532.56
227.916	17562.39
227.989	17574.3
228.062	17599.94
228.134	17654.3
228.207	17675.98
228.28	17693.19
228.352	17712.46
228.425	17746.58
228.498	17789.09
228.57	17802.34
228.643	17846.82
228.716	17867.11
228.788	17892.6
228.861	17915.25
228.934	17939.54
229.006	17959.25
229.079	17979.93
229.151	17995.83
229.224	17998.77
229.296	18023.59
229.369	18063.49
229.442	18094.72
229.514	18109.22
229.587	18142.04
229.659	18142.91
229.732	18175.39
229.804	18206.95
229.877	18260.35
229.949	18294.27
230.022	18334.27
230.094	18361.02
230.167	18388.68
230.239	18408.58
230.312	18420.34
230.384	18451.9
230.457	18481.64
230.529	18508.14
230.602	18538.84
230.674	18564.33
230.747	18613.34
230.819	18649.24
230.892	18651.89
230.964	18682.93
231.037	18722.11
231.109	18741.43
231.181	18771.11
231.254	18776.13
231.326	18786.58
231.399	18790.05
231.471	18785.28
231.544	18771.36
231.616	18803.93
231.688	18815.69
231.761	18827.54
231.833	18840.94
231.905	18826.73
231.978	18837.71
232.05	18850.39
232.122	18851.59
232.195	18854.53
232.267	18870.67
232.339	18874.43
232.412	18894.43
232.484	18897.03
232.556	18887.01
232.629	18915.01
232.701	18929.66
232.773	18941.85
232.846	18946.72
232.918	18950.72
232.99	18964.84
233.062	18980.88
233.135	18972.35
233.207	18962.62
233.279	18983.73
233.351	18992.31
233.424	19001.36
233.496	18997.56
233.568	19020.3
233.64	19011.87
233.713	19024.01
233.785	19023.58
233.857	19027.24
233.929	19012.64
234.001	19024.26
234.074	19043.15
234.146	19021.07
234.218	19014.57
234.29	19012.4
234.362	19012.64
234.434	18996.84
234.507	18990.86
234.579	18974.67
234.651	18974.81
234.723	18983.39
234.795	18980.07
234.867	18973.75
234.939	18985.13
235.012	18994.23
235.084	18982.76
235.156	18987.97
235.228	18965.95
235.3	18950.43
235.372	18950.33
235.444	18962.33
235.516	18926
235.588	18930
235.66	18924.6
235.732	18906.09
235.804	18956.65
235.876	18953.51
235.948	18973.51
236.02	18967.1
236.092	18957.03
236.164	18950.38
236.236	18928.21
236.308	18912.36
236.38	18908.65
236.452	18892.46
236.524	18877.61
236.596	18890.77
236.668	18891.54
236.74	18893.28
236.812	18889.42
236.884	18887.64
236.956	18867.49
237.028	18861.47
237.1	18828.99
237.172	18830.53
237.244	18833.13
237.316	18775.26
237.388	18762.44
237.46	18723.5
237.532	18720.47
237.604	18704.95
237.675	18696.61
237.747	18698.3
237.819	18671.12
237.891	18655.94
237.963	18628.38
238.035	18611.17
238.107	18547.18
238.178	18536.53
238.25	18518.74
238.322	18524.77
238.394	18482.6
238.466	18461.4
238.538	18445.11
238.609	18447.47
238.681	18404.2
238.753	18380.78
238.825	18366.7
238.897	18338.66
238.968	18342.32
239.04	18306.32
239.112	18312.92
239.184	18291.57
239.255	18260.78
239.327	18251.48
239.399	18233.31
239.471	18225.75
239.542	18209.36
239.614	18204.4
239.686	18148.93
239.758	18137.94
239.829	18092.21
239.901	18081.27
239.973	18060.21
240.044	18044.12
240.116	18020.6
240.188	18003.15
240.259	17972.7
240.331	17937.57
240.403	17920.46
240.474	17881.23
240.546	17854.34
240.618	17812.99
240.689	17784.37
240.761	17765.52
240.833	17745.52
240.904	17709.23
240.976	17687.84
241.048	17651.55
241.119	17639.98
241.191	17635.65
241.262	17620.71
241.334	17597.09
241.405	17570.44
241.477	17539.45
241.549	17499.36
241.62	17453.96
241.692	17434.06
241.763	17420.95
241.835	17395.02
241.906	17370.49
241.978	17330.44
242.049	17313.67
242.121	17291.12
242.192	17270.92
242.264	17225.81
242.335	17191.45
242.407	17174.25
242.478	17136.7
242.55	17117.47
242.621	17073.71
242.693	17037.37
242.764	17000.36
242.836	16972.6
242.907	16951.2
242.979	16925.85
243.05	16908.17
243.122	16890.72
243.193	16858.09
243.264	16807.15
243.336	16782.52
243.407	16763.77
243.479	16753.36
243.55	16735
243.622	16711.92
243.693	16687.63
243.764	16674.66
243.836	16630.13
243.907	16590.27
243.978	16553.54
244.05	16534.84
244.121	16489.73
244.192	16469.97
244.264	16422.74
244.335	16390.83
244.407	16340.08
244.478	16318.34
244.549	16285.37
244.62	16251.2
244.692	16221.85
244.763	16204.11
244.834	16159.24
244.906	16113.93
244.977	16086.75
245.048	16067.66
245.119	16029.44
245.191	15982.59
245.262	15930.35
245.333	15920.61
245.405	15900.7
245.476	15876.36
245.547	15846
245.618	15828.31
245.689	15799.77
245.761	15774.52
245.832	15741.02
245.903	15729.55
245.974	15696.19
246.045	15660.14
246.117	15643.94
246.188	15599.02
246.259	15552.02
246.33	15522.76
246.401	15495.43
246.473	15450.75
246.544	15413.54
246.615	15391.27
246.686	15359.31
246.757	15345.82
246.828	15294.34
246.899	15278.24
246.97	15231.82
247.042	15192.2
247.113	15171.23
247.184	15162.12
247.255	15133.68
247.326	15106.49
247.397	15061.37
247.468	15040.74
247.539	15015.39
247.61	14974.8
247.681	14958.17
247.752	14949.74
247.823	14914.98
247.894	14883.65
247.965	14848.17
248.037	14812.16
248.108	14765.89
248.179	14738.26
248.25	14700.76
248.321	14687.17
248.392	14649.62
248.463	14651.64
248.534	14618.19
248.605	14598.04
248.675	14561.79
248.746	14538.41
248.817	14519.27
248.888	14503.99
248.959	14453.47
249.03	14433.61
249.101	14405.17
249.172	14375.67
249.243	14325.68
249.314	14317.1
249.385	14295.12
249.456	14276.03
249.527	14239.87
249.598	14223.15
249.669	14197.12
249.739	14177.01
249.81	14153.92
249.881	14109
249.952	14076.84
250.023	14053.37
250.094	14009.02
250.165	13973.49
250.235	13944.52
250.306	13918.05
250.377	13877.75
250.448	13863.05
250.519	13816.34
250.59	13800.38
250.66	13768.18
250.731	13758.44
250.802	13726.53
250.873	13699.29
250.944	13676.06
251.014	13643.76
251.085	13639.37
251.156	13624.96
251.227	13617.48
251.297	13615.17
251.368	13596.66
251.439	13586.01
251.51	13577.14
251.58	13548.07
251.651	13512.83
251.722	13500.97
251.792	13459.32
251.863	13439.89
251.934	13428.71
252.005	13435.21
252.075	13412.51
252.146	13397.52
252.217	13388.74
252.287	13371.15
252.358	13348.15
252.429	13341.02
252.499	13319.76
252.57	13292.52
252.641	13278.54
252.711	13253.43
252.782	13204.79
252.852	13201.85
252.923	13169.6
252.994	13138.99
253.064	13128.33
253.135	13098.69
253.205	13065.57
253.276	13064.22
253.347	13050.58
253.417	13013.65
253.488	12987.71
253.558	12963.47
253.629	12946.93
253.699	12923.31
253.77	12912.03
253.841	12893.95
253.911	12869.85
253.982	12849.65
254.052	12836.3
254.123	12811.67
254.193	12783.23
254.264	12796.67
254.334	12767.46
254.405	12738.15
254.475	12705.81
254.546	12680.84
254.616	12676.89
254.687	12654.66
254.757	12632.58
254.827	12611.86
254.898	12597.73
254.968	12575.41
255.039	12545.62
255.109	12528.08
255.18	12502.14
255.25	12453.46
255.321	12439.48
255.391	12405.64
255.461	12401.88
255.532	12359.07
255.602	12334.54
255.673	12301.86
255.743	12273.22
255.813	12232.06
255.884	12228.83
255.954	12218.37
256.024	12216.34
256.095	12197.16
256.165	12170.31
256.235	12151.46
256.306	12124.81
256.376	12120.52
256.446	12103.31
256.517	12085.14
256.587	12069.62
256.657	12045.61
256.728	12036.74
256.798	12012.5
256.868	11991.82
256.938	11964.2
257.009	11948.05
257.079	11927.86
257.149	11935.62
257.219	11894.79
257.29	11885.1
257.36	11846.06
257.43	11835.74
257.5	11793.28
257.571	11768.31
257.641	11757.18
257.711	11728.21
257.781	11720.98
257.852	11706.42
257.922	11674.37
257.992	11659.38
258.062	11643.77
258.132	11631.33
258.202	11609.4
258.273	11592.29
258.343	11591.76
258.413	11563.86
258.483	11543.61
258.553	11517.68
258.623	11484.62
258.693	11470.06
258.764	11461.73
258.834	11456.57
258.904	11439.7
258.974	11420.13
259.044	11397.48
259.114	11383.65
259.184	11368.85
259.254	11340.61
259.324	11296.56
259.394	11283.45
259.464	11279.69
259.535	11252.94
259.605	11232.51
259.675	11210.97
259.745	11192.75
259.815	11159.35
259.885	11141.38
259.955	11155.5
260.025	11130.06
260.095	11116.95
260.165	11106.54
260.235	11101.29
260.305	11072.03
260.375	11037.38
260.445	11038.35
260.515	11040.18
260.585	11033.82
260.655	11022.83
260.725	11021.77
260.795	11014.4
260.865	11014.78
260.934	10984.09
261.004	10976.23
261.074	10967.8
261.144	10963.85
261.214	10962.21
261.284	10944.91
261.354	10940.91
261.424	10908.38
261.494	10916.62
261.564	10895.85
261.634	10884.14
261.703	10850.79
261.773	10840
261.843	10833.35
261.913	10813.93
261.983	10777.16
262.053	10763.86
262.123	10746.13
262.192	10711.78
262.262	10702.09
262.332	10667.59
262.402	10661.28
262.472	10649.91
262.541	10607.99
262.611	10605.92
262.681	10575.08
262.751	10570.36
262.821	10551.9
262.89	10524.58
262.96	10510.66
263.03	10513.84
263.1	10504.54
263.169	10489.07
263.239	10483.58
263.309	10489.31
263.379	10488.3
263.448	10480.59
263.518	10465.9
263.588	10447.2
263.657	10449.27
263.727	10444.89
263.797	10433.23
263.867	10418.73
263.936	10386.55
264.006	10390.93
264.076	10370.89
264.145	10360.29
264.215	10340.29
264.285	10333.21
264.354	10300.02
264.424	10273.96
264.494	10239.75
264.563	10214.7
264.633	10225.78
264.702	10208.1
264.772	10168.11
264.842	10132.41
264.911	10120.81
264.981	10095.03
265.05	10079.66
265.12	10058.85
265.19	10046.71
265.259	10043.24
265.329	10034.72
265.398	10023.06
265.468	10033.9
265.537	10010.54
265.607	10002.73
265.676	9992.47
265.746	9981.3
265.815	9982.93
265.885	9974.26
265.955	9956.06
266.024	9938.43
266.094	9894.06
266.163	9897.97
266.232	9903.7
266.302	9898.59
266.371	9889.88
266.441	9880.1
266.51	9874.17
266.58	9859.19
266.649	9833.57
266.719	9829.42
266.788	9817.38
266.858	9824.56
266.927	9790.84
266.996	9787.13
267.066	9769.74
267.135	9747.73
267.205	9744.17
267.274	9734.59
267.343	9730.44
267.413	9720.33
267.482	9719.42
267.552	9726.45
267.621	9697.21
267.69	9663.88
267.76	9656.08
267.829	9649.96
267.898	9638.31
267.968	9618.95
268.037	9615.77
268.106	9610.47
268.176	9590.53
268.245	9578.73
268.314	9559.85
268.384	9548.63
268.453	9535.73
268.522	9531.97
268.592	9529.42
268.661	9503.65
268.73	9499.41
268.799	9476.01
268.869	9479
268.938	9450.78
269.007	9435.22
269.076	9425.88
269.146	9428.58
269.215	9418.18
269.284	9420.15
269.353	9405.75
269.422	9391.69
269.492	9372.91
269.561	9336.37
269.63	9328.66
269.699	9316.96
269.768	9302.18
269.838	9297.22
269.907	9295.82
269.976	9271.99
270.045	9248.01
270.114	9246.76
270.183	9225.67
270.253	9218.4
270.322	9191.68
270.391	9185.42
270.46	9186.72
270.529	9179.93
270.598	9173.63
270.667	9159.42
270.736	9133.61
270.806	9123.65
270.875	9128.27
270.944	9121.29
271.013	9148.44
271.082	9133.37
271.151	9123.84
271.22	9099.04
271.289	9087.2
271.358	9063.03
271.427	9059.95
271.496	9049.94
271.565	9034.15
271.634	9027.41
271.703	9053.84
271.772	9058.32
271.841	9046.33
271.91	9022.02
271.979	9019.23
272.048	8997.23
272.117	8999.3
272.186	8983.12
272.255	8986.35
272.324	8975.28
272.393	8969.69
272.462	8947.55
272.531	8937.82
272.6	8921.74
272.669	8931.9
272.738	8921.07
272.807	8923.57
272.876	8899.99
272.945	8929.3
273.013	8930.8
273.082	8935.95
273.151	8893.34
273.22	8885.64
273.289	8881.69
273.358	8889.25
273.427	8873.89
273.496	8874.23
273.564	8872.4
273.633	8873.22
273.702	8855.69
273.771	8852.81
273.84	8846.16
273.909	8848.47
273.977	8847.51
274.046	8846.84
274.115	8845.25
274.184	8825.18
274.253	8816.32
274.322	8826.72
274.39	8793.46
274.459	8783.01
274.528	8757.93
274.597	8754.76
274.665	8752.11
274.734	8758.7
274.803	8754.18
274.872	8747.39
274.94	8734.88
275.009	8779.47
275.078	8767.2
275.147	8761.57
275.215	8751.85
275.284	8755.36
275.353	8740.82
275.421	8720.03
275.49	8729.76
275.559	8722.78
275.627	8720.95
275.696	8717.1
275.765	8716.13
275.833	8709.59
275.902	8704.01
275.971	8714.06
276.039	8724.51
276.108	8727.45
276.177	8726.96
276.245	8711.61
276.314	8710.5
276.383	8715.22
276.451	8662.3
276.52	8666
276.588	8676.88
276.657	8682.42
276.725	8680.59
276.794	8676.45
276.863	8689.64
276.931	8666.1
277	8671.3
277.068	8681.64
277.137	8695.36
277.205	8687.56
277.274	8704.51
277.342	8712.5
277.411	8690.07
277.48	8673.71
277.548	8663.02
277.617	8662.16
277.685	8656.38
277.754	8654.6
277.822	8644.98
277.89	8651.09
277.959	8642.48
278.027	8626.64
278.096	8610.71
278.164	8630.64
278.233	8626.98
278.301	8613.65
278.37	8621.83
278.438	8612.79
278.507	8613.41
278.575	8587.61
278.643	8589.49
278.712	8563.07
278.78	8550.7
278.849	8565.23
278.917	8577.7
278.985	8575.63
279.054	8574.19
279.122	8582.37
279.191	8582.17
279.259	8580.15
279.327	8556.86
279.396	8567.83
279.464	8559.79
279.532	8571.63
279.601	8568.26
279.669	8566.34
279.737	8579.76
279.806	8578.08
279.874	8580.53
279.942	8580.01
280.011	8577.94
280.079	8585.2
280.147	8604.69
280.215	8603.54
280.284	8596.75
280.352	8582.89
280.42	8584.38
280.488	8577.21
280.557	8574.85
280.625	8578.99
280.693	8580.68
280.761	8582.31
280.83	8568.74
280.898	8583.42
280.966	8566.24
281.034	8530.05
281.102	8514.07
281.171	8507.53
281.239	8516.67
281.307	8508.54
281.375	8497.13
281.443	8518.45
281.512	8511.67
281.58	8521.97
281.648	8511.09
281.716	8510.47
281.784	8506.18
281.852	8503.39
281.92	8496.27
281.989	8504.36
282.057	8490.4
282.125	8537.86
282.193	8537.62
282.261	8538.01
282.329	8530.69
282.397	8528.67
282.465	8528.91
282.533	8543.68
282.601	8535.12
282.67	8516.06
282.738	8507.45
282.806	8518.23
282.874	8503.98
282.942	8509.52
283.01	8501.86
283.078	8508.26
283.146	8502.92
283.214	8517.26
283.282	8523.81
283.35	8542.05
283.418	8533.24
283.486	8533.19
283.554	8483.9
283.622	8483.95
283.69	8484.81
283.758	8482.75
283.826	8498.91
283.894	8512.53
283.962	8532.22
284.03	8542.18
284.098	8542.75
284.165	8542.08
284.233	8541.26
284.301	8533.61
284.369	8520.86
284.437	8512.77
284.505	8511.76
284.573	8528.94
284.641	8505.94
284.709	8503
284.777	8483.85
284.845	8489.72
284.912	8500.26
284.98	8506.85
285.048	8496.99
285.116	8501.13
285.184	8513.64
285.252	8507.33
285.319	8492.13
285.387	8484.47
285.455	8472.69
285.523	8475.67
285.591	8472.25
285.659	8471.44
285.726	8488.04
285.794	8478.32
285.862	8471.77
285.93	8463.45
285.997	8460.61
286.065	8463.5
286.133	8456.47
286.201	8452.77
286.269	8439.77
286.336	8427.7
286.404	8424.9
286.472	8439.77
286.539	8423.8
286.607	8404.89
286.675	8408.69
286.743	8417.49
286.81	8410.85
286.878	8420.72
286.946	8419.23
287.013	8422.69
287.081	8425.1
287.149	8405.22
287.216	8420.62
287.284	8418.41
287.352	8417.44
287.419	8415.18
287.487	8430.29
287.555	8431.35
287.622	8430.34
287.69	8437.85
287.758	8448.58
287.825	8442.61
287.893	8434.38
287.96	8437.12
288.028	8450.6
288.096	8449.35
288.163	8444.53
288.231	8433.61
288.298	8434.86
288.366	8445.4
288.433	8436.07
288.501	8422.84
288.569	8425.1
288.636	8421.54
288.704	8435.44
288.771	8450.31
288.839	8438.91
288.906	8434.72
288.974	8446.9
289.041	8445.69
289.109	8439.1
289.176	8450.65
289.244	8454.93
289.311	8466.63
289.379	8472.35
289.446	8473.08
289.514	8469.37
289.581	8475.1
289.649	8482.22
289.716	8483.04
289.783	8473.7
289.851	8496.8
289.918	8500.55
289.986	8516.14
290.053	8518.83
290.121	8513.88
290.188	8514.89
290.255	8545.5
290.323	8542.08
290.39	8535.24
290.458	8542.9
290.525	8552.57
290.592	8538.32
290.66	8544.91
290.727	8537.02
290.794	8552.61
290.862	8551.17
290.929	8558.34
290.996	8556.56
291.064	8561.9
291.131	8570.04
291.198	8581.01
291.266	8579.37
291.333	8581.78
291.4	8582.6
291.468	8607.96
291.535	8608.88
291.602	8612.29
291.669	8604.83
291.737	8602.28
291.804	8607.29
291.871	8619.17
291.938	8625.72
292.006	8660.14
292.073	8669.14
292.14	8680.01
292.207	8678.38
292.275	8681.31
292.342	8689.74
292.409	8716.4
292.476	8741.24
292.543	8738.74
292.611	8739.51
292.678	8757.75
292.745	8783.88
292.812	8794.38
292.879	8781.67
292.946	8785.85
293.014	8801.06
293.081	8808.67
293.148	8823.06
293.215	8836.39
293.282	8833.74
293.349	8841.06
293.416	8820.51
293.484	8831.43
293.551	8840.53
293.618	8853.81
293.685	8874.95
293.752	8870.52
293.819	8867.2
293.886	8848.66
293.953	8851.6
294.02	8861.03
294.087	8868.06
294.154	8860.65
294.221	8872.01
294.288	8870.47
294.356	8886.5
294.423	8892.28
294.49	8885.49
294.557	8904.12
294.624	8896.18
294.691	8915.81
294.758	8918.46
294.825	8927.9
294.892	8920.44
294.959	8921.78
295.026	8927.37
295.093	8924.09
295.16	8930.45
295.226	8934.54
295.293	8965.21
295.36	8974.21
295.427	8985.52
295.494	8992.17
295.561	8996.4
295.628	9021.59
295.695	9036.85
295.762	9038.48
295.829	9041.23
295.896	9058.36
295.963	9068.67
296.03	9082.24
296.096	9085.76
296.163	9102.13
296.23	9109.25
296.297	9122.78
296.364	9120.13
296.431	9125.38
296.498	9122.64
296.564	9141.03
296.631	9143.87
296.698	9126.49
296.765	9147.19
296.832	9139.2
296.899	9127.74
296.965	9147.43
297.032	9134.57
297.099	9158.26
297.166	9169.14
297.233	9165.19
297.299	9159.75
297.366	9156.34
297.433	9155.57
297.5	9172.47
297.566	9166.26
297.633	9175.07
297.7	9184.5
297.767	9183.35
297.833	9192.3
297.9	9199.09
297.967	9184.26
298.033	9193.36
298.1	9225.19
298.167	9213.78
298.234	9219.22
298.3	9231.98
298.367	9230.05
298.434	9235.11
298.5	9229.72
298.567	9223.99
298.634	9229.72
298.7	9243.63
298.767	9242.86
298.834	9256.97
298.9	9241.22
298.967	9236.65
299.033	9244.45
299.1	9249.07
299.167	9266.69
299.233	9263.18
299.3	9280.08
299.366	9297.65
299.433	9310.27
299.5	9278.05
299.566	9292.21
299.633	9313.06
299.699	9322.88
299.766	9321.39
299.832	9316.62
299.899	9322.02
299.965	9329.05
300.032	9318.84
300.099	9325.68
300.165	9330.35
300.232	9326.01
300.298	9334.49
300.365	9348.4
300.431	9347.58
300.498	9342.14
300.564	9348.69
300.631	9359.62
300.697	9368
300.763	9367.62
300.83	9370.36
300.896	9389.96
300.963	9393.09
301.029	9395.21
301.096	9395.93
301.162	9408.5
301.229	9413.22
301.295	9403.78
301.361	9411.24
301.428	9424.19
301.494	9414.85
301.561	9418.7
301.627	9423.09
301.693	9419.76
301.76	9420.92
301.826	9415.67
301.892	9426.12
301.959	9434.02
302.025	9433.73
302.092	9427.66
302.158	9433.78
302.224	9434.98
302.291	9427.23
302.357	9416.39
302.423	9405.51
302.49	9398
302.556	9407.34
302.622	9405.08
302.688	9411.34
302.755	9428.67
302.821	9434.26
302.887	9442.11
302.954	9445.48
303.02	9449.72
303.086	9460.55
303.152	9459.59
303.219	9458.87
303.285	9468.55
303.351	9474.23
303.417	9476.01
303.483	9470.52
303.55	9462.14
303.616	9462.72
303.682	9460.51
303.748	9457.95
303.815	9471.58
303.881	9481.89
303.947	9473.12
304.013	9468.07
304.079	9458.82
304.145	9432.48
304.212	9428.1
304.278	9418.85
304.344	9411.29
304.41	9401.32
304.476	9392.9
304.542	9392.42
304.608	9399.54
304.674	9378.21
304.741	9376.28
304.807	9375.51
304.873	9378.69
304.939	9398.29
305.005	9377.34
305.071	9379.41
305.137	9381.48
305.203	9364.87
305.269	9368.14
305.335	9373.44
305.401	9377.1
305.467	9383.17
305.533	9394.15
305.599	9405.37
305.666	9414.56
305.732	9415.82
305.798	9431.71
305.864	9454.34
305.93	9452.99
305.996	9451.93
306.062	9453.38
306.128	9441.92
306.194	9429.01
306.259	9430.55
306.325	9416.78
306.391	9424.05
306.457	9431.85
306.523	9434.26
306.589	9457.57
306.655	9445.53
306.721	9432.72
306.787	9420.1
306.853	9430.17
306.919	9413.94
306.985	9400.22
307.051	9398.87
307.117	9391.94
307.183	9381.39
307.248	9351.82
307.314	9359.43
307.38	9359.19
307.446	9369.93
307.512	9355.63
307.578	9362.37
307.644	9356.64
307.709	9364.44
307.775	9366.37
307.841	9358.52
307.907	9360.39
307.973	9337.18
308.039	9335.54
308.104	9339.45
308.17	9341.52
308.236	9328.8
308.302	9333.09
308.368	9325.34
308.433	9319.51
308.499	9315.08
308.565	9301.5
308.631	9309.35
308.696	9279.35
308.762	9266.26
308.828	9261.59
308.894	9251.28
308.959	9227.89
309.025	9210.94
309.091	9206.8
309.156	9196.64
309.222	9198.61
309.288	9186.91
309.354	9166.4
309.419	9161.87
309.485	9140.4
309.551	9145.02
309.616	9127.45
309.682	9121.86
309.748	9117.58
309.813	9112.48
309.879	9105.78
309.945	9103.14
310.01	9091.24
310.076	9104.87
310.141	9098.46
310.207	9077.66
310.273	9077.76
310.338	9080.7
310.404	9065.44
310.469	9046.47
310.535	9035.2
310.601	9011.04
310.666	9014.98
310.732	9021.53
310.797	9012.09
310.863	9005.21
310.928	8992.16
310.994	8998.57
311.059	8999.62
311.125	8997.75
311.191	9005.98
311.256	8997.8
311.322	8997.12
311.387	8978.69
311.453	9317.88
311.518	9292.18
311.584	9293.14
311.649	9298.77
311.715	9289.38
311.78	9301.56
311.846	9293.47
311.911	9299.88
311.976	9307.24
312.042	9288.08
312.107	9277.59
312.173	9268.54
312.238	9262.04
312.304	9260.6
312.369	9248.32
312.434	9234.65
312.5	9227.52
312.565	9202.63
312.631	9205.23
312.696	9194.79
312.761	9200.61
312.827	8840.58
312.892	8878.94
312.958	8873.02
313.023	8868.21
313.088	8866.52
313.154	8848.38
313.219	8838.99
313.284	8828.98
313.35	8823.68
313.415	8814.35
313.48	8807.46
313.546	8809.05
313.611	8820.46
313.676	8811.26
313.741	8802.79
313.807	8810.5
313.872	8811.99
313.937	8814.25
314.003	8827.34
314.068	8826.33
314.133	8826.91
314.198	8820.22
314.264	8799.47
314.329	8797.21
314.394	8792.54
314.459	8789.89
314.525	8807.94
314.59	8806.26
314.655	8794.71
314.72	8799.57
314.785	8806.16
314.851	8801.16
314.916	8785.32
314.981	8771.6
315.046	8762.65
315.111	8752.59
315.176	8736.18
315.242	8740.22
315.307	8732.76
315.372	8708.5
315.437	8702.48
315.502	8690.11
315.567	8699.02
315.632	8683.52
315.698	8676.35
315.763	8670.38
315.828	8661.72
315.893	8657.77
315.958	8651.37
316.023	8641.7
316.088	8623.79
316.153	8600.69
316.218	8597.9
316.283	8580.29
316.348	8559.46
316.413	8551.08
316.479	8534.2
316.544	8501.62
316.609	8470.68
316.674	8434.64
316.739	8400.34
316.804	8370.46
316.869	8335.82
316.934	8302.86
316.999	8276.01
317.064	8229.01
317.129	8188.74
317.194	8151.17
317.259	8097.87
317.324	8048.04
317.389	8011
317.454	7974.49
317.518	7938.8
317.583	7912.87
317.648	7892.91
317.713	7859.15
317.778	7804.9
317.843	7776.53
317.908	7743.35
317.973	7701.56
318.038	7676.46
318.103	7637.38
318.168	7609.82
318.233	7583.09
318.297	7532.37
318.362	7493.19
318.427	7453.11
318.492	7427.77
318.557	7385.96
318.622	7363.94
318.687	7341.07
318.751	7299.93
318.816	7262.43
318.881	7232.74
318.946	7174.29
319.011	7123.2
319.075	7077.95
319.14	7042.64
319.205	6998.96
319.27	6963.17
319.335	6917.87
319.399	6872.67
319.464	6845.86
319.529	6789.18
319.594	6754.21
319.658	6728.56
319.723	6684.57
319.788	6655.71
319.853	6601.88
319.917	6571.39
319.982	6514.1
320.047	6478.32
320.112	6448.03
320.176	6398.29
320.241	6364.49
320.306	6333.24
320.37	6292.83
320.435	6264.22
320.5	6237.58
320.564	6200.58
320.629	6162.72
320.694	6133.55
320.758	6097.37
320.823	6055.43
320.888	6024.78
320.952	5974.74
321.017	5931.61
321.082	5896.26
321.146	5865.32
321.211	5835.15
321.275	5790.12
321.34	5745.53
321.405	5703.86
321.469	5659.79
321.534	5621.01
321.598	5567.55
321.663	5536.57
321.727	5508.67
321.792	5460.55
321.857	5420.66
321.921	5381.69
321.986	5339.33
322.05	5283.99
322.115	5250.64
322.179	5211.69
322.244	5159.24
322.308	5125.61
322.373	5081.54
322.437	5040.88
322.502	5017.45
322.566	4971.08
322.631	4937.66
322.695	4904.29
322.76	4857.66
322.824	4820.7
322.889	4777.24
322.953	4736.28
323.018	4669.41
323.082	4606.15
323.146	4557.12
323.211	4502.9
323.275	4458.83
323.34	4414.26
323.404	4379.59
323.468	4328.92
323.533	4286.31
323.597	4246.2
323.662	4195.66
323.726	4160.27
323.79	4114.32
323.855	4044.21
323.919	3997.36
323.983	3955.3
324.048	3888
324.112	4007.61
324.177	3883.56
324.241	3681.82
324.305	3482.42
324.37	3291.24
324.434	3105.17
324.498	3064.67
324.562	3014.68
324.627	2954.51
324.691	2898.77
324.755	2835.44
324.82	2762.92
324.884	2680.55
324.948	2605.64
325.012	2511.82
325.077	2386.43
