Data from 20250702_urea_0.5M_MAYP1162681_06-34-59-761.txt Node
Date: Thu Jul 03 06:34:59 BST 2025
User: adleo
Spectrometer: MAYP116268
Trigger mode: 0
Integration Time (sec): 1.000000E0
Scans to average: 1
Electric dark correction enabled: true
Nonlinearity correction enabled: true
Boxcar width: 10
XAxis mode: Wavelengths
Number of Pixels in Spectrum: 2068
>>>>>Begin Spectral Data<<<<<
179.565	1187.09
179.642	1239.33
179.718	1280.54
179.795	1319.14
179.871	1348.27
179.948	1365.16
180.024	1384.93
180.101	1404.82
180.177	1420.32
180.254	1444.39
180.33	1467.84
180.407	1522.73
180.483	1615.75
180.56	1703.69
180.636	1785.15
180.712	1770.51
180.789	1780.54
180.865	1790.99
180.942	1797.74
181.018	1806.96
181.095	1823.36
181.171	1829.4
181.248	1829.73
181.324	1844.52
181.4	1851.84
181.477	1864.53
181.553	1877.69
181.63	1897.47
181.706	1918.25
181.782	1925.66
181.859	1925.52
181.935	1930.08
182.011	1924
182.088	1940.12
182.164	1959.52
182.24	1975.02
182.317	1985.67
182.393	1985.67
182.469	1997.36
182.546	2010.91
182.622	2019.19
182.698	2011.48
182.775	2023.09
182.851	2037.92
182.927	2032.55
183.003	2027.32
183.08	2021.9
183.156	2031.98
183.232	2030.31
183.308	2015.52
183.385	2023.84
183.461	2039.35
183.537	2038.49
183.613	2049.53
183.69	2042.01
183.766	2029.88
183.842	2038.06
183.918	2040.44
183.995	2052.66
184.071	2060.99
184.147	2055.8
184.223	2040.64
184.299	2055.29
184.375	2043.02
184.452	2049.3
184.528	2100.82
184.604	2114.99
184.68	2125.69
184.756	2132.97
184.832	2135.68
184.908	2141.48
184.985	2141.58
185.061	2124.65
185.137	2134.59
185.213	2124.22
185.289	2126.65
185.365	2119.94
185.441	2114.43
185.517	2128.89
185.593	2126.99
185.669	2120.09
185.745	2131.08
185.822	2149.43
185.898	2140.15
185.974	2151.42
186.05	2144.24
186.126	2104.13
186.202	2095.09
186.278	2092.48
186.354	2082.68
186.43	2091.01
186.506	2088.72
186.582	2086.2
186.658	2095.62
186.734	2076.17
186.81	2079.31
186.886	2081.54
186.962	2094.52
187.038	2093.24
187.114	2085.91
187.19	2089.76
187.266	2082.82
187.341	2082.34
187.417	2075.26
187.493	2076.73
187.569	2078.59
187.645	2073.36
187.721	2066.13
187.797	2073.4
187.873	2076.92
187.949	2071.26
188.025	2065.13
188.101	2068.26
188.176	2075.54
188.252	2071.21
188.328	2077.49
188.404	2077.63
188.48	2073.54
188.556	2069.64
188.632	2071.64
188.707	2074.54
188.783	2072.35
188.859	2068.03
188.935	2056.66
189.011	2064.03
189.086	2054.28
189.162	2045.15
189.238	2041.68
189.314	2038.35
189.39	2031.79
189.465	2022.61
189.541	2037.64
189.617	2022.56
189.693	2017.95
189.768	2019.38
189.844	2041.79
189.92	2034.85
189.996	2044.69
190.071	2055.35
190.147	2051.12
190.223	2056.44
190.298	2047.4
190.374	2036.23
190.45	2048.78
190.526	2061.34
190.601	2055.44
190.677	2060.2
190.753	2088.41
190.828	2093.31
190.904	2107.63
190.98	2124.38
191.055	2137.79
191.131	2130.75
191.207	2151.44
191.282	2163.66
191.358	2156.96
191.433	2143.87
191.509	2157.99
191.585	2154.8
191.66	2153.18
191.736	2162.36
191.811	2155.47
191.887	2172.17
191.963	2195.53
192.038	2197.29
192.114	2194.91
192.189	2198.52
192.265	2195.38
192.34	2173.82
192.416	2172.92
192.491	2170.97
192.567	2173.4
192.642	2174.35
192.718	2174.82
192.793	2161.22
192.869	2155.18
192.944	2154.75
193.02	2158.46
193.095	2162.36
193.171	2163.5
193.246	2165.17
193.322	2160.98
193.397	2161.31
193.473	2145.99
193.548	2127.2
193.624	2134.95
193.699	2133.81
193.775	2150.28
193.85	2151.18
193.925	2159.74
194.001	2160.27
194.076	2150.18
194.152	2138.95
194.227	2130.25
194.302	2121.45
194.378	2125.06
194.453	2121.64
194.529	2135.67
194.604	2123.4
194.679	2114.51
194.755	2098.77
194.83	2109.95
194.905	2107.81
194.981	2115.47
195.056	2108.38
195.131	2115.14
195.207	2115.14
195.282	2106.67
195.357	2086.54
195.433	2103.05
195.508	2090.63
195.583	2095.68
195.659	2110.52
195.734	2117.23
195.809	2119.56
195.884	2128.88
195.96	2132.11
196.035	2146.91
196.11	2142.1
196.185	2156.04
196.261	2164.32
196.336	2195.43
196.411	2181.91
196.486	2189.95
196.561	2184.67
196.637	2193.56
196.712	2207.7
196.787	2209.13
196.862	2222.21
196.937	2231.01
197.013	2236.2
197.088	2250.61
197.163	2273.41
197.238	2289.51
197.313	2288.8
197.388	2303.41
197.464	2330.73
197.539	2338.39
197.614	2333.3
197.689	2346.63
197.764	2363.44
197.839	2379.52
197.914	2374
197.989	2394.75
198.065	2407.56
198.14	2457.96
198.215	2484.71
198.29	2497.71
198.365	2507.62
198.44	2519.14
198.515	2548.71
198.59	2562.23
198.665	2587.86
198.74	2592.29
198.815	2593.58
198.89	2617.48
198.965	2646.98
199.04	2642.93
199.115	2660.83
199.19	2702.79
199.265	2703.7
199.34	2710.56
199.415	2744.21
199.49	2768.55
199.565	2778.89
199.64	2802
199.715	2800.18
199.79	2807.57
199.865	2813.33
199.94	2814.05
200.015	2845.93
200.09	2848.79
200.165	2857.32
200.24	2864.62
200.315	2908.55
200.39	2926.57
200.464	2931.38
200.539	2930.09
200.614	2947.1
200.689	2973.23
200.764	2977.71
200.839	2998.58
200.914	3003.97
200.989	2996.38
201.063	3003.06
201.138	2987.77
201.213	2987
201.288	2966.12
201.363	2972.13
201.438	2973.8
201.512	2989.57
201.587	2971.88
201.662	2977.41
201.737	2986.95
201.812	2992.43
201.886	2959.41
201.961	2968.19
202.036	2956.42
202.111	2954.37
202.186	2923.65
202.26	2906.29
202.335	2884.5
202.41	2877.07
202.485	2860.87
202.559	2839.76
202.634	2817.74
202.709	2827.22
202.784	2809.49
202.858	2807.3
202.933	2786.76
203.008	2775.23
203.082	2753.75
203.157	2753.13
203.232	2711.03
203.306	2694.49
203.381	2661.84
203.456	2636.88
203.53	2613.04
203.605	2595.76
203.68	2574.17
203.754	2570.08
203.829	2552.5
203.904	2536.69
203.978	2524.59
204.053	2528.3
204.127	2513.59
204.202	2512.16
204.277	2493.83
204.351	2487.26
204.426	2482.02
204.5	2473.59
204.575	2444.08
204.65	2456.23
204.724	2449.65
204.799	2457.65
204.873	2450.6
204.948	2448.88
205.022	2439.98
205.097	2431.69
205.171	2441.78
205.246	2449.31
205.32	2447.45
205.395	2446.79
205.469	2435.46
205.544	2440.99
205.618	2424.99
205.693	2437.99
205.767	2424.42
205.842	2445.8
205.916	2441.42
205.991	2431.85
206.065	2437.61
206.14	2454.31
206.214	2448.41
206.289	2441.12
206.363	2455.64
206.438	2458.4
206.512	2469.69
206.586	2488.21
206.661	2498.45
206.735	2478.18
206.81	2476.37
206.884	2494.55
206.958	2481.61
207.033	2499.98
207.107	2509.56
207.181	2537.61
207.256	2531.47
207.33	2552.84
207.405	2566.72
207.479	2589.05
207.553	2595.86
207.628	2582.63
207.702	2594.25
207.776	2589.91
207.851	2594.91
207.925	2611.45
207.999	2609.97
208.073	2605.83
208.148	2607.26
208.222	2596.3
208.296	2634.48
208.371	2659.22
208.445	2673.09
208.519	2711.62
208.593	2727.68
208.668	2729.54
208.742	2741.22
208.816	2755.94
208.89	2777.39
208.965	2783.3
209.039	2798.37
209.113	2829.06
209.187	2860.25
209.261	2869.16
209.336	2904.34
209.41	2936.51
209.484	2954.4
209.558	2994.93
209.632	3027.77
209.707	3062.91
209.781	3108.26
209.855	3143.23
209.929	3181.67
210.003	3215.06
210.077	3239.11
210.151	3315.65
210.226	3377.1
210.3	3434.75
210.374	3485.56
210.448	3522.7
210.522	3566.73
210.596	3607.6
210.67	3654.64
210.744	3742.77
210.818	3810.7
210.892	3869.85
210.966	3906.67
211.041	3962.86
211.115	4003.33
211.189	4071.34
211.263	4136.48
211.337	4189.16
211.411	4257.12
211.485	4305.15
211.559	4364.54
211.633	4417.84
211.707	4441.48
211.781	4504.82
211.855	4530.23
211.929	4582.51
212.003	4623.84
212.077	4694.89
212.151	4770.19
212.225	4840.28
212.299	4891.84
212.373	4946.36
212.447	5009.89
212.52	5101.69
212.594	5174.76
212.668	5258.45
212.742	5320.22
212.816	5381.38
212.89	5450.1
212.964	5519.59
213.038	5595.65
213.112	5690.32
213.186	5780.36
213.26	5835.73
213.333	5868.87
213.407	5947.8
213.481	6024.95
213.555	6112.99
213.629	6175.48
213.703	6242.96
213.777	6321.74
213.85	6383.28
213.924	6497.7
213.998	6576.79
214.072	6656.29
214.146	6724.73
214.219	6796.39
214.293	6867.9
214.367	6951.49
214.441	7037.15
214.515	7105.82
214.588	7161.42
214.662	7203.47
214.736	7260.27
214.81	7343.33
214.883	7427.8
214.957	7497.2
215.031	7567.76
215.105	7624.94
215.178	7693.36
215.252	7762.75
215.326	7815.21
215.4	7870.27
215.473	7901.05
215.547	7958.2
215.621	8018.29
215.694	8095.56
215.768	8153.24
215.842	8215.97
215.915	8278.23
215.989	8326.49
216.063	8391.42
216.136	8463.26
216.21	8535.49
216.284	8623.13
216.357	8703.64
216.431	8770.3
216.504	8844.81
216.578	8940.03
216.652	9026.57
216.725	9101.43
216.799	9180.93
216.873	9253.82
216.946	9334.12
217.02	9398.54
217.093	9469.03
217.167	9516.22
217.24	9571.22
217.314	9630.4
217.387	9698.88
217.461	9755.23
217.535	9843.04
217.608	9894.53
217.682	9966.16
217.755	10043.81
217.829	10101.04
217.902	10166.36
217.976	10238.38
218.049	10302.98
218.123	10345.96
218.196	10414.42
218.27	10468.58
218.343	10524.13
218.417	10590.87
218.49	10656.88
218.563	10739.56
218.637	10804.42
218.71	10899.21
218.784	10970.24
218.857	11055.53
218.931	11126.8
219.004	11192.96
219.077	11255.71
219.151	11332
219.224	11387.23
219.298	11451.38
219.371	11524.01
219.444	11574.48
219.518	11642.05
219.591	11705.09
219.665	11808.77
219.738	11873.64
219.811	11933.89
219.885	12010.05
219.958	12084.38
220.031	12139.37
220.105	12205.12
220.178	12273.38
220.251	12328.23
220.325	12399.62
220.398	12458.38
220.471	12525.87
220.544	12608.2
220.618	12664.21
220.691	12736.14
220.764	12800.97
220.838	12870.82
220.911	12926.55
220.984	13009.89
221.057	13073.52
221.131	13151.18
221.204	13184.01
221.277	13265.87
221.35	13359.68
221.424	13405.52
221.497	13468.57
221.57	13538.57
221.643	13602.83
221.716	13668.87
221.79	13721.22
221.863	13778.88
221.936	13838.46
222.009	13889.85
222.082	13937.81
222.155	13992.34
222.229	14058.72
222.302	14118.73
222.375	14174.46
222.448	14236.88
222.521	14298.25
222.594	14352.96
222.667	14388.06
222.74	14451.25
222.814	14499.51
222.887	14546.84
222.96	14616.93
223.033	14685.48
223.106	14745.88
223.179	14801.65
223.252	14850.43
223.325	14906.88
223.398	14951.42
223.471	15003.87
223.544	15062.58
223.617	15120.13
223.69	15180.1
223.763	15210.95
223.837	15267.3
223.91	15314.29
223.983	15345.09
224.056	15377.87
224.129	15421.45
224.202	15476.97
224.275	15506.72
224.348	15535.49
224.42	15569.28
224.493	15590.3
224.566	15613.48
224.639	15655.17
224.712	15683.85
224.785	15725.69
224.858	15762.76
224.931	15801.75
225.004	15833.71
225.077	15873.13
225.15	15894.15
225.223	15940.13
225.296	16005.44
225.369	16028.38
225.442	16056.09
225.514	16101.55
225.587	16139.24
225.66	16186.42
225.733	16230.33
225.806	16277.42
225.879	16325.86
225.952	16352.42
226.025	16409.48
226.097	16470.79
226.17	16504.67
226.243	16531.61
226.316	16571.81
226.389	16614.32
226.461	16659.04
226.534	16700.25
226.607	16725.65
226.68	16781.89
226.753	16801.36
226.825	16810.04
226.898	16860.11
226.971	16901.03
227.044	16938.29
227.117	16981.18
227.189	17022.68
227.262	17061.04
227.335	17104.32
227.407	17124.41
227.48	17167.74
227.553	17197.04
227.626	17220.41
227.698	17252.9
227.771	17289.67
227.844	17307.45
227.916	17343.02
227.989	17356.51
228.062	17384.75
228.134	17450.68
228.207	17468.13
228.28	17496.13
228.352	17527.45
228.425	17557.33
228.498	17588.08
228.57	17616.99
228.643	17652.7
228.716	17671.21
228.788	17684.95
228.861	17693.91
228.934	17733.33
229.006	17748.94
229.079	17771.45
229.151	17786.15
229.224	17797.14
229.296	17834.82
229.369	17891.49
229.442	17924.94
229.514	17942
229.587	17979.68
229.659	17973.27
229.732	18009.27
229.804	18046.91
229.877	18092.84
229.949	18124.64
230.022	18171.53
230.094	18195.29
230.167	18215.29
230.239	18226.08
230.312	18256.54
230.384	18301.31
230.457	18326.22
230.529	18359.86
230.602	18389.3
230.674	18414.56
230.747	18451.81
230.819	18479.71
230.892	18466.17
230.964	18490.17
231.037	18526.41
231.109	18543.13
231.181	18580.14
231.254	18595.61
231.326	18612.86
231.399	18628.38
231.471	18643.03
231.544	18629.44
231.616	18655.31
231.688	18674.35
231.761	18693.53
231.833	18705.77
231.905	18702.35
231.978	18717.96
232.05	18726.88
232.122	18734.3
232.195	18737.62
232.267	18762.1
232.339	18763.84
232.412	18796.32
232.484	18797.72
232.556	18802.1
232.629	18837.18
232.701	18849.52
232.773	18856.55
232.846	18858.15
232.918	18857.37
232.99	18867.64
233.062	18895.15
233.135	18903.64
233.207	18896.99
233.279	18912.6
233.351	18928.84
233.424	18938.28
233.496	18928.07
233.568	18951.49
233.64	18953.51
233.713	18961.51
233.785	18959.05
233.857	18971.29
233.929	18958.33
234.001	18983.73
234.074	19007.2
234.146	18978.23
234.218	18983.53
234.29	18985.32
234.362	18987.68
234.434	18982.81
234.507	18962.96
234.579	18937.27
234.651	18927.1
234.723	18934.96
234.795	18937.18
234.867	18932.84
234.939	18941.61
235.012	18956.4
235.084	18958.96
235.156	18956.55
235.228	18947.3
235.3	18940.45
235.372	18941.22
235.444	18949.8
235.516	18924.84
235.588	18918.91
235.66	18920.94
235.732	18889.32
235.804	18935.35
235.876	18935.49
235.948	18940.5
236.02	18943.15
236.092	18936.65
236.164	18940.84
236.236	18931.25
236.308	18915.97
236.38	18907.01
236.452	18881.23
236.524	18864.84
236.596	18864.22
236.668	18859.4
236.74	18841.23
236.812	18826.44
236.884	18809.47
236.956	18791.45
237.028	18764.85
237.1	18737.24
237.172	18739.07
237.244	18750.83
237.316	18707.89
237.388	18686.83
237.46	18671.89
237.532	18670.74
237.604	18661.82
237.675	18654.74
237.747	18651.46
237.819	18631.17
237.891	18616.76
237.963	18601.15
238.035	18581.63
238.107	18527.51
238.178	18528.04
238.25	18524.38
238.322	18532.04
238.394	18498.89
238.466	18475.81
238.538	18468.53
238.609	18457.83
238.681	18421.83
238.753	18401.69
238.825	18369.45
238.897	18349.5
238.968	18341.79
239.04	18312.44
239.112	18312.83
239.184	18270.32
239.255	18242.66
239.327	18224.54
239.399	18206.04
239.471	18193.22
239.542	18170.76
239.614	18168.79
239.686	18121.61
239.758	18104.88
239.829	18077.27
239.901	18068.12
239.973	18059.25
240.044	18035.39
240.116	18014.62
240.188	17987.2
240.259	17950.43
240.331	17923.83
240.403	17910.34
240.474	17864.7
240.546	17826.53
240.618	17778.68
240.689	17759.26
240.761	17733.62
240.833	17722.01
240.904	17695.26
240.976	17666.92
241.048	17652.8
241.119	17627.69
241.191	17604.46
241.262	17595.12
241.334	17559.41
241.405	17537.82
241.477	17495.89
241.549	17466.06
241.62	17436.13
241.692	17416.08
241.763	17403.55
241.835	17376.76
241.906	17347.89
241.978	17310.97
242.049	17305.04
242.121	17290.25
242.192	17276.66
242.264	17236.32
242.335	17194.63
242.407	17168.56
242.478	17133.47
242.55	17103.26
242.621	17073.47
242.693	17044.12
242.764	17008.8
242.836	16973.18
242.907	16944.51
242.979	16923.49
243.05	16898.91
243.122	16873.27
243.193	16839.44
243.264	16787.73
243.336	16760.74
243.407	16737.89
243.479	16723.19
243.55	16691.72
243.622	16664.83
243.693	16630.51
243.764	16619.62
243.836	16578.94
243.907	16545.64
243.978	16514.36
244.05	16489.68
244.121	16442.88
244.192	16423.36
244.264	16374.39
244.335	16353.43
244.407	16315.59
244.478	16297.76
244.549	16261.81
244.62	16228.74
244.692	16209.95
244.763	16197.41
244.834	16169.7
244.906	16131.29
244.977	16113.74
245.048	16095.91
245.119	16062.46
245.191	16025.06
245.262	15975.7
245.333	15968.71
245.405	15941.19
245.476	15927.84
245.547	15897.96
245.618	15884.17
245.689	15857.66
245.761	15836.02
245.832	15809.85
245.903	15781.22
245.974	15746.71
246.045	15718.89
246.117	15702.79
246.188	15654.64
246.259	15612.8
246.33	15576.85
246.401	15541.8
246.473	15491.67
246.544	15461.41
246.615	15441.45
246.686	15406.02
246.757	15393.44
246.828	15348.56
246.899	15336.71
246.97	15288.41
247.042	15257.66
247.113	15235.39
247.184	15234.28
247.255	15202.37
247.326	15168.19
247.397	15136.47
247.468	15106.2
247.539	15072.32
247.61	15023.82
247.681	15012.5
247.752	14994.61
247.823	14955.62
247.894	14932.24
247.965	14897.14
248.037	14860.65
248.108	14813.56
248.179	14781.41
248.25	14749.88
248.321	14733.15
248.392	14686.88
248.463	14682.97
248.534	14648.75
248.605	14625.03
248.675	14579.63
248.746	14548.29
248.817	14529.35
248.888	14518.7
248.959	14471.65
249.03	14459.6
249.101	14430.86
249.172	14393.17
249.243	14347.37
249.314	14341.2
249.385	14313.73
249.456	14295.36
249.527	14268.32
249.598	14253.18
249.669	14231.73
249.739	14204.92
249.81	14186.22
249.881	14152.38
249.952	14120.23
250.023	14091.74
250.094	14050.38
250.165	14010.08
250.235	13987.08
250.306	13964.52
250.377	13918.29
250.448	13897.66
250.519	13848.3
250.59	13840.92
250.66	13815.81
250.731	13800.52
250.802	13762.87
250.873	13747.64
250.944	13718.57
251.014	13682.51
251.085	13680.3
251.156	13663.38
251.227	13648.82
251.297	13629.87
251.368	13610.4
251.439	13599.6
251.51	13589.67
251.58	13554.77
251.651	13529.8
251.722	13519.48
251.792	13466.02
251.863	13438.54
251.934	13437.67
252.005	13449
252.075	13421.62
252.146	13406.48
252.217	13398.96
252.287	13394.38
252.358	13363.39
252.429	13365.22
252.499	13331.23
252.57	13300.24
252.641	13283.85
252.711	13264.18
252.782	13217.76
252.852	13217.51
252.923	13188.06
252.994	13161.74
253.064	13152.63
253.135	13118.45
253.205	13082.2
253.276	13080.17
253.347	13074.34
253.417	13040.65
253.488	13008.78
253.558	12983.52
253.629	12959.76
253.699	12940.23
253.77	12917.53
253.841	12894.48
253.911	12869.08
253.982	12861.42
254.052	12847.97
254.123	12822.85
254.193	12796.53
254.264	12822.9
254.334	12786.74
254.405	12750.74
254.475	12712.94
254.546	12690.91
254.616	12685.51
254.687	12677.27
254.757	12660.35
254.827	12636.59
254.898	12621.45
254.968	12596.19
255.039	12574.74
255.109	12557.87
255.18	12524.46
255.25	12486.48
255.321	12476.74
255.391	12445.07
255.461	12438.37
255.532	12384.53
255.602	12367.22
255.673	12324.37
255.743	12280.74
255.813	12231.82
255.884	12224.83
255.954	12214.46
256.024	12207.91
256.095	12190.75
256.165	12151.61
256.235	12135.6
256.306	12108.8
256.376	12094.87
256.446	12082.92
256.517	12068.6
256.587	12059.93
256.657	12040.12
256.728	12013.75
256.798	11986.42
256.868	11961.21
256.938	11937.59
257.009	11936.63
257.079	11923.42
257.149	11935.09
257.219	11902.84
257.29	11894.55
257.36	11861.53
257.43	11862.45
257.5	11818.3
257.571	11790.82
257.641	11785.86
257.711	11756.65
257.781	11748.99
257.852	11736.94
257.922	11698.96
257.992	11671.92
258.062	11650.23
258.132	11639.67
258.202	11620.68
258.273	11608.01
258.343	11607.14
258.413	11577.74
258.483	11559.62
258.553	11521.15
258.623	11493.68
258.693	11479.85
258.764	11482.11
258.834	11482.4
258.904	11455.12
258.974	11437.24
259.044	11414.83
259.114	11399.89
259.184	11381.63
259.254	11357.43
259.324	11320.71
259.394	11311.07
259.464	11317.72
259.535	11296.61
259.605	11276.46
259.675	11259.65
259.745	11242.68
259.815	11215.26
259.885	11191.98
259.955	11198.01
260.025	11178.25
260.095	11155.94
260.165	11139.36
260.235	11131.55
260.305	11096.85
260.375	11070.88
260.445	11069.14
260.515	11068.9
260.585	11066.2
260.655	11054.59
260.725	11046.01
260.795	11037.91
260.865	11040.81
260.934	11009
261.004	10996.37
261.074	10979.8
261.144	10976.57
261.214	10971.36
261.284	10951.89
261.354	10950.74
261.424	10923.46
261.494	10923.36
261.564	10903.56
261.634	10897.92
261.703	10863.85
261.773	10854.5
261.843	10842.65
261.913	10829.4
261.983	10799.62
262.053	10783.67
262.123	10765.12
262.192	10738.18
262.262	10726.42
262.332	10697.7
262.402	10692.6
262.472	10678.24
262.541	10644.32
262.611	10638.49
262.681	10609.43
262.751	10607.12
262.821	10588.71
262.89	10561.49
262.96	10552.77
263.03	10559.42
263.1	10549.25
263.169	10531.09
263.239	10527.57
263.309	10528.68
263.379	10518.13
263.448	10505.6
263.518	10485.36
263.588	10467.1
263.657	10469.41
263.727	10464.02
263.797	10452.65
263.867	10434.92
263.936	10411.02
264.006	10404.23
264.076	10387.08
264.145	10377.25
264.215	10351.18
264.285	10340.63
264.354	10311.63
264.424	10291.4
264.494	10260.8
264.563	10233.63
264.633	10242.93
264.702	10224.72
264.772	10193.4
264.842	10169.07
264.911	10161.27
264.981	10139.73
265.05	10127.64
265.12	10114.35
265.19	10097.77
265.259	10084
265.329	10074.84
265.398	10061.02
265.468	10083.27
265.537	10058.85
265.607	10047.34
265.676	10040.06
265.746	10032.84
265.815	10033.95
265.885	10018.97
265.955	9994.54
266.024	9981.25
266.094	9946.04
266.163	9951.05
266.232	9954.37
266.302	9942.86
266.371	9931.97
266.441	9916.95
266.51	9915.21
266.58	9886.75
266.649	9865.84
266.719	9865.41
266.788	9856.54
266.858	9863.34
266.927	9819.26
266.996	9818.49
267.066	9807.85
267.135	9788.72
267.205	9785.83
267.274	9769.89
267.343	9772.88
267.413	9762.72
267.482	9761.61
267.552	9766.81
267.621	9734.01
267.69	9705.21
267.76	9698.18
267.829	9693.6
267.898	9688.11
267.968	9664.03
268.037	9668.51
268.106	9670.34
268.176	9644.67
268.245	9627.38
268.314	9603.1
268.384	9601.03
268.453	9580.13
268.522	9568.33
268.592	9567.9
268.661	9542.85
268.73	9530.77
268.799	9503.41
268.869	9511.31
268.938	9481.94
269.007	9460.84
269.076	9452.18
269.146	9453.23
269.215	9450.63
269.284	9452.18
269.353	9433.83
269.422	9420.49
269.492	9402.96
269.561	9360.69
269.63	9356.06
269.699	9339.79
269.768	9331.84
269.838	9327.94
269.907	9331.36
269.976	9307.38
270.045	9276.86
270.114	9272.86
270.183	9266.02
270.253	9266.07
270.322	9232.08
270.391	9229.48
270.46	9229.53
270.529	9230.15
270.598	9230.01
270.667	9209.01
270.736	9181.81
270.806	9172.76
270.875	9171.55
270.944	9161.59
271.013	9180.75
271.082	9171.94
271.151	9164.28
271.22	9136.89
271.289	9127.84
271.358	9116.38
271.427	9112.09
271.496	9109.64
271.565	9100.59
271.634	9092.69
271.703	9090.81
271.772	9101.21
271.841	9086.67
271.91	9069.58
271.979	9059.37
272.048	9031.59
272.117	9032.31
272.186	9018.98
272.255	9023.7
272.324	9026.01
272.393	9020.47
272.462	9008.92
272.531	9005.21
272.6	8998.61
272.669	9009.16
272.738	8997.22
272.807	8987.44
272.876	8965.21
272.945	8987.21
273.013	8988.27
273.082	8989.76
273.151	8969.35
273.22	8963.86
273.289	8956.3
273.358	8965.93
273.427	8954.48
273.496	8957.65
273.564	8955.68
273.633	8958.09
273.702	8937.77
273.771	8924.15
273.84	8915.1
273.909	8907.35
273.977	8903.79
274.046	8894.21
274.115	8893.97
274.184	8871.44
274.253	8870.09
274.322	8886.12
274.39	8849.73
274.459	8829.27
274.528	8798.9
274.597	8790.38
274.665	8781.14
274.734	8786.53
274.803	8773.39
274.872	8767.03
274.94	8743.69
275.009	8776.53
275.078	8763.77
275.147	8759.44
275.215	8754.24
275.284	8766.09
275.353	8760.93
275.421	8735.09
275.49	8750.78
275.559	8742.89
275.627	8740.19
275.696	8721.76
275.765	8721.52
275.833	8719.3
275.902	8713.62
275.971	8725.03
276.039	8737.59
276.108	8741.88
276.177	8739.71
276.245	8725.03
276.314	8719.21
276.383	8732.44
276.451	8692.14
276.52	8689.11
276.588	8700.03
276.657	8707.83
276.725	8691.42
276.794	8682.8
276.863	8690.65
276.931	8659.07
277	8660.37
277.068	8669.37
277.137	8693.15
277.205	8689.44
277.274	8707.3
277.342	8722.65
277.411	8707.78
277.48	8694.5
277.548	8686.41
277.617	8681.79
277.685	8675.44
277.754	8675.44
277.822	8658.84
277.89	8669.33
277.959	8659.51
278.027	8639.01
278.096	8624.09
278.164	8651
278.233	8645.51
278.301	8640.8
278.37	8650.42
278.438	8634.83
278.507	8643.59
278.575	8617.74
278.643	8611.49
278.712	8592.81
278.78	8569.23
278.849	8575.82
278.917	8588.38
278.985	8584.24
279.054	8595.27
279.122	8613.6
279.191	8618.27
279.259	8622.36
279.327	8600.41
279.396	8622.74
279.464	8619.47
279.532	8626.5
279.601	8624.91
279.669	8630.64
279.737	8641.75
279.806	8641.37
279.874	8657.78
279.942	8650.08
280.011	8643.44
280.079	8648.25
280.147	8665.58
280.215	8674.34
280.284	8668.99
280.352	8653.69
280.42	8660.43
280.488	8649.31
280.557	8643.77
280.625	8637.18
280.693	8634.58
280.761	8634.77
280.83	8614.51
280.898	8630.39
280.966	8613.93
281.034	8579.47
281.102	8560.8
281.171	8549.92
281.239	8559.79
281.307	8548.67
281.375	8540.88
281.443	8563.64
281.512	8563.83
281.58	8565.47
281.648	8548
281.716	8546.8
281.784	8545.79
281.852	8539.53
281.92	8534.34
281.989	8536.69
282.057	8522.16
282.125	8569.43
282.193	8566.64
282.261	8563.42
282.329	8555.72
282.397	8557.83
282.465	8561.06
282.533	8577.47
282.601	8567.22
282.67	8544.36
282.738	8535.02
282.806	8543.2
282.874	8529.77
282.942	8528.67
283.01	8525.68
283.078	8539.59
283.146	8543.05
283.214	8555.33
283.282	8557.11
283.35	8569.04
283.418	8563.22
283.486	8567.89
283.554	8516.28
283.622	8514.89
283.69	8519.56
283.758	8516.86
283.826	8519.6
283.894	8529.08
283.962	8544.87
284.03	8559.6
284.098	8559.5
284.165	8553.05
284.233	8548.96
284.301	8542.76
284.369	8532.17
284.437	8520.09
284.505	8511.57
284.573	8522.54
284.641	8505.07
284.709	8510.8
284.777	8495.11
284.845	8500.6
284.912	8506.32
284.98	8517.87
285.048	8514.22
285.116	8518.16
285.184	8530.82
285.252	8536.4
285.319	8518.65
285.387	8503.92
285.455	8487.36
285.523	8499.1
285.591	8498.43
285.659	8499.54
285.726	8512.72
285.794	8502.81
285.862	8507.72
285.93	8505.6
285.997	8496.65
286.065	8491.5
286.133	8482.79
286.201	8481.16
286.269	8470.81
286.336	8463.88
286.404	8458.64
286.472	8469.75
286.539	8448.29
286.607	8430.34
286.675	8428.42
286.743	8433.13
286.81	8435.06
286.878	8450.12
286.946	8441.07
287.013	8441.51
287.081	8439.34
287.149	8423.75
287.216	8442.27
287.284	8434.67
287.352	8439.96
287.419	8442.13
287.487	8458.92
287.555	8460.85
287.622	8455.89
287.69	8460.71
287.758	8471.24
287.825	8468.79
287.893	8452.67
287.96	8461.14
288.028	8475.76
288.096	8478.17
288.163	8486.54
288.231	8472.83
288.298	8464.46
288.366	8474.85
288.433	8471.87
288.501	8467.97
288.569	8470.71
288.636	8464.36
288.704	8482.31
288.771	8483.52
288.839	8476.06
288.906	8473.55
288.974	8486.65
289.041	8485.59
289.109	8474.9
289.176	8487.66
289.244	8485.35
289.311	8504.79
289.379	8513.12
289.446	8515.76
289.514	8514.22
289.581	8512.49
289.649	8514.99
289.716	8523.65
289.783	8516.92
289.851	8539.44
289.918	8532.75
289.986	8552.14
290.053	8553.92
290.121	8541.02
290.188	8547.38
290.255	8573.7
290.323	8564.94
290.39	8555.56
290.458	8562.44
290.525	8577.02
290.592	8569.94
290.66	8576.25
290.727	8570.66
290.794	8586.02
290.862	8582.89
290.929	8584.28
290.996	8581.54
291.064	8594.05
291.131	8601.51
291.198	8611.67
291.266	8606.04
291.333	8614.7
291.4	8610.41
291.468	8630.24
291.535	8628.85
291.602	8629.52
291.669	8620.91
291.737	8627.6
291.804	8629.91
291.871	8646.56
291.938	8654.93
292.006	8685.16
292.073	8696.57
292.14	8702.15
292.207	8701.05
292.275	8699.31
292.342	8709.95
292.409	8734.74
292.476	8761.31
292.543	8755.97
292.611	8760.97
292.678	8778.93
292.745	8802.56
292.812	8811.75
292.879	8809.34
292.946	8814.54
293.014	8828.07
293.081	8836.2
293.148	8846.93
293.215	8861.71
293.282	8860.75
293.349	8873.51
293.416	8845.73
293.484	8857.28
293.551	8872.25
293.618	8881.59
293.685	8912.4
293.752	8911.53
293.819	8911.97
293.886	8898.78
293.953	8907.1
294.02	8916.63
294.087	8924.29
294.154	8918.8
294.221	8935.27
294.288	8935.12
294.356	8951.87
294.423	8961.21
294.49	8948.55
294.557	8966.51
294.624	8956.83
294.691	8974.02
294.758	8970.84
294.825	8983.5
294.892	8977.92
294.959	8977.68
295.026	8990.19
295.093	8977.53
295.16	8980.51
295.226	8984.75
295.293	9005.26
295.36	9009.5
295.427	9019.7
295.494	9030.01
295.561	9041.71
295.628	9067.95
295.695	9073.15
295.762	9080.56
295.829	9091.21
295.896	9119.85
295.963	9126.97
296.03	9140.98
296.096	9147.77
296.163	9157.59
296.23	9170.93
296.297	9185.28
296.364	9181.09
296.431	9178.82
296.498	9179.98
296.564	9203.52
296.631	9205.88
296.698	9188.6
296.765	9204.97
296.832	9196.11
296.899	9182
296.965	9199.72
297.032	9174.24
297.099	9203.13
297.166	9212.33
297.233	9207.71
297.299	9191.2
297.366	9191.29
297.433	9192.64
297.5	9199.96
297.566	9201.31
297.633	9205.64
297.7	9203.47
297.767	9203.71
297.833	9213.87
297.9	9210.31
297.967	9192.31
298.033	9208.2
298.1	9241.08
298.167	9238.77
298.234	9242.62
298.3	9253.41
298.367	9245.22
298.434	9252.93
298.5	9243.1
298.567	9238.53
298.634	9236.27
298.7	9262.36
298.767	9259.23
298.834	9276.47
298.9	9269.78
298.967	9262.02
299.033	9263.47
299.1	9278.78
299.167	9292.45
299.233	9286
299.3	9306.61
299.366	9320.18
299.433	9330.64
299.5	9306.46
299.566	9311.28
299.633	9327.36
299.699	9340.36
299.766	9336.17
299.832	9337.23
299.899	9341.71
299.965	9346.52
300.032	9346.04
300.099	9353.22
300.165	9366.46
300.232	9354.42
300.298	9359.67
300.365	9377.63
300.431	9384.95
300.498	9384.32
300.564	9393.43
300.631	9406.86
300.697	9418.03
300.763	9419.28
300.83	9410.62
300.896	9423.91
300.963	9426.12
301.029	9434.5
301.096	9440.95
301.162	9450.44
301.229	9453.47
301.295	9446.25
301.361	9451.26
301.428	9452.94
301.494	9437.58
301.561	9440.33
301.627	9447.26
301.693	9451.45
301.76	9455.25
301.826	9446.54
301.892	9459.06
301.959	9460.84
302.025	9462.09
302.092	9459.59
302.158	9469.89
302.224	9474.23
302.291	9468.21
302.357	9472.4
302.423	9464.12
302.49	9455.64
302.556	9471.77
302.622	9470.57
302.688	9487.91
302.755	9504.57
302.821	9515.93
302.887	9526.04
302.954	9521.37
303.02	9531.15
303.086	9537.27
303.152	9527.92
303.219	9526.86
303.285	9525.32
303.351	9536.3
303.417	9533.22
303.483	9516.8
303.55	9506.83
303.616	9507.75
303.682	9505
303.748	9498.55
303.815	9513.19
303.881	9519.88
303.947	9504.71
304.013	9508.52
304.079	9495.08
304.145	9470.19
304.212	9465.9
304.278	9458.48
304.344	9457.71
304.41	9442.74
304.476	9430.7
304.542	9429.69
304.608	9433.73
304.674	9422.75
304.741	9411.53
304.807	9416.39
304.873	9423.81
304.939	9440.91
305.005	9421.02
305.071	9421.21
305.137	9422.56
305.203	9398.91
305.269	9393.76
305.335	9410.23
305.401	9404.79
305.467	9401.75
305.533	9411.05
305.599	9421.88
305.666	9431.32
305.732	9435.99
305.798	9450.58
305.864	9479.19
305.93	9482.66
305.996	9481.98
306.062	9475.92
306.128	9478.42
306.194	9462.24
306.259	9465.32
306.325	9452.03
306.391	9465.08
306.457	9476.06
306.523	9472.98
306.589	9494.6
306.655	9490.07
306.721	9466.91
306.787	9453.81
306.853	9474.33
306.919	9459.88
306.985	9452.56
307.051	9441.92
307.117	9435.32
307.183	9425.74
307.248	9394.49
307.314	9399.88
307.38	9400.31
307.446	9410.91
307.512	9401.9
307.578	9410.09
307.644	9403.97
307.709	9407.49
307.775	9399.88
307.841	9389.81
307.907	9398
307.973	9380.28
308.039	9377.24
308.104	9386.49
308.17	9387.6
308.236	9363.18
308.302	9367.51
308.368	9355.38
308.433	9355.72
308.499	9341.71
308.565	9331.31
308.631	9334.29
308.696	9312.19
308.762	9298.32
308.828	9290.91
308.894	9273.81
308.959	9253.54
309.025	9241.75
309.091	9235.01
309.156	9228.31
309.222	9232.84
309.288	9214.35
309.354	9192.4
309.419	9191.1
309.485	9173.76
309.551	9179.93
309.616	9160.81
309.682	9156.72
309.748	9147.62
309.813	9141.89
309.879	9136.31
309.945	9125.96
310.01	9113.53
310.076	9115.07
310.141	9110.31
310.207	9096.59
310.273	9101.16
310.338	9107.13
310.404	9092.59
310.469	9081.23
310.535	9074.68
310.601	9050.17
310.666	9057.25
310.732	9071.55
310.797	9060.91
310.863	9051.47
310.928	9043.67
310.994	9059.61
311.059	9054.17
311.125	9052.68
311.191	9064.38
311.256	9053.59
311.322	9053.83
311.387	9037.76
311.453	9358
311.518	9333.41
311.584	9334.13
311.649	9333.79
311.715	9317.04
311.78	9323.25
311.846	9316.03
311.911	9323.68
311.976	9327.39
312.042	9311.26
312.107	9287.24
312.173	9277.42
312.238	9272.37
312.304	9264.23
312.369	9247.77
312.434	9234.82
312.5	9225.57
312.565	9192.6
312.631	9195
312.696	9191.06
312.761	9192.31
312.827	8859.06
312.892	8900.17
312.958	8897.62
313.023	8898.15
313.088	8901.23
313.154	8885.3
313.219	8874.81
313.284	8866.05
313.35	8859.5
313.415	8849.58
313.48	8850.02
313.546	8851.03
313.611	8858.01
313.676	8850.06
313.741	8841.26
313.807	8851.99
313.872	8860.08
313.937	8870.33
314.003	8877.89
314.068	8881.45
314.133	8886.94
314.198	8878.56
314.264	8860.02
314.329	8849.48
314.394	8843.85
314.459	8840.38
314.525	8861.51
314.59	8858.53
314.655	8835.62
314.72	8840.24
314.785	8846.79
314.851	8840.91
314.916	8828.59
314.981	8812.23
315.046	8804.86
315.111	8793.51
315.176	8777.67
315.242	8776.85
315.307	8768.09
315.372	8751.97
315.437	8738.92
315.502	8729.1
315.567	8738.39
315.632	8721.64
315.698	8719.04
315.763	8718.27
315.828	8708.12
315.893	8698.68
315.958	8697.05
316.023	8696.18
316.088	8682.08
316.153	8653.25
316.218	8647.09
316.283	8627.56
316.348	8608.69
316.413	8606.09
316.479	8596.9
316.544	8566.4
316.609	8534.97
316.674	8503.22
316.739	8471.56
316.804	8439.42
316.869	8408.38
316.934	8372.68
316.999	8341.11
317.064	8289.64
317.129	8241.85
317.194	8206.93
317.259	8166.85
317.324	8111.39
317.389	8066.32
317.454	8025.38
317.518	7992.14
317.583	7969.34
317.648	7948.71
317.713	7919.32
317.778	7856.75
317.843	7823.61
317.908	7790.29
317.973	7750.9
318.038	7719.07
318.103	7683.73
318.168	7651.51
318.233	7624.49
318.297	7568.87
318.362	7528.1
318.427	7492.68
318.492	7469.21
318.557	7423.26
318.622	7389.32
318.687	7371.58
318.751	7335.59
318.816	7305.3
318.881	7274.55
318.946	7218.07
319.011	7167.99
319.075	7127.91
319.14	7095.63
319.205	7052.67
319.27	7016.83
319.335	6979.6
319.399	6936.22
319.464	6903.5
319.529	6851.63
319.594	6803.68
319.658	6776.64
319.723	6742.54
319.788	6711.43
319.853	6656.91
319.917	6623.92
319.982	6573.97
320.047	6534.4
320.112	6502.62
320.176	6448.94
320.241	6415.71
320.306	6384.75
320.37	6344.09
320.435	6313.61
320.5	6284.9
320.564	6248.52
320.629	6206.44
320.694	6172.94
320.758	6134.46
320.823	6095.06
320.888	6071.02
320.952	6028.04
321.017	5993.06
321.082	5947.39
321.146	5917.03
321.211	5880.67
321.275	5842.3
321.34	5795.17
321.405	5752.53
321.469	5708.61
321.534	5666.47
321.598	5612.96
321.663	5579.49
321.727	5546.55
321.792	5495.3
321.857	5454.02
321.921	5415.58
321.986	5372.51
322.05	5313.04
322.115	5274.23
322.179	5227.23
322.244	5170.55
322.308	5133.14
322.373	5082.99
322.437	5045.72
322.502	5020.23
322.566	4974.58
322.631	4941.49
322.695	4900.8
322.76	4855.84
322.824	4822.47
322.889	4783.55
322.953	4743.11
323.018	4681.12
323.082	4621.98
323.146	4573.46
323.211	4522.21
323.275	4475.99
323.34	4435.57
323.404	4403.48
323.468	4361.57
323.533	4321.3
323.597	4277.75
323.662	4228.55
323.726	4197.75
323.79	4152.14
323.855	4083.74
323.919	4037.04
323.983	3992.57
324.048	3932.49
324.112	4080.85
324.177	3952.06
324.241	3746.78
324.305	3546.57
324.37	3349.94
324.434	3161.91
324.498	3119.95
324.562	3069.19
324.627	3012.01
324.691	2956.72
324.755	2892.07
324.82	2819.28
324.884	2742.89
324.948	2673.27
325.012	2586.03
325.077	2462.86
