Data from 20250702_urea_0.5M_MAYP1162681_16-34-59-807.txt Node
Date: Wed Jul 02 16:34:59 BST 2025
User: adleo
Spectrometer: MAYP116268
Trigger mode: 0
Integration Time (sec): 1.000000E0
Scans to average: 1
Electric dark correction enabled: true
Nonlinearity correction enabled: true
Boxcar width: 10
XAxis mode: Wavelengths
Number of Pixels in Spectrum: 2068
>>>>>Begin Spectral Data<<<<<
179.565	1125.23
179.642	1177.63
179.718	1213.13
179.795	1247.7
179.871	1277.85
179.948	1293.64
180.024	1311.74
180.101	1334.14
180.177	1346.31
180.254	1367.49
180.33	1389.08
180.407	1437.21
180.483	1523.44
180.56	1606.39
180.636	1684.58
180.712	1670.61
180.789	1680.82
180.865	1687.28
180.942	1695.79
181.018	1707.76
181.095	1719.45
181.171	1724.35
181.248	1724.49
181.324	1742.31
181.4	1749.16
181.477	1759.14
181.553	1772.3
181.63	1791.78
181.706	1807.47
181.782	1816.88
181.859	1818.02
181.935	1821.68
182.011	1816.97
182.088	1834.22
182.164	1851.34
182.24	1864.74
182.317	1873.2
182.393	1870.92
182.469	1888.08
182.546	1898.54
182.622	1901.2
182.698	1898.39
182.775	1909.18
182.851	1920.59
182.927	1910.99
183.003	1905.95
183.08	1903.62
183.156	1911.04
183.232	1908.85
183.308	1897.11
183.385	1902.76
183.461	1918.88
183.537	1920.74
183.613	1931.43
183.69	1923.59
183.766	1915.22
183.842	1919.59
183.918	1926.53
183.995	1938.89
184.071	1941.32
184.147	1938.51
184.223	1929.29
184.299	1940.42
184.375	1930.39
184.452	1940.38
184.528	1996.55
184.604	2008.01
184.68	2015.95
184.756	2024.03
184.832	2029.02
184.908	2031.92
184.985	2033.68
185.061	2016.38
185.137	2025.36
185.213	2015.86
185.289	2018.19
185.365	2010.77
185.441	2010.86
185.517	2023.19
185.593	2019.86
185.669	2017.38
185.745	2024.85
185.822	2042.49
185.898	2035.11
185.974	2044.19
186.05	2033.11
186.126	1994.15
186.202	1988.16
186.278	1986.4
186.354	1975.37
186.43	1981.6
186.506	1979.94
186.582	1978.27
186.658	1984.64
186.734	1965.96
186.81	1969.52
186.886	1970.76
186.962	1983.88
187.038	1979.6
187.114	1969.99
187.19	1977.98
187.266	1969.19
187.341	1972.04
187.417	1961.06
187.493	1961.3
187.569	1965.43
187.645	1961.87
187.721	1949.6
187.797	1956.97
187.873	1957.97
187.949	1955.3
188.025	1945.51
188.101	1951.07
188.176	1955.58
188.252	1953.35
188.328	1958.05
188.404	1956.15
188.48	1954.2
188.556	1944.46
188.632	1947.45
188.707	1953.49
188.783	1946.83
188.859	1942.65
188.935	1930.05
189.011	1939.84
189.086	1933.28
189.162	1924.77
189.238	1923.54
189.314	1921.07
189.39	1915.74
189.465	1909.99
189.541	1925.77
189.617	1915.93
189.693	1908.14
189.768	1913.04
189.844	1934.54
189.92	1927.93
189.996	1934.87
190.071	1941.86
190.147	1943.52
190.223	1950.56
190.298	1937.63
190.374	1929.17
190.45	1941.81
190.526	1951.42
190.601	1945.76
190.677	1948.04
190.753	1975.16
190.828	1977.25
190.904	1991.42
190.98	2006.16
191.055	2016.72
191.131	2008.82
191.207	2026.18
191.282	2037.3
191.358	2028.51
191.433	2016.71
191.509	2027.5
191.585	2025.26
191.66	2027.31
191.736	2033.72
191.811	2027.78
191.887	2044.76
191.963	2066.11
192.038	2067.02
192.114	2066.83
192.189	2069.77
192.265	2066.07
192.34	2042.28
192.416	2039.99
192.491	2035.05
192.567	2034.48
192.642	2037.85
192.718	2038
192.793	2026.2
192.869	2020.69
192.944	2019.83
193.02	2025.78
193.095	2032.01
193.171	2039.43
193.246	2040.33
193.322	2038.66
193.397	2036
193.473	2021.78
193.548	2004.47
193.624	2009.98
193.699	2007.42
193.775	2022.88
193.85	2024.83
193.925	2034.1
194.001	2037.14
194.076	2029.91
194.152	2020.73
194.227	2009.7
194.302	1997.34
194.378	2002.38
194.453	2001
194.529	2015.27
194.604	2002.33
194.679	1997.82
194.755	1977.71
194.83	1988.46
194.905	1987.22
194.981	1996.26
195.056	1990.32
195.131	1995.64
195.207	1993.83
195.282	1987.23
195.357	1967.2
195.433	1980.51
195.508	1970.95
195.583	1975.19
195.659	1990.64
195.734	1997.11
195.809	1998.16
195.884	2008.52
195.96	2008.57
196.035	2023.07
196.11	2016.37
196.185	2026.45
196.261	2027.54
196.336	2060.4
196.411	2045.27
196.486	2047.84
196.561	2041.94
196.637	2050.5
196.712	2066.87
196.787	2070.72
196.862	2082.94
196.937	2096.59
197.013	2101.21
197.088	2111
197.163	2133.23
197.238	2150.41
197.313	2151.84
197.388	2167.35
197.464	2195.61
197.539	2205.98
197.614	2202.75
197.689	2217.78
197.764	2232.54
197.839	2251.38
197.914	2244.24
197.989	2266.36
198.065	2279.73
198.14	2326.59
198.215	2354.29
198.29	2368.09
198.365	2382.52
198.44	2394.03
198.515	2419.65
198.59	2437.83
198.665	2461.68
198.74	2467.3
198.815	2468.59
198.89	2490.91
198.965	2518.92
199.04	2517.49
199.115	2532.68
199.19	2570.39
199.265	2569.53
199.34	2580.39
199.415	2612.45
199.49	2631.93
199.565	2639.36
199.64	2663.88
199.715	2660.88
199.79	2663.55
199.865	2665.98
199.94	2663.22
200.015	2693.9
200.09	2697.57
200.165	2700.62
200.24	2708.19
200.315	2751.68
200.39	2761.21
200.464	2766.4
200.539	2766.5
200.614	2782.46
200.689	2806.09
200.764	2812.58
200.839	2835.58
200.914	2839.06
200.989	2830.57
201.063	2844.54
201.138	2828.82
201.213	2827.06
201.288	2810.24
201.363	2817.58
201.438	2818.01
201.512	2831.34
201.587	2816.9
201.662	2818.85
201.737	2831.34
201.812	2835.87
201.886	2800.48
201.961	2815.59
202.036	2803.3
202.111	2801.4
202.186	2770.92
202.26	2752.57
202.335	2730.17
202.41	2721.07
202.485	2703.78
202.559	2687.2
202.634	2664.95
202.709	2675
202.784	2660.42
202.858	2657.47
202.933	2638.51
203.008	2635.51
203.082	2621.46
203.157	2617.08
203.232	2577.75
203.306	2557.93
203.381	2530.83
203.456	2505.74
203.53	2480.28
203.605	2460.53
203.68	2436.39
203.754	2430.39
203.829	2416.58
203.904	2397.97
203.978	2387.97
204.053	2394.16
204.127	2379.93
204.202	2376.12
204.277	2359.37
204.351	2348.94
204.426	2342.75
204.5	2337.75
204.575	2304.01
204.65	2311.87
204.724	2307.49
204.799	2319.33
204.873	2312.38
204.948	2311.05
205.022	2303.48
205.097	2298.01
205.171	2313.04
205.246	2322.19
205.32	2322.09
205.395	2321.9
205.469	2314.38
205.544	2318.53
205.618	2303.44
205.693	2314.91
205.767	2303.77
205.842	2326.19
205.916	2321.86
205.991	2316.3
206.065	2320.34
206.14	2333.75
206.214	2329.18
206.289	2322.66
206.363	2332.42
206.438	2340.27
206.512	2347.41
206.586	2367.4
206.661	2377.12
206.735	2357.99
206.81	2362.52
206.884	2378.74
206.958	2370.18
207.033	2387.83
207.107	2398.98
207.181	2432.26
207.256	2430.55
207.33	2452.35
207.405	2464.84
207.479	2488.21
207.553	2497.16
207.628	2484.64
207.702	2503.59
207.776	2504.35
207.851	2512.92
207.925	2534.46
207.999	2542.36
208.073	2550.84
208.148	2561.37
208.222	2557.89
208.296	2603.12
208.371	2628.34
208.445	2653.92
208.519	2697.6
208.593	2724.71
208.668	2740.06
208.742	2759.8
208.816	2784.34
208.89	2821.95
208.965	2847.85
209.039	2884.29
209.113	2930.1
209.187	2982.98
209.261	3012.63
209.336	3067.37
209.41	3126.86
209.484	3167.85
209.558	3230.36
209.632	3288.33
209.707	3353.76
209.781	3432.66
209.855	3502.81
209.929	3582.91
210.003	3651.97
210.077	3716.46
210.151	3829.47
210.226	3934.64
210.3	4037.67
210.374	4134.87
210.448	4218.94
210.522	4311.78
210.596	4404.48
210.67	4503.74
210.744	4642.58
210.818	4775.51
210.892	4894.4
210.966	4995.61
211.041	5114.48
211.115	5220.91
211.189	5356.89
211.263	5484.42
211.337	5602.63
211.411	5734.5
211.485	5849.74
211.559	5985.71
211.633	6115.58
211.707	6219.02
211.781	6354.06
211.855	6456.18
211.929	6589.33
212.003	6713.81
212.077	6872.25
212.151	7034.49
212.225	7194.88
212.299	7336.9
212.373	7473.75
212.447	7628.29
212.52	7810.96
212.594	7979.05
212.668	8149.55
212.742	8300.51
212.816	8457.79
212.89	8623.12
212.964	8789.7
213.038	8962.42
213.112	9142.46
213.186	9328.47
213.26	9484.93
213.333	9621.3
213.407	9801.72
213.481	9975.46
213.555	10164
213.629	10326.16
213.703	10487.12
213.777	10660.95
213.85	10824.1
213.924	11027.73
213.998	11204.29
214.072	11367.04
214.146	11526.95
214.219	11695.58
214.293	11862.48
214.367	12039.26
214.441	12219.29
214.515	12382.01
214.588	12533.61
214.662	12679.23
214.736	12828.56
214.81	12997.85
214.883	13174.99
214.957	13335.75
215.031	13485.28
215.105	13621.7
215.178	13772.05
215.252	13919.08
215.326	14055.45
215.4	14184.35
215.473	14296.38
215.547	14428.51
215.621	14569.22
215.694	14725.64
215.768	14856.03
215.842	14987.19
215.915	15122.93
215.989	15250.42
216.063	15377.48
216.136	15503.24
216.21	15631.45
216.284	15774.27
216.357	15903.78
216.431	16034.54
216.504	16159.52
216.578	16318.34
216.652	16457
216.725	16577.11
216.799	16712.92
216.873	16834.09
216.946	16961.86
217.02	17083.65
217.093	17201.58
217.167	17300.76
217.24	17398.02
217.314	17512.86
217.387	17624.67
217.461	17719.32
217.535	17832.23
217.608	17924.76
217.682	18037
217.755	18148.51
217.829	18248.85
217.902	18360.84
217.976	18450.57
218.049	18545.27
218.123	18619.87
218.196	18717.74
218.27	18816.92
218.343	18895.08
218.417	18984.09
218.49	19078.54
218.563	19182.15
218.637	19271.21
218.71	19380.41
218.784	19469.8
218.857	19551.14
218.931	19630.22
219.004	19714.07
219.077	19794.17
219.151	19881.49
219.224	19964.52
219.298	20046.45
219.371	20130.16
219.444	20185.77
219.518	20261.05
219.591	20336.66
219.665	20439.6
219.738	20504.28
219.811	20561.19
219.885	20634.26
219.958	20711.41
220.031	20770.5
220.105	20832.82
220.178	20897.98
220.251	20948.1
220.325	21011.24
220.398	21084.98
220.471	21152.84
220.544	21222.68
220.618	21271.16
220.691	21332.18
220.764	21385.87
220.838	21443.04
220.911	21491.53
220.984	21568.79
221.057	21621.57
221.131	21675.55
221.204	21701.83
221.277	21777.79
221.35	21849.95
221.424	21890.3
221.497	21934.98
221.57	21979.95
221.643	22027.87
221.716	22071.11
221.79	22103.89
221.863	22140.52
221.936	22168.58
222.009	22210.76
222.082	22249.56
222.155	22286.06
222.229	22333.06
222.302	22361.02
222.375	22391.05
222.448	22426.97
222.521	22448.57
222.594	22475.08
222.667	22482.5
222.74	22510.9
222.814	22537.32
222.887	22557.81
222.96	22589.34
223.033	22612.1
223.106	22642.08
223.179	22674.1
223.252	22702.69
223.325	22733.06
223.398	22749.69
223.471	22774.47
223.544	22784.98
223.617	22808.03
223.69	22831.99
223.763	22835.51
223.837	22865.07
223.91	22878.13
223.983	22868.78
224.056	22872.4
224.129	22888.79
224.202	22920.61
224.275	22925.19
224.348	22912.61
224.42	22903.35
224.493	22907.98
224.566	22915.98
224.639	22915.06
224.712	22903.06
224.785	22901.23
224.858	22896.69
224.931	22905.52
225.004	22911.21
225.077	22920.75
225.15	22896.21
225.223	22898.28
225.296	22924.9
225.369	22904.51
225.442	22901.03
225.514	22915.06
225.587	22926.68
225.66	22923.94
225.733	22930.59
225.806	22938.02
225.879	22942.35
225.952	22936.09
226.025	22946.07
226.097	22960.34
226.17	22968.01
226.243	22947.42
226.316	22942.5
226.389	22941.73
226.461	22936.57
226.534	22929.24
226.607	22930.83
226.68	22959.42
226.753	22944.53
226.825	22916.61
226.898	22932.42
226.971	22931.75
227.044	22923.55
227.117	22918.39
227.189	22932.28
227.262	22924.76
227.335	22920.47
227.407	22910.24
227.48	22908.8
227.553	22900.65
227.626	22889.94
227.698	22883.24
227.771	22880.98
227.844	22863.62
227.916	22858.46
227.989	22842.5
228.062	22838.69
228.134	22855.86
228.207	22830.55
228.28	22820.81
228.352	22812.61
228.425	22792.55
228.498	22783.63
228.57	22777.66
228.643	22782.04
228.716	22765.17
228.788	22760.35
228.861	22745.35
228.934	22742.94
229.006	22732.77
229.079	22720.47
229.151	22695.07
229.224	22668.74
229.296	22672.17
229.369	22691.6
229.442	22703.6
229.514	22684.08
229.587	22673.42
229.659	22622.22
229.732	22612.92
229.804	22618.07
229.877	22627.09
229.949	22626.46
230.022	22637.02
230.094	22623.43
230.167	22607.66
230.239	22584.71
230.312	22565.91
230.384	22574.54
230.457	22564.42
230.529	22553.86
230.602	22540.17
230.674	22535.78
230.747	22531.06
230.819	22524.79
230.892	22477.54
230.964	22453.05
231.037	22450.01
231.109	22429.57
231.181	22430.1
231.254	22407.93
231.326	22377.94
231.399	22352.82
231.471	22324.53
231.544	22280.66
231.616	22268.03
231.688	22252.31
231.761	22221.75
231.833	22192.39
231.905	22146.4
231.978	22132.52
232.05	22111.69
232.122	22084.07
232.195	22061.9
232.267	22061.12
232.339	22025.5
232.412	22013.88
232.484	21987.66
232.556	21960.96
232.629	21963.61
232.701	21939.5
232.773	21917.81
232.846	21896.7
232.918	21880.07
232.99	21865.32
233.062	21856.5
233.135	21836.73
233.207	21792.87
233.279	21787.38
233.351	21773.69
233.424	21741.44
233.496	21694.59
233.568	21693.82
233.64	21657.96
233.713	21618.63
233.785	21589.03
233.857	21564.79
233.929	21525.41
234.001	21516.49
234.074	21511.91
234.146	21464.91
234.218	21447.42
234.29	21425.73
234.362	21392.62
234.434	21352.85
234.507	21312.37
234.579	21270.58
234.651	21231.49
234.723	21215.63
234.795	21195.68
234.867	21165.26
234.939	21164.88
235.012	21156.35
235.084	21127.24
235.156	21110.71
235.228	21081.45
235.3	21048.05
235.372	21030.8
235.444	21026.65
235.516	20971.71
235.588	20936.67
235.66	20911.9
235.732	20866.83
235.804	20882.3
235.876	20862.35
235.948	20847.36
236.02	20815.99
236.092	20776.23
236.164	20753.53
236.236	20721.19
236.308	20677.77
236.38	20657.14
236.452	20615.94
236.524	20582.25
236.596	20560.9
236.668	20542.49
236.74	20510.15
236.812	20480.71
236.884	20455.74
236.956	20414.2
237.028	20375.41
237.1	20332.27
237.172	20312.18
237.244	20301
237.316	20228.95
237.388	20187.02
237.46	20141.28
237.532	20125.62
237.604	20093.19
237.675	20074.83
237.747	20045.24
237.819	20003.46
237.891	19957.24
237.963	19909.92
238.035	19864.28
238.107	19788.14
238.178	19765.06
238.25	19732.96
238.322	19721.3
238.394	19670.12
238.466	19630.99
238.538	19597.79
238.609	19566.27
238.681	19508.64
238.753	19455.24
238.825	19433.85
238.897	19402.91
238.968	19377.03
239.04	19331.73
239.112	19320.89
239.184	19262.39
239.255	19223.69
239.327	19196.41
239.399	19160.46
239.471	19134.88
239.542	19111.6
239.614	19101.24
239.686	19042.21
239.758	19027.36
239.829	18975.41
239.901	18947.95
239.973	18919.8
240.044	18899.42
240.116	18870.65
240.188	18839.71
240.259	18815.38
240.331	18761.11
240.403	18735.72
240.474	18687.29
240.546	18640.83
240.618	18585.03
240.689	18545.71
240.761	18524.36
240.833	18500.84
240.904	18466.24
240.976	18433.86
241.048	18388.61
241.119	18358.49
241.191	18324.99
241.262	18302.78
241.334	18265
241.405	18223.99
241.477	18179.36
241.549	18142.74
241.62	18109.39
241.692	18082.11
241.763	18056.53
241.835	18027.22
241.906	17992.14
241.978	17944.38
242.049	17929.73
242.121	17908.34
242.192	17884.29
242.264	17822.36
242.335	17770.27
242.407	17742.51
242.478	17702.7
242.55	17679.23
242.621	17639.09
242.693	17597.79
242.764	17547.38
242.836	17500.87
242.907	17476.1
242.979	17446.85
243.05	17408.92
243.122	17378.71
243.193	17339.77
243.264	17275.67
243.336	17233.4
243.407	17203.28
243.479	17184.68
243.55	17159.62
243.622	17128
243.693	17099.72
243.764	17082.8
243.836	17046.07
243.907	17005.4
243.978	16958.21
244.05	16920.77
244.121	16866.5
244.192	16843.17
244.264	16804.62
244.335	16783.27
244.407	16732.37
244.478	16698.78
244.549	16666.78
244.62	16608.7
244.692	16569.9
244.763	16553.42
244.834	16520.41
244.906	16479.54
244.977	16449.65
245.048	16421.56
245.119	16376.73
245.191	16325.93
245.262	16267.57
245.333	16248.29
245.405	16219.17
245.476	16203.27
245.547	16175.36
245.618	16153.82
245.689	16124.22
245.761	16093.57
245.832	16051.73
245.903	16024.36
245.974	15996.74
246.045	15963.05
246.117	15955.39
246.188	15914.51
246.259	15867.9
246.33	15831.9
246.401	15791.89
246.473	15751.98
246.544	15699.49
246.615	15679.88
246.686	15646.71
246.757	15632.06
246.828	15582.99
246.899	15565.59
246.97	15513.92
247.042	15476.08
247.113	15445.62
247.184	15426.87
247.255	15379.44
247.326	15352.59
247.397	15319.33
247.468	15291.18
247.539	15259.42
247.61	15208.51
247.681	15187.11
247.752	15169.9
247.823	15127.48
247.894	15102.85
247.965	15059.57
248.037	15033.92
248.108	14984.76
248.179	14953.76
248.25	14923.05
248.321	14901.41
248.392	14855.96
248.463	14851.91
248.534	14818.69
248.605	14794.01
248.675	14760.42
248.746	14741.86
248.817	14710.43
248.888	14693.12
248.959	14647.47
249.03	14619.9
249.101	14594.88
249.172	14556.13
249.243	14507.15
249.314	14495.82
249.385	14465.5
249.456	14444.96
249.527	14414.45
249.598	14394.78
249.669	14374.78
249.739	14347.25
249.81	14329.51
249.881	14289.02
249.952	14259.95
250.023	14229.63
250.094	14193.72
250.165	14154.72
250.235	14127.39
250.306	14105.21
250.377	14056.09
250.448	14037.96
250.519	13994.29
250.59	13986.38
250.66	13955.68
250.731	13948.88
250.802	13925.98
250.873	13903.08
250.944	13875.61
251.014	13834.82
251.085	13830.82
251.156	13807.39
251.227	13794.09
251.297	13770.56
251.368	13758.13
251.439	13739.33
251.51	13725.2
251.58	13689.09
251.651	13659.45
251.722	13644.17
251.792	13601.21
251.863	13583.09
251.934	13570.99
252.005	13573.69
252.075	13539.7
252.146	13535.65
252.217	13517.29
252.287	13495.3
252.358	13467.01
252.429	13468.02
252.499	13448.79
252.57	13420.01
252.641	13403.57
252.711	13381.01
252.782	13348.56
252.852	13341.43
252.923	13316.27
252.994	13291.87
253.064	13285.56
253.135	13255.14
253.205	13220.72
253.276	13215.13
253.347	13207.7
253.417	13170.87
253.488	13144.26
253.558	13116.88
253.629	13084.01
253.699	13067.62
253.77	13052.19
253.841	13029
253.911	13003.5
253.982	12979.45
254.052	12962.43
254.123	12940.59
254.193	12913.45
254.264	12928.93
254.334	12897.88
254.405	12860.48
254.475	12826.49
254.546	12804.75
254.616	12801.66
254.687	12787.25
254.757	12766.14
254.827	12744.54
254.898	12727.81
254.968	12706.89
255.039	12681.78
255.109	12671.56
255.18	12634.68
255.25	12596.46
255.321	12580.11
255.391	12540.63
255.461	12538.95
255.532	12493.49
255.602	12469.15
255.673	12436.71
255.743	12399.97
255.813	12356.35
255.884	12350.32
255.954	12345.79
256.024	12341.02
256.095	12313.21
256.165	12276.57
256.235	12268.09
256.306	12234.15
256.376	12219.36
256.446	12210.25
256.517	12196.89
256.587	12181.03
256.657	12167.73
256.728	12143.68
256.798	12124.49
256.868	12101.79
256.938	12074.75
257.009	12068.48
257.079	12057.93
257.149	12059.61
257.219	12023.32
257.29	12006.83
257.36	11963.02
257.43	11947.07
257.5	11901.66
257.571	11884.65
257.641	11873.46
257.711	11838.47
257.781	11831.91
257.852	11824.88
257.922	11775.52
257.992	11752.58
258.062	11732.04
258.132	11722.36
258.202	11708.43
258.273	11685.29
258.343	11687.51
258.413	11665.14
258.483	11647.7
258.553	11619.45
258.623	11587.59
258.693	11571.64
258.764	11570.67
258.834	11573.76
258.904	11560.17
258.974	11532.94
259.044	11509.56
259.114	11499.3
259.184	11487.05
259.254	11464.31
259.324	11418.57
259.394	11410.95
259.464	11414.18
259.535	11397.12
259.605	11364.68
259.675	11342.23
259.745	11333.7
259.815	11298.85
259.885	11274.8
259.955	11278.85
260.025	11245.46
260.095	11229.74
260.165	11216.2
260.235	11210.08
260.305	11179.48
260.375	11143.24
260.445	11148.54
260.515	11148.54
260.585	11145.89
260.655	11124.59
260.725	11112.25
260.795	11108.2
260.865	11109.02
260.934	11080.1
261.004	11064.92
261.074	11051.14
261.144	11045.99
261.214	11042.27
261.284	11030.9
261.354	11022.32
261.424	10990.37
261.494	10995.82
261.564	10977.89
261.634	10968.4
261.703	10926.38
261.773	10923.25
261.843	10915.05
261.913	10896.74
261.983	10864.6
262.053	10846.43
262.123	10827.06
262.192	10800.17
262.262	10792.7
262.332	10758.2
262.402	10743.26
262.472	10727.8
262.541	10695.42
262.611	10686.5
262.681	10652.63
262.751	10643.76
262.821	10630.51
262.89	10605.26
262.96	10594.81
263.03	10601.46
263.1	10590.08
263.169	10588.49
263.239	10576.5
263.309	10580.45
263.379	10574.57
263.448	10552.55
263.518	10545.52
263.588	10531.11
263.657	10537.42
263.727	10529.71
263.797	10520.03
263.867	10506.73
263.936	10482.21
264.006	10483.85
264.076	10470.55
264.145	10459.03
264.215	10438.99
264.285	10423.72
264.354	10395.15
264.424	10376.22
264.494	10342.83
264.563	10320.9
264.633	10323.99
264.702	10311.03
264.772	10273.54
264.842	10249.55
264.911	10248.35
264.981	10215.58
265.05	10206.29
265.12	10188.36
265.19	10176.42
265.259	10168.27
265.329	10162.49
265.398	10151.17
265.468	10160.04
265.537	10136.67
265.607	10132.24
265.676	10127.86
265.746	10117.5
265.815	10114.47
265.885	10092.74
265.955	10071.11
266.024	10048.71
266.094	10011.62
266.163	10011.19
266.232	10011.91
266.302	9995.2
266.371	9988.12
266.441	9973.47
266.51	9967.88
266.58	9942.21
266.649	9916.82
266.719	9919.04
266.788	9914.08
266.858	9913.89
266.927	9875.3
266.996	9870.77
267.066	9857.43
267.135	9826.65
267.205	9828.44
267.274	9818.32
267.343	9823.48
267.413	9812.06
267.482	9822.32
267.552	9824.06
267.621	9790.05
267.69	9761.44
267.76	9752.53
267.829	9729.8
267.898	9717.57
267.968	9693.2
268.037	9690.98
268.106	9691.8
268.176	9664.73
268.245	9642.28
268.314	9628.32
268.384	9623.36
268.453	9610.98
268.522	9598.7
268.592	9600.38
268.661	9580.2
268.73	9567.82
268.799	9542.25
268.869	9550.1
268.938	9514.9
269.007	9499
269.076	9492.89
269.146	9494
269.215	9489.81
269.284	9503
269.353	9486.82
269.422	9479.46
269.492	9459.71
269.561	9420.32
269.63	9411.27
269.699	9398.84
269.768	9384.98
269.838	9381.51
269.907	9375.78
269.976	9356.52
270.045	9330.08
270.114	9326.95
270.183	9320.45
270.253	9315.06
270.322	9284.24
270.391	9279
270.46	9276.73
270.529	9274.04
270.598	9271.53
270.667	9256.94
270.736	9230.22
270.806	9220.01
270.875	9216.98
270.944	9206.67
271.013	9224.05
271.082	9215
271.151	9208.74
271.22	9186.16
271.289	9172.1
271.358	9159.01
271.427	9153.04
271.496	9144.08
271.565	9125.79
271.634	9114.91
271.703	9134.94
271.772	9135.08
271.841	9123.77
271.91	9105.09
271.979	9098.45
272.048	9071.68
272.117	9069.94
272.186	9060.03
272.255	9068.11
272.324	9061.95
272.393	9060.84
272.462	9045.44
272.531	9037.97
272.6	9024.98
272.669	9027.91
272.738	9015.68
272.807	9008.75
272.876	8990.85
272.945	9017.23
273.013	9021.51
273.082	9020.84
273.151	8977.89
273.22	8975.1
273.289	8969.9
273.358	8983.53
273.427	8972.12
273.496	8977.17
273.564	8973.85
273.633	8976.11
273.702	8956.33
273.771	8950.64
273.84	8943.91
273.909	8943.42
273.977	8936.11
274.046	8929.51
274.115	8937.26
274.184	8922.29
274.253	8913.15
274.322	8922.73
274.39	8893.84
274.459	8875.89
274.528	8853.22
274.597	8841.95
274.665	8840.56
274.734	8839.36
274.803	8822.22
274.872	8815.86
274.94	8798.1
275.009	8849.58
275.078	8835.38
275.147	8829.7
275.215	8825.32
275.284	8835.72
275.353	8820.94
275.421	8802.85
275.49	8813.58
275.559	8799.72
275.627	8794.28
275.696	8785.81
275.765	8781.81
275.833	8768.82
275.902	8763.91
275.971	8777.72
276.039	8797.17
276.108	8795.19
276.177	8799.29
276.245	8785.76
276.314	8776.09
276.383	8781.24
276.451	8716.66
276.52	8712.76
276.588	8721.76
276.657	8722.82
276.725	8705.3
276.794	8703.38
276.863	8718.15
276.931	8693.61
277	8692.88
277.068	8702.17
277.137	8718.78
277.205	8714.01
277.274	8736.58
277.342	8745.54
277.411	8717.58
277.48	8707.47
277.548	8698.52
277.617	8693.13
277.685	8687.5
277.754	8690.58
277.822	8686.05
277.89	8700.78
277.959	8700.44
278.027	8678.84
278.096	8668.97
278.164	8693.95
278.233	8689.33
278.301	8676.43
278.37	8684.86
278.438	8675.37
278.507	8680.57
278.575	8653.48
278.643	8650.68
278.712	8628.02
278.78	8615.07
278.849	8633.74
278.917	8641.05
278.985	8632.34
279.054	8633.55
279.122	8643.27
279.191	8643.46
279.259	8637.45
279.327	8617.13
279.396	8625.07
279.464	8627.82
279.532	8632.73
279.601	8625.89
279.669	8616.27
279.737	8634.36
279.806	8632.39
279.874	8641.73
279.942	8633.64
280.011	8630.8
280.079	8635.95
280.147	8645.96
280.215	8653.71
280.284	8647.55
280.352	8632.82
280.42	8642.93
280.488	8628.4
280.557	8622.67
280.625	8623.34
280.693	8627.43
280.761	8625.94
280.83	8612.85
280.898	8626.56
280.966	8606.64
281.034	8580.84
281.102	8571.7
281.171	8558.71
281.239	8569.1
281.307	8563.81
281.375	8552.93
281.443	8583.45
281.512	8578.15
281.58	8587.59
281.648	8569.59
281.716	8571.9
281.784	8572.86
281.852	8564.53
281.92	8569.88
281.989	8580.03
282.057	8563.33
282.125	8604.2
282.193	8604.92
282.261	8605.55
282.329	8598.23
282.397	8603.58
282.465	8603.43
282.533	8616.04
282.601	8603.53
282.67	8584.03
282.738	8571.33
282.806	8587.59
282.874	8564.39
282.942	8562.71
283.01	8552.51
283.078	8557.13
283.146	8548.03
283.214	8555.68
283.282	8554.48
283.35	8563
283.418	8556.55
283.486	8563.43
283.554	8520.2
283.622	8519.05
283.69	8513.95
283.758	8510.92
283.826	8510.92
283.894	8519.34
283.962	8541.48
284.03	8556.83
284.098	8557.79
284.165	8561.21
284.233	8558.66
284.301	8558.66
284.369	8558.8
284.437	8553.7
284.505	8548.45
284.573	8562.46
284.641	8547.35
284.709	8554.71
284.777	8536.95
284.845	8548.6
284.912	8553.32
284.98	8559.23
285.048	8553.46
285.116	8564
285.184	8575.16
285.252	8582.62
285.319	8571.12
285.387	8557.74
285.455	8538.4
285.523	8539.94
285.591	8527.52
285.659	8525.26
285.726	8533.11
285.794	8513.67
285.862	8513.38
285.93	8516.17
285.997	8509.38
286.065	8512.37
286.133	8506.54
286.201	8503.9
286.269	8479.74
286.336	8466.55
286.404	8459.19
286.472	8470.45
286.539	8444.47
286.607	8429.31
286.675	8425.12
286.743	8434.6
286.81	8432.77
286.878	8448.22
286.946	8442.93
287.013	8448.94
287.081	8447.4
287.149	8435.13
287.216	8454.28
287.284	8451.1
287.352	8451.92
287.419	8448.36
287.487	8457.74
287.555	8459.48
287.622	8458.27
287.69	8468.72
287.758	8482.57
287.825	8478.34
287.893	8465.06
287.96	8476.65
288.028	8483.77
288.096	8480.98
288.163	8477.71
288.231	8467.75
288.298	8464.14
288.366	8478.34
288.433	8473.72
288.501	8465.35
288.569	8467.56
288.636	8463.37
288.704	8473.77
288.771	8477.71
288.839	8468.33
288.906	8462.27
288.974	8471.6
289.041	8472.52
289.109	8461.07
289.176	8471.17
289.244	8475.5
289.311	8490.09
289.379	8498.22
289.446	8501.06
289.514	8505.92
289.581	8509.43
289.649	8514.29
289.716	8513.28
289.783	8504.62
289.851	8516.26
289.918	8518.76
289.986	8530.17
290.053	8534.5
290.121	8526.85
290.188	8529.45
290.255	8561.45
290.323	8557.98
290.39	8549.18
290.458	8559.47
290.525	8575.5
290.592	8570.73
290.66	8569.92
290.727	8565.92
290.794	8573.43
290.862	8577.47
290.929	8579.54
290.996	8580.55
291.064	8588.15
291.131	8601.49
291.198	8610.1
291.266	8614.1
291.333	8619.73
291.4	8623.91
291.468	8650.44
291.535	8652.41
291.602	8657.27
291.669	8646.49
291.737	8649.76
291.804	8652.21
291.871	8665.11
291.938	8675.46
292.006	8698.13
292.073	8710.98
292.14	8718.01
292.207	8718.11
292.275	8717.48
292.342	8721.28
292.409	8743.14
292.476	8764.12
292.543	8762.2
292.611	8768.79
292.678	8784.68
292.745	8805.52
292.812	8811.53
292.879	8797.96
292.946	8808.64
293.014	8823.85
293.081	8835.6
293.148	8847.82
293.215	8867.99
293.282	8861.3
293.349	8867.27
293.416	8850.71
293.484	8864.52
293.551	8873.14
293.618	8889.65
293.685	8910.74
293.752	8911.07
293.819	8910.69
293.886	8899.81
293.953	8898.27
294.02	8907.22
294.087	8913.09
294.154	8902.89
294.221	8922.97
294.288	8928.69
294.356	8943.38
294.423	8944.15
294.49	8934.18
294.557	8947.18
294.624	8937.22
294.691	8956.85
294.758	8957.53
294.825	8963.26
294.892	8955.36
294.959	8957.29
295.026	8964.56
295.093	8957.19
295.16	8964.56
295.226	8959.07
295.293	8985.16
295.36	8997.58
295.427	9004.51
295.494	9019.63
295.561	9031.23
295.628	9049.92
295.695	9058.78
295.762	9061.76
295.829	9070.62
295.896	9088
295.963	9098.98
296.03	9109.33
296.096	9116.16
296.163	9123.14
296.23	9137.01
296.297	9149.86
296.364	9152.32
296.431	9152.61
296.498	9155.74
296.564	9171.86
296.631	9181.01
296.698	9164.74
296.765	9179.28
296.832	9168.97
296.899	9155.4
296.965	9173.45
297.032	9149.04
297.099	9171.72
297.166	9176.53
297.233	9175.81
297.299	9167.77
297.366	9170.47
297.433	9167.82
297.5	9176.49
297.566	9174.99
297.633	9179.18
297.7	9184.04
297.767	9182.41
297.833	9188.23
297.9	9191.94
297.967	9177.45
298.033	9190.59
298.1	9215.15
298.167	9206.05
298.234	9219.05
298.3	9228.68
298.367	9224.44
298.434	9233.11
298.5	9224.06
298.567	9223.14
298.634	9222.23
298.7	9234.45
298.767	9229.01
298.834	9246.92
298.9	9245.34
298.967	9245.19
299.033	9249.24
299.1	9260.74
299.167	9275.38
299.233	9272.88
299.3	9288.14
299.366	9306.58
299.433	9315.06
299.5	9291.27
299.566	9302.2
299.633	9311.06
299.699	9320.26
299.766	9316.6
299.832	9325.17
299.899	9331.24
299.965	9336.48
300.032	9334.85
300.099	9346.11
300.165	9353.91
300.232	9346.07
300.298	9341.68
300.365	9353.58
300.431	9354.44
300.498	9348.62
300.564	9358.44
300.631	9369.85
300.697	9383.58
300.763	9386.08
300.83	9386.61
300.896	9401.92
300.963	9410.78
301.029	9420.13
301.096	9429.95
301.162	9435.68
301.229	9426.77
301.295	9410.4
301.361	9420.37
301.428	9422.05
301.494	9412.95
301.561	9418.06
301.627	9426.72
301.693	9428.99
301.76	9431.11
301.826	9432.31
301.892	9446.9
301.959	9453.84
302.025	9452.25
302.092	9443.72
302.158	9450.66
302.224	9451.72
302.291	9445.17
302.357	9438.23
302.423	9432.21
302.49	9420.61
302.556	9440.55
302.622	9444.11
302.688	9459.52
302.755	9468.28
302.821	9481.81
302.887	9496.02
302.954	9497.8
303.02	9500.69
303.086	9509.45
303.152	9510.13
303.219	9503.72
303.285	9502.71
303.351	9505.36
303.417	9509.7
303.483	9496.26
303.55	9487.26
303.616	9487.16
303.682	9494.24
303.748	9490.14
303.815	9503.73
303.881	9514.08
303.947	9498.62
304.013	9498.43
304.079	9481.48
304.145	9462.6
304.212	9455.04
304.278	9441.56
304.344	9433.47
304.41	9421.24
304.476	9412.23
304.542	9401.01
304.608	9404.82
304.674	9389.17
304.741	9378.09
304.807	9374.96
304.873	9381.56
304.939	9393.93
305.005	9367.88
305.071	9359.79
305.137	9359.36
305.203	9332.39
305.269	9326.85
305.335	9338.51
305.401	9333.64
305.467	9341.39
305.533	9345.78
305.599	9355.7
305.666	9362
305.732	9362.2
305.798	9374.72
305.864	9398.51
305.93	9406.02
305.996	9407.46
306.062	9412.09
306.128	9407.94
306.194	9398.94
306.259	9394.85
306.325	9392.63
306.391	9410.64
306.457	9418.05
306.523	9422.29
306.589	9445.94
306.655	9436.45
306.721	9413.91
306.787	9400.63
306.853	9411.89
306.919	9402.6
306.985	9391.81
307.051	9384.98
307.117	9384.35
307.183	9378.96
307.248	9350.4
307.314	9359.79
307.38	9361.09
307.446	9360.61
307.512	9351.75
307.578	9357.91
307.644	9355.79
307.709	9355.46
307.775	9355.65
307.841	9355.02
307.907	9355.6
307.973	9334.89
308.039	9334.7
308.104	9342.98
308.17	9345.78
308.236	9326.42
308.302	9321.51
308.368	9311.49
308.433	9318.43
308.499	9303.12
308.565	9294.01
308.631	9290.26
308.696	9260.45
308.762	9244.18
308.828	9240.28
308.894	9223.38
308.959	9199.31
309.025	9190.79
309.091	9177.01
309.156	9165.65
309.222	9159.15
309.288	9146.01
309.354	9122.51
309.419	9124.34
309.485	9113.51
309.551	9119.57
309.616	9114.42
309.682	9112.59
309.748	9102.53
309.813	9092.04
309.879	9089.15
309.945	9079.42
310.01	9075.38
310.076	9082.17
310.141	9079.61
310.207	9066.18
310.273	9075.18
310.338	9078.55
310.404	9065.08
310.469	9054.58
310.535	9040.76
310.601	9018.62
310.666	9020.69
310.732	9034.07
310.797	9021.89
310.863	9007.35
310.928	9001.09
310.994	8998.68
311.059	9002.01
311.125	9000.56
311.191	9008.41
311.256	8994.88
311.322	8997.48
311.387	8978.23
311.453	9266.28
311.518	9241.68
311.584	9239.95
311.649	9236.29
311.715	9230.51
311.78	9230.08
311.846	9223.29
311.911	9228.68
311.976	9235.61
312.042	9220.69
312.107	9202.01
312.173	9194.74
312.238	9191.66
312.304	9183.96
312.369	9170.53
312.434	9155.99
312.5	9150.94
312.565	9116.76
312.631	9129.52
312.696	9122.05
312.761	9121.86
312.827	8820.72
312.892	8856.87
312.958	8852.49
313.023	8849.12
313.088	8841.71
313.154	8828.72
313.219	8821.5
313.284	8812.2
313.35	8803.16
313.415	8789.53
313.48	8789.01
313.546	8789.82
313.611	8796.42
313.676	8784.58
313.741	8780.05
313.807	8785.44
313.872	8788.28
313.937	8801.38
314.003	8804.17
314.068	8799.88
314.133	8811.19
314.198	8801.57
314.264	8782.21
314.329	8772.35
314.394	8773.36
314.459	8771.38
314.525	8791.07
314.59	8787.75
314.655	8776.15
314.72	8786.21
314.785	8790.64
314.851	8782.55
314.916	8764.5
314.981	8749.97
315.046	8746.79
315.111	8733.99
315.176	8720.22
315.242	8722.92
315.307	8713.92
315.372	8690.19
315.437	8682.49
315.502	8675.89
315.567	8690.14
315.632	8671.47
315.698	8677.48
315.763	8662.42
315.828	8654.38
315.893	8648.85
315.958	8639.03
316.023	8637.39
316.088	8613.91
316.153	8595.14
316.218	8587.87
316.283	8570.31
316.348	8554.62
316.413	8545.24
316.479	8530.9
316.544	8497.32
316.609	8461.76
316.674	8429.76
316.739	8400.42
316.804	8369.19
316.869	8327.33
316.934	8288.02
316.999	8255.45
317.064	8199.31
317.129	8167.89
317.194	8132.87
317.259	8080.57
317.324	8029.06
317.389	7978.65
317.454	7937.14
317.518	7903.33
317.583	7872.79
317.648	7844.12
317.713	7807.04
317.778	7748.9
317.843	7717.31
317.908	7678.8
317.973	7642.5
318.038	7611.48
318.103	7572.45
318.168	7544.8
318.233	7516.1
318.297	7469.13
318.362	7432.02
318.427	7399.09
318.492	7370
318.557	7320.46
318.622	7293.97
318.687	7277.63
318.751	7241.78
318.816	7215.2
318.881	7180.46
318.946	7132.93
319.011	7089.25
319.075	7047.69
319.14	7015.36
319.205	6977.65
319.27	6946.76
319.335	6905.5
319.399	6862.36
319.464	6834.02
319.529	6775.81
319.594	6735.94
319.658	6702.27
319.723	6662.51
319.788	6630.48
319.853	6571.12
319.917	6542.7
319.982	6488.83
320.047	6448.44
320.112	6417.14
320.176	6363.28
320.241	6325.3
320.306	6296.07
320.37	6255.8
320.435	6225.8
320.5	6196.57
320.564	6154.39
320.629	6110.68
320.694	6076.9
320.758	6037.61
320.823	5995.48
320.888	5968.72
320.952	5921.18
321.017	5880.55
321.082	5847.21
321.146	5814.4
321.211	5784.52
321.275	5745.44
321.34	5701.96
321.405	5657.99
321.469	5616.41
321.534	5576.15
321.598	5530.03
321.663	5496.51
321.727	5466.03
321.792	5417.85
321.857	5377.92
321.921	5338.68
321.986	5301.26
322.05	5243.34
322.115	5207.7
322.179	5163.34
322.244	5111.08
322.308	5079.71
322.373	5030.86
322.437	4986.31
322.502	4956.51
322.566	4910.25
322.631	4874.19
322.695	4839.01
322.76	4799.61
322.824	4760.64
322.889	4717.67
322.953	4672.45
323.018	4609.36
323.082	4548.4
323.146	4499.94
323.211	4442.91
323.275	4403.01
323.34	4360.21
323.404	4326.93
323.468	4281.25
323.533	4238.22
323.597	4193.58
323.662	4142.27
323.726	4111.14
323.79	4063.68
323.855	4002.61
323.919	3955.77
323.983	3910.41
324.048	3842.98
324.112	3975.72
324.177	3849.02
324.241	3650.58
324.305	3455.71
324.37	3262.33
324.434	3076.32
324.498	3032.39
324.562	2987.02
324.627	2927.01
324.691	2870.03
324.755	2809.83
324.82	2737.18
324.884	2664.11
324.948	2595.92
325.012	2504.51
325.077	2382.15
