Data from 20250702_urea_0.5M_MAYP1162681_01-35-00-189.txt Node
Date: Thu Jul 03 01:35:00 BST 2025
User: adleo
Spectrometer: MAYP116268
Trigger mode: 0
Integration Time (sec): 1.000000E0
Scans to average: 1
Electric dark correction enabled: true
Nonlinearity correction enabled: true
Boxcar width: 10
XAxis mode: Wavelengths
Number of Pixels in Spectrum: 2068
>>>>>Begin Spectral Data<<<<<
179.565	1203.5
179.642	1260.79
179.718	1307.81
179.795	1345.4
179.871	1376.38
179.948	1393.33
180.024	1416.62
180.101	1439.42
180.177	1455.05
180.254	1478.64
180.33	1499.71
180.407	1554.64
180.483	1652.32
180.56	1744.96
180.636	1828.33
180.712	1814.31
180.789	1823.72
180.865	1836.17
180.942	1844.1
181.018	1857.98
181.095	1871.29
181.171	1877.66
181.248	1878.43
181.324	1892.12
181.4	1898.54
181.477	1909.85
181.553	1925.82
181.63	1942.42
181.706	1958.92
181.782	1966.14
181.859	1965.43
181.935	1971.37
182.011	1967.57
182.088	1982.5
182.164	2000.48
182.24	2016.6
182.317	2026.63
182.393	2024.26
182.469	2035.81
182.546	2050.36
182.622	2054.02
182.698	2051.93
182.775	2059.87
182.851	2074.95
182.927	2068.1
183.003	2066.44
183.08	2063.77
183.156	2070.72
183.232	2070.76
183.308	2057.54
183.385	2065.25
183.461	2082.18
183.537	2085.08
183.613	2096.26
183.69	2085.22
183.766	2072.61
183.842	2075.66
183.918	2081.79
183.995	2097.01
184.071	2104.48
184.147	2100.87
184.223	2090.6
184.299	2102.25
184.375	2093.88
184.452	2098.64
184.528	2151.84
184.604	2161.35
184.68	2168.82
184.756	2175.91
184.832	2179.38
184.908	2184.94
184.985	2185.9
185.061	2167.44
185.137	2176.53
185.213	2163.55
185.289	2166.49
185.365	2160.45
185.441	2160.93
185.517	2171.02
185.593	2162.93
185.669	2156.27
185.745	2170.02
185.822	2185.71
185.898	2176.1
185.974	2185.76
186.05	2179.67
186.126	2140.41
186.202	2133.94
186.278	2132.75
186.354	2124.66
186.43	2130.23
186.506	2129.52
186.582	2127.38
186.658	2137.12
186.734	2116.24
186.81	2119.38
186.886	2120.19
186.962	2131.8
187.038	2130.23
187.114	2124.37
187.19	2133.7
187.266	2125.18
187.341	2119.9
187.417	2112.53
187.493	2111.48
187.569	2116.29
187.645	2109.44
187.721	2098.11
187.797	2105.06
187.873	2108.1
187.949	2101.21
188.025	2096.78
188.101	2101.01
188.176	2107.43
188.252	2100.54
188.328	2108.29
188.404	2109.38
188.48	2107.67
188.556	2103.2
188.632	2101.49
188.707	2103.2
188.783	2098.87
188.859	2092.31
188.935	2082.84
189.011	2089.26
189.086	2085.93
189.162	2075.66
189.238	2071.76
189.314	2070.24
189.39	2065.77
189.465	2058.44
189.541	2076.42
189.617	2059.11
189.693	2051.6
189.768	2053.88
189.844	2081.58
189.92	2071.64
189.996	2081.34
190.071	2091.81
190.147	2089.62
190.223	2098.33
190.298	2088.67
190.374	2077.92
190.45	2094.23
190.526	2104.32
190.601	2099.32
190.677	2099.37
190.753	2126.83
190.828	2131.11
190.904	2147.33
190.98	2160.18
191.055	2171.17
191.131	2158.51
191.207	2181.58
191.282	2193.23
191.358	2185.24
191.433	2168.73
191.509	2182.37
191.585	2178.42
191.66	2178.42
191.736	2183.94
191.811	2173.86
191.887	2192.84
191.963	2216.73
192.038	2219.25
192.114	2218.11
192.189	2221.58
192.265	2215.97
192.34	2193.98
192.416	2193.6
192.491	2187.03
192.567	2193.46
192.642	2195.45
192.718	2202.02
192.793	2187.18
192.869	2181.75
192.944	2183.46
193.02	2193.32
193.095	2196.69
193.171	2203.21
193.246	2203.21
193.322	2205.5
193.397	2206.87
193.473	2192.36
193.548	2174.13
193.624	2179.75
193.699	2176.42
193.775	2192.65
193.85	2199.87
193.925	2208.82
194.001	2209.39
194.076	2203.16
194.152	2189.26
194.227	2183.65
194.302	2169.76
194.378	2174.61
194.453	2173.04
194.529	2184.93
194.604	2169.61
194.679	2165.9
194.755	2148.73
194.83	2162.68
194.905	2155.88
194.981	2165.39
195.056	2156.59
195.131	2161.06
195.207	2160.06
195.282	2153.74
195.357	2135.8
195.433	2147.83
195.508	2136.08
195.583	2142.69
195.659	2156.02
195.734	2163.01
195.809	2160.82
195.884	2169.38
195.96	2169.15
196.035	2184.23
196.11	2178.9
196.185	2190.08
196.261	2192.03
196.336	2219.05
196.411	2201.96
196.486	2209.96
196.561	2204.68
196.637	2213.81
196.712	2231.8
196.787	2235.04
196.862	2250.4
196.937	2258.44
197.013	2268.44
197.088	2281.95
197.163	2304.09
197.238	2319.38
197.313	2321.28
197.388	2334.18
197.464	2362.93
197.539	2376.78
197.614	2366.08
197.689	2382.45
197.764	2395.69
197.839	2416.82
197.914	2412.39
197.989	2435.43
198.065	2449.76
198.14	2497.16
198.215	2525.54
198.29	2535.31
198.365	2548.59
198.44	2560.16
198.515	2588.93
198.59	2598.12
198.665	2620.46
198.74	2624.84
198.815	2625.89
198.89	2648.56
198.965	2678.34
199.04	2676.39
199.115	2691.39
199.19	2739.16
199.265	2739.59
199.34	2752.89
199.415	2789.16
199.49	2812.98
199.565	2818.75
199.64	2842.34
199.715	2840.14
199.79	2845.96
199.865	2856.97
199.94	2854.87
200.015	2885.43
200.09	2891.34
200.165	2900.73
200.24	2908.88
200.315	2952.19
200.39	2971.21
200.464	2976.88
200.539	2981.42
200.614	2997.05
200.689	3022.22
200.764	3027.23
200.839	3044.58
200.914	3049.72
200.989	3035.27
201.063	3048.24
201.138	3036.43
201.213	3036.14
201.288	3020.6
201.363	3025.98
201.438	3023.41
201.512	3035.99
201.587	3017.44
201.662	3024.78
201.737	3035.8
201.812	3042.43
201.886	3009.79
201.961	3020.57
202.036	3005.46
202.111	3001.03
202.186	2972.3
202.26	2952.8
202.335	2930.67
202.41	2924.19
202.485	2907.32
202.559	2891.26
202.634	2863.09
202.709	2871.9
202.784	2851.94
202.858	2850.17
202.933	2831.73
203.008	2825.01
203.082	2810.86
203.157	2810.81
203.232	2764.13
203.306	2747.2
203.381	2716.7
203.456	2694.5
203.53	2669.08
203.605	2650.51
203.68	2628.92
203.754	2624.59
203.829	2609.01
203.904	2590.34
203.978	2579.67
204.053	2582.67
204.127	2566.82
204.202	2565.05
204.277	2547.1
204.351	2540.86
204.426	2532.1
204.5	2523.14
204.575	2487.77
204.65	2498.49
204.724	2488.58
204.799	2497.15
204.873	2488.95
204.948	2487.91
205.022	2475.72
205.097	2466.57
205.171	2481.42
205.246	2488.76
205.32	2485.76
205.395	2485.71
205.469	2478.86
205.544	2482.53
205.618	2465.82
205.693	2480.77
205.767	2471.63
205.842	2495.73
205.916	2489.73
205.991	2479.78
206.065	2484.59
206.14	2501.81
206.214	2496.09
206.289	2492.9
206.363	2506.28
206.438	2507.62
206.512	2515.43
206.586	2535.09
206.661	2539.57
206.735	2517.96
206.81	2515.58
206.884	2531.81
206.958	2518.77
207.033	2532.1
207.107	2544.15
207.181	2577.69
207.256	2570.59
207.33	2590.74
207.405	2601.61
207.479	2624.75
207.553	2637.99
207.628	2623.57
207.702	2638.47
207.776	2634.14
207.851	2642
207.925	2659.25
207.999	2659.77
208.073	2661.73
208.148	2669.64
208.222	2667.59
208.296	2707.68
208.371	2734
208.445	2755.35
208.519	2796.89
208.593	2820.24
208.668	2827.11
208.742	2835.12
208.816	2849.98
208.89	2871.96
208.965	2884.51
209.039	2906.64
209.113	2938.29
209.187	2976.88
209.261	2989.17
209.336	3027.27
209.41	3062.75
209.484	3084.17
209.558	3133.49
209.632	3170.59
209.707	3204.84
209.781	3255.93
209.855	3303.95
209.929	3358.32
210.003	3391.24
210.077	3422.84
210.151	3508.08
210.226	3579.12
210.3	3651.94
210.374	3718.06
210.448	3768.03
210.522	3820.1
210.596	3877.25
210.67	3933.59
210.744	4029.52
210.818	4119.25
210.892	4195.84
210.966	4249.28
211.041	4326.17
211.115	4383.22
211.189	4469.84
211.263	4552.12
211.337	4622.73
211.411	4702.15
211.485	4761.25
211.559	4845.37
211.633	4914.27
211.707	4952.4
211.781	5033.01
211.855	5074.59
211.929	5143.74
212.003	5205.32
212.077	5301.75
212.151	5398.1
212.225	5491.47
212.299	5566.01
212.373	5639.55
212.447	5726.67
212.52	5845.18
212.594	5937.67
212.668	6038.12
212.742	6118.73
212.816	6201.89
212.89	6291.72
212.964	6381.85
213.038	6476.16
213.112	6588.04
213.186	6707.44
213.26	6792.56
213.333	6852.75
213.407	6960.9
213.481	7070.75
213.555	7185.68
213.629	7277.48
213.703	7367.81
213.777	7470.54
213.85	7560.25
213.924	7697.69
213.998	7797.52
214.072	7893.05
214.146	7981.16
214.219	8085.78
214.293	8185.2
214.367	8293.44
214.441	8409.05
214.515	8511.12
214.588	8591.33
214.662	8661.26
214.736	8741.05
214.81	8844.35
214.883	8954.51
214.957	9043.46
215.031	9126.4
215.105	9207.89
215.178	9290.89
215.252	9374.72
215.326	9452.54
215.4	9530.21
215.473	9580.68
215.547	9666.56
215.621	9754.91
215.694	9860.68
215.768	9937.61
215.842	10019.98
215.915	10107.03
215.989	10175.48
216.063	10248.24
216.136	10342.32
216.21	10430.43
216.284	10535.03
216.357	10630.62
216.431	10712.68
216.504	10817.73
216.578	10931.11
216.652	11027.86
216.725	11117.54
216.799	11215.28
216.873	11301.93
216.946	11393.1
217.02	11477.2
217.093	11558.41
217.167	11614.51
217.24	11678.37
217.314	11746.62
217.387	11824.36
217.461	11899.02
217.535	11988.19
217.608	12064.74
217.682	12145.81
217.755	12236.48
217.829	12301.84
217.902	12383.79
217.976	12465.92
218.049	12525.12
218.123	12588.51
218.196	12666.99
218.27	12739.73
218.343	12793.62
218.417	12870.22
218.49	12948.26
218.563	13039.13
218.637	13110.81
218.71	13215.23
218.784	13309.71
218.857	13395.95
218.931	13477.61
219.004	13554.6
219.077	13634.91
219.151	13711.51
219.224	13783.82
219.298	13852.22
219.371	13937.31
219.444	13994.14
219.518	14060.91
219.591	14138.23
219.665	14238.83
219.738	14315.19
219.811	14378.2
219.885	14465.5
219.958	14540.41
220.031	14608.52
220.105	14674.27
220.178	14741.95
220.251	14792.47
220.325	14855.32
220.398	14927.68
220.471	14992.13
220.544	15060.29
220.618	15118.66
220.691	15183.49
220.764	15243.12
220.838	15320.58
220.911	15378.13
220.984	15462.44
221.057	15539.85
221.131	15597.21
221.204	15617.84
221.277	15699.29
221.35	15791.45
221.424	15845.24
221.497	15907.37
221.57	15960.87
221.643	16022.52
221.716	16086.53
221.79	16147.89
221.863	16200.37
221.936	16247.03
222.009	16303.76
222.082	16355.86
222.155	16409.46
222.229	16472.59
222.302	16532.41
222.375	16572.89
222.448	16632.12
222.521	16684.13
222.594	16719.45
222.667	16760.76
222.74	16823.56
222.814	16865.97
222.887	16905.1
222.96	16962.7
223.033	17009.93
223.106	17066.22
223.179	17117.54
223.252	17168.19
223.325	17213.83
223.398	17263.91
223.471	17323.33
223.544	17369.6
223.617	17424.1
223.69	17468.63
223.763	17506.08
223.837	17551.38
223.91	17606.37
223.983	17628.49
224.056	17649.79
224.129	17702.12
224.202	17760
224.275	17799.04
224.348	17822.94
224.42	17837.59
224.493	17851.66
224.566	17898.02
224.639	17943.28
224.712	17982.31
224.785	18013.3
224.858	18049.68
224.931	18067.51
225.004	18082.93
225.077	18114.16
225.15	18117.25
225.223	18148.81
225.296	18197.96
225.369	18210.69
225.442	18232.61
225.514	18281.91
225.587	18320.66
225.66	18353.67
225.733	18379.69
225.806	18406.97
225.879	18434.53
225.952	18456.46
226.025	18506.24
226.097	18535.1
226.17	18558.14
226.243	18551.97
226.316	18575.78
226.389	18594.62
226.461	18634.91
226.534	18675.38
226.607	18701.94
226.68	18757.98
226.753	18778.13
226.825	18785.79
226.898	18832.87
226.971	18864.39
227.044	18882.65
227.117	18907.37
227.189	18927.03
227.262	18965.97
227.335	18996.81
227.407	19022.35
227.48	19062.83
227.553	19088.32
227.626	19109.72
227.698	19129.81
227.771	19169.96
227.844	19186.77
227.916	19210.73
227.989	19218.77
228.062	19228.8
228.134	19264.12
228.207	19275.4
228.28	19295.68
228.352	19309.9
228.425	19326.48
228.498	19346.38
228.57	19356.74
228.643	19385.8
228.716	19412.26
228.788	19415
228.861	19429.27
228.934	19457.36
229.006	19470.61
229.079	19482.03
229.151	19489.65
229.224	19483.67
229.296	19498.32
229.369	19546.8
229.442	19577.31
229.514	19584.2
229.587	19619.96
229.659	19615.18
229.732	19634.07
229.804	19661.01
229.877	19696.63
229.949	19723.76
230.022	19756.58
230.094	19774.69
230.167	19785.83
230.239	19789.2
230.312	19803.71
230.384	19830.16
230.457	19844.43
230.529	19858.35
230.602	19877.87
230.674	19900.86
230.747	19944.23
230.819	19972.28
230.892	19941.82
230.964	19952.57
231.037	19961.43
231.109	19968.52
231.181	20002.54
231.254	20006.59
231.326	20007.79
231.399	20014.73
231.471	20019.36
231.544	19990.78
231.616	20012.13
231.688	20026.93
231.761	20023.79
231.833	20024.56
231.905	20010.3
231.978	20009.72
232.05	20010.49
232.122	20017.24
232.195	20014.2
232.267	20014.83
232.339	20006.35
232.412	20027.65
232.484	20025.96
232.556	20033.29
232.629	20055.89
232.701	20058.01
232.773	20050.68
232.846	20047.07
232.918	20043.36
232.99	20040.66
233.062	20065.72
233.135	20059.89
233.207	20045.38
233.279	20046.59
233.351	20052.51
233.424	20050.49
233.496	20037.29
233.568	20051.12
233.64	20021.19
233.713	20006.78
233.785	20002.88
233.857	20002.44
233.929	19988.08
234.001	19995.07
234.074	20011.12
234.146	19976.08
234.218	19970.01
234.29	19965
234.362	19942.74
234.434	19918.25
234.507	19893.58
234.579	19859.94
234.651	19852.71
234.723	19841.73
234.795	19836.81
234.867	19822.07
234.939	19824.67
235.012	19817.58
235.084	19798.89
235.156	19810.74
235.228	19798.07
235.3	19782.07
235.372	19773.73
235.444	19767.61
235.516	19730.07
235.588	19707.08
235.66	19693.54
235.732	19668.14
235.804	19715.23
235.876	19723.61
235.948	19727.52
236.02	19713.16
236.092	19700.34
236.164	19678.99
236.236	19667.47
236.308	19641.79
236.38	19641.88
236.452	19610.75
236.524	19608.44
236.596	19614.66
236.668	19595.09
236.74	19574.95
236.812	19552.06
236.884	19535.72
236.956	19520.3
237.028	19497.94
237.1	19472.88
237.172	19474.28
237.244	19472.54
237.316	19402.71
237.388	19374.76
237.46	19353.7
237.532	19353.17
237.604	19328.65
237.675	19320.6
237.747	19301.66
237.819	19278.53
237.891	19241.37
237.963	19218.24
238.035	19181.72
238.107	19125.82
238.178	19113.48
238.25	19090.88
238.322	19100.47
238.394	19056.23
238.466	19026.4
238.538	19009
238.609	18993.1
238.681	18948.86
238.753	18907.8
238.825	18893.25
238.897	18865.2
238.968	18857.78
239.04	18827.33
239.112	18824.77
239.184	18783.67
239.255	18756.87
239.327	18741.55
239.399	18721.41
239.471	18707.91
239.542	18684.2
239.614	18679.96
239.686	18632.88
239.758	18621.56
239.829	18576.02
239.901	18564.69
239.973	18539.15
240.044	18524.26
240.116	18491.2
240.188	18465.32
240.259	18445.62
240.331	18412.94
240.403	18394.92
240.474	18342.49
240.546	18301.14
240.618	18250.35
240.689	18220.23
240.761	18195.6
240.833	18178.83
240.904	18137.15
240.976	18101.68
241.048	18080.04
241.119	18052.33
241.191	18028.53
241.262	18017.1
241.334	17987.37
241.405	17956
241.477	17922.17
241.549	17893.93
241.62	17872.97
241.692	17847.28
241.763	17822.32
241.835	17782.51
241.906	17757.45
241.978	17715.19
242.049	17697.21
242.121	17693.16
242.192	17678.95
242.264	17633.84
242.335	17587.52
242.407	17567.28
242.478	17528.68
242.55	17497.74
242.621	17460.44
242.693	17427.38
242.764	17387.04
242.836	17347.53
242.907	17320.68
242.979	17295.67
243.05	17258.18
243.122	17226.75
243.193	17192.34
243.264	17132.78
243.336	17116.24
243.407	17087.18
243.479	17083.09
243.55	17062.17
243.622	17030.85
243.693	16998.7
243.764	16987.37
243.836	16943.81
243.907	16925.25
243.978	16897.83
244.05	16869.63
244.121	16817.53
244.192	16798.59
244.264	16752.47
244.335	16718.73
244.407	16670.1
244.478	16638.53
244.549	16602.68
244.62	16561.23
244.692	16531.54
244.763	16515.97
244.834	16472.4
244.906	16432.83
244.977	16410.28
245.048	16383.77
245.119	16340.78
245.191	16296.77
245.262	16243.56
245.333	16239.61
245.405	16197.2
245.476	16172.09
245.547	16144.18
245.618	16123.94
245.689	16085.52
245.761	16049.28
245.832	16024.45
245.903	16009.03
245.974	15978.86
246.045	15952.11
246.117	15936.68
246.188	15896.29
246.259	15853.73
246.33	15820.96
246.401	15784.03
246.473	15731.11
246.544	15695.97
246.615	15670.28
246.686	15633.12
246.757	15616.49
246.828	15568.29
246.899	15552.72
246.97	15495.12
247.042	15457.23
247.113	15432.89
247.184	15431.01
247.255	15395.34
247.326	15361.12
247.397	15326.61
247.468	15292.05
247.539	15259.66
247.61	15221.72
247.681	15193.91
247.752	15175.59
247.823	15134.62
247.894	15106.8
247.965	15057.44
248.037	15016.42
248.108	14972.46
248.179	14943.25
248.25	14909.94
248.321	14889.36
248.392	14851.66
248.463	14861.45
248.534	14825.01
248.605	14809.39
248.675	14771.55
248.746	14748.17
248.817	14728.31
248.888	14704.84
248.959	14670.03
249.03	14652.44
249.101	14616.62
249.172	14585.29
249.243	14538.24
249.314	14528.5
249.385	14508.35
249.456	14494.62
249.527	14470.71
249.598	14455.62
249.669	14435.03
249.739	14410.83
249.81	14389.62
249.881	14344.74
249.952	14314.86
250.023	14286.22
250.094	14244.86
250.165	14203.46
250.235	14185.81
250.306	14166.14
250.377	14129.75
250.448	14109.5
250.519	14059.32
250.59	14058.89
250.66	14034.83
250.731	14027.94
250.802	13996.84
250.873	13969.27
250.944	13945.5
251.014	13915.62
251.085	13910.99
251.156	13897.54
251.227	13893.3
251.297	13880.76
251.368	13866.35
251.439	13846.68
251.51	13832.36
251.58	13802.14
251.651	13771.72
251.722	13751.57
251.792	13702.83
251.863	13672.75
251.934	13664.41
252.005	13665.91
252.075	13634.04
252.146	13618.42
252.217	13608.06
252.287	13597.89
252.358	13570.12
252.429	13565.2
252.499	13526.25
252.57	13497.04
252.641	13472.6
252.711	13440.93
252.782	13400
252.852	13402.22
252.923	13380.86
252.994	13367.41
253.064	13356.18
253.135	13327.98
253.205	13297.32
253.276	13295.68
253.347	13292.11
253.417	13260.73
253.488	13233.88
253.558	13201.39
253.629	13183.6
253.699	13162.49
253.77	13144.36
253.841	13126.28
253.911	13102.95
253.982	13097.46
254.052	13082.32
254.123	13065.5
254.193	13044.24
254.264	13058.26
254.334	13021.96
254.405	12981.66
254.475	12947.53
254.546	12921.5
254.616	12914.66
254.687	12901.88
254.757	12881.59
254.827	12859.27
254.898	12839.65
254.968	12818.3
255.039	12790.19
255.109	12775.06
255.18	12737.07
255.25	12699.33
255.321	12687.03
255.391	12655.65
255.461	12654.4
255.532	12607.25
255.602	12580.79
255.673	12535.48
255.743	12500.33
255.813	12450.54
255.884	12446.78
255.954	12434.59
256.024	12428.56
256.095	12405.95
256.165	12370.62
256.235	12352.78
256.306	12317.59
256.376	12313.11
256.446	12301.64
256.517	12293.49
256.587	12280.14
256.657	12265.73
256.728	12243.31
256.798	12224.76
256.868	12204.8
256.938	12166.33
257.009	12165.27
257.079	12150.28
257.149	12155.1
257.219	12118.71
257.29	12110.95
257.36	12069.35
257.43	12058.46
257.5	12018.06
257.571	11994.06
257.641	11981.58
257.711	11954.34
257.781	11951.84
257.852	11929.61
257.922	11887.44
257.992	11867.2
258.062	11841.89
258.132	11832.68
258.202	11811.91
258.273	11787.52
258.343	11783.42
258.413	11760.91
258.483	11740.53
258.553	11709.97
258.623	11681.24
258.693	11666.44
258.764	11664.8
258.834	11658.01
258.904	11631.88
258.974	11601.19
259.044	11583.3
259.114	11573.18
259.184	11558.19
259.254	11529.23
259.324	11485.22
259.394	11479.2
259.464	11475.25
259.535	11456.74
259.605	11432.83
259.675	11409.12
259.745	11396.49
259.815	11367.48
259.885	11346.47
259.955	11349.31
260.025	11327.14
260.095	11312.83
260.165	11299.38
260.235	11294.95
260.305	11269.12
260.375	11241.6
260.445	11251.24
260.515	11250.37
260.585	11244.59
260.655	11225.79
260.725	11224.39
260.795	11221.4
260.865	11220.25
260.934	11194.56
261.004	11184.58
261.074	11166.99
261.144	11165.02
261.214	11161.84
261.284	11143.57
261.354	11131
261.424	11106.03
261.494	11107.81
261.564	11095.48
261.634	11087.38
261.703	11051.72
261.773	11050.71
261.843	11046.71
261.913	11027.05
261.983	10989.36
262.053	10979.92
262.123	10965.41
262.192	10933.56
262.262	10928.79
262.332	10895.87
262.402	10886
262.472	10869.8
262.541	10831.5
262.611	10827.64
262.681	10796.13
262.751	10783.94
262.821	10767.8
262.89	10733.29
262.96	10722.21
263.03	10725.49
263.1	10714.11
263.169	10700.43
263.239	10689.68
263.309	10686.7
263.379	10681.83
263.448	10668.73
263.518	10653.83
263.588	10634.27
263.657	10641.4
263.727	10636.05
263.797	10626.56
263.867	10608.11
263.936	10575.49
264.006	10580.6
264.076	10558.29
264.145	10540.27
264.215	10519.21
264.285	10515.12
264.354	10482.74
264.424	10459.09
264.494	10422.66
264.563	10399.05
264.633	10403.44
264.702	10394.04
264.772	10362.77
264.842	10342.44
264.911	10336.08
264.981	10298.21
265.05	10286.55
265.12	10260.15
265.19	10248.15
265.259	10246.85
265.329	10241.31
265.398	10228.06
265.468	10238.66
265.537	10223.05
265.607	10220.4
265.676	10217.32
265.746	10202.58
265.815	10204.22
265.885	10186.44
265.955	10163.85
266.024	10146.31
266.094	10105.7
266.163	10100.79
266.232	10104.55
266.302	10086.68
266.371	10081.43
266.441	10079.4
266.51	10075.21
266.58	10060.33
266.649	10033.4
266.719	10026.56
266.788	10011.67
266.858	10019.18
266.927	9979.78
266.996	9971.49
267.066	9958.87
267.135	9935.56
267.205	9935.71
267.274	9925.64
267.343	9926.84
267.413	9913.5
267.482	9913.98
267.552	9918.75
267.621	9889.75
267.69	9858.11
267.76	9852.81
267.829	9840.91
267.898	9825.5
267.968	9800.6
268.037	9795.64
268.106	9791.88
268.176	9762.74
268.245	9751.56
268.314	9735.57
268.384	9734.56
268.453	9721.7
268.522	9719.1
268.592	9719.15
268.661	9696.22
268.73	9687.84
268.799	9666.89
268.869	9680.9
268.938	9654.46
269.007	9638.33
269.076	9627.06
269.146	9629.95
269.215	9618.73
269.284	9619.31
269.353	9603.61
269.422	9588.39
269.492	9579.91
269.561	9543.99
269.63	9538.36
269.699	9522.75
269.768	9517.36
269.838	9509.51
269.907	9505.56
269.976	9476.86
270.045	9444.98
270.114	9438.38
270.183	9426.63
270.253	9418.11
270.322	9380.84
270.391	9368.13
270.46	9368.46
270.529	9371.88
270.598	9364.51
270.667	9357.24
270.736	9332.49
270.806	9320.84
270.875	9331.86
270.944	9304.32
271.013	9328.93
271.082	9321.27
271.151	9314.77
271.22	9282.13
271.289	9270.43
271.358	9256.75
271.427	9254.2
271.496	9246.69
271.565	9231.57
271.634	9227.72
271.703	9249.01
271.772	9255.22
271.841	9247.85
271.91	9227.53
271.979	9212.84
272.048	9190.94
272.117	9182.46
272.186	9171.73
272.255	9177.84
272.324	9169.37
272.393	9174.23
272.462	9148.9
272.531	9135.95
272.6	9119.19
272.669	9124.1
272.738	9109.27
272.807	9108.65
272.876	9087.47
272.945	9112.65
273.013	9116.45
273.082	9110.29
273.151	9071.96
273.22	9068.49
273.289	9059.2
273.358	9068.64
273.427	9058.05
273.496	9058.14
273.564	9056.46
273.633	9054.2
273.702	9034.51
273.771	9021.75
273.84	9018.62
273.909	9017.46
273.977	9015.54
274.046	9013.71
274.115	9013.42
274.184	9001
274.253	8988.96
274.322	8997.48
274.39	8964.51
274.459	8952.57
274.528	8932.4
274.597	8923.21
274.665	8922.72
274.734	8927.15
274.803	8916.18
274.872	8906.64
274.94	8890.86
275.009	8916.47
275.078	8904.58
275.147	8899.63
275.215	8898.42
275.284	8898.66
275.353	8886.72
275.421	8863.62
275.49	8876.72
275.559	8867.33
275.627	8861.22
275.696	8850.34
275.765	8847.11
275.833	8842.01
275.902	8840.62
275.971	8846.34
276.039	8862.66
276.108	8861.12
276.177	8860.06
276.245	8845.67
276.314	8842.25
276.383	8849.62
276.451	8813.17
276.52	8821.93
276.588	8838.39
276.657	8838.39
276.725	8827.61
276.794	8827.03
276.863	8842.53
276.931	8816.44
277	8827.65
277.068	8836.17
277.137	8855.33
277.205	8849.99
277.274	8867.99
277.342	8878.53
277.411	8859.33
277.48	8843.49
277.548	8830.26
277.617	8834.35
277.685	8829.87
277.754	8839.02
277.822	8825.25
277.89	8839.65
277.959	8823.38
278.027	8802.25
278.096	8789.68
278.164	8816.07
278.233	8807.21
278.301	8796.28
278.37	8805.62
278.438	8789.11
278.507	8790.41
278.575	8764.75
278.643	8761.53
278.712	8738.04
278.78	8715.08
278.849	8728.84
278.917	8738.71
278.985	8735.68
279.054	8735.25
279.122	8745.69
279.191	8735.63
279.259	8732.79
279.327	8706.7
279.396	8723.11
279.464	8721.67
279.532	8731.39
279.601	8728.99
279.669	8726.24
279.737	8736.93
279.806	8734.47
279.874	8736.98
279.942	8738.37
280.011	8741.31
280.079	8752.47
280.147	8769.22
280.215	8778.17
280.284	8770.38
280.352	8759.07
280.42	8762.05
280.488	8751.51
280.557	8748.19
280.625	8754.01
280.693	8757.04
280.761	8764.36
280.83	8747.9
280.898	8758.1
280.966	8735.19
281.034	8702.22
281.102	8692.11
281.171	8685.81
281.239	8698.08
281.307	8692.16
281.375	8675.42
281.443	8694.33
281.512	8687.45
281.58	8693.61
281.648	8672.68
281.716	8676.53
281.784	8670.8
281.852	8662.33
281.92	8658.14
281.989	8666.95
282.057	8642.36
282.125	8685.97
282.193	8679.38
282.261	8678.75
282.329	8670.52
282.397	8675.05
282.465	8674.08
282.533	8692.32
282.601	8679.67
282.67	8656.95
282.738	8654.35
282.806	8667.29
282.874	8644.14
282.942	8645.63
283.01	8639.52
283.078	8647.51
283.146	8641.59
283.214	8654.92
283.282	8658.87
283.35	8674.03
283.418	8666.14
283.486	8669.07
283.554	8626.32
283.622	8625.89
283.69	8628.78
283.758	8628.05
283.826	8631.23
283.894	8646.58
283.962	8659.44
284.03	8670.5
284.098	8670.79
284.165	8661.8
284.233	8661.07
284.301	8660.54
284.369	8653.76
284.437	8643.22
284.505	8641.2
284.573	8658.47
284.641	8645.96
284.709	8656.45
284.777	8638.5
284.845	8646.59
284.912	8660.54
284.98	8667.23
285.048	8659.05
285.116	8665.26
285.184	8675.7
285.252	8678.59
285.319	8661.7
285.387	8647.88
285.455	8636.24
285.523	8644.47
285.591	8641.05
285.659	8637.1
285.726	8650.44
285.794	8635.13
285.862	8635.47
285.93	8631.76
285.997	8627.77
286.065	8621.18
286.133	8611.12
286.201	8602.84
286.269	8585.08
286.336	8574.3
286.404	8566.55
286.472	8575.31
286.539	8551.3
286.607	8533.3
286.675	8537.77
286.743	8540.85
286.81	8539.55
286.878	8553.13
286.946	8543.21
287.013	8549.51
287.081	8553.75
287.149	8536.71
287.216	8556.06
287.284	8554.57
287.352	8560.44
287.419	8551.68
287.487	8564.19
287.555	8568.43
287.622	8570.98
287.69	8579.93
287.758	8592.97
287.825	8586.95
287.893	8577.62
287.96	8577.04
288.028	8586.18
288.096	8581.61
288.163	8587.96
288.231	8578.48
288.298	8576.08
288.366	8588.11
288.433	8584.84
288.501	8576.27
288.569	8582.05
288.636	8576.08
288.704	8589.12
288.771	8593.93
288.839	8588.5
288.906	8579.78
288.974	8587.87
289.041	8587.49
289.109	8577.57
289.176	8584.84
289.244	8593.89
289.311	8614.63
289.379	8626.66
289.446	8637.44
289.514	8641.48
289.581	8644.85
289.649	8651.45
289.716	8653.61
289.783	8643.12
289.851	8661.46
289.918	8661.5
289.986	8676.09
290.053	8684.37
290.121	8684.41
290.188	8681.19
290.255	8712.38
290.323	8712.76
290.39	8701.74
290.458	8704.68
290.525	8717.29
290.592	8710.89
290.66	8705.69
290.727	8690.53
290.794	8707.42
290.862	8697.94
290.929	8697.7
290.996	8693.03
291.064	8699.28
291.131	8712.04
291.198	8722.97
291.266	8720.13
291.333	8719.16
291.4	8719.36
291.468	8731.15
291.535	8724.84
291.602	8733.51
291.669	8719.93
291.737	8725.52
291.804	8731
291.871	8748.76
291.938	8754.25
292.006	8785.35
292.073	8799.93
292.14	8816.54
292.207	8811.1
292.275	8818.61
292.342	8830.16
292.409	8857.41
292.476	8878.06
292.543	8868.72
292.611	8871.66
292.678	8892.12
292.745	8919.84
292.812	8930.24
292.879	8927.45
292.946	8932.98
293.014	8947.13
293.081	8955.94
293.148	8966.05
293.215	8979.1
293.282	8977.99
293.349	8987.14
293.416	8962.49
293.484	8972.31
293.551	8980.92
293.618	8997.29
293.685	9025.79
293.752	9017.37
293.819	9012.02
293.886	9003.12
293.953	9008.8
294.02	9020.5
294.087	9027.77
294.154	9023.58
294.221	9037.2
294.288	9035.95
294.356	9055.93
294.423	9062.91
294.49	9057.38
294.557	9069.65
294.624	9063.25
294.691	9078.17
294.758	9079.38
294.825	9085.59
294.892	9079.81
294.959	9081.06
295.026	9088.43
295.093	9075.72
295.16	9083.56
295.226	9085.49
295.293	9110.29
295.36	9114.04
295.427	9128.2
295.494	9136.86
295.561	9146.4
295.628	9168.12
295.695	9190.79
295.762	9180.92
295.829	9190.31
295.896	9212.07
295.963	9220.31
296.03	9232.34
296.096	9236.29
296.163	9250.5
296.23	9269.66
296.297	9285.59
296.364	9283.09
296.431	9282.61
296.498	9280.78
296.564	9303.12
296.631	9304.56
296.698	9287.76
296.765	9306.68
296.832	9293.01
296.899	9279.04
296.965	9296.18
297.032	9275.96
297.099	9289.97
297.166	9304.17
297.233	9297.91
297.299	9284.91
297.366	9281.69
297.433	9286.12
297.5	9299.07
297.566	9302.11
297.633	9297.68
297.7	9303.26
297.767	9303.89
297.833	9311.83
297.9	9312.7
297.967	9293.97
298.033	9304.32
298.1	9332.73
298.167	9329.6
298.234	9337.45
298.3	9345.4
298.367	9341.59
298.434	9345.4
298.5	9331.09
298.567	9328.59
298.634	9328.54
298.7	9350.84
298.767	9357.67
298.834	9369.28
298.9	9363.02
298.967	9351.61
299.033	9364.8
299.1	9380.84
299.167	9395.19
299.233	9395.28
299.3	9406.74
299.366	9428.55
299.433	9442.42
299.5	9414.64
299.566	9420.37
299.633	9435.29
299.699	9451.52
299.766	9445.12
299.832	9453.5
299.899	9470.55
299.965	9485.33
300.032	9482.01
300.099	9482.68
300.165	9495.54
300.232	9490.58
300.298	9494.39
300.365	9511.62
300.431	9512.3
300.498	9504.64
300.564	9509.12
300.631	9523.47
300.697	9547.12
300.763	9547.12
300.83	9549.09
300.896	9563.92
300.963	9569.27
301.029	9575.77
301.096	9577.07
301.162	9591.33
301.229	9592.82
301.295	9583.14
301.361	9583.14
301.428	9593.83
301.494	9580.2
301.561	9574.52
301.627	9579.33
301.693	9583.86
301.76	9585.4
301.826	9580.39
301.892	9592.96
301.959	9602.21
302.025	9594.02
302.092	9576.35
302.158	9577.79
302.224	9579.09
302.291	9571.53
302.357	9572.11
302.423	9568.11
302.49	9558.19
302.556	9575.72
302.622	9570.62
302.688	9580.49
302.755	9596.34
302.821	9601.2
302.887	9609.68
302.954	9609.43
303.02	9617.57
303.086	9626
303.152	9621.76
303.219	9617.04
303.285	9617.43
303.351	9629.18
303.417	9632.7
303.483	9629.42
303.55	9624.8
303.616	9627.31
303.682	9627.64
303.748	9614.98
303.815	9626.68
303.881	9632.41
303.947	9615.22
304.013	9618.06
304.079	9607.22
304.145	9580.83
304.212	9578.57
304.278	9578.33
304.344	9575.73
304.41	9563.11
304.476	9554.34
304.542	9550.11
304.608	9562.29
304.674	9546.54
304.741	9538.5
304.807	9534.93
304.873	9542.45
304.939	9562.53
305.005	9540.47
305.071	9538.54
305.137	9544.42
305.203	9513.5
305.269	9511.72
305.335	9518.7
305.401	9511.38
305.467	9506.66
305.533	9516.87
305.599	9522.46
305.666	9530.93
305.732	9536.18
305.798	9550.01
305.864	9567.63
305.93	9571.25
305.996	9564.45
306.062	9565.03
306.128	9556.22
306.194	9549.24
306.259	9546.11
306.325	9530.84
306.391	9545.48
306.457	9557.66
306.523	9566.52
306.589	9592.29
306.655	9587.42
306.721	9566.67
306.787	9556.17
306.853	9575.24
306.919	9563.59
306.985	9559.3
307.051	9553.19
307.117	9546.3
307.183	9538.83
307.248	9513.21
307.314	9521.11
307.38	9519.81
307.446	9524
307.512	9517.64
307.578	9523.57
307.644	9518.08
307.709	9515.38
307.775	9505.8
307.841	9502.76
307.907	9491.06
307.973	9472.42
308.039	9473.24
308.104	9485.04
308.17	9485.04
308.236	9466.4
308.302	9468.13
308.368	9453.74
308.433	9447.86
308.499	9439.24
308.565	9425.85
308.631	9426.58
308.696	9399.47
308.762	9389.84
308.828	9387.96
308.894	9366.39
308.959	9344.33
309.025	9336.1
309.091	9335.43
309.156	9331.09
309.222	9330.13
309.288	9322.47
309.354	9305.04
309.419	9308.37
309.485	9288.53
309.551	9294.06
309.616	9274.28
309.682	9268.4
309.748	9260.5
309.813	9254.73
309.879	9251.12
309.945	9241.05
310.01	9233.06
310.076	9235.85
310.141	9227.47
310.207	9210.14
310.273	9217.31
310.338	9227.66
310.404	9208.41
310.469	9197
310.535	9188.23
310.601	9166.66
310.666	9173.45
310.732	9183.32
310.797	9165.55
310.863	9158.38
310.928	9152.74
310.994	9161.27
311.059	9160.06
311.125	9159.82
311.191	9165.79
311.256	9147.45
311.322	9157.51
311.387	9138.79
311.453	9486.27
311.518	9463.74
311.584	9464.17
311.649	9466.63
311.715	9449.68
311.78	9454.45
311.846	9447.47
311.911	9454.31
311.976	9452.52
312.042	9437.55
312.107	9422.38
312.173	9413.43
312.238	9407.75
312.304	9404.96
312.369	9393.16
312.434	9382.23
312.5	9377.32
312.565	9346.8
312.631	9355.37
312.696	9345.98
312.761	9350.26
312.827	8995.61
312.892	9042.5
312.958	9036.96
313.023	9033.59
313.088	9038.02
313.154	9020.79
313.219	9008.61
313.284	8994.84
313.35	8994.02
313.415	8982.23
313.48	8980.98
313.546	8984.73
313.611	8995.13
313.676	8980.45
313.741	8968.56
313.807	8974.72
313.872	8973.61
313.937	8980.88
314.003	8989.02
314.068	8989.26
314.133	8995.18
314.198	8984.25
314.264	8954.35
314.329	8947.23
314.394	8938.22
314.459	8928.98
314.525	8951.51
314.59	8943.04
314.655	8932.69
314.72	8934.18
314.785	8937.31
314.851	8926.62
314.916	8904.67
314.981	8887.63
315.046	8879.98
315.111	8876.8
315.176	8861.74
315.242	8865.78
315.307	8866.45
315.372	8844.41
315.437	8830.11
315.502	8816.44
315.567	8828.57
315.632	8816.05
315.698	8818.6
315.763	8819.09
315.828	8811.58
315.893	8810.85
315.958	8810.47
316.023	8803.06
316.088	8793.72
316.153	8772.3
316.218	8766
316.283	8755.89
316.348	8737.51
316.413	8732.6
316.479	8714.31
316.544	8685.87
316.609	8657.04
316.674	8623.02
316.739	8595.11
316.804	8566.63
316.869	8531.5
316.934	8487.37
316.999	8455.37
317.064	8404.7
317.129	8358.84
317.194	8326.9
317.259	8279.64
317.324	8229.52
317.389	8180.59
317.454	8132.86
317.518	8098.95
317.583	8071.96
317.648	8044.2
317.713	8009.43
317.778	7953.29
317.843	7925.3
317.908	7883.99
317.973	7844.94
318.038	7813.82
318.103	7774.68
318.168	7740.49
318.233	7711.11
318.297	7669.47
318.362	7641.24
318.427	7603.5
318.492	7577.25
318.557	7523.51
318.622	7496.53
318.687	7476.68
318.751	7437.37
318.816	7402.42
318.881	7365.99
318.946	7312.34
319.011	7264.04
319.075	7223.1
319.14	7185.95
319.205	7142.03
319.27	7109.89
319.335	7063.95
319.399	7024.16
319.464	6996.16
319.529	6941.01
319.594	6903.34
319.658	6867.7
319.723	6815.24
319.788	6781.47
319.853	6725.03
319.917	6700.59
319.982	6638.39
320.047	6594.78
320.112	6569.53
320.176	6521.61
320.241	6486.79
320.306	6459.33
320.37	6417.85
320.435	6386.51
320.5	6359.43
320.564	6322.08
320.629	6282.25
320.694	6251.48
320.758	6209.1
320.823	6163.27
320.888	6139.57
320.952	6091.59
321.017	6051.28
321.082	6016.02
321.146	5981.04
321.211	5951.83
321.275	5908.61
321.34	5868.47
321.405	5831.06
321.469	5780.8
321.534	5737.89
321.598	5689.08
321.663	5650.99
321.727	5625.15
321.792	5576.68
321.857	5532.61
321.921	5493.54
321.986	5450.46
322.05	5394.1
322.115	5356.71
322.179	5313.92
322.244	5260.21
322.308	5228.11
322.373	5183.31
322.437	5139.53
322.502	5112.4
322.566	5067.51
322.631	5031.97
322.695	4993.28
322.76	4950.56
322.824	4919.44
322.889	4879.37
322.953	4834.81
323.018	4773.53
323.082	4708.92
323.146	4660.87
323.211	4607.71
323.275	4564.25
323.34	4521
323.404	4483.26
323.468	4434.98
323.533	4391.89
323.597	4344.22
323.662	4290.79
323.726	4251.19
323.79	4205.72
323.855	4139.52
323.919	4089.36
323.983	4046.57
324.048	3979.21
324.112	4117.51
324.177	3989.09
324.241	3782.19
324.305	3580.44
324.37	3381.47
324.434	3189.71
324.498	3145.07
324.562	3096.05
324.627	3033.21
324.691	2975.73
324.755	2911.82
324.82	2838.92
324.884	2761.49
324.948	2690.82
325.012	2596.25
325.077	2478.92
