Data from 20250702_urea_0.5M_MAYP1162681_00-14-59-559.txt Node
Date: Thu Jul 03 00:14:59 BST 2025
User: adleo
Spectrometer: MAYP116268
Trigger mode: 0
Integration Time (sec): 1.000000E0
Scans to average: 1
Electric dark correction enabled: true
Nonlinearity correction enabled: true
Boxcar width: 10
XAxis mode: Wavelengths
Number of Pixels in Spectrum: 2068
>>>>>Begin Spectral Data<<<<<
179.565	1212.45
179.642	1267.77
179.718	1308.6
179.795	1347.3
179.871	1380.44
179.948	1398.59
180.024	1419.47
180.101	1443.41
180.177	1460.63
180.254	1484.91
180.33	1507.88
180.407	1563.1
180.483	1659.54
180.56	1749.43
180.636	1834.51
180.712	1822.76
180.789	1836.31
180.865	1846.95
180.942	1855.22
181.018	1866.3
181.095	1881.56
181.171	1886.17
181.248	1885.6
181.324	1903.2
181.4	1914.37
181.477	1927.16
181.553	1942.23
181.63	1962.48
181.706	1976.7
181.782	1980.41
181.859	1981.27
181.935	1986.73
182.011	1983.03
182.088	2000.34
182.164	2022.08
182.24	2036.24
182.317	2046.66
182.393	2043.33
182.469	2060.16
182.546	2074
182.622	2078.62
182.698	2074.33
182.775	2086.6
182.851	2105.77
182.927	2100.02
183.003	2092.65
183.08	2084.94
183.156	2092.41
183.232	2092.5
183.308	2080.8
183.385	2091.65
183.461	2106.34
183.537	2104.92
183.613	2116.71
183.69	2106.49
183.766	2095.64
183.842	2104.96
183.918	2110.15
183.995	2123.18
184.071	2125.8
184.147	2118.33
184.223	2107.06
184.299	2116.57
184.375	2106.54
184.452	2109.92
184.528	2164.79
184.604	2174.54
184.68	2186.33
184.756	2195.14
184.832	2198.51
184.908	2205.5
184.985	2207.36
185.061	2191.09
185.137	2205.41
185.213	2195.28
185.289	2197.66
185.365	2188.62
185.441	2183.87
185.517	2197.24
185.593	2193
185.669	2190.15
185.745	2202.42
185.822	2217.69
185.898	2211.84
185.974	2222.4
186.05	2213.4
186.126	2172.18
186.202	2166.86
186.278	2165.95
186.354	2155.87
186.43	2163.01
186.506	2163.34
186.582	2161.01
186.658	2167.57
186.734	2143.64
186.81	2144.07
186.886	2145.64
186.962	2160.77
187.038	2157.63
187.114	2150.39
187.19	2158.24
187.266	2150.06
187.341	2150.4
187.417	2145.02
187.493	2145.54
187.569	2147.11
187.645	2141.45
187.721	2131.56
187.797	2137.6
187.873	2140.45
187.949	2136.22
188.025	2127.41
188.101	2127.41
188.176	2136.17
188.252	2135.69
188.328	2144.06
188.404	2145.63
188.48	2143.39
188.556	2137.21
188.632	2139.11
188.707	2138.87
188.783	2135.26
188.859	2126.41
188.935	2116.8
189.011	2125.22
189.086	2116.71
189.162	2109.34
189.238	2106.96
189.314	2101.82
189.39	2097.68
189.465	2088.07
189.541	2102.35
189.617	2085.08
189.693	2082.94
189.768	2082.18
189.844	2103.88
189.92	2096.51
189.996	2103.93
190.071	2112.4
190.147	2108.41
190.223	2117.11
190.298	2108.88
190.374	2098.13
190.45	2115.78
190.526	2124.05
190.601	2118.15
190.677	2121.34
190.753	2147.9
190.828	2153.61
190.904	2170.88
190.98	2186.34
191.055	2198.52
191.131	2191.1
191.207	2215.26
191.282	2222.35
191.358	2212.79
191.433	2198.08
191.509	2212.73
191.585	2208.35
191.66	2209.4
191.736	2218.48
191.811	2207.59
191.887	2225.34
191.963	2247.04
192.038	2250.41
192.114	2243.66
192.189	2246.51
192.265	2243.66
192.34	2221.76
192.416	2220.67
192.491	2216.91
192.567	2218.34
192.642	2220.24
192.718	2218.57
192.793	2204.3
192.869	2202.68
192.944	2205.96
193.02	2213.77
193.095	2217.77
193.171	2226.76
193.246	2226.23
193.322	2222.19
193.397	2224.19
193.473	2206.63
193.548	2190.26
193.624	2196.16
193.699	2200.96
193.775	2216.86
193.85	2218.19
193.925	2225.23
194.001	2224.19
194.076	2216.57
194.152	2206.01
194.227	2200.96
194.302	2191.03
194.378	2196.97
194.453	2195.12
194.529	2208.96
194.604	2191.74
194.679	2182.42
194.755	2160.78
194.83	2173.77
194.905	2173.77
194.981	2181.15
195.056	2175.96
195.131	2182.72
195.207	2180.43
195.282	2171.01
195.357	2151.12
195.433	2165.92
195.508	2155.78
195.583	2163.96
195.659	2176.62
195.734	2183.05
195.809	2181
195.884	2190.51
195.96	2188.75
196.035	2201.5
196.11	2194.51
196.185	2207.92
196.261	2213.73
196.336	2246.41
196.411	2231.27
196.486	2234.84
196.561	2230.85
196.637	2238.74
196.712	2255.83
196.787	2256.64
196.862	2272.49
196.937	2284.76
197.013	2288.14
197.088	2298.37
197.163	2318.94
197.238	2337.04
197.313	2339.47
197.388	2352.74
197.464	2382.93
197.539	2393.78
197.614	2387.07
197.689	2401.3
197.764	2422.59
197.839	2443.53
197.914	2437.11
197.989	2463.58
198.065	2479.38
198.14	2527.03
198.215	2554.45
198.29	2562.41
198.365	2576.55
198.44	2585.93
198.515	2612.32
198.59	2629.66
198.665	2657.47
198.74	2662.24
198.815	2664.29
198.89	2686.01
198.965	2715.31
199.04	2712.6
199.115	2729.26
199.19	2772.85
199.265	2776.23
199.34	2782.1
199.415	2813.47
199.49	2837.57
199.565	2843.76
199.64	2868.74
199.715	2868.45
199.79	2877.13
199.865	2885.47
199.94	2883.99
200.015	2919.08
200.09	2921.84
200.165	2927.27
200.24	2938
200.315	2984.52
200.39	2998.11
200.464	3003.49
200.539	3006.12
200.614	3023.75
200.689	3053.22
200.764	3059.9
200.839	3080.68
200.914	3086.73
200.989	3076.52
201.063	3087.68
201.138	3072.72
201.213	3071.53
201.288	3049.07
201.363	3054.75
201.438	3055.8
201.512	3073.1
201.587	3055.16
201.662	3061.6
201.737	3077.38
201.812	3079.29
201.886	3045.84
201.961	3060.29
202.036	3047.95
202.111	3043.47
202.186	3012.02
202.26	2992.42
202.335	2969.19
202.41	2958.99
202.485	2942.27
202.559	2923.53
202.634	2898.32
202.709	2904.7
202.784	2886.4
202.858	2886.97
202.933	2868.05
203.008	2863.23
203.082	2844.65
203.157	2842.93
203.232	2800.4
203.306	2775.7
203.381	2743.58
203.456	2719.13
203.53	2692.42
203.605	2674.43
203.68	2653.07
203.754	2649.7
203.829	2631.11
203.904	2611.54
203.978	2598.67
204.053	2604.49
204.127	2592.2
204.202	2592.87
204.277	2574.68
204.351	2565.25
204.426	2560.63
204.5	2550.58
204.575	2513.29
204.65	2522.11
204.724	2510.67
204.799	2519.62
204.873	2517.57
204.948	2516
205.022	2505.38
205.097	2495.9
205.171	2508.14
205.246	2513.09
205.32	2511
205.395	2511.14
205.469	2504.33
205.544	2512.53
205.618	2493.67
205.693	2507.24
205.767	2492.2
205.842	2515.34
205.916	2510.06
205.991	2502.15
206.065	2506.01
206.14	2521.23
206.214	2517.42
206.289	2514.28
206.363	2529.42
206.438	2532.14
206.512	2539.9
206.586	2559.52
206.661	2565.28
206.735	2546.15
206.81	2551.96
206.884	2565.24
206.958	2555.58
207.033	2572.43
207.107	2579.34
207.181	2610.98
207.256	2603.02
207.33	2629.12
207.405	2646.95
207.479	2670.15
207.553	2676.1
207.628	2666.15
207.702	2680.87
207.776	2675.96
207.851	2681.11
207.925	2698.98
207.999	2703.46
208.073	2708.7
208.148	2716.18
208.222	2713.04
208.296	2749.37
208.371	2770.31
208.445	2797.14
208.519	2834.97
208.593	2860.09
208.668	2869.82
208.742	2883.89
208.816	2900.56
208.89	2925.03
208.965	2936.38
209.039	2960.95
209.113	2997.23
209.187	3038.06
209.261	3053.94
209.336	3099.67
209.41	3142.31
209.484	3165.74
209.558	3208.49
209.632	3249.75
209.707	3291.26
209.781	3341.49
209.855	3394.15
209.929	3447.12
210.003	3481.69
210.077	3520.6
210.151	3606.67
210.226	3678.48
210.3	3749.55
210.374	3818.84
210.448	3868.1
210.522	3927.89
210.596	3989.93
210.67	4056.52
210.744	4157.07
210.818	4248.88
210.892	4329.24
210.966	4386.62
211.041	4468.13
211.115	4532.55
211.189	4625.33
211.263	4707.45
211.337	4790.72
211.411	4869.19
211.485	4939.65
211.559	5030.18
211.633	5104.52
211.707	5148.99
211.781	5239.74
211.855	5287.13
211.929	5366.51
212.003	5433.53
212.077	5531.1
212.151	5632.19
212.225	5728.58
212.299	5809.68
212.373	5898.46
212.447	5988.35
212.52	6112.18
212.594	6212.69
212.668	6325.8
212.742	6410.68
212.816	6507.65
212.89	6600.75
212.964	6713.43
213.038	6818.16
213.112	6934.32
213.186	7062.09
213.26	7158.54
213.333	7222.07
213.407	7337.71
213.481	7448.85
213.555	7573.83
213.629	7669.61
213.703	7762.18
213.777	7879
213.85	7977.08
213.924	8112.84
213.998	8223.4
214.072	8329.02
214.146	8425.25
214.219	8534.58
214.293	8650.79
214.367	8770.73
214.441	8896.06
214.515	8994.37
214.588	9082.85
214.662	9163.05
214.736	9253.47
214.81	9363.56
214.883	9483.29
214.957	9581.56
215.031	9677.72
215.105	9760.63
215.178	9855.75
215.252	9960.46
215.326	10042.21
215.4	10120.33
215.473	10173.81
215.547	10253.64
215.621	10344.89
215.694	10454.99
215.768	10532.99
215.842	10616.83
215.915	10707.96
215.989	10779.42
216.063	10862.11
216.136	10965.23
216.21	11062.86
216.284	11165.99
216.357	11259.87
216.431	11348.45
216.504	11447.97
216.578	11570.24
216.652	11674.91
216.725	11764.13
216.799	11861.83
216.873	11956.83
216.946	12066.68
217.02	12161.34
217.093	12249.06
217.167	12312.84
217.24	12388.66
217.314	12472.05
217.387	12551.63
217.461	12617.87
217.535	12713.12
217.608	12790.63
217.682	12870.6
217.755	12965.57
217.829	13044.05
217.902	13130.1
217.976	13213.35
218.049	13282.18
218.123	13339.74
218.196	13422.8
218.27	13498
218.343	13565.73
218.417	13639.44
218.49	13702.35
218.563	13794.28
218.637	13883.03
218.71	13985.75
218.784	14063.27
218.857	14148.54
218.931	14230.06
219.004	14314.95
219.077	14399.02
219.151	14479.67
219.224	14552.6
219.298	14625.05
219.371	14711.29
219.444	14776.03
219.518	14855.8
219.591	14933.94
219.665	15029.38
219.738	15103.86
219.811	15165.75
219.885	15241.86
219.958	15314.02
220.031	15379.34
220.105	15453.86
220.178	15520.28
220.251	15578.99
220.325	15648.54
220.398	15718.14
220.471	15785.14
220.544	15861.63
220.618	15920.14
220.691	15992.97
220.764	16065.18
220.838	16133.23
220.911	16183.93
220.984	16266.31
221.057	16331.47
221.131	16405.07
221.204	16440.35
221.277	16519.87
221.35	16616.79
221.424	16666.34
221.497	16721.81
221.57	16798.21
221.643	16851.8
221.716	16918.5
221.79	16970.84
221.863	17025.3
221.936	17081.3
222.009	17135.86
222.082	17189.79
222.155	17244.49
222.229	17302.37
222.302	17341.6
222.375	17386.46
222.448	17444.49
222.521	17488.39
222.594	17532.01
222.667	17567.48
222.74	17624.54
222.814	17663.14
222.887	17699.76
222.96	17761.88
223.033	17824.34
223.106	17867.57
223.179	17916.43
223.252	17962.31
223.325	18000.48
223.398	18049.15
223.471	18096.52
223.544	18138.06
223.617	18168.09
223.69	18200.71
223.763	18222.45
223.837	18280.51
223.91	18322.87
223.983	18343.84
224.056	18378.15
224.129	18416.22
224.202	18454.29
224.275	18480.02
224.348	18511.68
224.42	18531.06
224.493	18547.59
224.566	18567.63
224.639	18602.71
224.712	18636.11
224.785	18652.21
224.858	18686.47
224.931	18703.72
225.004	18723.14
225.077	18753.84
225.15	18765.36
225.223	18800.73
225.296	18861.64
225.369	18864
225.442	18878.94
225.514	18914.65
225.587	18936.14
225.66	18964.23
225.733	19003.85
225.806	19036.47
225.879	19055.41
225.952	19077.38
226.025	19112.8
226.097	19151.93
226.17	19162.82
226.243	19159.4
226.316	19189.81
226.389	19222.24
226.461	19242.92
226.534	19265.76
226.607	19288.7
226.68	19330.09
226.753	19353.22
226.825	19351.54
226.898	19396.4
226.971	19423.44
227.044	19445.36
227.117	19470.61
227.189	19501.74
227.262	19525.84
227.335	19551.24
227.407	19571.52
227.48	19599.04
227.553	19622.56
227.626	19636.53
227.698	19674.41
227.771	19706.26
227.844	19712.91
227.916	19727.52
227.989	19740.43
228.062	19758.26
228.134	19800.81
228.207	19810.16
228.28	19816.52
228.352	19827.22
228.425	19836.52
228.498	19859.03
228.57	19858.64
228.643	19888.91
228.716	19898.54
228.788	19908.28
228.861	19914.4
228.934	19931.12
229.006	19937.1
229.079	19951.8
229.151	19964.76
229.224	19954.21
229.296	19969.39
229.369	20016.42
229.442	20040.85
229.514	20055.74
229.587	20089.77
229.659	20073.24
229.732	20098.01
229.804	20123.12
229.877	20164.8
229.949	20189.04
230.022	20220.85
230.094	20240.95
230.167	20244.03
230.239	20242.78
230.312	20243.07
230.384	20275.16
230.457	20294.87
230.529	20306.78
230.602	20315.69
230.674	20312.75
230.747	20340.61
230.819	20359.59
230.892	20331.45
230.964	20346.15
231.037	20360.75
231.109	20352.94
231.181	20370.58
231.254	20378
231.326	20371.5
231.399	20370.49
231.471	20364.51
231.544	20344.56
231.616	20362.53
231.688	20371.01
231.761	20368.36
231.833	20370
231.905	20354.24
231.978	20356.22
232.05	20361.81
232.122	20359.59
232.195	20361.33
232.267	20376.08
232.339	20372.12
232.412	20390.97
232.484	20377.18
232.556	20369.23
232.629	20386.39
232.701	20393.14
232.773	20384.89
232.846	20382.77
232.918	20372.36
232.99	20370.53
233.062	20378.29
233.135	20375.5
233.207	20366.24
233.279	20369.67
233.351	20372.99
233.424	20364.17
233.496	20348.12
233.568	20362.97
233.64	20344.08
233.713	20340.08
233.785	20319.93
233.857	20318.34
233.929	20300.94
234.001	20314.87
234.074	20317.38
234.146	20282.15
234.218	20276.41
234.29	20266.68
234.362	20259.55
234.434	20244.94
234.507	20224.94
234.579	20195.4
234.651	20179.4
234.723	20164.99
234.795	20156.51
234.867	20146.44
234.939	20150.58
235.012	20146.2
235.084	20130.25
235.156	20132.32
235.228	20114.15
235.3	20098.01
235.372	20078.15
235.444	20069.57
235.516	20021.58
235.588	20015.55
235.66	20007.02
235.732	19969.29
235.804	20005.72
235.876	19994.98
235.948	19994.2
236.02	19977.34
236.092	19962.16
236.164	19940.57
236.236	19918.16
236.308	19889.25
236.38	19871.13
236.452	19833.63
236.524	19817.54
236.596	19825.25
236.668	19802.55
236.74	19784.38
236.812	19765.97
236.884	19752.24
236.956	19732.24
237.028	19709.93
237.1	19672.87
237.172	19673.06
237.244	19678.65
237.316	19619.76
237.388	19595.72
237.46	19554.22
237.532	19545.84
237.604	19518.13
237.675	19506.95
237.747	19500.3
237.819	19476.69
237.891	19456.35
237.963	19430.18
238.035	19391.53
238.107	19318.86
238.178	19313.9
238.25	19286.91
238.322	19287.88
238.394	19254.82
238.466	19227.74
238.538	19213.47
238.609	19195.98
238.681	19146.25
238.753	19104.76
238.825	19074.59
238.897	19044.13
238.968	19039.46
239.04	19001.1
239.112	19001.92
239.184	18967.95
239.255	18925.97
239.327	18910.94
239.399	18888.14
239.471	18871.13
239.542	18856.82
239.614	18842.51
239.686	18782.27
239.758	18767.86
239.829	18728.06
239.901	18708.06
239.973	18671.92
240.044	18652.16
240.116	18631.1
240.188	18595.92
240.259	18571.58
240.331	18536.5
240.403	18517.85
240.474	18472.55
240.546	18430.48
240.618	18380.99
240.689	18352.22
240.761	18332.42
240.833	18324.46
240.904	18290.78
240.976	18261.05
241.048	18231.84
241.119	18203.02
241.191	18181.15
241.262	18166.54
241.334	18133.44
241.405	18097.15
241.477	18068.91
241.549	18030.65
241.62	17995.95
241.692	17975.47
241.763	17955.32
241.835	17924.63
241.906	17892.48
241.978	17838.46
242.049	17826.7
242.121	17813.11
242.192	17787.57
242.264	17733.83
242.335	17671.81
242.407	17639.91
242.478	17604.01
242.55	17573.36
242.621	17539.86
242.693	17506.95
242.764	17471.91
242.836	17430.03
242.907	17409.6
242.979	17388.2
243.05	17360.54
243.122	17328.73
243.193	17289.84
243.264	17235.67
243.336	17207.62
243.407	17178.37
243.479	17172.63
243.55	17152.15
243.622	17115.52
243.693	17091.67
243.764	17081.11
243.836	17046.99
243.907	17014.75
243.978	16979.23
244.05	16952.53
244.121	16909.01
244.192	16888.04
244.264	16837.54
244.335	16807.7
244.407	16755.02
244.478	16720.57
244.549	16683.94
244.62	16638.01
244.692	16609.91
244.763	16590.68
244.834	16556.02
244.906	16521.42
244.977	16492.5
245.048	16472.98
245.119	16431.05
245.191	16387.92
245.262	16337.89
245.333	16318.75
245.405	16282.46
245.476	16261.01
245.547	16223.56
245.618	16204.57
245.689	16174.93
245.761	16148.42
245.832	16122.49
245.903	16099.21
245.974	16076.32
246.045	16045.42
246.117	16035.97
246.188	15999.2
246.259	15945.12
246.33	15906.8
246.401	15874.79
246.473	15827.94
246.544	15781.1
246.615	15764.52
246.686	15721.52
246.757	15704.31
246.828	15663.63
246.899	15648.4
246.97	15602.56
247.042	15569.54
247.113	15541.54
247.184	15530.74
247.255	15491.65
247.326	15457.57
247.397	15422.53
247.468	15385.32
247.539	15356.3
247.61	15307.14
247.681	15287.95
247.752	15277.3
247.823	15239.65
247.894	15208.42
247.965	15168.02
248.037	15134.76
248.108	15085.74
248.179	15062.02
248.25	15036.33
248.321	15012.62
248.392	14977.81
248.463	14970.87
248.534	14937.56
248.605	14920.6
248.675	14885.94
248.746	14859.09
248.817	14834.84
248.888	14813.63
248.959	14774.93
249.03	14751.4
249.101	14724.99
249.172	14694.38
249.243	14642.22
249.314	14637.98
249.385	14611.99
249.456	14602.21
249.527	14575.02
249.598	14557.14
249.669	14522.24
249.739	14493.7
249.81	14475.28
249.881	14427.9
249.952	14398.4
250.023	14370.29
250.094	14323.92
250.165	14281.21
250.235	14252.29
250.306	14227.61
250.377	14193.28
250.448	14168.22
250.519	14117.17
250.59	14111.86
250.66	14077.4
250.731	14080.43
250.802	14044.71
250.873	14026.35
250.944	13997.71
251.014	13958.47
251.085	13955.48
251.156	13948.3
251.227	13931.48
251.297	13914.12
251.368	13911.23
251.439	13896.62
251.51	13879.94
251.58	13845.38
251.651	13820.7
251.722	13815.3
251.792	13771.87
251.863	13743.95
251.934	13732
252.005	13743.13
252.075	13718.12
252.146	13703.65
252.217	13689.53
252.287	13674.2
252.358	13644.84
252.429	13640.12
252.499	13616.11
252.57	13595.67
252.641	13573.64
252.711	13552.48
252.782	13518.93
252.852	13511.65
252.923	13487.11
252.994	13475.73
253.064	13466.24
253.135	13433.7
253.205	13395.85
253.276	13397.16
253.347	13392.87
253.417	13363.75
253.488	13333.23
253.558	13305.8
253.629	13284.35
253.699	13257.36
253.77	13239.38
253.841	13221.64
253.911	13199.56
253.982	13182.11
254.052	13160.85
254.123	13138.29
254.193	13114.91
254.264	13125.99
254.334	13089.36
254.405	13052.58
254.475	13013.58
254.546	12985.47
254.616	12979.06
254.687	12964.99
254.757	12942.23
254.827	12919.82
254.898	12901.84
254.968	12877.69
255.039	12846.5
255.109	12832.85
255.18	12803.5
255.25	12763.1
255.321	12743.1
255.391	12708.87
255.461	12708.29
255.532	12668.38
255.602	12644.32
255.673	12605.86
255.743	12572.3
255.813	12521.45
255.884	12510.7
255.954	12500.82
256.024	12502.79
256.095	12485.05
256.165	12455.89
256.235	12438.06
256.306	12407.16
256.376	12398.34
256.446	12383.34
256.517	12370.96
256.587	12358.18
256.657	12338.95
256.728	12317.79
256.798	12290.6
256.868	12267.32
256.938	12237.87
257.009	12218.39
257.079	12207.06
257.149	12213.14
257.219	12172.31
257.29	12166.14
257.36	12131.77
257.43	12117.02
257.5	12079.57
257.571	12052.96
257.641	12038.12
257.711	12006.45
257.781	11992.66
257.852	11977.81
257.922	11944.85
257.992	11927.2
258.062	11905.95
258.132	11895.68
258.202	11872.3
258.273	11856.16
258.343	11857.07
258.413	11832.83
258.483	11811.76
258.553	11778.46
258.623	11746.55
258.693	11735.99
258.764	11733.54
258.834	11735.99
258.904	11718.16
258.974	11685.97
259.044	11664.23
259.114	11650.73
259.184	11636.23
259.254	11617.19
259.324	11572.56
259.394	11561.86
259.464	11558.68
259.535	11535.35
259.605	11503.06
259.675	11482.53
259.745	11474.81
259.815	11438.81
259.885	11416.64
259.955	11427
260.025	11398.67
260.095	11384.69
260.165	11375.05
260.235	11370.71
260.305	11335.63
260.375	11308.83
260.445	11321.75
260.515	11319.24
260.585	11313.21
260.655	11293.36
260.725	11284.2
260.795	11278.76
260.865	11273.65
260.934	11244.49
261.004	11242.22
261.074	11234.22
261.144	11236.68
261.214	11225.26
261.284	11210.8
261.354	11205.12
261.424	11173.5
261.494	11177.31
261.564	11157.98
261.634	11146.94
261.703	11113.11
261.773	11100.54
261.843	11092.78
261.913	11070.8
261.983	11030.85
262.053	11025.21
262.123	11006.18
262.192	10979.53
262.262	10976.69
262.332	10953.27
262.402	10946.47
262.472	10927.53
262.541	10889.52
262.611	10886.38
262.681	10862.87
262.751	10853.28
262.821	10830.29
262.89	10805.81
262.96	10791.98
263.03	10791.16
263.1	10776.8
263.169	10763.55
263.239	10760.95
263.309	10760.42
263.379	10750.49
263.448	10752.33
263.518	10732.81
263.588	10725
263.657	10723.85
263.727	10712.43
263.797	10692.24
263.867	10668.34
263.936	10637.35
264.006	10641.16
264.076	10620.83
264.145	10601.55
264.215	10581.51
264.285	10576.88
264.354	10546
264.424	10527.12
264.494	10500.47
264.563	10482.64
264.633	10485.97
264.702	10474.64
264.772	10439.04
264.842	10420.78
264.911	10405.94
264.981	10375.44
265.05	10360.16
265.12	10336.99
265.19	10323.55
265.259	10320.7
265.329	10311.45
265.398	10297.48
265.468	10308.08
265.537	10289.49
265.607	10288.72
265.676	10292.57
265.746	10279.32
265.815	10281.06
265.885	10271.08
265.955	10247.14
266.024	10222.52
266.094	10180.85
266.163	10175.31
266.232	10172.23
266.302	10158.36
266.371	10145.88
266.441	10135.18
266.51	10127.57
266.58	10117.79
266.649	10092.41
266.719	10087.35
266.788	10087.3
266.858	10095.39
266.927	10054.11
266.996	10037.92
267.066	10023.13
267.135	9990.71
267.205	9988.69
267.274	9978.58
267.343	9979.11
267.413	9971.98
267.482	9978.29
267.552	9981.08
267.621	9949.91
267.69	9929.3
267.76	9913.79
267.829	9907.67
267.898	9899.53
267.968	9878.87
268.037	9870.68
268.106	9870.87
268.176	9842.21
268.245	9819.96
268.314	9799.05
268.384	9800.3
268.453	9789.61
268.522	9777.52
268.592	9780.36
268.661	9759.65
268.73	9749.1
268.799	9723.14
268.869	9728.63
268.938	9700.36
269.007	9687.98
269.076	9675.61
269.146	9673.68
269.215	9667.76
269.284	9668.14
269.353	9654.75
269.422	9637.51
269.492	9620.47
269.561	9581.79
269.63	9586.71
269.699	9575.63
269.768	9561.52
269.838	9557.28
269.907	9560.99
269.976	9534.74
270.045	9500.17
270.114	9497.38
270.183	9491.12
270.253	9480.57
270.322	9449.17
270.391	9433.18
270.46	9434.2
270.529	9438.72
270.598	9436.46
270.667	9420.76
270.736	9399.43
270.806	9392.68
270.875	9396.58
270.944	9385.99
271.013	9407.23
271.082	9389.79
271.151	9385.94
271.22	9364.32
271.289	9348.91
271.358	9331.34
271.427	9324.55
271.496	9317.95
271.565	9305.14
271.634	9290.99
271.703	9320.03
271.772	9321.18
271.841	9312.66
271.91	9287.53
271.979	9278.14
272.048	9251.17
272.117	9249.92
272.186	9228.3
272.255	9224.06
272.324	9224.26
272.393	9217.18
272.462	9200.52
272.531	9195.12
272.6	9180.63
272.669	9188.91
272.738	9176.92
272.807	9169.32
272.876	9152.32
272.945	9184.68
273.013	9183.52
273.082	9185.88
273.151	9141.87
273.22	9138.98
273.289	9135.51
273.358	9143.65
273.427	9129.74
273.496	9132.34
273.564	9130.36
273.633	9136.38
273.702	9113.46
273.771	9097.58
273.84	9094.21
273.909	9094.21
273.977	9090.74
274.046	9075.58
274.115	9077.07
274.184	9059.35
274.253	9054.11
274.322	9064.02
274.39	9025.89
274.459	9011.93
274.528	8983.62
274.597	8974.86
274.665	8967.16
274.734	8968.46
274.803	8958.06
274.872	8954.06
274.94	8939.33
275.009	8996.12
275.078	8983.55
275.147	8985
275.215	8980.18
275.284	8987.45
275.353	8971.9
275.421	8951.59
275.49	8964.2
275.559	8949.81
275.627	8948.36
275.696	8941.14
275.765	8944.99
275.833	8937.29
275.902	8931.37
275.971	8947.64
276.039	8964.68
276.108	8969.59
276.177	8967.62
276.245	8959.15
276.314	8945.48
276.383	8947.83
276.451	8885.47
276.52	8884.17
276.588	8896.97
276.657	8904.43
276.725	8887.78
276.794	8890.86
276.863	8896.06
276.931	8876.18
277	8878.92
277.068	8882.19
277.137	8898.08
277.205	8895.53
277.274	8913.29
277.342	8923.78
277.411	8903.04
277.48	8886.96
277.548	8882.1
277.617	8880.65
277.685	8870.21
277.754	8883.64
277.822	8876.23
277.89	8888.02
277.959	8877.14
278.027	8855.43
278.096	8844.07
278.164	8875.94
278.233	8859.05
278.301	8849.66
278.37	8857.85
278.438	8848.27
278.507	8853.08
278.575	8818.47
278.643	8808.85
278.712	8785.26
278.78	8768.46
278.849	8771.83
278.917	8782.28
278.985	8772.07
279.054	8773.47
279.122	8787.76
279.191	8778.62
279.259	8775.3
279.327	8748.96
279.396	8772.26
279.464	8771.63
279.532	8776.74
279.601	8766.53
279.669	8766.19
279.737	8781.16
279.806	8782.12
279.874	8793.2
279.942	8788.33
280.011	8790.74
280.079	8795.84
280.147	8817.84
280.215	8823.71
280.284	8823.37
280.352	8807.78
280.42	8817.84
280.488	8812.06
280.557	8798.92
280.625	8802.15
280.693	8802.1
280.761	8807.83
280.83	8783.85
280.898	8795.26
280.966	8777.69
281.034	8746.21
281.102	8738.18
281.171	8724.75
281.239	8734.91
281.307	8719.65
281.375	8705.88
281.443	8733.9
281.512	8733.18
281.58	8739.34
281.648	8720.23
281.716	8715.51
281.784	8708.58
281.852	8700.55
281.92	8698.38
281.989	8716.09
282.057	8702.71
282.125	8747
282.193	8743.44
282.261	8750.71
282.329	8743.54
282.397	8744.5
282.465	8748.25
282.533	8761.39
282.601	8756.44
282.67	8724.96
282.738	8719.86
282.806	8735.26
282.874	8724.86
282.942	8727.17
283.01	8716.82
283.078	8724.61
283.146	8727.21
283.214	8741.07
283.282	8740.16
283.35	8754.31
283.418	8743.1
283.486	8744.68
283.554	8700.05
283.622	8696.64
283.69	8696.35
283.758	8689.71
283.826	8696.16
283.894	8714.35
283.962	8735.29
284.03	8748.53
284.098	8753.77
284.165	8749.68
284.233	8750.74
284.301	8737.65
284.369	8729.85
284.437	8724.17
284.505	8720.32
284.573	8732.74
284.641	8722.29
284.709	8725.81
284.777	8705.06
284.845	8712.72
284.912	8721.47
284.98	8724.22
285.048	8722.63
285.116	8726.05
285.184	8740.78
285.252	8737.55
285.319	8711.27
285.387	8696.2
285.455	8678.2
285.523	8682.68
285.591	8686
285.659	8680.03
285.726	8692.16
285.794	8673.06
285.862	8670.12
285.93	8670.26
285.997	8667.86
286.065	8658.96
286.133	8655.59
286.201	8653.61
286.269	8635.61
286.336	8622.62
286.404	8619.2
286.472	8628.39
286.539	8603.03
286.607	8585.23
286.675	8590.52
286.743	8596.58
286.81	8590.37
286.878	8609.34
286.946	8602.84
287.013	8597.26
287.081	8603.47
287.149	8589.41
287.216	8615.35
287.284	8609.1
287.352	8611.6
287.419	8609.53
287.487	8633.59
287.555	8633.93
287.622	8633.79
287.69	8641.29
287.758	8658.76
287.825	8654.48
287.893	8643.99
287.96	8653.37
288.028	8665.26
288.096	8665.5
288.163	8676.13
288.231	8663.09
288.298	8660.01
288.366	8672.96
288.433	8673.2
288.501	8663.48
288.569	8666.75
288.636	8657.8
288.704	8670.74
288.771	8678.35
288.839	8668.48
288.906	8658.95
288.974	8670.41
289.041	8671.56
289.109	8663.86
289.176	8668.58
289.244	8675.75
289.311	8686.58
289.379	8692.31
289.446	8691.25
289.514	8697.51
289.581	8695.34
289.649	8705.3
289.716	8705.21
289.783	8700.73
289.851	8720.36
289.918	8715.89
289.986	8722.96
290.053	8722.1
290.121	8720.65
290.188	8722.39
290.255	8747.8
290.323	8740.63
290.39	8727.49
290.458	8723.74
290.525	8737.36
290.592	8726.72
290.66	8726
290.727	8718.82
290.794	8737.79
290.862	8738.99
290.929	8731.68
290.996	8735.38
291.064	8743.32
291.131	8755.98
291.198	8768.5
291.266	8762.1
291.333	8770.28
291.4	8773.36
291.468	8795.31
291.535	8791.55
291.602	8792.32
291.669	8784.19
291.737	8788.52
291.804	8800.65
291.871	8823.22
291.938	8827.75
292.006	8865.49
292.073	8872.62
292.14	8882.87
292.207	8874.83
292.275	8880.66
292.342	8893.85
292.409	8920.52
292.476	8944.11
292.543	8930.05
292.611	8928.51
292.678	8949.07
292.745	8972.6
292.812	8986.52
292.879	8979.3
292.946	8985.31
293.014	9004.71
293.081	9014.77
293.148	9034.51
293.215	9045.05
293.282	9037.88
293.349	9053.82
293.416	9030.85
293.484	9050.44
293.551	9060.65
293.618	9079.38
293.685	9105.33
293.752	9098.4
293.819	9090.88
293.886	9076.39
293.953	9084.57
294.02	9100.61
294.087	9102.39
294.154	9093.05
294.221	9108.99
294.288	9111.87
294.356	9130.51
294.423	9131.23
294.49	9123
294.557	9132
294.624	9123.19
294.691	9145.86
294.758	9139.99
294.825	9146.39
294.892	9140.71
294.959	9138.74
295.026	9148.22
295.093	9138.45
295.16	9147.07
295.226	9149.62
295.293	9178.56
295.36	9185.78
295.427	9198.25
295.494	9215.25
295.561	9226.56
295.628	9252.42
295.695	9269.81
295.762	9267.93
295.829	9271.97
295.896	9289.55
295.963	9298.55
296.03	9309.19
296.096	9310.68
296.163	9327.83
296.23	9339.81
296.297	9352.77
296.364	9358.45
296.431	9361.1
296.498	9358.01
296.564	9372.7
296.631	9371.11
296.698	9347.9
296.765	9368.89
296.832	9353.97
296.899	9336.39
296.965	9358.45
297.032	9329.5
297.099	9348.14
297.166	9359.45
297.233	9362.34
297.299	9351.94
297.366	9355.56
297.433	9354.79
297.5	9371.11
297.566	9367.55
297.633	9369.76
297.7	9367.69
297.767	9362.49
297.833	9365.04
297.9	9366.15
297.967	9348.72
298.033	9361.48
298.1	9390.91
298.167	9383.59
298.234	9390.47
298.3	9396.88
298.367	9387
298.434	9396.88
298.5	9381.22
298.567	9373.37
298.634	9372.41
298.7	9394.56
298.767	9392.49
298.834	9411.27
298.9	9398.65
298.967	9393.02
299.033	9406.21
299.1	9423.94
299.167	9444.93
299.233	9441.75
299.3	9458.22
299.366	9484.51
299.433	9498.53
299.5	9479.7
299.566	9480.18
299.633	9495.06
299.699	9512.63
299.766	9509.46
299.832	9510.61
299.899	9521.93
299.965	9541.53
300.032	9536.62
300.099	9540.42
300.165	9543.65
300.232	9539.31
300.298	9543.36
300.365	9563.87
300.431	9562.53
300.498	9555.16
300.564	9563.87
300.631	9575.53
300.697	9586.37
300.763	9586.9
300.83	9584.58
300.896	9592.05
300.963	9603.65
301.029	9610.59
301.096	9616.03
301.162	9627.4
301.229	9627.25
301.295	9618.05
301.361	9611.12
301.428	9622.48
301.494	9611.6
301.561	9618.44
301.627	9619.35
301.693	9623.06
301.76	9623.4
301.826	9615.74
301.892	9629.95
301.959	9631.88
302.025	9630.67
302.092	9627.59
302.158	9630.29
302.224	9635.15
302.291	9632.69
302.357	9629.85
302.423	9620.7
302.49	9609.38
302.556	9618.53
302.622	9616.08
302.688	9627.2
302.755	9645.7
302.821	9651.62
302.887	9665.78
302.954	9661.16
303.02	9669.44
303.086	9676.42
303.152	9670.79
303.219	9668.33
303.285	9670.84
303.351	9676.86
303.417	9677.34
303.483	9667.03
303.55	9663.66
303.616	9666.07
303.682	9667.76
303.748	9665.78
303.815	9683.07
303.881	9695.79
303.947	9687.02
304.013	9694.83
304.079	9690.78
304.145	9670.17
304.212	9661.16
304.278	9651.19
304.344	9649.17
304.41	9640.16
304.476	9628.03
304.542	9621.19
304.608	9629.37
304.674	9612.08
304.741	9604.04
304.807	9610.49
304.873	9619.64
304.939	9633.27
305.005	9611.02
305.071	9607.03
305.137	9606.74
305.203	9582.51
305.269	9579.24
305.335	9588.39
305.401	9583.19
305.467	9576.44
305.533	9585.93
305.599	9599.61
305.666	9604.23
305.732	9606.01
305.798	9617.62
305.864	9640.84
305.93	9649.65
305.996	9654.75
306.062	9654.61
306.128	9656.1
306.194	9640.98
306.259	9639.49
306.325	9624.8
306.391	9634
306.457	9641.12
306.523	9645.36
306.589	9670.02
306.655	9657.55
306.721	9633.56
306.787	9623.69
306.853	9635.2
306.919	9614.35
306.985	9608.09
307.051	9600.82
307.117	9589.89
307.183	9578.57
307.248	9552.46
307.314	9556.65
307.38	9548.32
307.446	9553.14
307.512	9539.7
307.578	9548.66
307.644	9538.59
307.709	9545.82
307.775	9541.63
307.841	9537.68
307.907	9531.23
307.973	9507.43
308.039	9514.75
308.104	9522.84
308.17	9523.18
308.236	9509.5
308.302	9519.23
308.368	9505.94
308.433	9506.42
308.499	9503.63
308.565	9489.52
308.631	9489.28
308.696	9464.09
308.762	9453.45
308.828	9450.32
308.894	9432.02
308.959	9403.75
309.025	9397.54
309.091	9387.72
309.156	9381.07
309.222	9385.7
309.288	9375.49
309.354	9350.74
309.419	9345.63
309.485	9338.75
309.551	9344
309.616	9332.2
309.682	9333.31
309.748	9330.61
309.813	9327.34
309.879	9322.33
309.945	9316.99
310.01	9307.21
310.076	9312.51
310.141	9303.6
310.207	9290.02
310.273	9289.49
310.338	9292.38
310.404	9273.84
310.469	9264.6
310.535	9256.32
310.601	9225.93
310.666	9232.39
310.732	9246.06
310.797	9234.16
310.863	9220.06
310.928	9209.22
310.994	9210.28
311.059	9202.05
311.125	9193.81
311.191	9194.39
311.256	9180.82
311.322	9189.05
311.387	9171.81
311.453	9456.98
311.518	9441.14
311.584	9438.93
311.649	9447.98
311.715	9438.69
311.78	9442.3
311.846	9429.06
311.911	9437.25
311.976	9444.56
312.042	9429.64
312.107	9410.72
312.173	9405.13
312.238	9401.71
312.304	9396.99
312.369	9384.48
312.434	9367.53
312.5	9359.78
312.565	9332.63
312.631	9336.62
312.696	9323
312.761	9326.32
312.827	9026.42
312.892	9056.22
312.958	9048.32
313.023	9044.76
313.088	9043.7
313.154	9029.02
313.219	9020.5
313.284	9000.57
313.35	8995.13
313.415	8982.13
313.48	8982.13
313.546	8983.19
313.611	8994.6
313.676	8988.68
313.741	8981.36
313.807	8997.83
313.872	9003.36
313.937	9012.75
314.003	9024.59
314.068	9029.31
314.133	9032.73
314.198	9026.33
314.264	9003.17
314.329	8998.26
314.394	8994.02
314.459	8984.63
314.525	9003.6
314.59	9001.05
314.655	8992.82
314.72	8999.89
314.785	8999.56
314.851	8992.34
314.916	8971.49
314.981	8948.34
315.046	8932.79
315.111	8926.1
315.176	8904.34
315.242	8905.64
315.307	8902.65
315.372	8880.99
315.437	8867.75
315.502	8862.84
315.567	8873.48
315.632	8862.36
315.698	8860.87
315.763	8855.23
315.828	8857.06
315.893	8856
315.958	8850.71
316.023	8842.14
316.088	8820.91
316.153	8804.74
316.218	8797.77
316.283	8782.89
316.348	8771.87
316.413	8771.73
316.479	8756.47
316.544	8722.12
316.609	8694.87
316.674	8658.78
316.739	8628.03
316.804	8596.03
316.869	8560.8
316.934	8517.15
316.999	8485.92
317.064	8435.74
317.129	8388
317.194	8345.85
317.259	8292.97
317.324	8243.66
317.389	8203.15
317.454	8159.52
317.518	8126.28
317.583	8102.03
317.648	8073.5
317.713	8036.37
317.778	7979.75
317.843	7950.12
317.908	7914.72
317.973	7876.05
318.038	7848.25
318.103	7808.58
318.168	7776.65
318.233	7741.98
318.297	7695
318.362	7658.79
318.427	7619.37
318.492	7596.1
318.557	7556.05
318.622	7529.46
318.687	7507.5
318.751	7467.41
318.816	7441.5
318.881	7408.52
318.946	7356.41
319.011	7313.01
319.075	7269.9
319.14	7231.12
319.205	7185.56
319.27	7153.9
319.335	7105.22
319.399	7063.46
319.464	7034.73
319.529	6979.86
319.594	6944.21
319.658	6914
319.723	6874.22
319.788	6849.68
319.853	6791.89
319.917	6759.95
319.982	6702.31
320.047	6662.93
320.112	6638.92
320.176	6583.7
320.241	6542.88
320.306	6509.55
320.37	6462.65
320.435	6435.28
320.5	6408.2
320.564	6371.77
320.629	6328.91
320.694	6293.68
320.758	6249.91
320.823	6206.81
320.888	6184.64
320.952	6134.25
321.017	6094.38
321.082	6053.11
321.146	6018.08
321.211	5986.47
321.275	5945.89
321.34	5904.16
321.405	5858.46
321.469	5805.6
321.534	5767.62
321.598	5720.01
321.663	5688.39
321.727	5667.15
321.792	5614.07
321.857	5570.1
321.921	5528.72
321.986	5484.16
322.05	5431.15
322.115	5394.78
322.179	5347.19
322.244	5290.6
322.308	5257.25
322.373	5212.55
322.437	5168.38
322.502	5136.21
322.566	5097.65
322.631	5058.23
322.695	5022.02
322.76	4979.98
322.824	4950.48
322.889	4907.2
322.953	4862.4
323.018	4795.89
323.082	4727.58
323.146	4678.44
323.211	4624.98
323.275	4579.65
323.34	4538.7
323.404	4502.83
323.468	4454.07
323.533	4411.88
323.597	4365.79
323.662	4314.71
323.726	4278.02
323.79	4236.99
323.855	4172.03
323.919	4117.47
323.983	4072.71
324.048	4007.16
324.112	4205.52
324.177	4073.41
324.241	3865.59
324.305	3662.08
324.37	3462.2
324.434	3269.92
324.498	3229.57
324.562	3182.81
324.627	3126.94
324.691	3074.9
324.755	3014.22
324.82	2946.93
324.884	2876.39
324.948	2811.22
325.012	2725.73
325.077	2608.47
