Data from 20250702_urea_0.5M_MAYP1162681_05-35-00-021.txt Node
Date: Thu Jul 03 05:35:00 BST 2025
User: adleo
Spectrometer: MAYP116268
Trigger mode: 0
Integration Time (sec): 1.000000E0
Scans to average: 1
Electric dark correction enabled: true
Nonlinearity correction enabled: true
Boxcar width: 10
XAxis mode: Wavelengths
Number of Pixels in Spectrum: 2068
>>>>>Begin Spectral Data<<<<<
179.565	1164.3
179.642	1220.03
179.718	1262.35
179.795	1298.77
179.871	1331.67
179.948	1348.91
180.024	1371.35
180.101	1392.51
180.177	1406.83
180.254	1429.19
180.33	1450.99
180.407	1500.22
180.483	1591.67
180.56	1677.57
180.636	1758.18
180.712	1747.44
180.789	1759.18
180.865	1771.15
180.942	1779.94
181.018	1788.49
181.095	1801.99
181.171	1804.99
181.248	1804.61
181.324	1817.49
181.4	1825.52
181.477	1833.03
181.553	1847.1
181.63	1866.83
181.706	1882.8
181.782	1886.99
181.859	1885.8
181.935	1890.27
182.011	1889.98
182.088	1908.38
182.164	1929.36
182.24	1943.61
182.317	1953.26
182.393	1951.36
182.469	1964.91
182.546	1978.84
182.622	1982.88
182.698	1975.94
182.775	1990.35
182.851	2004.62
182.927	1996.91
183.003	1991.97
183.08	1987.88
183.156	1995.58
183.232	1989.54
183.308	1978.04
183.385	1993.58
183.461	2010.89
183.537	2012.84
183.613	2022.02
183.69	2009.37
183.766	1997.38
183.842	2004.71
183.918	2011.51
183.995	2024.06
184.071	2026.53
184.147	2020.49
184.223	2010.04
184.299	2026.02
184.375	2012.7
184.452	2016.75
184.528	2075.08
184.604	2085.2
184.68	2096.76
184.756	2102.7
184.832	2107.84
184.908	2113.26
184.985	2108.17
185.061	2092.81
185.137	2100.33
185.213	2090.82
185.289	2095.66
185.365	2088.3
185.441	2086.25
185.517	2097.95
185.593	2094.58
185.669	2091.96
185.745	2101.81
185.822	2117.54
185.898	2106.89
185.974	2117.58
186.05	2110.21
186.126	2068.1
186.202	2061.02
186.278	2055.88
186.354	2046.98
186.43	2053.65
186.506	2052.22
186.582	2051.46
186.658	2056.21
186.734	2037.43
186.81	2039.62
186.886	2041.23
186.962	2054.98
187.038	2053.74
187.114	2046.13
187.19	2053.26
187.266	2044.94
187.341	2047.94
187.417	2042.71
187.493	2042.09
187.569	2046.04
187.645	2041.28
187.721	2028.77
187.797	2038.57
187.873	2045.99
187.949	2039.62
188.025	2032.53
188.101	2034
188.176	2038.76
188.252	2035.95
188.328	2044.03
188.404	2044.27
188.48	2037.9
188.556	2029.72
188.632	2026.58
188.707	2026.39
188.783	2024.06
188.859	2018.45
188.935	2002.66
189.011	2010.27
189.086	2002.9
189.162	1992.58
189.238	1992.34
189.314	1991.58
189.39	1984.97
189.465	1977.69
189.541	1994.96
189.617	1984.54
189.693	1979.88
189.768	1981.31
189.844	2005.52
189.92	1997.78
189.996	2007.24
190.071	2020.22
190.147	2019.7
190.223	2029.64
190.298	2027.07
190.374	2013.14
190.45	2025.5
190.526	2037.34
190.601	2031.49
190.677	2034.01
190.753	2063.42
190.828	2066.61
190.904	2081.59
190.98	2096.1
191.055	2105.71
191.131	2097.62
191.207	2113.88
191.282	2124.58
191.358	2118.16
191.433	2103.27
191.509	2115.39
191.585	2113.2
191.66	2112.78
191.736	2121.34
191.811	2113.2
191.887	2126.53
191.963	2148.36
192.038	2152.02
192.114	2152.64
192.189	2156.02
192.265	2155.92
192.34	2128.75
192.416	2128.51
192.491	2125.08
192.567	2127.13
192.642	2129.84
192.718	2129.18
192.793	2116.76
192.869	2113.1
192.944	2116.76
193.02	2122.95
193.095	2127.08
193.171	2132.32
193.246	2132.36
193.322	2129.99
193.397	2131.17
193.473	2116.28
193.548	2100.63
193.624	2109.15
193.699	2107.48
193.775	2121.95
193.85	2120.19
193.925	2131.41
194.001	2128.94
194.076	2121.76
194.152	2111.96
194.227	2102.73
194.302	2094.55
194.378	2098.4
194.453	2095.31
194.529	2105.97
194.604	2093.17
194.679	2087.51
194.755	2069.44
194.83	2083.24
194.905	2079.2
194.981	2086.24
195.056	2076.54
195.131	2081.77
195.207	2076.11
195.282	2068.31
195.357	2051.75
195.433	2068.4
195.508	2055.89
195.583	2062.26
195.659	2077.15
195.734	2085.95
195.809	2088.09
195.884	2096.6
195.96	2098.84
196.035	2112.01
196.11	2109.11
196.185	2120.24
196.261	2123.57
196.336	2149.64
196.411	2138.74
196.486	2143.87
196.561	2138.21
196.637	2150.1
196.712	2168.19
196.787	2175.28
196.862	2187.88
196.937	2197.97
197.013	2202.44
197.088	2213.48
197.163	2236.46
197.238	2252.37
197.313	2251.08
197.388	2260.89
197.464	2293.88
197.539	2303.34
197.614	2298.4
197.689	2310.68
197.764	2330.15
197.839	2349.99
197.914	2346.23
197.989	2366.13
198.065	2380.98
198.14	2430.94
198.215	2456.7
198.29	2465.41
198.365	2474.03
198.44	2486.5
198.515	2513.07
198.59	2528.88
198.665	2554.74
198.74	2561.6
198.815	2561.45
198.89	2583.55
198.965	2616.27
199.04	2607.08
199.115	2623.46
199.19	2667.42
199.265	2667.75
199.34	2673.8
199.415	2706.97
199.49	2729.31
199.565	2737.36
199.64	2761.04
199.715	2756.37
199.79	2765.51
199.865	2774.42
199.94	2778
200.015	2807.35
200.09	2812.36
200.165	2819.89
200.24	2826.13
200.315	2865.62
200.39	2881.68
200.464	2888.26
200.539	2889.69
200.614	2907.22
200.689	2931.2
200.764	2933.54
200.839	2953.26
200.914	2959.22
200.989	2947.1
201.063	2960.26
201.138	2943.44
201.213	2939.97
201.288	2921.33
201.363	2922.33
201.438	2920.52
201.512	2935.53
201.587	2918.94
201.662	2919.56
201.737	2930.76
201.812	2942.49
201.886	2908.48
201.961	2917.35
202.036	2905.34
202.111	2902.34
202.186	2874.28
202.26	2854.78
202.335	2836.24
202.41	2830.47
202.485	2812.71
202.559	2793.84
202.634	2768.72
202.709	2777.68
202.784	2762.38
202.858	2763.86
202.933	2745.66
203.008	2736.23
203.082	2715.79
203.157	2713.6
203.232	2675.17
203.306	2653.34
203.381	2618.61
203.456	2596.17
203.53	2573.29
203.605	2552.53
203.68	2530.9
203.754	2525.48
203.829	2513.19
203.904	2492.71
203.978	2479.71
204.053	2484.71
204.127	2473.76
204.202	2472.38
204.277	2454.1
204.351	2447.05
204.426	2438
204.5	2432.86
204.575	2401.78
204.65	2410.83
204.724	2403.92
204.799	2413.53
204.873	2408.15
204.948	2409.06
205.022	2398.78
205.097	2393.02
205.171	2405.48
205.246	2409.63
205.32	2408.68
205.395	2407.01
205.469	2399.02
205.544	2403.35
205.618	2385.5
205.693	2394.4
205.767	2381.74
205.842	2404.07
205.916	2401.07
205.991	2391.27
206.065	2394.6
206.14	2410.63
206.214	2405.58
206.289	2399.53
206.363	2410.24
206.438	2414.67
206.512	2422.01
206.586	2441.09
206.661	2447.48
206.735	2428.06
206.81	2431.82
206.884	2446.01
206.958	2435.16
207.033	2452.48
207.107	2463.72
207.181	2495.11
207.256	2492.2
207.33	2513.2
207.405	2524.73
207.479	2543.21
207.553	2556.44
207.628	2542.74
207.702	2557.4
207.776	2556.88
207.851	2563.26
207.925	2581.7
207.999	2584.65
208.073	2583.89
208.148	2591.94
208.222	2585.55
208.296	2621.5
208.371	2640.71
208.445	2658.43
208.519	2694.87
208.593	2714.64
208.668	2714.02
208.742	2730.52
208.816	2743.28
208.89	2764.49
208.965	2773.98
209.039	2791.28
209.113	2817.4
209.187	2854.31
209.261	2863.31
209.336	2898.59
209.41	2934.16
209.484	2950.89
209.558	2988.52
209.632	3021.88
209.707	3054.69
209.781	3098.18
209.855	3139.54
209.929	3180.98
210.003	3215.47
210.077	3240.85
210.151	3315.3
210.226	3382.52
210.3	3435.73
210.374	3491.75
210.448	3530.8
210.522	3574.25
210.596	3623.67
210.67	3671.42
210.744	3755.41
210.818	3833.14
210.892	3896.6
210.966	3933.67
211.041	3996.31
211.115	4037.93
211.189	4110.33
211.263	4173.57
211.337	4229.26
211.411	4291.19
211.485	4339.08
211.559	4405.51
211.633	4462.3
211.707	4485.7
211.781	4553.94
211.855	4582.08
211.929	4636.04
212.003	4681
212.077	4757.13
212.151	4831.73
212.225	4909.74
212.299	4966.9
212.373	5022.27
212.447	5083.79
212.52	5186.12
212.594	5255.89
212.668	5342.03
212.742	5406.16
212.816	5476.91
212.89	5550.53
212.964	5629.18
213.038	5708.94
213.112	5801.52
213.186	5896.42
213.26	5960.28
213.333	5992.33
213.407	6075.77
213.481	6163.99
213.555	6260.64
213.629	6332.27
213.703	6407.11
213.777	6486.29
213.85	6549.58
213.924	6665.14
213.998	6753.18
214.072	6830.44
214.146	6910.09
214.219	6995.46
214.293	7075.06
214.367	7161.17
214.441	7248.19
214.515	7315.34
214.588	7381.18
214.662	7426.75
214.736	7490.68
214.81	7583.24
214.883	7684.27
214.957	7754.84
215.031	7812.91
215.105	7870.31
215.178	7939.42
215.252	8007.67
215.326	8064.67
215.4	8131.38
215.473	8165.97
215.547	8223.9
215.621	8288.2
215.694	8369.96
215.768	8426.02
215.842	8488.91
215.915	8553.98
215.989	8609.43
216.063	8683.41
216.136	8759.84
216.21	8838.29
216.284	8928.79
216.357	9003.12
216.431	9068.4
216.504	9156.6
216.578	9264.88
216.652	9352.84
216.725	9426.94
216.799	9516.33
216.873	9594.72
216.946	9668.54
217.02	9736.78
217.093	9807.29
217.167	9861.52
217.24	9918.41
217.314	9989.22
217.387	10057.23
217.461	10122.98
217.535	10211.62
217.608	10266.49
217.682	10332.97
217.755	10407.89
217.829	10461.42
217.902	10531.86
217.976	10599.41
218.049	10667.06
218.123	10715.92
218.196	10788.05
218.27	10850.12
218.343	10897.3
218.417	10971.13
218.49	11042.64
218.563	11129.86
218.637	11207.94
218.71	11299.89
218.784	11372.47
218.857	11451.8
218.931	11523.37
219.004	11587.08
219.077	11650.9
219.151	11732.4
219.224	11793.9
219.298	11862.92
219.371	11942.93
219.444	11993.54
219.518	12063.62
219.591	12125.51
219.665	12226.65
219.738	12293.07
219.811	12352.65
219.885	12436.23
219.958	12505.45
220.031	12571.68
220.105	12635.94
220.178	12692.48
220.251	12747.49
220.325	12812.81
220.398	12876.1
220.471	12943.59
220.544	13029.54
220.618	13092.54
220.691	13153.47
220.764	13218.36
220.838	13280.74
220.911	13338.2
220.984	13419.67
221.057	13484.55
221.131	13553.92
221.204	13583.33
221.277	13658.53
221.35	13755.96
221.424	13807.92
221.497	13873.96
221.57	13934.03
221.643	13997.66
221.716	14067.8
221.79	14118.18
221.863	14177.18
221.936	14229.1
222.009	14285.93
222.082	14332.6
222.155	14381.91
222.229	14452.82
222.302	14513.32
222.375	14579.65
222.448	14638.75
222.521	14699.15
222.594	14751.01
222.667	14793.19
222.74	14853.54
222.814	14903.92
222.887	14942.48
222.96	15001.24
223.033	15061.3
223.106	15113.31
223.179	15166.43
223.252	15219.74
223.325	15277.25
223.398	15333.26
223.471	15392.21
223.544	15447.93
223.617	15502.93
223.69	15557.44
223.763	15587.62
223.837	15641.6
223.91	15683.01
223.983	15718
224.056	15746.87
224.129	15797.87
224.202	15852.91
224.275	15891.86
224.348	15927.09
224.42	15956.06
224.493	15978.57
224.566	16000.89
224.639	16048.99
224.712	16087.45
224.785	16121.86
224.858	16153.43
224.931	16187.46
225.004	16212.04
225.077	16256.24
225.15	16269.78
225.223	16311.76
225.296	16373.74
225.369	16390.37
225.442	16418.57
225.514	16453.51
225.587	16496.5
225.66	16537.56
225.733	16563.69
225.806	16593.38
225.879	16619.45
225.952	16658.15
226.025	16714.59
226.097	16765.48
226.17	16803.94
226.243	16817.53
226.316	16857.15
226.389	16898.55
226.461	16937.54
226.534	16980.72
226.607	17004.67
226.68	17066.03
226.753	17093.45
226.825	17110.32
226.898	17171.57
226.971	17210.32
227.044	17253.16
227.117	17292.63
227.189	17332.34
227.262	17385.11
227.335	17436.25
227.407	17473.6
227.48	17498.08
227.553	17533.6
227.626	17564.68
227.698	17585.69
227.771	17620.2
227.844	17640.87
227.916	17672.15
227.989	17687.28
228.062	17709.98
228.134	17763.57
228.207	17781.26
228.28	17811.91
228.352	17833.06
228.425	17854.22
228.498	17884.82
228.57	17903.71
228.643	17943.42
228.716	17958.5
228.788	17980.38
228.861	17990.17
228.934	18026.31
229.006	18063.61
229.079	18072.67
229.151	18081.34
229.224	18099.61
229.296	18127.37
229.369	18173.24
229.442	18204.95
229.514	18218.98
229.587	18257.48
229.659	18258.69
229.732	18294.59
229.804	18321
229.877	18373.43
229.949	18402.77
230.022	18448.7
230.094	18476.84
230.167	18505.47
230.239	18513.27
230.312	18525.22
230.384	18576.16
230.457	18598.04
230.529	18611.97
230.602	18636.25
230.674	18664.59
230.747	18701.21
230.819	18734.03
230.892	18724.2
230.964	18753.4
231.037	18776.2
231.109	18792.87
231.181	18822.17
231.254	18824.73
231.326	18839.38
231.399	18850.56
231.471	18859.81
231.544	18842.7
231.616	18859.95
231.688	18864.19
231.761	18882.26
231.833	18897.06
231.905	18878.51
231.978	18897.83
232.05	18908.09
232.122	18933.15
232.195	18938.5
232.267	18955.03
232.339	18964.76
232.412	18986.31
232.484	18979.94
232.556	18992.91
232.629	19021.73
232.701	19034.3
232.773	19045
232.846	19047.75
232.918	19050.83
232.99	19057.48
233.062	19082.73
233.135	19094.88
233.207	19093.48
233.279	19106.73
233.351	19117.53
233.424	19129.14
233.496	19121.38
233.568	19148.95
233.64	19126.54
233.713	19129.86
233.785	19119.89
233.857	19121.29
233.929	19113.14
234.001	19134.34
234.074	19143.5
234.146	19118.59
234.218	19112.95
234.29	19109.48
234.362	19103.79
234.434	19080.52
234.507	19070.78
234.579	19049.53
234.651	19037.1
234.723	19040.62
234.795	19037.44
234.867	19028.95
234.939	19034.11
235.012	19026.5
235.084	19020.18
235.156	19033.87
235.228	19028.66
235.3	19029.92
235.372	19026.16
235.444	19029.53
235.516	18995.41
235.588	18990.93
235.66	18990.64
235.732	18970.74
235.804	19015.03
235.876	19015.36
235.948	19027.41
236.02	19021.39
236.092	19009.97
236.164	18999.32
236.236	18984.76
236.308	18973.97
236.38	18968.38
236.452	18939.37
236.524	18936.57
236.596	18947.42
236.668	18939.42
236.74	18927.27
236.812	18917.88
236.884	18906.12
236.956	18892.38
237.028	18880.39
237.1	18857.45
237.172	18860.72
237.244	18869.78
237.316	18818.51
237.388	18797.5
237.46	18773.98
237.532	18777.69
237.604	18754.61
237.675	18760.97
237.747	18753.69
237.819	18730.32
237.891	18712.92
237.963	18695.53
238.035	18665.31
238.107	18601.32
238.178	18597.08
238.25	18569.32
238.322	18569.7
238.394	18536.69
238.466	18518.62
238.538	18503.44
238.609	18494.58
238.681	18447.83
238.753	18408.94
238.825	18391.11
238.897	18374.34
238.968	18368.56
239.04	18330.01
239.112	18339.16
239.184	18300.42
239.255	18265.82
239.327	18254.11
239.399	18229.82
239.471	18220.47
239.542	18211.27
239.614	18209.24
239.686	18159.75
239.758	18152.81
239.829	18119.8
239.901	18109.1
239.973	18086.11
240.044	18062.16
240.116	18035.27
240.188	18008.09
240.259	17990.31
240.331	17965.73
240.403	17939.95
240.474	17902.17
240.546	17863.18
240.618	17818.46
240.689	17791.86
240.761	17772
240.833	17756.63
240.904	17725.59
240.976	17704.25
241.048	17668.73
241.119	17648.87
241.191	17620.39
241.262	17608.2
241.334	17575.91
241.405	17547.38
241.477	17511.62
241.549	17480.68
241.62	17455.09
241.692	17438.42
241.763	17425.41
241.835	17390.08
241.906	17365.6
241.978	17332.2
242.049	17319.19
242.121	17303.67
242.192	17289.02
242.264	17247.72
242.335	17202.27
242.407	17182.17
242.478	17144.58
242.55	17124.97
242.621	17093.45
242.693	17072.29
242.764	17038.94
242.836	17001.88
242.907	16979.66
242.979	16961.35
243.05	16940.67
243.122	16922.36
243.193	16892.53
243.264	16830.21
243.336	16798.93
243.407	16774.5
243.479	16761
243.55	16747.36
243.622	16724.13
243.693	16697.96
243.764	16683.65
243.836	16650.39
243.907	16622.29
243.978	16592.41
244.05	16574.77
244.121	16518.62
244.192	16492.5
244.264	16448.64
244.335	16425.65
244.407	16377.07
244.478	16344.34
244.549	16312.58
244.62	16263.13
244.692	16233.92
244.763	16218.98
244.834	16189.1
244.906	16158.69
244.977	16130.54
245.048	16113.52
245.119	16070.87
245.191	16022.72
245.262	15968.83
245.333	15950.66
245.405	15922.42
245.476	15894.36
245.547	15860.87
245.618	15846.7
245.689	15821.68
245.761	15792.52
245.832	15753.77
245.903	15732.75
245.974	15706.48
246.045	15675.01
246.117	15668.98
246.188	15618.61
246.259	15578.07
246.33	15542.4
246.401	15506.06
246.473	15456.08
246.544	15405.76
246.615	15389.22
246.686	15352.2
246.757	15342.47
246.828	15299.52
246.899	15269.83
246.97	15223.94
247.042	15181.86
247.113	15154.53
247.184	15135.34
247.255	15101.55
247.326	15077.79
247.397	15048.67
247.468	15022.26
247.539	14997
247.61	14944.94
247.681	14933.42
247.752	14916.69
247.823	14876.39
247.894	14848.73
247.965	14807.27
248.037	14777.09
248.108	14728.41
248.179	14703.39
248.25	14669.45
248.321	14645.88
248.392	14610.16
248.463	14610.98
248.534	14581.09
248.605	14565.14
248.675	14531.25
248.746	14508.6
248.817	14486.47
248.888	14463.43
248.959	14414.31
249.03	14391.46
249.101	14375.69
249.172	14337.52
249.243	14292.64
249.314	14286.56
249.385	14262.65
249.456	14256.05
249.527	14224.81
249.598	14203.6
249.669	14177.52
249.739	14155.44
249.81	14134.86
249.881	14108.15
249.952	14075.37
250.023	14049.39
250.094	14005.86
250.165	13977.85
250.235	13942.61
250.306	13918.08
250.377	13879.94
250.448	13864.18
250.519	13816.46
250.59	13800.79
250.66	13772.93
250.731	13768.06
250.802	13740.87
250.873	13720.28
250.944	13693.43
251.014	13667.79
251.085	13665.09
251.156	13647.06
251.227	13642.38
251.297	13633.27
251.368	13615.87
251.439	13600.83
251.51	13594.18
251.58	13558.31
251.651	13531.12
251.722	13528.62
251.792	13483.69
251.863	13458.62
251.934	13452.83
252.005	13455.39
252.075	13433.07
252.146	13426.03
252.217	13411.38
252.287	13399.18
252.358	13373.87
252.429	13369.15
252.499	13335.5
252.57	13312.17
252.641	13302.09
252.711	13267.05
252.782	13232.39
252.852	13226.07
252.923	13200.28
252.994	13176.08
253.064	13167.11
253.135	13131.49
253.205	13096.54
253.276	13095.62
253.347	13090.18
253.417	13057.98
253.488	13028.57
253.558	12999.74
253.629	12976.51
253.699	12953.27
253.77	12938.81
253.841	12910.75
253.911	12883.23
253.982	12871.71
254.052	12858.45
254.123	12835.02
254.193	12813.81
254.264	12821.67
254.334	12790.24
254.405	12759.34
254.475	12725.79
254.546	12701.25
254.616	12690.55
254.687	12674.16
254.757	12656.13
254.827	12628.42
254.898	12608.17
254.968	12587.73
255.039	12553.94
255.109	12543.38
255.18	12511.86
255.25	12463.75
255.321	12452.04
255.391	12420.65
255.461	12417.91
255.532	12369.7
255.602	12344.06
255.673	12306.17
255.743	12275.42
255.813	12231.74
255.884	12218.05
255.954	12206.24
256.024	12204.8
256.095	12182.96
256.165	12153.46
256.235	12135.1
256.306	12115.67
256.376	12110.56
256.446	12103.67
256.517	12091.04
256.587	12079.91
256.657	12066.84
256.728	12046.12
256.798	12023.32
256.868	12002.06
256.938	11973.43
257.009	11961.28
257.079	11947.21
257.149	11952.94
257.219	11911.49
257.29	11897.71
257.36	11862.81
257.43	11852.01
257.5	11812.59
257.571	11795.86
257.641	11783.38
257.711	11756
257.781	11739.66
257.852	11723.42
257.922	11680.13
257.992	11661.34
258.062	11634.39
258.132	11624.95
258.202	11610.63
258.273	11597.28
258.343	11590.05
258.413	11567.3
258.483	11554.53
258.553	11520.98
258.623	11493.13
258.693	11479.73
258.764	11475
258.834	11472.74
258.904	11450.76
258.974	11421.56
259.044	11397.99
259.114	11379.29
259.184	11364.83
259.254	11346.42
259.324	11300.78
259.394	11291.62
259.464	11287.09
259.535	11270.51
259.605	11243.86
259.675	11217.07
259.745	11202.17
259.815	11177.07
259.885	11150.9
259.955	11158.51
260.025	11136.11
260.095	11115.33
260.165	11106.37
260.235	11107.38
260.305	11081.5
260.375	11049.6
260.445	11060.06
260.515	11061.41
260.585	11056.93
260.655	11034.81
260.725	11024.06
260.795	11023.92
260.865	11025.65
260.934	11001.65
261.004	10983.05
261.074	10965.65
261.144	10958.67
261.214	10953.9
261.284	10935.49
261.354	10927.25
261.424	10892.07
261.494	10895.82
261.564	10881.27
261.634	10871.68
261.703	10832.75
261.773	10824.12
261.843	10825.52
261.913	10800.85
261.983	10762.25
262.053	10757.33
262.123	10745.91
262.192	10715.61
262.262	10705.49
262.332	10672.19
262.402	10663.37
262.472	10653.3
262.541	10617.99
262.611	10619.14
262.681	10590.47
262.751	10583.58
262.821	10568.84
262.89	10543.78
262.96	10534.15
263.03	10536.99
263.1	10525.57
263.169	10516.7
263.239	10509.43
263.309	10503.89
263.379	10495.94
263.448	10484.18
263.518	10466.31
263.588	10443.95
263.657	10456.04
263.727	10450.36
263.797	10437.98
263.867	10426.32
263.936	10392.3
264.006	10396.83
264.076	10376.74
264.145	10360.89
264.215	10344.75
264.285	10341.14
264.354	10315.41
264.424	10292.77
264.494	10261.74
264.563	10240.59
264.633	10242.37
264.702	10230.43
264.772	10200.8
264.842	10182.78
264.911	10175.84
264.981	10150.89
265.05	10145.49
265.12	10121.11
265.19	10110.13
265.259	10110.66
265.329	10093.85
265.398	10085.18
265.468	10087.3
265.537	10073.47
265.607	10067.98
265.676	10063.16
265.746	10048.57
265.815	10046.49
265.885	10030.45
265.955	10005.5
266.024	9981.9
266.094	9945.73
266.163	9946.11
266.232	9949.77
266.302	9940.81
266.371	9937.39
266.441	9922.8
266.51	9913.02
266.58	9894.14
266.649	9865.72
266.719	9857.48
266.788	9849.48
266.858	9858.25
266.927	9826.08
266.996	9812.88
267.066	9802.14
267.135	9765.2
267.205	9761.92
267.274	9747.14
267.343	9746.7
267.413	9743.81
267.482	9751.86
267.552	9753.45
267.621	9718.91
267.69	9690.98
267.76	9678.55
267.829	9666.99
267.898	9654.95
267.968	9637.08
268.037	9632.75
268.106	9631.25
268.176	9605.58
268.245	9590.89
268.314	9566.52
268.384	9566.38
268.453	9558.91
268.522	9553.57
268.592	9564.11
268.661	9544.13
268.73	9545.57
268.799	9527.85
268.869	9530.26
268.938	9497.17
269.007	9477.62
269.076	9474.11
269.146	9465.15
269.215	9452.97
269.284	9450.27
269.353	9434.67
269.422	9417.14
269.492	9401.06
269.561	9362.15
269.63	9356.14
269.699	9342.36
269.768	9335.96
269.838	9328.45
269.907	9319.35
269.976	9288.43
270.045	9258
270.114	9250.49
270.183	9231.76
270.253	9223.77
270.322	9189.44
270.391	9180.87
270.46	9181.16
270.529	9178.75
270.598	9179.42
270.667	9170.52
270.736	9150.68
270.806	9144.71
270.875	9146.78
270.944	9133.4
271.013	9154.96
271.082	9144.28
271.151	9140.52
271.22	9111.3
271.289	9098.2
271.358	9088.19
271.427	9085.88
271.496	9074.81
271.565	9060.22
271.634	9049.24
271.703	9044.57
271.772	9046.83
271.841	9040.53
271.91	9014
271.979	8998.84
272.048	8972.6
272.117	8976.21
272.186	8959.89
272.255	8958.88
272.324	8958.16
272.393	8950.94
272.462	8937.55
272.531	8931.97
272.6	8914.73
272.669	8918.82
272.738	8910.74
272.807	8900.39
272.876	8883.88
272.945	8914.83
273.013	8915.07
273.082	8916.85
273.151	8899.28
273.22	8900.44
273.289	8888.12
273.358	8906.02
273.427	8894.86
273.496	8900.92
273.564	8891.05
273.633	8898.18
273.702	8879.26
273.771	8867.61
273.84	8865.49
273.909	8859.95
273.977	8857.45
274.046	8852.25
274.115	8861.83
274.184	8842.39
274.253	8836.23
274.322	8845.9
274.39	8807.1
274.459	8791.51
274.528	8764.8
274.597	8755.84
274.665	8749.35
274.734	8759.98
274.803	8744.44
274.872	8740.1
274.94	8714.4
275.009	8767.62
275.078	8743.84
275.147	8744.66
275.215	8739.36
275.284	8748.12
275.353	8738.26
275.421	8715.39
275.49	8729.55
275.559	8714.38
275.627	8709.57
275.696	8705.19
275.765	8701.68
275.833	8698.79
275.902	8697.59
275.971	8709.47
276.039	8728.82
276.108	8734.41
276.177	8727.86
276.245	8717.66
276.314	8712.6
276.383	8724.01
276.451	8667.28
276.52	8675.41
276.588	8688.27
276.657	8689.66
276.725	8675.85
276.794	8673.92
276.863	8686.24
276.931	8665.06
277	8672.72
277.068	8682.77
277.137	8698.03
277.205	8694.42
277.274	8710.83
277.342	8721.23
277.411	8708.48
277.48	8687.78
277.548	8674.69
277.617	8676.04
277.685	8674.35
277.754	8671.13
277.822	8667.38
277.89	8670.46
277.959	8663.67
278.027	8642.3
278.096	8628.44
278.164	8657.95
278.233	8647.12
278.301	8635.09
278.37	8635.91
278.438	8622.48
278.507	8626.86
278.575	8599.43
278.643	8598.42
278.712	8579.55
278.78	8568.72
278.849	8576.13
278.917	8589.41
278.985	8593.02
279.054	8592.54
279.122	8597.5
279.191	8600.34
279.259	8596.49
279.327	8575.12
279.396	8588.93
279.464	8583.64
279.532	8587.68
279.601	8578.44
279.669	8575.74
279.737	8587.77
279.806	8593.55
279.874	8598.55
279.942	8589.75
280.011	8590.66
280.079	8589.7
280.147	8606.35
280.215	8608.52
280.284	8595.81
280.352	8588.21
280.42	8581.33
280.488	8571.22
280.557	8565.45
280.625	8569.63
280.693	8566.94
280.761	8576.56
280.83	8561.6
280.898	8571.6
280.966	8558.13
281.034	8530.22
281.102	8519.39
281.171	8512.99
281.239	8516.07
281.307	8510.97
281.375	8507.6
281.443	8530.65
281.512	8533.49
281.58	8540.28
281.648	8525.26
281.716	8532.63
281.784	8525.84
281.852	8529.64
281.92	8528.1
281.989	8537.44
282.057	8522.81
282.125	8574.41
282.193	8570.37
282.261	8573.16
282.329	8572.73
282.397	8577.01
282.465	8578.74
282.533	8594.19
282.601	8582.3
282.67	8563.25
282.738	8550.93
282.806	8558.34
282.874	8538.51
282.942	8544.62
283.01	8539.47
283.078	8540.34
283.146	8536.3
283.214	8549
283.282	8549.87
283.35	8557.23
283.418	8551.79
283.486	8551.94
283.554	8504.42
283.622	8496.1
283.69	8492.3
283.758	8484.31
283.826	8488.73
283.894	8505.05
283.962	8523.19
284.03	8541.77
284.098	8542.83
284.165	8538.11
284.233	8535.9
284.301	8538.02
284.369	8524.35
284.437	8512.8
284.505	8515.11
284.573	8527.62
284.641	8517.71
284.709	8519.05
284.777	8504.62
284.845	8511.21
284.912	8519.63
284.98	8520.26
285.048	8521.84
285.116	8523.05
285.184	8534.84
285.252	8533.97
285.319	8507.26
285.387	8491.04
285.455	8467.99
285.523	8474.78
285.591	8478.34
285.659	8479.93
285.726	8490.56
285.794	8475.74
285.862	8476.8
285.93	8472.42
285.997	8472.23
286.065	8461.98
286.133	8455.77
286.201	8454.14
286.269	8447.21
286.336	8432.2
286.404	8427.34
286.472	8436.48
286.539	8414.78
286.607	8401.69
286.675	8405.54
286.743	8416.37
286.81	8414.25
286.878	8432.05
286.946	8424.79
287.013	8423.34
287.081	8423.92
287.149	8403.81
287.216	8425.6
287.284	8419.25
287.352	8421.47
287.419	8413.91
287.487	8429.69
287.555	8436.72
287.622	8439.61
287.69	8437.63
287.758	8452.21
287.825	8444.42
287.893	8433.25
287.96	8443.64
288.028	8454.62
288.096	8458.37
288.163	8455.24
288.231	8446.34
288.298	8443.55
288.366	8455.44
288.433	8457.74
288.501	8448.41
288.569	8451.83
288.636	8441.82
288.704	8454.76
288.771	8463.57
288.839	8456.01
288.906	8449.71
288.974	8462.32
289.041	8455.25
289.109	8450.39
289.176	8458.42
289.244	8466.75
289.311	8476.37
289.379	8486.43
289.446	8487.87
289.514	8483.11
289.581	8484.46
289.649	8489.17
289.716	8491.48
289.783	8483.93
289.851	8502.64
289.918	8502.36
289.986	8515.3
290.053	8517.32
290.121	8520.31
290.188	8519.44
290.255	8543.6
290.323	8535.8
290.39	8522.42
290.458	8531.95
290.525	8539.55
290.592	8531.13
290.66	8531.8
290.727	8523.96
290.794	8534.93
290.862	8535.03
290.929	8540.32
290.996	8546.14
291.064	8552.35
291.131	8564.48
291.198	8570.74
291.266	8564.33
291.333	8571.12
291.4	8578.24
291.468	8596
291.535	8588.16
291.602	8594.61
291.669	8590.95
291.737	8600.24
291.804	8604.86
291.871	8621.07
291.938	8627.62
292.006	8656.6
292.073	8668.92
292.14	8684.36
292.207	8679.02
292.275	8681.43
292.342	8695.53
292.409	8717.62
292.476	8743.57
292.543	8727.21
292.611	8735
292.678	8751.7
292.745	8775.63
292.812	8781.35
292.879	8777.65
292.946	8782.32
293.014	8792.66
293.081	8803.3
293.148	8816.63
293.215	8824.77
293.282	8822.55
293.349	8831.36
293.416	8812.97
293.484	8828.28
293.551	8831.6
293.618	8854.22
293.685	8875.74
293.752	8860.44
293.819	8860.48
293.886	8854.71
293.953	8867.46
294.02	8879.16
294.087	8883.83
294.154	8875.55
294.221	8891.34
294.288	8895.14
294.356	8906.89
294.423	8915.07
294.49	8904.14
294.557	8916.56
294.624	8909.97
294.691	8927.83
294.758	8932.64
294.825	8942.61
294.892	8930.96
294.959	8937.02
295.026	8940.54
295.093	8934.57
295.16	8939.43
295.226	8940.15
295.293	8959.41
295.36	8966.44
295.427	8979.1
295.494	8997.88
295.561	9001.34
295.628	9019.59
295.695	9036.06
295.762	9044.34
295.829	9056.66
295.896	9077.22
295.963	9084.1
296.03	9091.52
296.096	9101.14
296.163	9106.97
296.23	9120.02
296.297	9134.8
296.364	9132.73
296.431	9137.49
296.498	9132.87
296.564	9157.76
296.631	9156.12
296.698	9141.2
296.765	9163.1
296.832	9149.04
296.899	9132.29
296.965	9152.65
297.032	9134.64
297.099	9150.77
297.166	9156.79
297.233	9151.69
297.299	9141.82
297.366	9143.79
297.433	9146.25
297.5	9150.58
297.566	9155.49
297.633	9155.25
297.7	9159.44
297.767	9163.39
297.833	9168.97
297.9	9175.62
297.967	9158.62
298.033	9175.19
298.1	9201.96
298.167	9189.01
298.234	9197.62
298.3	9207.01
298.367	9202.1
298.434	9206.53
298.5	9199.55
298.567	9197.19
298.634	9193.77
298.7	9212.31
298.767	9213.61
298.834	9233.64
298.9	9227.33
298.967	9221.21
299.033	9229.21
299.1	9244.62
299.167	9260.22
299.233	9253.33
299.3	9267.68
299.366	9294.64
299.433	9307.5
299.5	9283.61
299.566	9288.81
299.633	9307.26
299.699	9319.29
299.766	9317.8
299.832	9324.59
299.899	9327.1
299.965	9341.11
300.032	9342.46
300.099	9350.69
300.165	9354.93
300.232	9352.09
300.298	9356.13
300.365	9371.78
300.431	9375.05
300.498	9364.75
300.564	9372.94
300.631	9383.77
300.697	9393.3
300.763	9387.43
300.83	9386.18
300.896	9402.74
300.963	9412.42
301.029	9413.58
301.096	9417.09
301.162	9429.32
301.229	9428.6
301.295	9421.38
301.361	9421.95
301.428	9420.46
301.494	9409.68
301.561	9418.78
301.627	9423.21
301.693	9421.14
301.76	9424.12
301.826	9423.11
301.892	9436.98
301.959	9442.57
302.025	9445.6
302.092	9442.66
302.158	9446.42
302.224	9446.03
302.291	9434.09
302.357	9437.27
302.423	9431.68
302.49	9420.75
302.556	9432.84
302.622	9428.07
302.688	9438.04
302.755	9451.43
302.821	9469.1
302.887	9475.5
302.954	9473.05
303.02	9482.44
303.086	9490.72
303.152	9490.91
303.219	9480.42
303.285	9487.4
303.351	9489.86
303.417	9489.47
303.483	9475.12
303.55	9469.78
303.616	9465.01
303.682	9466.84
303.748	9457.83
303.815	9472.81
303.881	9479.79
303.947	9466.02
304.013	9470.21
304.079	9462.07
304.145	9441.41
304.212	9435.01
304.278	9421.48
304.344	9415.41
304.41	9397.5
304.476	9392.3
304.542	9383.19
304.608	9396.68
304.674	9375.39
304.741	9367.59
304.807	9374.53
304.873	9389.65
304.939	9403.66
305.005	9389.26
305.071	9385.07
305.137	9386.61
305.203	9356.95
305.269	9361.96
305.335	9370.14
305.401	9370.34
305.467	9365.47
305.533	9376.65
305.599	9384.88
305.666	9400.38
305.732	9402.26
305.798	9411.51
305.864	9437.32
305.93	9443.34
305.996	9438.14
306.062	9445.27
306.128	9443.87
306.194	9430.05
306.259	9426.92
306.325	9418.78
306.391	9435.34
306.457	9444.64
306.523	9447.91
306.589	9477.29
306.655	9468.23
306.721	9455.09
306.787	9438.72
306.853	9457.5
306.919	9439.25
306.985	9426.82
307.051	9414.5
307.117	9408.19
307.183	9409.68
307.248	9375.73
307.314	9378.47
307.38	9383.15
307.446	9386.08
307.512	9379.77
307.578	9381.65
307.644	9372.99
307.709	9369.37
307.775	9359.21
307.841	9356.28
307.907	9352.81
307.973	9331.09
308.039	9323.1
308.104	9323.67
308.17	9331.19
308.236	9317.65
308.302	9316.06
308.368	9309.81
308.433	9311.44
308.499	9304.41
308.565	9289.77
308.631	9293.63
308.696	9270.27
308.762	9253.18
308.828	9245.76
308.894	9225.45
308.959	9205.66
309.025	9202.96
309.091	9197.57
309.156	9194.54
309.222	9187.17
309.288	9178.7
309.354	9158.14
309.419	9160.79
309.485	9147.26
309.551	9150.19
309.616	9135.65
309.682	9135.75
309.748	9126.55
309.813	9119.81
309.879	9107.44
309.945	9096.8
310.01	9092.52
310.076	9096.75
310.141	9093.33
310.207	9077.4
310.273	9082.36
310.338	9084.91
310.404	9068.35
310.469	9061.51
310.535	9050.2
310.601	9036.67
310.666	9033.83
310.732	9039.89
310.797	9034.79
310.863	9024.01
310.928	9012.36
310.994	9015.68
311.059	9014.86
311.125	9011.06
311.191	9025.07
311.256	9014.81
311.322	9017.99
311.387	8999.55
311.453	9288.9
311.518	9265.7
311.584	9266.13
311.649	9263.2
311.715	9254.87
311.78	9250.2
311.846	9239.95
311.911	9241.68
311.976	9246.88
312.042	9236.48
312.107	9230.08
312.173	9218.04
312.238	9218.19
312.304	9210.63
312.369	9204.27
312.434	9186.37
312.5	9184.39
312.565	9149.06
312.631	9158.35
312.696	9148.67
312.761	9146.7
312.827	8850.23
312.892	8884.26
312.958	8882.09
313.023	8882.48
313.088	8878
313.154	8870.74
313.219	8861.49
313.284	8851.96
313.35	8842.62
313.415	8832.61
313.48	8824.38
313.546	8823.52
313.611	8831.89
313.676	8824.86
313.741	8809.46
313.807	8825.35
313.872	8823.61
313.937	8834.59
314.003	8846.04
314.068	8852.98
314.133	8862.17
314.198	8847.92
314.264	8825.2
314.329	8819.13
314.394	8812.15
314.459	8806.09
314.525	8820.38
314.59	8816.63
314.655	8804.21
314.72	8812.64
314.785	8814.37
314.851	8805.08
314.916	8791.36
314.981	8776.35
315.046	8766.62
315.111	8757.43
315.176	8737.94
315.242	8742.46
315.307	8738.66
315.372	8720.13
315.437	8708.19
315.502	8700.01
315.567	8713.68
315.632	8700.34
315.698	8697.84
315.763	8693.6
315.828	8692.06
315.893	8686.34
315.958	8680.9
316.023	8679.17
316.088	8656.4
316.153	8636.53
316.218	8630.85
316.283	8608.38
316.348	8587.21
316.413	8590.53
316.479	8578.02
316.544	8548.86
316.609	8518.01
316.674	8483.17
316.739	8444.35
316.804	8404.56
316.869	8363.37
316.934	8325.26
316.999	8295.19
317.064	8244.24
317.129	8199.59
317.194	8162.07
317.259	8116.51
317.324	8067.93
317.389	8023.24
317.454	7988.61
317.518	7952.68
317.583	7928.15
317.648	7901.55
317.713	7866.59
317.778	7801.66
317.843	7772.08
317.908	7732.03
317.973	7690.86
318.038	7660.38
318.103	7624.42
318.168	7601.82
318.233	7574.32
318.297	7526.72
318.362	7494.84
318.427	7459.52
318.492	7438.6
318.557	7386.84
318.622	7359.39
318.687	7341.32
318.751	7300.38
318.816	7263.89
318.881	7231.12
318.946	7174.6
319.011	7131.98
319.075	7090.75
319.14	7055.44
319.205	7009.22
319.27	6975.83
319.335	6932.65
319.399	6890.22
319.464	6862.75
319.529	6810.97
319.594	6772.82
319.658	6743.52
319.723	6699.29
319.788	6666.68
319.853	6615.67
319.917	6591.86
319.982	6534.14
320.047	6492.02
320.112	6467.92
320.176	6416.55
320.241	6378.72
320.306	6354.1
320.37	6316.28
320.435	6292.27
320.5	6262.56
320.564	6225.85
320.629	6187.61
320.694	6159.97
320.758	6118.8
320.823	6074.17
320.888	6045.72
320.952	5999.14
321.017	5954.76
321.082	5914.18
321.146	5881.37
321.211	5843.62
321.275	5799.74
321.34	5760.85
321.405	5721.53
321.469	5673.14
321.534	5636.04
321.598	5587
321.663	5552.9
321.727	5523.51
321.792	5469.67
321.857	5428.16
321.921	5393.99
321.986	5354.31
322.05	5295.95
322.115	5260.34
322.179	5217.42
322.244	5160.46
322.308	5125.64
322.373	5079.65
322.437	5038.61
322.502	5014.03
322.566	4970.97
322.631	4940.46
322.695	4903.22
322.76	4855.82
322.824	4820.1
322.889	4781.09
322.953	4737.16
323.018	4671.97
323.082	4610.09
323.146	4561.2
323.211	4510.67
323.275	4464.25
323.34	4417.28
323.404	4385.04
323.468	4340.36
323.533	4299.52
323.597	4255.93
323.662	4206.96
323.726	4173.11
323.79	4133.42
323.855	4067.7
323.919	4015.46
323.983	3967.56
324.048	3899.74
324.112	4037.37
324.177	3912.36
324.241	3706.65
324.305	3512.22
324.37	3317.55
324.434	3128.66
324.498	3086.44
324.562	3038.82
324.627	2978.15
324.691	2924.76
324.755	2857.79
324.82	2784.1
324.884	2706.84
324.948	2638.52
325.012	2544.36
325.077	2422.95
