Data from 20250702_urea_0.5M_MAYP1162681_04-14-59-438.txt Node
Date: Thu Jul 03 04:14:59 BST 2025
User: adleo
Spectrometer: MAYP116268
Trigger mode: 0
Integration Time (sec): 1.000000E0
Scans to average: 1
Electric dark correction enabled: true
Nonlinearity correction enabled: true
Boxcar width: 10
XAxis mode: Wavelengths
Number of Pixels in Spectrum: 2068
>>>>>Begin Spectral Data<<<<<
179.565	1181.43
179.642	1236
179.718	1277.04
179.795	1312.7
179.871	1346.01
179.948	1362.37
180.024	1381.91
180.101	1402.05
180.177	1416.35
180.254	1439.24
180.33	1461.04
180.407	1513.88
180.483	1606.86
180.56	1693.8
180.636	1775.41
180.712	1761.15
180.789	1771.79
180.865	1781.77
180.942	1791.89
181.018	1797.78
181.095	1811.43
181.171	1817.8
181.248	1815.99
181.324	1831.68
181.4	1838.72
181.477	1847.99
181.553	1861.34
181.63	1882.64
181.706	1899.42
181.782	1909.07
181.859	1909.26
181.935	1913.87
182.011	1910.83
182.088	1927.09
182.164	1948.35
182.24	1962.47
182.317	1974.16
182.393	1972.16
182.469	1987.71
182.546	1998.27
182.622	2003.88
182.698	1999.6
182.775	2010.11
182.851	2027.13
182.927	2019.8
183.003	2017.33
183.08	2011.58
183.156	2020.71
183.232	2017.95
183.308	2007.16
183.385	2012.53
183.461	2026.94
183.537	2028.94
183.613	2040.25
183.69	2034.12
183.766	2021.04
183.842	2029.17
183.918	2031.36
183.995	2044.86
184.071	2048.19
184.147	2043.29
184.223	2036.31
184.299	2047.15
184.375	2034.93
184.452	2038.4
184.528	2093.69
184.604	2103.06
184.68	2115.71
184.756	2123.13
184.832	2126.7
184.908	2131.54
184.985	2131.88
185.061	2119.27
185.137	2130.45
185.213	2117.04
185.289	2114.9
185.365	2108.63
185.441	2106.25
185.517	2119.67
185.593	2116.72
185.669	2112.91
185.745	2124.95
185.822	2136.26
185.898	2128.03
185.974	2140.97
186.05	2134.4
186.126	2095.43
186.202	2089.06
186.278	2084.11
186.354	2075.17
186.43	2081.21
186.506	2078.5
186.582	2079.64
186.658	2082.49
186.734	2060.43
186.81	2063.8
186.886	2069.18
186.962	2081.59
187.038	2075.98
187.114	2069.12
187.19	2076.31
187.266	2067.56
187.341	2066.18
187.417	2063.75
187.493	2065.32
187.569	2067.46
187.645	2061.95
187.721	2049.77
187.797	2055.85
187.873	2058.95
187.949	2053.19
188.025	2046.48
188.101	2050.52
188.176	2055.9
188.252	2052.43
188.328	2057.75
188.404	2057.85
188.48	2053.04
188.556	2043.44
188.632	2044.67
188.707	2045.43
188.783	2043.53
188.859	2036.21
188.935	2025.56
189.011	2031.69
189.086	2024.04
189.162	2016.19
189.238	2013
189.314	2012.86
189.39	2007.68
189.465	2000.12
189.541	2017.33
189.617	2003.54
189.693	2002.12
189.768	2001.79
189.844	2026.81
189.92	2021.44
189.996	2029.9
190.071	2038.18
190.147	2041.55
190.223	2050.78
190.298	2041.6
190.374	2024.58
190.45	2040.12
190.526	2049.59
190.601	2042.6
190.677	2045.59
190.753	2070.53
190.828	2077.9
190.904	2091.12
190.98	2106.25
191.055	2119.14
191.131	2108.77
191.207	2127.89
191.282	2133.74
191.358	2126.6
191.433	2111.52
191.509	2123.45
191.585	2121.26
191.66	2122.74
191.736	2130.92
191.811	2125.16
191.887	2142.01
191.963	2167.07
192.038	2169.21
192.114	2168.22
192.189	2172.97
192.265	2171.21
192.34	2152.17
192.416	2148.23
192.491	2143.37
192.567	2148.08
192.642	2148.08
192.718	2149.37
192.793	2137.33
192.869	2133.96
192.944	2136.05
193.02	2146.28
193.095	2150.23
193.171	2156.36
193.246	2159.6
193.322	2156.32
193.397	2154.08
193.473	2139.71
193.548	2121.06
193.624	2130.34
193.699	2130.91
193.775	2145.19
193.85	2146.33
193.925	2150.9
194.001	2150.32
194.076	2140.67
194.152	2128.01
194.227	2120.16
194.302	2112.27
194.378	2119.02
194.453	2114.98
194.529	2125.3
194.604	2108.8
194.679	2100.57
194.755	2080.41
194.83	2090.02
194.905	2087.12
194.981	2095.06
195.056	2090.45
195.131	2096.49
195.207	2091.11
195.282	2081.6
195.357	2064.85
195.433	2077.69
195.508	2068.7
195.583	2077.03
195.659	2095.77
195.734	2103.05
195.809	2103.53
195.884	2110.28
195.96	2108.23
196.035	2124.5
196.11	2123.55
196.185	2134.63
196.261	2142.58
196.336	2173.07
196.411	2160.03
196.486	2165.83
196.561	2160.69
196.637	2167.35
196.712	2185.62
196.787	2188.62
196.862	2201.99
196.937	2211.65
197.013	2216.5
197.088	2227.54
197.163	2247.72
197.238	2261.81
197.313	2261.01
197.388	2276.52
197.464	2307.51
197.539	2318.93
197.614	2310.65
197.689	2322.36
197.764	2339.11
197.839	2356.58
197.914	2350.49
197.989	2370.24
198.065	2382.62
198.14	2433.68
198.215	2459.96
198.29	2471.63
198.365	2484.67
198.44	2496.76
198.515	2522.24
198.59	2539.53
198.665	2564.67
198.74	2572.58
198.815	2573.91
198.89	2597.43
198.965	2626.73
199.04	2621.02
199.115	2635.4
199.19	2680.59
199.265	2682.07
199.34	2692.84
199.415	2729.83
199.49	2753.54
199.565	2765.21
199.64	2788.85
199.715	2783.79
199.79	2790.7
199.865	2795.94
199.94	2795.46
200.015	2825.01
200.09	2832.16
200.165	2837.21
200.24	2845.36
200.315	2884.47
200.39	2898.96
200.464	2904.11
200.539	2904.54
200.614	2919.45
200.689	2944.1
200.764	2948.2
200.839	2967.64
200.914	2971.59
200.989	2956.81
201.063	2969.73
201.138	2949.86
201.213	2953.73
201.288	2932.14
201.363	2936.47
201.438	2936.47
201.512	2955.2
201.587	2938.65
201.662	2944.52
201.737	2956.06
201.812	2962.44
201.886	2931.25
201.961	2942.26
202.036	2931.35
202.111	2928.59
202.186	2901.25
202.26	2886.04
202.335	2865.68
202.41	2855.91
202.485	2839.09
202.559	2821.56
202.634	2794.16
202.709	2803.11
202.784	2783.24
202.858	2787.48
202.933	2772.04
203.008	2766.75
203.082	2744.02
203.157	2744.74
203.232	2699.59
203.306	2680.48
203.381	2647.17
203.456	2622.97
203.53	2600.47
203.605	2582.23
203.68	2561.36
203.754	2556.41
203.829	2538.22
203.904	2518.74
203.978	2511.36
204.053	2518.74
204.127	2504.08
204.202	2503.93
204.277	2490.13
204.351	2480.55
204.426	2469.89
204.5	2457.27
204.575	2423.14
204.65	2436.09
204.724	2427.14
204.799	2434.42
204.873	2429.32
204.948	2430.37
205.022	2419.71
205.097	2410.04
205.171	2422.89
205.246	2428.65
205.32	2428.13
205.395	2431.41
205.469	2420.99
205.544	2425.61
205.618	2406.14
205.693	2419.76
205.767	2406.29
205.842	2427.24
205.916	2421
205.991	2415.67
206.065	2424.34
206.14	2439.65
206.214	2434.08
206.289	2426.98
206.363	2440.55
206.438	2442.79
206.512	2449.84
206.586	2470.64
206.661	2479.26
206.735	2458.18
206.81	2462.33
206.884	2474.84
206.958	2463.89
207.033	2484.26
207.107	2493.55
207.181	2525.37
207.256	2521.9
207.33	2544.75
207.405	2556.19
207.479	2577.09
207.553	2583.85
207.628	2571.24
207.702	2583.95
207.776	2578.62
207.851	2583.71
207.925	2599.63
207.999	2602.39
208.073	2604.34
208.148	2613.3
208.222	2605.44
208.296	2644.53
208.371	2662.16
208.445	2678.36
208.519	2709.51
208.593	2727.76
208.668	2733.58
208.742	2745.5
208.816	2759.45
208.89	2781.91
208.965	2794.45
209.039	2815.43
209.113	2844.5
209.187	2876.12
209.261	2890.46
209.336	2927.88
209.41	2967.98
209.484	2989.44
209.558	3034.51
209.632	3070.08
209.707	3103.94
209.781	3153.92
209.855	3191.47
209.929	3237.02
210.003	3271.99
210.077	3301.81
210.151	3379.75
210.226	3439.82
210.3	3501.92
210.374	3557.09
210.448	3598.78
210.522	3642.1
210.596	3691.33
210.67	3747.41
210.744	3841.05
210.818	3915.98
210.892	3984.56
210.966	4025.51
211.041	4092.95
211.115	4136.06
211.189	4212.07
211.263	4281.98
211.337	4339.84
211.411	4413.42
211.485	4467.21
211.559	4540.72
211.633	4606.37
211.707	4640.56
211.781	4714.12
211.855	4744.33
211.929	4804.57
212.003	4856.3
212.077	4938.29
212.151	5020.63
212.225	5100.39
212.299	5161.17
212.373	5225.07
212.447	5293.32
212.52	5398.23
212.594	5477.62
212.668	5570.89
212.742	5636.15
212.816	5707.12
212.89	5782.3
212.964	5864.34
213.038	5950.42
213.112	6050.95
213.186	6147.62
213.26	6208.15
213.333	6250.77
213.407	6338.52
213.481	6425.66
213.555	6524.94
213.629	6601.58
213.703	6677.42
213.777	6762.3
213.85	6836.61
213.924	6960.87
213.998	7050.14
214.072	7140.99
214.146	7219.47
214.219	7305.02
214.293	7388.93
214.367	7488.77
214.441	7590.88
214.515	7668.44
214.588	7736.38
214.662	7791.98
214.736	7860.98
214.81	7955.82
214.883	8052.23
214.957	8134.56
215.031	8208.08
215.105	8272.77
215.178	8348.11
215.252	8428.56
215.326	8496.6
215.4	8564.16
215.473	8599.58
215.547	8665.19
215.621	8736.44
215.694	8825.06
215.768	8887.16
215.842	8960.81
215.915	9022.1
215.989	9079.68
216.063	9145.07
216.136	9222.06
216.21	9301.69
216.284	9396.22
216.357	9485.11
216.431	9561.96
216.504	9644.94
216.578	9756.58
216.652	9850.54
216.725	9932.9
216.799	10021.15
216.873	10096.15
216.946	10177.22
217.02	10257.38
217.093	10339.37
217.167	10389.53
217.24	10448.31
217.314	10517.15
217.387	10591.11
217.461	10663.96
217.535	10753.05
217.608	10823.64
217.682	10907.3
217.755	10990.08
217.829	11054.85
217.902	11131.14
217.976	11205.21
218.049	11271.95
218.123	11321.26
218.196	11399.86
218.27	11458.03
218.343	11518.52
218.417	11594.39
218.49	11662.25
218.563	11740.09
218.637	11811.28
218.71	11902.37
218.784	11978.48
218.857	12060.28
218.931	12134.6
219.004	12204.3
219.077	12277.91
219.151	12344.47
219.224	12402.95
219.298	12473.85
219.371	12550.79
219.444	12596.73
219.518	12668.21
219.591	12743.51
219.665	12847.63
219.738	12912.37
219.811	12977.45
219.885	13048.6
219.958	13119.22
220.031	13179.87
220.105	13253.43
220.178	13315.76
220.251	13373.7
220.325	13438.16
220.398	13499.62
220.471	13561.52
220.544	13634.69
220.618	13692.11
220.691	13769.43
220.764	13836.48
220.838	13900.36
220.911	13954.83
220.984	14043.34
221.057	14107.64
221.131	14172
221.204	14193.79
221.277	14270.82
221.35	14356.77
221.424	14407.14
221.497	14471.45
221.57	14539.32
221.643	14598.52
221.716	14668.22
221.79	14720.57
221.863	14784.2
221.936	14847.4
222.009	14901.19
222.082	14966.7
222.155	15015.72
222.229	15074.72
222.302	15131.07
222.375	15176.96
222.448	15243.29
222.521	15300.84
222.594	15357.96
222.667	15401.15
222.74	15472.49
222.814	15520.88
222.887	15565.8
222.96	15637.86
223.033	15697.15
223.106	15756.53
223.179	15807.96
223.252	15853.08
223.325	15904.12
223.398	15958.88
223.471	16009.48
223.544	16065.35
223.617	16102.03
223.69	16153.94
223.763	16197.51
223.837	16249.47
223.91	16306.63
223.983	16333.28
224.056	16347.36
224.129	16385.58
224.202	16439.17
224.275	16467.61
224.348	16488.43
224.42	16523.32
224.493	16544.19
224.566	16570.85
224.639	16612.97
224.712	16650.61
224.785	16688.15
224.858	16727.92
224.931	16754.52
225.004	16777.12
225.077	16816.35
225.15	16831.92
225.223	16861.08
225.296	16916.16
225.369	16932.98
225.442	16961.71
225.514	17003.49
225.587	17055.74
225.66	17089.95
225.733	17120.8
225.806	17161.91
225.879	17202.05
225.952	17230.92
226.025	17274.34
226.097	17328.17
226.17	17350.39
226.243	17360.9
226.316	17390.97
226.389	17424.08
226.461	17466.3
226.534	17511.07
226.607	17540.7
226.68	17600.42
226.753	17634.49
226.825	17646.54
226.898	17700.17
226.971	17720.85
227.044	17744.65
227.117	17779.59
227.189	17817.09
227.262	17861.18
227.335	17896.6
227.407	17925.08
227.48	17962.87
227.553	17993.47
227.626	18017.9
227.698	18050.52
227.771	18090.38
227.844	18106.96
227.916	18134.91
227.989	18146.76
228.062	18166.18
228.134	18202.66
228.207	18224.98
228.28	18241.12
228.352	18267.29
228.425	18288.01
228.498	18326.75
228.57	18356.39
228.643	18390.22
228.716	18419.81
228.788	18434.56
228.861	18444.63
228.934	18481.93
229.006	18494.31
229.079	18515.56
229.151	18521.78
229.224	18532.57
229.296	18551.56
229.369	18604.71
229.442	18641.29
229.514	18651.07
229.587	18686.35
229.659	18695.79
229.732	18722.15
229.804	18760.32
229.877	18794.15
229.949	18820.56
230.022	18861.08
230.094	18877.28
230.167	18889.42
230.239	18889.61
230.312	18903.4
230.384	18955.3
230.457	18966.28
230.529	18990.86
230.602	19007.05
230.674	19022.33
230.747	19055.96
230.819	19086.85
230.892	19069.79
230.964	19088.54
231.037	19117.65
231.109	19133.31
231.181	19164.34
231.254	19170.46
231.326	19179.14
231.399	19195.43
231.471	19204.15
231.544	19189.31
231.616	19211.95
231.688	19235.37
231.761	19249.11
231.833	19263.37
231.905	19252.82
231.978	19273.3
232.05	19279.18
232.122	19295.47
232.195	19313.15
232.267	19333.44
232.339	19338.16
232.412	19363.03
232.484	19357.44
232.556	19358.98
232.629	19379.08
232.701	19376.43
232.773	19377.1
232.846	19380.96
232.918	19382.64
232.99	19393.34
233.062	19401.73
233.135	19412.47
233.207	19400.23
233.279	19412.42
233.351	19420.95
233.424	19409.87
233.496	19395.46
233.568	19419.6
233.64	19408.42
233.713	19409.92
233.785	19405.05
233.857	19406.11
233.929	19390.74
234.001	19411.56
234.074	19430.11
234.146	19410.74
234.218	19409.77
234.29	19411.94
234.362	19406.4
234.434	19383.8
234.507	19361.44
234.579	19346.69
234.651	19332.86
234.723	19329.87
234.795	19330.31
234.867	19318.89
234.939	19329.39
235.012	19326.74
235.084	19321.49
235.156	19320
235.228	19306.5
235.3	19289.2
235.372	19284.67
235.444	19289.78
235.516	19249.06
235.588	19234.7
235.66	19224.15
235.732	19217.01
235.804	19264.24
235.876	19258.46
235.948	19269.73
236.02	19258.22
236.092	19259.08
236.164	19248.82
236.236	19234.65
236.308	19208.77
236.38	19195.62
236.452	19179.23
236.524	19171.28
236.596	19163.96
236.668	19152.25
236.74	19134.03
236.812	19129.31
236.884	19119.33
236.956	19113.6
237.028	19096.35
237.1	19063.29
237.172	19060.01
237.244	19052.5
237.316	18987.15
237.388	18969.85
237.46	18936.84
237.532	18934.14
237.604	18904.79
237.675	18895.83
237.747	18885.71
237.819	18868.46
237.891	18854.96
237.963	18826.58
238.035	18802.92
238.107	18750.73
238.178	18747.65
238.25	18729.09
238.322	18724.27
238.394	18687.07
238.466	18657.63
238.538	18645.58
238.609	18635.27
238.681	18598.59
238.753	18563.08
238.825	18552.48
238.897	18530.21
238.968	18532.04
239.04	18504.96
239.112	18502.36
239.184	18468.34
239.255	18446.6
239.327	18423.13
239.399	18399.09
239.471	18391.86
239.542	18370.85
239.614	18363.38
239.686	18305.5
239.758	18302.47
239.829	18269.65
239.901	18260.83
239.973	18238.37
240.044	18218.08
240.116	18199.29
240.188	18178.47
240.259	18157.7
240.331	18122.86
240.403	18100.69
240.474	18054.09
240.546	18018.77
240.618	17970.67
240.689	17937.76
240.761	17914.29
240.833	17907.54
240.904	17877.33
240.976	17847.16
241.048	17825.52
241.119	17808.61
241.191	17798.53
241.262	17766.73
241.334	17728.56
241.405	17694.2
241.477	17651.64
241.549	17626.87
241.62	17595.07
241.692	17573.28
241.763	17557.43
241.835	17520.95
241.906	17501.86
241.978	17467.12
242.049	17457.82
242.121	17445.48
242.192	17438.2
242.264	17380.13
242.335	17330.34
242.407	17310.01
242.478	17272.56
242.55	17241.04
242.621	17198.78
242.693	17163.93
242.764	17142.05
242.836	17107.64
242.907	17088.27
242.979	17071.93
243.05	17042
243.122	17022.68
243.193	16987.2
243.264	16931.35
243.336	16902.86
243.407	16877.42
243.479	16860.31
243.55	16823.58
243.622	16796.11
243.693	16759.15
243.764	16758.81
243.836	16716.4
243.907	16679.24
243.978	16644.68
244.05	16623.76
244.121	16582.7
244.192	16564.53
244.264	16508.57
244.335	16480.43
244.407	16431.75
244.478	16402.25
244.549	16370.68
244.62	16326.58
244.692	16297.57
244.763	16278.19
244.834	16245.8
244.906	16208.35
244.977	16182.04
245.048	16172.11
245.119	16134.37
245.191	16101.74
245.262	16049.16
245.333	16046.31
245.405	16011.9
245.476	15986.3
245.547	15955.65
245.618	15932.85
245.689	15889.28
245.761	15860.75
245.832	15830.67
245.903	15814.76
245.974	15784.11
246.045	15746.17
246.117	15732.63
246.188	15688.96
246.259	15642.98
246.33	15602.25
246.401	15559.49
246.473	15513.65
246.544	15469.7
246.615	15448.82
246.686	15412.19
246.757	15398.26
246.828	15352.28
246.899	15345.53
246.97	15296.22
247.042	15257.22
247.113	15236.3
247.184	15236.16
247.255	15206.32
247.326	15185.16
247.397	15151.51
247.468	15130.5
247.539	15110.73
247.61	15057.66
247.681	15037.42
247.752	15030.28
247.823	15000.06
247.894	14985.41
247.965	14943.9
248.037	14908.33
248.108	14866.68
248.179	14840.41
248.25	14805.94
248.321	14790.86
248.392	14744.68
248.463	14744.39
248.534	14716.72
248.605	14695.27
248.675	14659.21
248.746	14633.86
248.817	14604.02
248.888	14578.52
248.959	14533.83
249.03	14502.74
249.101	14478.15
249.172	14450.05
249.243	14395.53
249.314	14386.23
249.385	14353.54
249.456	14330.84
249.527	14302.98
249.598	14282.78
249.669	14248.7
249.739	14230.18
249.81	14201.98
249.881	14169.35
249.952	14138.5
250.023	14112.51
250.094	14069.9
250.165	14030.47
250.235	14012.73
250.306	13986.79
250.377	13948.57
250.448	13923.31
250.519	13879.82
250.59	13878.67
250.66	13845.21
250.731	13846.42
250.802	13817.16
250.873	13792.76
250.944	13779.31
251.014	13749.43
251.085	13744.03
251.156	13730.72
251.227	13720.26
251.297	13708.98
251.368	13689.5
251.439	13678.8
251.51	13661.64
251.58	13628.76
251.651	13602.4
251.722	13582.39
251.792	13546.14
251.863	13519.14
251.934	13513.6
252.005	13516.35
252.075	13484.92
252.146	13478.22
252.217	13463.56
252.287	13449
252.358	13424.46
252.429	13422.87
252.499	13392.07
252.57	13366.71
252.641	13347.43
252.711	13319.52
252.782	13275.94
252.852	13272.61
252.923	13241.62
252.994	13217.9
253.064	13210.38
253.135	13174.56
253.205	13135.37
253.276	13127.51
253.347	13119.32
253.417	13082.59
253.488	13063.06
253.558	13037.66
253.629	13007.96
253.699	12979.86
253.77	12965.11
253.841	12943.7
253.911	12920.8
253.982	12910.01
254.052	12898.15
254.123	12882.87
254.193	12856.79
254.264	12868.65
254.334	12829.02
254.405	12796.63
254.475	12765.39
254.546	12739.55
254.616	12741.38
254.687	12734.1
254.757	12721.57
254.827	12696.84
254.898	12679.25
254.968	12654.04
255.039	12624.1
255.109	12611.42
255.18	12586.5
255.25	12537.33
255.321	12522.2
255.391	12485.08
255.461	12479.63
255.532	12430.22
255.602	12398.12
255.673	12361.53
255.743	12332.9
255.813	12297.13
255.884	12287.49
255.954	12271.68
256.024	12265.32
256.095	12235.77
256.165	12201.21
256.235	12176.19
256.306	12149.53
256.376	12143.08
256.446	12129.14
256.517	12119.5
256.587	12108.47
256.657	12085.71
256.728	12074.15
256.798	12051.35
256.868	12032.93
256.938	11998.42
257.009	11992.93
257.079	11982.08
257.149	11984.73
257.219	11947.13
257.29	11939.52
257.36	11901.88
257.43	11895.56
257.5	11853.05
257.571	11836.28
257.641	11823.26
257.711	11797.38
257.781	11787.5
257.852	11775.78
257.922	11736.5
257.992	11711.15
258.062	11683.39
258.132	11677.26
258.202	11654.08
258.273	11640.73
258.343	11636.59
258.413	11616.87
258.483	11592.63
258.553	11557.93
258.623	11528.72
258.693	11510.12
258.764	11499.32
258.834	11502.4
258.904	11485.2
258.974	11458.26
259.044	11432.09
259.114	11420.57
259.184	11409.87
259.254	11386.4
259.324	11342.93
259.394	11330.97
259.464	11337.34
259.535	11317.53
259.605	11291.74
259.675	11263.41
259.745	11248.61
259.815	11213.62
259.885	11187.6
259.955	11201.14
260.025	11178.98
260.095	11159.51
260.165	11148.23
260.235	11147.84
260.305	11114.98
260.375	11084.13
260.445	11097.67
260.515	11103.31
260.585	11097.43
260.655	11072.13
260.725	11073.19
260.795	11068.08
260.865	11071.79
260.934	11037.39
261.004	11034.01
261.074	11019.12
261.144	11022.06
261.214	11013.14
261.284	10993.39
261.354	10984.57
261.424	10954.88
261.494	10960.23
261.564	10949
261.634	10944.71
261.703	10912.52
261.773	10908.72
261.843	10899.46
261.913	10873.78
261.983	10833.35
262.053	10819.91
262.123	10798.03
262.192	10766.95
262.262	10759.87
262.332	10722.52
262.402	10717.03
262.472	10702.28
262.541	10663.69
262.611	10658.01
262.681	10631.31
262.751	10625.48
262.821	10608.33
262.89	10575.61
262.96	10559.71
263.03	10559.28
263.1	10543.37
263.169	10532.58
263.239	10517.5
263.309	10520.25
263.379	10514.8
263.448	10509.5
263.518	10504.01
263.588	10499.87
263.657	10496.4
263.727	10489.41
263.797	10480.74
263.867	10465.71
263.936	10440.27
264.006	10440.31
264.076	10423.31
264.145	10401.24
264.215	10379.71
264.285	10382.74
264.354	10355.28
264.424	10336.3
264.494	10304.69
264.563	10286
264.633	10285.42
264.702	10275.74
264.772	10238.64
264.842	10216.67
264.911	10202.03
264.981	10165.6
265.05	10149.13
265.12	10129.57
265.19	10112.95
265.259	10107.5
265.329	10095.41
265.398	10084.19
265.468	10098.16
265.537	10079.28
265.607	10081.44
265.676	10080.43
265.746	10071.76
265.815	10068.39
265.885	10047.63
265.955	10024.41
266.024	10005.29
266.094	9965.84
266.163	9969.93
266.232	9973.88
266.302	9960.83
266.371	9954.66
266.441	9943.58
266.51	9938.77
266.58	9924.8
266.649	9897.78
266.719	9894.74
266.788	9887.47
266.858	9887.9
266.927	9847.34
266.996	9835.54
267.066	9822.59
267.135	9797.35
267.205	9786.85
267.274	9776.68
267.343	9781.74
267.413	9772.3
267.482	9772.5
267.552	9778.18
267.621	9748.12
267.69	9714.6
267.76	9707.23
267.829	9698.27
267.898	9686.52
267.968	9667.11
268.037	9657.67
268.106	9661.77
268.176	9635.23
268.245	9623.48
268.314	9603.01
268.384	9605.46
268.453	9599.59
268.522	9587.21
268.592	9584.22
268.661	9560.19
268.73	9552.34
268.799	9534.14
268.869	9543.24
268.938	9515.21
269.007	9489.54
269.076	9473.22
269.146	9473.65
269.215	9465.9
269.284	9465.66
269.353	9448.85
269.422	9437.78
269.492	9421.94
269.561	9377.49
269.63	9369.02
269.699	9345.81
269.768	9333.24
269.838	9323.08
269.907	9317.15
269.976	9294.62
270.045	9264.67
270.114	9261.11
270.183	9247
270.253	9234.39
270.322	9202.37
270.391	9190.43
270.46	9201.79
270.529	9202.71
270.598	9200.2
270.667	9188.65
270.736	9165.53
270.806	9159.18
270.875	9154.51
270.944	9144.06
271.013	9164.95
271.082	9160.28
271.151	9159.61
271.22	9139.58
271.289	9132.6
271.358	9119.17
271.427	9113
271.496	9107.95
271.565	9096.06
271.634	9090.23
271.703	9118.6
271.772	9122.3
271.841	9112.29
271.91	9086.97
271.979	9076.04
272.048	9048.02
272.117	9043.44
272.186	9030.59
272.255	9035.84
272.324	9034.83
272.393	9031.41
272.462	9017.11
272.531	9005.89
272.6	8990.73
272.669	8996.41
272.738	8982.25
272.807	8974.26
272.876	8957.8
272.945	8986.59
273.013	8986.35
273.082	8987.7
273.151	8944.36
273.22	8942.82
273.289	8936.66
273.358	8951.63
273.427	8946.48
273.496	8948.5
273.564	8943.02
273.633	8946.72
273.702	8924.63
273.771	8914.76
273.84	8904.51
273.909	8903.01
273.977	8900.37
274.046	8894.54
274.115	8899.07
274.184	8885.64
274.253	8882.46
274.322	8891.9
274.39	8862.39
274.459	8846.69
274.528	8818.34
274.597	8814.11
274.665	8807.46
274.734	8817.77
274.803	8799.28
274.872	8789.22
274.94	8780.94
275.009	8811.37
275.078	8792.94
275.147	8794.67
275.215	8789.95
275.284	8801.17
275.353	8792.21
275.421	8769.4
275.49	8783.36
275.559	8767.72
275.627	8762.71
275.696	8750.97
275.765	8749.72
275.833	8738.41
275.902	8734.51
275.971	8746.83
276.039	8755.54
276.108	8757.22
276.177	8751.45
276.245	8744.66
276.314	8740.47
276.383	8745.48
276.451	8707.68
276.52	8715.19
276.588	8726.02
276.657	8727.42
276.725	8719.19
276.794	8718.9
276.863	8729.87
276.931	8700.08
277	8704.94
277.068	8712.06
277.137	8727.03
277.205	8725.3
277.274	8745.17
277.342	8760.82
277.411	8746.43
277.48	8730.26
277.548	8715.14
277.617	8711.78
277.685	8698.97
277.754	8701.81
277.822	8694.21
277.89	8704.9
277.959	8697
278.027	8670.68
278.096	8657.25
278.164	8683.77
278.233	8670.97
278.301	8661.06
278.37	8669.48
278.438	8659.28
278.507	8661.68
278.575	8642.33
278.643	8638.2
278.712	8619.95
278.78	8601.47
278.849	8606.76
278.917	8616.58
278.985	8618.46
279.054	8622.41
279.122	8637.57
279.191	8636.31
279.259	8627.8
279.327	8605.13
279.396	8618.6
279.464	8617.64
279.532	8629.53
279.601	8622.02
279.669	8626.59
279.737	8638.57
279.806	8640.69
279.874	8645.65
279.942	8645.36
280.011	8638.33
280.079	8642.62
280.147	8654.98
280.215	8659.32
280.284	8654.5
280.352	8644.98
280.42	8647.09
280.488	8637.23
280.557	8630.78
280.625	8627.94
280.693	8636.17
280.761	8642.95
280.83	8623.51
280.898	8634.34
280.966	8613.55
281.034	8581.78
281.102	8563.78
281.171	8559.5
281.239	8570.09
281.307	8562.58
281.375	8541.02
281.443	8568.36
281.512	8561.48
281.58	8562.2
281.648	8551.56
281.716	8551.9
281.784	8551.66
281.852	8549.25
281.92	8549.64
281.989	8559.79
282.057	8548.34
282.125	8590.71
282.193	8582.33
282.261	8582.96
282.329	8580.98
282.397	8585.51
282.465	8587.91
282.533	8600.66
282.601	8590.65
282.67	8572.75
282.738	8565.19
282.806	8584.01
282.874	8572.22
282.942	8576.11
283.01	8570.43
283.078	8578.04
283.146	8576.16
283.214	8585.55
283.282	8585.84
283.35	8594.79
283.418	8586.51
283.486	8588.87
283.554	8546.17
283.622	8551.17
283.69	8551.84
283.758	8548.38
283.826	8553.77
283.894	8564.21
283.962	8583.18
284.03	8596.99
284.098	8588.47
284.165	8580.34
284.233	8578.12
284.301	8568.02
284.369	8562.96
284.437	8559.07
284.505	8554.64
284.573	8568.02
284.641	8554.88
284.709	8565.52
284.777	8541.79
284.845	8548.19
284.912	8554.35
284.98	8558.15
285.048	8550.02
285.116	8554.26
285.184	8562.34
285.252	8560.03
285.319	8549.11
285.387	8542.32
285.455	8524.18
285.523	8534.38
285.591	8537.17
285.659	8539.34
285.726	8552.62
285.794	8535.78
285.862	8524.9
285.93	8520.19
285.997	8513.45
286.065	8507.67
286.133	8494.01
286.201	8495.31
286.269	8482.7
286.336	8477.69
286.404	8464.75
286.472	8469.22
286.539	8446.51
286.607	8427.65
286.675	8428.37
286.743	8434.19
286.81	8425.15
286.878	8438.19
286.946	8429.04
287.013	8428.9
287.081	8427.17
287.149	8410.52
287.216	8428.08
287.284	8429.71
287.352	8430.1
287.419	8431.69
287.487	8451.66
287.555	8466.67
287.622	8470.48
287.69	8481.06
287.758	8490.59
287.825	8490.11
287.893	8482.51
287.96	8491.36
288.028	8509.21
288.096	8508.54
288.163	8506.9
288.231	8491.02
288.298	8490.54
288.366	8494.87
288.433	8493.38
288.501	8481.35
288.569	8488.67
288.636	8488.81
288.704	8503.54
288.771	8511.24
288.839	8498.2
288.906	8488.57
288.974	8490.3
289.041	8486.36
289.109	8469.23
289.176	8472.79
289.244	8478.08
289.311	8491.6
289.379	8503.58
289.446	8508.25
289.514	8508.93
289.581	8511.04
289.649	8522.98
289.716	8522.06
289.783	8530.72
289.851	8547.37
289.918	8549.83
289.986	8553.82
290.053	8558.83
290.121	8554.4
290.188	8552.14
290.255	8582.84
290.323	8577.79
290.39	8567.3
290.458	8573.02
290.525	8590.2
290.592	8589.09
290.66	8589.82
290.727	8579.81
290.794	8591.36
290.862	8583.7
290.929	8592.37
290.996	8587.84
291.064	8595.01
291.131	8607.48
291.198	8613.69
291.266	8608.35
291.333	8607.34
291.4	8611.24
291.468	8618.98
291.535	8618.17
291.602	8620.91
291.669	8606.81
291.737	8606.86
291.804	8605.75
291.871	8625.82
291.938	8631.06
292.006	8658.41
292.073	8671.79
292.14	8692.34
292.207	8688.78
292.275	8693.35
292.342	8694.74
292.409	8722.18
292.476	8749.14
292.543	8745.04
292.611	8744.9
292.678	8764.83
292.745	8799.24
292.812	8812.43
292.879	8808.67
292.946	8813.1
293.014	8828.12
293.081	8845.78
293.148	8861.09
293.215	8876.73
293.282	8868.5
293.349	8877.45
293.416	8854.97
293.484	8860.12
293.551	8865.22
293.618	8877.84
293.685	8906.72
293.752	8904.36
293.819	8901.14
293.886	8883.66
293.953	8884.86
294.02	8898.87
294.087	8908.74
294.154	8893.87
294.221	8907.59
294.288	8914.33
294.356	8932.47
294.423	8940.47
294.49	8926.12
294.557	8943.02
294.624	8942.78
294.691	8967.76
294.758	8967.86
294.825	8977.29
294.892	8977.48
294.959	8978.26
295.026	8984.75
295.093	8972.67
295.16	8971.71
295.226	8969.68
295.293	8996.55
295.36	9008.01
295.427	9011.95
295.494	9022.88
295.561	9033.28
295.628	9056.01
295.695	9070.6
295.762	9073.1
295.829	9080.18
295.896	9102.71
295.963	9111.09
296.03	9115.42
296.096	9115.52
296.163	9125.82
296.23	9141.32
296.297	9155.38
296.364	9156.63
296.431	9164.48
296.498	9160.39
296.564	9189.9
296.631	9198.51
296.698	9179.06
296.765	9196.01
296.832	9187.25
296.899	9173.96
296.965	9194.28
297.032	9171.74
297.099	9183.87
297.166	9195.33
297.233	9193.5
297.299	9184.16
297.366	9184.5
297.433	9192.49
297.5	9199.23
297.566	9198.95
297.633	9196.83
297.7	9197.26
297.767	9194.18
297.833	9202.85
297.9	9207.18
297.967	9192.78
298.033	9204
298.1	9237.52
298.167	9226.1
298.234	9232.07
298.3	9239.2
298.367	9236.79
298.434	9239.3
298.5	9231.83
298.567	9222.3
298.634	9222.83
298.7	9234.53
298.767	9231.25
298.834	9243.77
298.9	9242.09
298.967	9240.11
299.033	9248.73
299.1	9264.04
299.167	9281.38
299.233	9273.09
299.3	9290.67
299.366	9313.64
299.433	9333.04
299.5	9309.26
299.566	9315.37
299.633	9335.11
299.699	9348.55
299.766	9346.04
299.832	9355.19
299.899	9365.59
299.965	9378.07
300.032	9374.94
300.099	9385.63
300.165	9395.74
300.232	9389.04
300.298	9385.53
300.365	9392.7
300.431	9396.56
300.498	9392.7
300.564	9403.54
300.631	9412.78
300.697	9422.22
300.763	9413.84
300.83	9408.02
300.896	9425.06
300.963	9435.66
301.029	9442.45
301.096	9447.07
301.162	9457.42
301.229	9450.68
301.295	9439.8
301.361	9447.36
301.428	9449.48
301.494	9440.28
301.561	9444.37
301.627	9446.01
301.693	9454.77
301.76	9460.94
301.826	9456.65
301.892	9468.11
301.959	9472.59
302.025	9473.99
302.092	9465.37
302.158	9467.92
302.224	9469.46
302.291	9459.06
302.357	9458.58
302.423	9450.87
302.49	9442.97
302.556	9453.33
302.622	9456.46
302.688	9470.09
302.755	9477.22
302.821	9487.13
302.887	9494.98
302.954	9492.33
303.02	9503.84
303.086	9512.75
303.152	9509.05
303.219	9502.01
303.285	9502.83
303.351	9510.88
303.417	9511.74
303.483	9504.28
303.55	9502.88
303.616	9496
303.682	9492.05
303.748	9485.93
303.815	9493.73
303.881	9501.05
303.947	9486.61
304.013	9486.99
304.079	9474.37
304.145	9460.07
304.212	9461.81
304.278	9458.19
304.344	9453.67
304.41	9440.42
304.476	9427.52
304.542	9426.27
304.608	9430.22
304.674	9413.17
304.741	9405.46
304.807	9412.16
304.873	9426.12
304.939	9444.61
305.005	9428.67
305.071	9429.88
305.137	9432.72
305.203	9411.19
305.269	9407.58
305.335	9422.03
305.401	9423.62
305.467	9425.74
305.533	9434.12
305.599	9439.75
305.666	9448.52
305.732	9450.63
305.798	9460.84
305.864	9481.45
305.93	9486.85
305.996	9485.98
306.062	9491.28
306.128	9485.69
306.194	9466.38
306.259	9456.36
306.325	9442.3
306.391	9454.68
306.457	9464.84
306.523	9461.61
306.589	9491.18
306.655	9481.93
306.721	9460.65
306.787	9442.26
306.853	9454.2
306.919	9434.74
306.985	9429.06
307.051	9418.03
307.117	9409.85
307.183	9400.8
307.248	9379.8
307.314	9386.83
307.38	9391.21
307.446	9393.28
307.512	9380.67
307.578	9386.3
307.644	9386.78
307.709	9389.57
307.775	9390.92
307.841	9382.88
307.907	9385.82
307.973	9360.05
308.039	9364.24
308.104	9370.36
308.17	9375.17
308.236	9362.22
308.302	9367.95
308.368	9347.44
308.433	9345.85
308.499	9342.09
308.565	9331.84
308.631	9332.8
308.696	9306.22
308.762	9296.35
308.828	9292.59
308.894	9274.88
308.959	9255.52
309.025	9239.92
309.091	9233.37
309.156	9220.18
309.222	9221.43
309.288	9210.79
309.354	9189.46
309.419	9184.36
309.485	9166.64
309.551	9171.89
309.616	9158.98
309.682	9154.17
309.748	9154.6
309.813	9153.54
309.879	9146.08
309.945	9138.71
310.01	9132.89
310.076	9133.66
310.141	9123.07
310.207	9107.08
310.273	9108.33
310.338	9109.58
310.404	9099.19
310.469	9090.18
310.535	9079.73
310.601	9054.84
310.666	9062.02
310.732	9076.94
310.797	9065.19
310.863	9064.95
310.928	9057.64
310.994	9061.82
311.059	9055.52
311.125	9048.2
311.191	9054.7
311.256	9042.71
311.322	9053.5
311.387	9032.94
311.453	9330.73
311.518	9309.5
311.584	9312.48
311.649	9316.67
311.715	9304.88
311.78	9304.35
311.846	9292.8
311.911	9299.44
311.976	9302.18
312.042	9275.9
312.107	9255.2
312.173	9250
312.238	9241.33
312.304	9235.41
312.369	9223.23
312.434	9221.93
312.5	9220.68
312.565	9186.07
312.631	9190.01
312.696	9175.76
312.761	9177.45
312.827	8870.57
312.892	8913.46
312.958	8907.3
313.023	8909.51
313.088	8918.85
313.154	8905.33
313.219	8897.19
313.284	8888.29
313.35	8892.23
313.415	8891.61
313.48	8896.95
313.546	8898.01
313.611	8901.28
313.676	8894.21
313.741	8881.4
313.807	8883.81
313.872	8883.33
313.937	8892.23
314.003	8904.65
314.068	8901.04
314.133	8906
314.198	8896.61
314.264	8873.26
314.329	8858.34
314.394	8849.72
314.459	8838.6
314.525	8858
314.59	8853.33
314.655	8839.61
314.72	8845.97
314.785	8844.43
314.851	8831
314.916	8812.76
314.981	8798.03
315.046	8792.74
315.111	8786.33
315.176	8771.75
315.242	8776.85
315.307	8772.13
315.372	8750.62
315.437	8743.93
315.502	8737.28
315.567	8747.3
315.632	8725.78
315.698	8728.43
315.763	8727.75
315.828	8721.79
315.893	8720.29
315.958	8720.25
316.023	8709.8
316.088	8685.98
316.153	8663.6
316.218	8654.7
316.283	8633.91
316.348	8619.67
316.413	8610.62
316.479	8597.34
316.544	8561.2
316.609	8528.24
316.674	8497.73
316.739	8459.63
316.804	8431.14
316.869	8396.93
316.934	8358.34
316.999	8332.64
317.064	8282.37
317.129	8240.03
317.194	8202.31
317.259	8148.23
317.324	8096.38
317.389	8055.2
317.454	8017.01
317.518	7981.51
317.583	7960.11
317.648	7942.02
317.713	7903.5
317.778	7841.89
317.843	7810.82
317.908	7779.51
317.973	7739.94
318.038	7711.85
318.103	7679.64
318.168	7648.63
318.233	7615.93
318.297	7571.12
318.362	7535.54
318.427	7497.95
318.492	7470.55
318.557	7424.07
318.622	7401.43
318.687	7371.15
318.751	7333.09
318.816	7298.43
318.881	7271.86
318.946	7217.93
319.011	7168.62
319.075	7131.52
319.14	7096.98
319.205	7048.64
319.27	7011.94
319.335	6971.63
319.399	6926.9
319.464	6895.87
319.529	6840.29
319.594	6795.14
319.658	6764.44
319.723	6722.27
319.788	6695.62
319.853	6641.1
319.917	6614.74
319.982	6559.22
320.047	6524.27
320.112	6493.45
320.176	6444.33
320.241	6405.73
320.306	6374.04
320.37	6335.45
320.435	6303.29
320.5	6277.65
320.564	6247.23
320.629	6207.59
320.694	6176.34
320.758	6136.9
320.823	6096.31
320.888	6072.03
320.952	6028.37
321.017	5986.73
321.082	5946.19
321.146	5914.29
321.211	5883.44
321.275	5841.86
321.34	5799.33
321.405	5757.27
321.469	5718.72
321.534	5675
321.598	5626.38
321.663	5596.4
321.727	5567.73
321.792	5516.83
321.857	5475.07
321.921	5430.63
321.986	5386.17
322.05	5328.23
322.115	5294.16
322.179	5246.73
322.244	5188.77
322.308	5159.35
322.373	5109.01
322.437	5069.58
322.502	5037.05
322.566	4988.09
322.631	4955.57
322.695	4920
322.76	4877.53
322.824	4838.84
322.889	4798.97
322.953	4754.18
323.018	4689.21
323.082	4620.59
323.146	4575.38
323.211	4521.88
323.275	4482.79
323.34	4438.54
323.404	4406.79
323.468	4358.94
323.533	4319.82
323.597	4276.56
323.662	4223.14
323.726	4191.39
323.79	4143.63
323.855	4081.98
323.919	4032.94
323.983	3983.65
324.048	3914.01
324.112	4023.06
324.177	3897.23
324.241	3693.87
324.305	3495.37
324.37	3298.89
324.434	3113.97
324.498	3068.74
324.562	3018.01
324.627	2953.29
324.691	2898.65
324.755	2829.04
324.82	2751.08
324.884	2672.09
324.948	2597.46
325.012	2500.36
325.077	2373.21
