Data from 20250702_urea_0.5M_MAYP1162681_01-25-00-236.txt Node
Date: Thu Jul 03 01:25:00 BST 2025
User: adleo
Spectrometer: MAYP116268
Trigger mode: 0
Integration Time (sec): 1.000000E0
Scans to average: 1
Electric dark correction enabled: true
Nonlinearity correction enabled: true
Boxcar width: 10
XAxis mode: Wavelengths
Number of Pixels in Spectrum: 2068
>>>>>Begin Spectral Data<<<<<
179.565	1197.1
179.642	1254.46
179.718	1303.01
179.795	1340.77
179.871	1373.22
179.948	1389.65
180.024	1411.48
180.101	1435.43
180.177	1449.66
180.254	1471.95
180.33	1495.69
180.407	1550.81
180.483	1645.92
180.56	1737.91
180.636	1819.9
180.712	1808.2
180.789	1818.56
180.865	1831.53
180.942	1838.76
181.018	1850.07
181.095	1863.86
181.171	1871.23
181.248	1875.41
181.324	1886.4
181.4	1897.05
181.477	1907.89
181.553	1923.95
181.63	1943.82
181.706	1960.61
181.782	1969.69
181.859	1970.31
181.935	1973.68
182.011	1968.69
182.088	1985.29
182.164	2002.46
182.24	2019.57
182.317	2028.8
182.393	2025.9
182.469	2040.31
182.546	2056.04
182.622	2060.99
182.698	2055.81
182.775	2065.13
182.851	2075.11
182.927	2068.98
183.003	2061.89
183.08	2057.04
183.156	2063.32
183.232	2059.56
183.308	2046.72
183.385	2054.38
183.461	2071.31
183.537	2071.83
183.613	2085.44
183.69	2074.54
183.766	2065.65
183.842	2069.69
183.918	2075.54
183.995	2092.23
184.071	2093.95
184.147	2089.09
184.223	2076.92
184.299	2088.1
184.375	2080.54
184.452	2085.16
184.528	2142.21
184.604	2153.96
184.68	2166.76
184.756	2177.27
184.832	2181.6
184.908	2185.26
184.985	2185.12
185.061	2169.71
185.137	2181.79
185.213	2168
185.289	2170.76
185.365	2160.77
185.441	2161.82
185.517	2173.19
185.593	2169.72
185.669	2168.48
185.745	2179.04
185.822	2198.25
185.898	2191.83
185.974	2201.67
186.05	2197.44
186.126	2156.84
186.202	2150.61
186.278	2145.47
186.354	2134.24
186.43	2140.15
186.506	2141.43
186.582	2140.57
186.658	2145.85
186.734	2125.59
186.81	2130.82
186.886	2136
186.962	2151.7
187.038	2148.27
187.114	2142.42
187.19	2147.94
187.266	2137.67
187.341	2136.05
187.417	2125.3
187.493	2125.44
187.569	2125.3
187.645	2119.35
187.721	2106.89
187.797	2111.79
187.873	2116.83
187.949	2111.31
188.025	2106.13
188.101	2107.08
188.176	2112.21
188.252	2108.46
188.328	2116.02
188.404	2115.87
188.48	2109.31
188.556	2099.08
188.632	2098.23
188.707	2100.08
188.783	2098.18
188.859	2092.76
188.935	2084.91
189.011	2094.66
189.086	2084.53
189.162	2076.54
189.238	2072.93
189.314	2071.74
189.39	2068.93
189.465	2061.65
189.541	2077.49
189.617	2060.33
189.693	2054.48
189.768	2055.24
189.844	2081.22
189.92	2072.9
189.996	2081.65
190.071	2094.07
190.147	2094.64
190.223	2105.34
190.298	2097.82
190.374	2086.12
190.45	2099.25
190.526	2103.39
190.601	2099.77
190.677	2104.67
190.753	2134.6
190.828	2139.31
190.904	2153.63
190.98	2166.76
191.055	2176.47
191.131	2167.81
191.207	2189.07
191.282	2200.72
191.358	2195.73
191.433	2179.73
191.509	2192.62
191.585	2188.39
191.66	2185.34
191.736	2194.57
191.811	2184.91
191.887	2206.14
191.963	2224.93
192.038	2231.26
192.114	2235.73
192.189	2236.97
192.265	2233.74
192.34	2209.89
192.416	2207.46
192.491	2202.18
192.567	2201.94
192.642	2202.66
192.718	2203.99
192.793	2192.19
192.869	2185.96
192.944	2186.72
193.02	2194.86
193.095	2199.62
193.171	2204.75
193.246	2206.85
193.322	2203.47
193.397	2204.42
193.473	2182.95
193.548	2166.97
193.624	2172.63
193.699	2169.2
193.775	2184.34
193.85	2186.19
193.925	2197.09
194.001	2197.9
194.076	2191.76
194.152	2185.19
194.227	2178.77
194.302	2168.97
194.378	2174.63
194.453	2175.68
194.529	2187.53
194.604	2173.25
194.679	2164.41
194.755	2145.19
194.83	2157.42
194.905	2153
194.981	2161.85
195.056	2157.52
195.131	2164.47
195.207	2160.09
195.282	2152.34
195.357	2134.78
195.433	2147.95
195.508	2137.29
195.583	2145.24
195.659	2158.61
195.734	2167.89
195.809	2168.65
195.884	2177.35
195.96	2178.02
196.035	2188.11
196.11	2183.82
196.185	2193.05
196.261	2197.57
196.336	2231.16
196.411	2216.6
196.486	2222.68
196.561	2215.98
196.637	2224.35
196.712	2239.58
196.787	2242.91
196.862	2255.56
196.937	2263.51
197.013	2271.65
197.088	2279.41
197.163	2299.69
197.238	2318.69
197.313	2317.31
197.388	2330.11
197.464	2362.49
197.539	2375.48
197.614	2368.82
197.689	2383.29
197.764	2400.81
197.839	2421.23
197.914	2415.04
197.989	2438.37
198.065	2455.03
198.14	2504.96
198.215	2531.77
198.29	2543.53
198.365	2557.29
198.44	2569.2
198.515	2597.72
198.59	2611.77
198.665	2637.44
198.74	2645.73
198.815	2644.26
198.89	2665.98
198.965	2696.85
199.04	2693.52
199.115	2707.23
199.19	2754.49
199.265	2756.77
199.34	2767.83
199.415	2803.34
199.49	2825.83
199.565	2834.31
199.64	2853.99
199.715	2853.46
199.79	2859.13
199.865	2866.43
199.94	2865.14
200.015	2895.02
200.09	2900.17
200.165	2906.46
200.24	2913.57
200.315	2955.17
200.39	2970.38
200.464	2976.33
200.539	2975.48
200.614	2988.44
200.689	3012.66
200.764	3015.62
200.839	3034.25
200.914	3039.73
200.989	3029.71
201.063	3043.83
201.138	3028.3
201.213	3031.63
201.288	3009.99
201.363	3020.05
201.438	3020.48
201.512	3036.82
201.587	3020.28
201.662	3024.9
201.737	3039.97
201.812	3049.41
201.886	3015.63
201.961	3026.98
202.036	3015.16
202.111	3013.26
202.186	2985.24
202.26	2968.5
202.335	2948.19
202.41	2939.71
202.485	2921.89
202.559	2899.39
202.634	2871.36
202.709	2880.94
202.784	2861.49
202.858	2860.82
202.933	2837.28
203.008	2832.08
203.082	2813.45
203.157	2813.83
203.232	2771.49
203.306	2747.51
203.381	2716.15
203.456	2693.71
203.53	2666.72
203.605	2644.96
203.68	2623.18
203.754	2615.23
203.829	2597.75
203.904	2577.7
203.978	2567.17
204.053	2571.41
204.127	2558.6
204.202	2557.74
204.277	2539.03
204.351	2532.12
204.426	2525.74
204.5	2516.45
204.575	2481.22
204.65	2489.51
204.724	2481.65
204.799	2488.74
204.873	2483.31
204.948	2480.64
205.022	2465.93
205.097	2461.88
205.171	2476.16
205.246	2483.5
205.32	2484.26
205.395	2483.83
205.469	2475.41
205.544	2481.89
205.618	2466.46
205.693	2476.79
205.767	2463.08
205.842	2483.56
205.916	2479.23
205.991	2470.75
206.065	2478.65
206.14	2490.55
206.214	2487.88
206.289	2480.78
206.363	2491.78
206.438	2495.64
206.512	2502.69
206.586	2526.02
206.661	2532.21
206.735	2511.13
206.81	2511.08
206.884	2528.36
206.958	2516.79
207.033	2535.12
207.107	2541.93
207.181	2575.71
207.256	2576.43
207.33	2597
207.405	2611.39
207.479	2634.83
207.553	2639.73
207.628	2625.74
207.702	2642.4
207.776	2638.12
207.851	2645.12
207.925	2663.89
207.999	2666.51
208.073	2671.18
208.148	2677.95
208.222	2673.75
208.296	2714.14
208.371	2736.35
208.445	2753.17
208.519	2790.95
208.593	2811.2
208.668	2818.02
208.742	2830.95
208.816	2840.19
208.89	2866.7
208.965	2879.77
209.039	2897.56
209.113	2933.36
209.187	2973.57
209.261	2988.53
209.336	3030.83
209.41	3073.03
209.484	3098.94
209.558	3143.68
209.632	3179.5
209.707	3216.33
209.781	3264.41
209.855	3308.85
209.929	3356.94
210.003	3399.04
210.077	3434.79
210.151	3518.39
210.226	3588.89
210.3	3655.42
210.374	3723.5
210.448	3775.47
210.522	3831.38
210.596	3890.77
210.67	3948.73
210.744	4046.64
210.818	4131.92
210.892	4206.86
210.966	4259.25
211.041	4337.11
211.115	4395.31
211.189	4485.57
211.263	4562.96
211.337	4630.6
211.411	4713.03
211.485	4779.63
211.559	4859.8
211.633	4935.8
211.707	4978.82
211.781	5066.38
211.855	5108.73
211.929	5179.94
212.003	5241.86
212.077	5338.07
212.151	5432.5
212.225	5535.62
212.299	5608.39
212.373	5682.45
212.447	5764.43
212.52	5885.88
212.594	5978.59
212.668	6080.71
212.742	6155.81
212.816	6249.3
212.89	6351.56
212.964	6441.59
213.038	6540.65
213.112	6650.58
213.186	6761.78
213.26	6847.72
213.333	6900.37
213.407	7010.5
213.481	7112.61
213.555	7220.91
213.629	7310.37
213.703	7401.99
213.777	7499.65
213.85	7588.45
213.924	7726.84
213.998	7836.25
214.072	7928.76
214.146	8018.95
214.219	8124.68
214.293	8230.16
214.367	8339.81
214.441	8449.37
214.515	8550.47
214.588	8634.83
214.662	8703.31
214.736	8793.02
214.81	8896
214.883	9010.97
214.957	9097.61
215.031	9195.57
215.105	9277.82
215.178	9368.44
215.252	9461.38
215.326	9533.52
215.4	9613.79
215.473	9670.05
215.547	9744.9
215.621	9831.84
215.694	9936.37
215.768	10004.68
215.842	10085.55
215.915	10165.48
215.989	10239
216.063	10320.18
216.136	10415.48
216.21	10515.35
216.284	10611.57
216.357	10708.8
216.431	10790.57
216.504	10889.93
216.578	11000.19
216.652	11103.3
216.725	11193.37
216.799	11292.66
216.873	11384.99
216.946	11487.69
217.02	11565.62
217.093	11653.05
217.167	11718.16
217.24	11779.95
217.314	11863.86
217.387	11934.38
217.461	12013.96
217.535	12109.44
217.608	12178.52
217.682	12258.19
217.755	12345.1
217.829	12416.35
217.902	12503.79
217.976	12582.41
218.049	12653.61
218.123	12703.79
218.196	12780.39
218.27	12845.66
218.343	12899.89
218.417	12981.4
218.49	13049.52
218.563	13139.13
218.637	13222.68
218.71	13317.21
218.784	13406.53
218.857	13493.55
218.931	13585.09
219.004	13660.97
219.077	13731.54
219.151	13816.57
219.224	13878.28
219.298	13936.08
219.371	14014.89
219.444	14062.47
219.518	14141.82
219.591	14211.33
219.665	14316.57
219.738	14386.56
219.811	14445.61
219.885	14525.25
219.958	14604.49
220.031	14671.31
220.105	14749.4
220.178	14802.66
220.251	14857.81
220.325	14920.81
220.398	14987.96
220.471	15058.14
220.544	15124.08
220.618	15184.82
220.691	15251.72
220.764	15323.59
220.838	15400.09
220.911	15468.39
220.984	15550.81
221.057	15617.47
221.131	15684.38
221.204	15714.07
221.277	15798.13
221.35	15896.7
221.424	15953.57
221.497	16007.12
221.57	16063.37
221.643	16121.45
221.716	16194.61
221.79	16251.97
221.863	16304.65
221.936	16355.69
222.009	16403.21
222.082	16461.39
222.155	16512.09
222.229	16573.2
222.302	16624
222.375	16678.8
222.448	16732.4
222.521	16783.68
222.594	16828.93
222.667	16865.42
222.74	16933.9
222.814	16978.96
222.887	17009.37
222.96	17073.52
223.033	17131.93
223.106	17189.81
223.179	17237.09
223.252	17280.8
223.325	17324.9
223.398	17375.79
223.471	17430.68
223.544	17476.32
223.617	17522.82
223.69	17571.11
223.763	17606.1
223.837	17660.41
223.91	17705.96
223.983	17721.96
224.056	17754.53
224.129	17796.7
224.202	17854.58
224.275	17876.56
224.348	17902.05
224.42	17929.18
224.493	17944.65
224.566	17962.77
224.639	17994.14
224.712	18029.18
224.785	18062.62
224.858	18098.57
224.931	18132.88
225.004	18149.36
225.077	18175.77
225.15	18178.52
225.223	18207.53
225.296	18250.37
225.369	18259.24
225.442	18271.58
225.514	18318.75
225.587	18352.73
225.66	18391.81
225.733	18419.76
225.806	18458.99
225.879	18486.02
225.952	18508.19
226.025	18543.47
226.097	18598.26
226.17	18626.64
226.243	18630.21
226.316	18656.28
226.389	18684.28
226.461	18715.7
226.534	18743.31
226.607	18778.73
226.68	18841.09
226.753	18866.82
226.825	18878.96
226.898	18923.88
226.971	18955.58
227.044	18985.08
227.117	19015.15
227.189	19041.27
227.262	19073.65
227.335	19103.86
227.407	19118.9
227.48	19156.92
227.553	19188.44
227.626	19197.06
227.698	19222.36
227.771	19257.59
227.844	19268.53
227.916	19292
227.989	19294.36
228.062	19315.47
228.134	19356.38
228.207	19358.5
228.28	19369.2
228.352	19380.76
228.425	19391.46
228.498	19419.22
228.57	19423.99
228.643	19440.37
228.716	19446.4
228.788	19453.67
228.861	19459.31
228.934	19497.58
229.006	19507.17
229.079	19518.39
229.151	19519.98
229.224	19514.97
229.296	19530.54
229.369	19577.04
229.442	19605.14
229.514	19611.98
229.587	19640.6
229.659	19623.02
229.732	19645.38
229.804	19669.28
229.877	19706.19
229.949	19733.03
230.022	19767.11
230.094	19779.49
230.167	19793.32
230.239	19788.98
230.312	19804.4
230.384	19837.51
230.457	19848.64
230.529	19865.12
230.602	19881.22
230.674	19910.38
230.747	19937.84
230.819	19953.36
230.892	19934.18
230.964	19946.13
231.037	19968.59
231.109	19977.26
231.181	20004.2
231.254	20000.16
231.326	20006.66
231.399	20010.76
231.471	20017.7
231.544	20000.93
231.616	20014.95
231.688	20037.02
231.761	20044.11
231.833	20049.84
231.905	20026.71
231.978	20030.23
232.05	20031.48
232.122	20027.48
232.195	20015.91
232.267	20039.43
232.339	20043.05
232.412	20057.55
232.484	20047.29
232.556	20047.96
232.629	20070.56
232.701	20082.56
232.773	20088.88
232.846	20083.62
232.918	20089.55
232.99	20088.25
233.062	20103.86
233.135	20105.36
233.207	20077.31
233.279	20087.77
233.351	20089.31
233.424	20089.5
233.496	20072.35
233.568	20087.24
233.64	20080.54
233.713	20081.94
233.785	20065.12
233.857	20063.82
233.929	20035.09
234.001	20035.43
234.074	20038.8
234.146	20007.82
234.218	19991.58
234.29	19980.4
234.362	19965.17
234.434	19939.68
234.507	19920.16
234.579	19893.99
234.651	19882.42
234.723	19890.62
234.795	19891.48
234.867	19876.01
234.939	19880.45
235.012	19870.09
235.084	19860.55
235.156	19859.73
235.228	19836.26
235.3	19815.68
235.372	19804.6
235.444	19810.67
235.516	19789.37
235.588	19776.84
235.66	19770.43
235.732	19757.18
235.804	19799.73
235.876	19791.25
235.948	19787.54
236.02	19769.18
236.092	19735.11
236.164	19712.02
236.236	19689.47
236.308	19662.24
236.38	19648.8
236.452	19619.79
236.524	19607.11
236.596	19604.22
236.668	19589.38
236.74	19581.04
236.812	19577.43
236.884	19561.72
236.956	19547.36
237.028	19511.07
237.1	19478.54
237.172	19472.47
237.244	19461.24
237.316	19408.91
237.388	19388.62
237.46	19366.55
237.532	19361.92
237.604	19347.13
237.675	19345.05
237.747	19323.66
237.819	19289.88
237.891	19266.41
237.963	19237.88
238.035	19209.59
238.107	19146.8
238.178	19136.97
238.25	19105.02
238.322	19095.58
238.394	19052.88
238.466	19021.32
238.538	19007.49
238.609	18995.73
238.681	18947.34
238.753	18921.37
238.825	18887.69
238.897	18868.7
238.968	18863.16
239.04	18836.46
239.112	18840.7
239.184	18800.46
239.255	18768.37
239.327	18756.85
239.399	18737.96
239.471	18726.25
239.542	18712.42
239.614	18705.77
239.686	18646.74
239.758	18629.2
239.829	18585.73
239.901	18580.04
239.973	18554.79
240.044	18537.39
240.116	18504.62
240.188	18473.59
240.259	18439.18
240.331	18411.33
240.403	18386.51
240.474	18329.98
240.546	18282.47
240.618	18229.02
240.689	18197.36
240.761	18176.11
240.833	18165.32
240.904	18124.26
240.976	18093.22
241.048	18064.26
241.119	18036.94
241.191	18014.43
241.262	18000.17
241.334	17966.24
241.405	17931.11
241.477	17897.81
241.549	17866
241.62	17837.71
241.692	17824.46
241.763	17809.81
241.835	17774.29
241.906	17748.9
241.978	17711.84
242.049	17696.75
242.121	17684.66
242.192	17664.7
242.264	17619.21
242.335	17567.31
242.407	17552.61
242.478	17518.25
242.55	17491.69
242.621	17457.91
242.693	17429.96
242.764	17392.32
242.836	17366.63
242.907	17337.72
242.979	17304.9
243.05	17274.1
243.122	17250.01
243.193	17209.52
243.264	17150.34
243.336	17126.05
243.407	17101.62
243.479	17086.68
243.55	17061.47
243.622	17030.34
243.693	17002.82
243.764	16990.68
243.836	16957.04
243.907	16917.85
243.978	16884.45
244.05	16861.51
244.121	16809.32
244.192	16783.63
244.264	16744.21
244.335	16713.6
244.407	16661.02
244.478	16646.27
244.549	16618.03
244.62	16575.18
244.692	16540.58
244.763	16520.62
244.834	16475.9
244.906	16433.05
244.977	16405.24
245.048	16382.88
245.119	16343.26
245.191	16298.29
245.262	16243.44
245.333	16221.32
245.405	16189.94
245.476	16167.96
245.547	16133.02
245.618	16117.4
245.689	16091.38
245.761	16058.75
245.832	16012.04
245.903	15997.25
245.974	15962.4
246.045	15929.33
246.117	15912.71
246.188	15870.14
246.259	15818.52
246.33	15790.71
246.401	15765.98
246.473	15723.18
246.544	15687.03
246.615	15663.61
246.686	15631.6
246.757	15624.28
246.828	15585.18
246.899	15563.64
246.97	15513.08
247.042	15467.86
247.113	15446.22
247.184	15431.33
247.255	15389.05
247.326	15375.65
247.397	15341.62
247.468	15312.03
247.539	15282.29
247.61	15244.88
247.681	15230.47
247.752	15228.35
247.823	15191.43
247.894	15156.72
247.965	15115.46
248.037	15091.16
248.108	15046.87
248.179	15023.2
248.25	14982.85
248.321	14962.41
248.392	14918.55
248.463	14909.82
248.534	14886.01
248.605	14861.28
248.675	14827.15
248.746	14815.63
248.817	14789.65
248.888	14761.65
248.959	14719.27
249.03	14692.71
249.101	14661.57
249.172	14625.85
249.243	14567.43
249.314	14553.26
249.385	14526.12
249.456	14507.32
249.527	14464.61
249.598	14442.48
249.669	14410.76
249.739	14390.28
249.81	14365.55
249.881	14325.44
249.952	14304.42
250.023	14283.55
250.094	14238.48
250.165	14201.55
250.235	14169.54
250.306	14140.76
250.377	14111.99
250.448	14087.5
250.519	14042.28
250.59	14029.07
250.66	14003.67
250.731	13996.68
250.802	13970.89
250.873	13952.04
250.944	13934.3
251.014	13908.31
251.085	13907.64
251.156	13892.79
251.227	13879.25
251.297	13877.22
251.368	13865.89
251.439	13846.18
251.51	13831.28
251.58	13806.45
251.651	13775.07
251.722	13759.26
251.792	13716.26
251.863	13693.17
251.934	13683.82
252.005	13696.35
252.075	13666.7
252.146	13653.98
252.217	13641.54
252.287	13623.9
252.358	13598.73
252.429	13582.87
252.499	13552.98
252.57	13526.86
252.641	13514.13
252.711	13494.36
252.782	13447.17
252.852	13447.31
252.923	13425.09
252.994	13392.17
253.064	13377.95
253.135	13344.3
253.205	13321.69
253.276	13316.05
253.347	13310.36
253.417	13277.68
253.488	13241.81
253.558	13218.09
253.629	13193.41
253.699	13176.88
253.77	13162.99
253.841	13137.88
253.911	13120.33
253.982	13103.75
254.052	13089.62
254.123	13063.74
254.193	13038.09
254.264	13052.89
254.334	13020.25
254.405	12986.36
254.475	12956.91
254.546	12933.63
254.616	12930.78
254.687	12907.6
254.757	12894.73
254.827	12866.24
254.898	12849.22
254.968	12826.76
255.039	12796.92
255.109	12779.27
255.18	12749.1
255.25	12698.43
255.321	12680.41
255.391	12646.13
255.461	12639.67
255.532	12590.94
255.602	12571.8
255.673	12531.84
255.743	12495.06
255.813	12450.95
255.884	12441.02
255.954	12430.17
256.024	12425.74
256.095	12406.55
256.165	12382.79
256.235	12367.17
256.306	12339.07
256.376	12326.78
256.446	12317.95
256.517	12308.51
256.587	12301.32
256.657	12287.97
256.728	12280.4
256.798	12261.8
256.868	12243.24
256.938	12213.84
257.009	12207.38
257.079	12192.34
257.149	12202.03
257.219	12163.75
257.29	12158.02
257.36	12111.7
257.43	12103.36
257.5	12061.47
257.571	12034.09
257.641	12014.18
257.711	11983.62
257.781	11967.72
257.852	11957.89
257.922	11917.78
257.992	11893.06
258.062	11866.59
258.132	11849.24
258.202	11825.33
258.273	11797.28
258.343	11794.68
258.413	11767.78
258.483	11745.37
258.553	11710.33
258.623	11679.63
258.693	11666.56
258.764	11660.4
258.834	11660.49
258.904	11635.91
258.974	11612.34
259.044	11591.57
259.114	11579.66
259.184	11555.37
259.254	11533.2
259.324	11493.2
259.394	11484.67
259.464	11485.44
259.535	11463.41
259.605	11441.72
259.675	11419.36
259.745	11414.98
259.815	11381.53
259.885	11363.55
259.955	11372.37
260.025	11348.76
260.095	11329.67
260.165	11322.3
260.235	11315.17
260.305	11295.26
260.375	11267.5
260.445	11266.68
260.515	11272.18
260.585	11263.65
260.655	11252.56
260.725	11248.99
260.795	11240.99
260.865	11243.74
260.934	11219.5
261.004	11215.84
261.074	11199.64
261.144	11193.19
261.214	11185.09
261.284	11167.98
261.354	11160.61
261.424	11131.21
261.494	11132.46
261.564	11118.87
261.634	11103.88
261.703	11064.46
261.773	11050.88
261.843	11040.32
261.913	11024.52
261.983	10978.4
262.053	10970.06
262.123	10951.22
262.192	10920.38
262.262	10913.3
262.332	10882.31
262.402	10871.13
262.472	10851.81
262.541	10815.91
262.611	10811.91
262.681	10783.91
262.751	10782.18
262.821	10766.61
262.89	10743.1
262.96	10729.6
263.03	10731.48
263.1	10717.94
263.169	10713.65
263.239	10707
263.309	10705.94
263.379	10693.66
263.448	10685.23
263.518	10665.47
263.588	10652.27
263.657	10661.47
263.727	10655.93
263.797	10634.92
263.867	10615.89
263.936	10588.91
264.006	10588.67
264.076	10574.88
264.145	10556.96
264.215	10528.2
264.285	10520.05
264.354	10482.09
264.424	10467.64
264.494	10435.4
264.563	10411.36
264.633	10406.3
264.702	10392.66
264.772	10366.16
264.842	10344.15
264.911	10337.74
264.981	10317.75
265.05	10299.39
265.12	10273.04
265.19	10254.73
265.259	10251.93
265.329	10240.9
265.398	10234.25
265.468	10243.55
265.537	10220.57
265.607	10216.86
265.676	10216.04
265.746	10203.9
265.815	10208
265.885	10191.13
265.955	10160.16
266.024	10141.37
266.094	10111.27
266.163	10112.08
266.232	10113.1
266.302	10107.99
266.371	10098.55
266.441	10081.3
266.51	10077.16
266.58	10060.97
266.649	10040.02
266.719	10036.69
266.788	10024.6
266.858	10022.63
266.927	9982.94
266.996	9971.23
267.066	9959.91
267.135	9931.35
267.205	9925.76
267.274	9918.1
267.343	9918.34
267.413	9909.53
267.482	9911.79
267.552	9917.91
267.621	9887.46
267.69	9852.21
267.76	9841.51
267.829	9832.07
267.898	9826.82
267.968	9807.12
268.037	9802.11
268.106	9798.69
268.176	9775.14
268.245	9766.42
268.314	9751.2
268.384	9754.86
268.453	9749.9
268.522	9740.36
268.592	9743.25
268.661	9724.32
268.73	9711.7
268.799	9684.88
268.869	9692.54
268.938	9665.85
269.007	9639.89
269.076	9629.06
269.146	9629.44
269.215	9620.63
269.284	9626.6
269.353	9608.11
269.422	9590.97
269.492	9576.18
269.561	9540.88
269.63	9535.83
269.699	9518.83
269.768	9501.97
269.838	9493.83
269.907	9487.28
269.976	9463.49
270.045	9433.98
270.114	9433.49
270.183	9421.21
270.253	9416.88
270.322	9391.65
270.391	9381.34
270.46	9391.46
270.529	9387.65
270.598	9385.2
270.667	9371.04
270.736	9345.18
270.806	9340.07
270.875	9347.92
270.944	9335.93
271.013	9352.26
271.082	9346.72
271.151	9345.56
271.22	9316.96
271.289	9305.74
271.358	9295.97
271.427	9292.84
271.496	9285.52
271.565	9261.98
271.634	9254.71
271.703	9279.22
271.772	9280.66
271.841	9271.13
271.91	9237.96
271.979	9227.94
272.048	9210.99
272.117	9205.69
272.186	9191.73
272.255	9187.93
272.324	9178.44
272.393	9171.7
272.462	9152.06
272.531	9137.85
272.6	9113.25
272.669	9121.77
272.738	9106.99
272.807	9096.4
272.876	9076.95
272.945	9099.87
273.013	9106.61
273.082	9105.07
273.151	9062.4
273.22	9060.62
273.289	9055.47
273.358	9071.74
273.427	9063.56
273.496	9060.04
273.564	9060.62
273.633	9058.41
273.702	9040.69
273.771	9033.28
273.84	9025
273.909	9028.7
273.977	9022.88
274.046	9027.45
274.115	9033.13
274.184	9016
274.253	9008.44
274.322	9019.41
274.39	8985.72
274.459	8970.69
274.528	8943.21
274.597	8937.14
274.665	8931.32
274.734	8928.82
274.803	8917.17
274.872	8911.44
274.94	8895.94
275.009	8951.28
275.078	8939.29
275.147	8933.71
275.215	8928.17
275.284	8937.27
275.353	8924.99
275.421	8904.49
275.49	8909.25
275.559	8899.05
275.627	8896.88
275.696	8884.37
275.765	8879.84
275.833	8877.05
275.902	8874.35
275.971	8887.59
276.039	8897.27
276.108	8898.9
276.177	8903.96
276.245	8893.85
276.314	8886.72
276.383	8891.49
276.451	8824.21
276.52	8824.12
276.588	8838.94
276.657	8842.46
276.725	8827.34
276.794	8827.34
276.863	8838.22
276.931	8815.84
277	8821.56
277.068	8831.33
277.137	8849.96
277.205	8843.42
277.274	8859.11
277.342	8867.58
277.411	8845.88
277.48	8831.19
277.548	8816.51
277.617	8814.2
277.685	8803.37
277.754	8808.43
277.822	8804.67
277.89	8819.45
277.959	8814.78
278.027	8792.69
278.096	8784.22
278.164	8817.53
278.233	8807.38
278.301	8798.14
278.37	8807.81
278.438	8800.64
278.507	8803.52
278.575	8780.18
278.643	8777.05
278.712	8758.71
278.78	8746.01
278.849	8761.84
278.917	8776.13
278.985	8777.05
279.054	8783.84
279.122	8797.75
279.191	8792.35
279.259	8785.81
279.327	8757.75
279.396	8775.41
279.464	8774.26
279.532	8778.49
279.601	8764.24
279.669	8763.18
279.737	8771.89
279.806	8774.54
279.874	8771.22
279.942	8760.15
280.011	8756.06
280.079	8767.18
280.147	8782.05
280.215	8787.06
280.284	8780.41
280.352	8764.77
280.42	8765.73
280.488	8748.5
280.557	8740.22
280.625	8740.46
280.693	8738.92
280.761	8746.38
280.83	8718.95
280.898	8731.99
280.966	8712.84
281.034	8680.78
281.102	8663.46
281.171	8660.71
281.239	8670
281.307	8671.16
281.375	8664.04
281.443	8693.49
281.512	8681.8
281.58	8691.18
281.648	8670.2
281.716	8669
281.784	8667.02
281.852	8664.62
281.92	8666.54
281.989	8675.69
282.057	8660.72
282.125	8701.3
282.193	8693.75
282.261	8702.51
282.329	8697.98
282.397	8704.57
282.465	8710.49
282.533	8723.44
282.601	8711.07
282.67	8687.24
282.738	8676.7
282.806	8687.96
282.874	8666.35
282.942	8678.67
283.01	8663.41
283.078	8668.56
283.146	8660.91
283.214	8669.09
283.282	8663.13
283.35	8673.67
283.418	8670.3
283.486	8678.53
283.554	8637.03
283.622	8642.28
283.69	8640.45
283.758	8630.29
283.826	8628.37
283.894	8639.82
283.962	8663.12
284.03	8679.77
284.098	8680.83
284.165	8674.81
284.233	8673.03
284.301	8673.95
284.369	8659.84
284.437	8654.89
284.505	8651.95
284.573	8668.79
284.641	8659.75
284.709	8674.38
284.777	8657.82
284.845	8662.88
284.912	8661.48
284.98	8664.85
285.048	8658.5
285.116	8665.57
285.184	8678.23
285.252	8683.09
285.319	8665.23
285.387	8655.61
285.455	8638.04
285.523	8643.82
285.591	8638.38
285.659	8633.33
285.726	8642.66
285.794	8625.63
285.862	8622.74
285.93	8622.93
285.997	8619.76
286.065	8613.12
286.133	8598.58
286.201	8595.69
286.269	8576.44
286.336	8567.73
286.404	8566.48
286.472	8574.23
286.539	8545.89
286.607	8527.93
286.675	8525.87
286.743	8538.38
286.81	8533.47
286.878	8547.57
286.946	8539.63
287.013	8541.26
287.081	8542.95
287.149	8522.3
287.216	8545.93
287.284	8545.06
287.352	8546.03
287.419	8539.43
287.487	8554.54
287.555	8559.6
287.622	8562.39
287.69	8572.06
287.758	8590.4
287.825	8587.27
287.893	8574.42
287.96	8586.3
288.028	8602.33
288.096	8605.12
288.163	8608.63
288.231	8591.74
288.298	8588.81
288.366	8602.09
288.433	8598.67
288.501	8596.36
288.569	8607.29
288.636	8600.94
288.704	8611.23
288.771	8619.8
288.839	8614.17
288.906	8608.73
288.974	8617.97
289.041	8609.22
289.109	8599.59
289.176	8604.21
289.244	8603.97
289.311	8618.51
289.379	8630.15
289.446	8629.43
289.514	8630.78
289.581	8627.65
289.649	8636.17
289.716	8635.64
289.783	8627.21
289.851	8652.14
289.918	8648.58
289.986	8656.38
290.053	8660.28
290.121	8656.52
290.188	8656.57
290.255	8689.59
290.323	8684.54
290.39	8682.42
290.458	8697.82
290.525	8714.42
290.592	8706.67
290.66	8713.6
290.727	8704.22
290.794	8713.36
290.862	8712.83
290.929	8717.98
290.996	8712.98
291.064	8722.03
291.131	8736.61
291.198	8747.73
291.266	8744.5
291.333	8750.28
291.4	8750.57
291.468	8771.65
291.535	8769
291.602	8772.52
291.669	8759.67
291.737	8762.41
291.804	8758.8
291.871	8765.54
291.938	8769.05
292.006	8802.85
292.073	8810.5
292.14	8826.43
292.207	8822.63
292.275	8822.82
292.342	8832.02
292.409	8865.42
292.476	8891.03
292.543	8879.34
292.611	8886.75
292.678	8902.97
292.745	8933.44
292.812	8949.14
292.879	8940.33
292.946	8947.31
293.014	8963.96
293.081	8975.28
293.148	8993.95
293.215	9011.96
293.282	9003.73
293.349	9012.39
293.416	8987.93
293.484	9001.32
293.551	9017.59
293.618	9033.76
293.685	9064.04
293.752	9062.12
293.819	9055.47
293.886	9043.24
293.953	9050.03
294.02	9055.47
294.087	9062.12
294.154	9049.94
294.221	9058.84
294.288	9062.36
294.356	9080.17
294.423	9086.43
294.49	9078.58
294.557	9086.09
294.624	9081.66
294.691	9103.76
294.758	9101.59
294.825	9114.69
294.892	9108.96
294.959	9103.28
295.026	9114.59
295.093	9101.21
295.16	9102.26
295.226	9106.02
295.293	9126.19
295.36	9128.6
295.427	9140.4
295.494	9149.64
295.561	9161.97
295.628	9186.72
295.695	9202.42
295.762	9202.71
295.829	9211.18
295.896	9226.92
295.963	9235.25
296.03	9243.29
296.096	9252.97
296.163	9262.55
296.23	9278.93
296.297	9297.99
296.364	9293.37
296.431	9300.64
296.498	9296.41
296.564	9314.27
296.631	9315.62
296.698	9305.31
296.765	9330.01
296.832	9318.21
296.899	9303.58
296.965	9316.67
297.032	9293.08
297.099	9308.92
297.166	9317.25
297.233	9312.15
297.299	9309.26
297.366	9315.08
297.433	9315.81
297.5	9324.57
297.566	9331.89
297.633	9320.72
297.7	9317.44
297.767	9321.82
297.833	9318.45
297.9	9328.27
297.967	9307.81
298.033	9317.73
298.1	9345.81
298.167	9336.9
298.234	9339.74
298.3	9353.99
298.367	9348.41
298.434	9362.18
298.5	9349.32
298.567	9346.82
298.634	9343.25
298.7	9360.64
298.767	9362.66
298.834	9374.6
298.9	9375.13
298.967	9371.86
299.033	9388.42
299.1	9405.52
299.167	9422.18
299.233	9424.2
299.3	9440.81
299.366	9460.17
299.433	9479.72
299.5	9455.74
299.566	9461.04
299.633	9483.23
299.699	9490.22
299.766	9489.83
299.832	9491.23
299.899	9498.4
299.965	9514.15
300.032	9516.37
300.099	9521.42
300.165	9525.66
300.232	9522.34
300.298	9518.68
300.365	9529.18
300.431	9529.08
300.498	9521.71
300.564	9527.78
300.631	9535.34
300.697	9546.56
300.763	9551.76
300.83	9544.63
300.896	9557.25
300.963	9569.87
301.029	9571.55
301.096	9580.03
301.162	9589.76
301.229	9585.09
301.295	9579.31
301.361	9576.8
301.428	9579.12
301.494	9566.55
301.561	9569.44
301.627	9574.54
301.693	9580.95
301.76	9583.26
301.826	9581.38
301.892	9591.16
301.959	9603.73
302.025	9597.56
302.092	9591.64
302.158	9595.15
302.224	9602.47
302.291	9593.47
302.357	9585.38
302.423	9577.38
302.49	9571.27
302.556	9583.74
302.622	9587.83
302.688	9598.86
302.755	9609.6
302.821	9622.65
302.887	9633.63
302.954	9632.24
303.02	9642.74
303.086	9648.8
303.152	9646.06
303.219	9638.11
303.285	9639.32
303.351	9635.22
303.417	9646.01
303.483	9627.47
303.55	9621.5
303.616	9618.27
303.682	9617.79
303.748	9611.87
303.815	9634.41
303.881	9640.33
303.947	9626.99
304.013	9620.3
304.079	9612.16
304.145	9593.62
304.212	9578.5
304.278	9564.87
304.344	9552.97
304.41	9542.38
304.476	9530.87
304.542	9525.23
304.608	9533.13
304.674	9515.55
304.741	9511.07
304.807	9509.68
304.873	9522.68
304.939	9538.04
305.005	9518.05
305.071	9519.16
305.137	9523.06
305.203	9494.55
305.269	9488.29
305.335	9496.67
305.401	9503.03
305.467	9501.77
305.533	9511.69
305.599	9526.72
305.666	9541.31
305.732	9545.89
305.798	9553.78
305.864	9582.35
305.93	9587.21
305.996	9587.74
306.062	9591.25
306.128	9588.17
306.194	9580.56
306.259	9583.36
306.325	9572.42
306.391	9577.82
306.457	9583.79
306.523	9588.99
306.589	9612.4
306.655	9609.75
306.721	9601.9
306.787	9582.63
306.853	9596.75
306.919	9582.83
306.985	9578.73
307.051	9567.9
307.117	9563.13
307.183	9554.61
307.248	9519.21
307.314	9521.81
307.38	9521.95
307.446	9527.06
307.512	9518.39
307.578	9520.89
307.644	9516.13
307.709	9520.17
307.775	9520.32
307.841	9513.38
307.907	9510.59
307.973	9488.63
308.039	9484.58
308.104	9482.37
308.17	9484
308.236	9470.76
308.302	9468.74
308.368	9453.95
308.433	9455.88
308.499	9446.73
308.565	9438.83
308.631	9439.65
308.696	9419.19
308.762	9401.23
308.828	9403.15
308.894	9380.04
308.959	9359.62
309.025	9345.8
309.091	9341.47
309.156	9334.44
309.222	9340.55
309.288	9329.29
309.354	9306.32
309.419	9298.81
309.485	9284.31
309.551	9290.53
309.616	9273
309.682	9276.22
309.748	9273.43
309.813	9268.71
309.879	9263.66
309.945	9252.05
310.01	9247.91
310.076	9254.12
310.141	9253.21
310.207	9235.25
310.273	9237.17
310.338	9238.09
310.404	9224.13
310.469	9208.33
310.535	9200.58
310.601	9173.95
310.666	9175.88
310.732	9188.93
310.797	9182.33
310.863	9175.06
310.928	9168.13
310.994	9169.96
311.059	9165.72
311.125	9158.93
311.191	9170.63
311.256	9158.21
311.322	9165.29
311.387	9145.89
311.453	9383.14
311.518	9354.74
311.584	9352.19
311.649	9360.18
311.715	9354.69
311.78	9352.77
311.846	9343.81
311.911	9345.06
311.976	9350.31
312.042	9337.79
312.107	9324.12
312.173	9315.26
312.238	9303.23
312.304	9299.62
312.369	9290.56
312.434	9280.94
312.5	9272.08
312.565	9230.14
312.631	9233.85
312.696	9217.14
312.761	9223.4
312.827	8972.62
312.892	9018.79
312.958	9015.42
313.023	9011.86
313.088	9009.4
313.154	8995.64
313.219	8988.37
313.284	8975.37
313.35	8973.11
313.415	8960.01
313.48	8949.66
313.546	8952.07
313.611	8963.29
313.676	8948.8
313.741	8941
313.807	8942.49
313.872	8944.85
313.937	8950.82
314.003	8964.06
314.068	8971.42
314.133	8974.55
314.198	8964.44
314.264	8938.68
314.329	8934.93
314.394	8932.52
314.459	8925.01
314.525	8945.51
314.59	8944.74
314.655	8937.76
314.72	8939.98
314.785	8943.59
314.851	8943.16
314.916	8925.92
314.981	8913.74
315.046	8908.31
315.111	8897.43
315.176	8885.59
315.242	8886.74
315.307	8887.08
315.372	8869.46
315.437	8856.85
315.502	8849.24
315.567	8856.89
315.632	8837.4
315.698	8829.5
315.763	8822.09
315.828	8809.91
315.893	8806.64
315.958	8796.49
316.023	8787.29
316.088	8764.43
316.153	8744.55
316.218	8730.26
316.283	8713.61
316.348	8695.66
316.413	8691.23
316.479	8678.53
316.544	8647.01
316.609	8620.92
316.674	8590.46
316.739	8550.14
316.804	8520.88
316.869	8487.82
316.934	8449.32
316.999	8420.16
317.064	8371.18
317.129	8330.76
317.194	8304.35
317.259	8258.78
317.324	8209.04
317.389	8167.86
317.454	8131.49
317.518	8097.87
317.583	8075.11
317.648	8046.16
317.713	8006.91
317.778	7948.27
317.843	7916
317.908	7875.7
317.973	7837.56
318.038	7805.86
318.103	7775.04
318.168	7741.86
318.233	7710.22
318.297	7659.4
318.362	7621.75
318.427	7579.16
318.492	7552.86
318.557	7495.27
318.622	7463.87
318.687	7442.72
318.751	7401.87
318.816	7367.98
318.881	7334.48
318.946	7280.07
319.011	7235.23
319.075	7193.9
319.14	7158.63
319.205	7116.34
319.27	7084.01
319.335	7038.6
319.399	6999.01
319.464	6968.17
319.529	6917.19
319.594	6876.4
319.658	6849.45
319.723	6812.13
319.788	6787.25
319.853	6728.94
319.917	6702.67
319.982	6646
320.047	6601.63
320.112	6574.11
320.176	6521.87
320.241	6486.1
320.306	6457.15
320.37	6420.66
320.435	6392.15
320.5	6364.59
320.564	6322.73
320.629	6283
320.694	6254.44
320.758	6209.95
320.823	6166.52
320.888	6138.93
320.952	6087.1
321.017	6041.95
321.082	5998.97
321.146	5963.03
321.211	5933.1
321.275	5891.56
321.34	5853.24
321.405	5817.61
321.469	5770.85
321.534	5733.4
321.598	5682.57
321.663	5652.02
321.727	5618.93
321.792	5572.62
321.857	5532.96
321.921	5494.09
321.986	5449.81
322.05	5388.7
322.115	5351.9
322.179	5306.71
322.244	5248.84
322.308	5215.06
322.373	5172.52
322.437	5132.28
322.502	5107.7
322.566	5061.28
322.631	5027.17
322.695	4986.09
322.76	4938.25
322.824	4903.34
322.889	4855.96
322.953	4814.12
323.018	4748.72
323.082	4684.78
323.146	4631.81
323.211	4574.23
323.275	4534.79
323.34	4495.09
323.404	4465.29
323.468	4418.83
323.533	4379.51
323.597	4336.01
323.662	4288.84
323.726	4259.86
323.79	4214.48
323.855	4146.41
323.919	4098.22
323.983	4053.66
324.048	3989.74
324.112	4148.39
324.177	4018.65
324.241	3816.43
324.305	3610.91
324.37	3412.42
324.434	3223.05
324.498	3182.51
324.562	3135.16
324.627	3073.58
324.691	3016.56
324.755	2949.52
324.82	2878.17
324.884	2799.99
324.948	2731.93
325.012	2636.48
325.077	2505.61
