Data from 20250702_urea_0.5M_MAYP1162681_14-55-00-293.txt Node
Date: Wed Jul 02 14:55:00 BST 2025
User: adleo
Spectrometer: MAYP116268
Trigger mode: 0
Integration Time (sec): 1.000000E0
Scans to average: 1
Electric dark correction enabled: true
Nonlinearity correction enabled: true
Boxcar width: 10
XAxis mode: Wavelengths
Number of Pixels in Spectrum: 2068
>>>>>Begin Spectral Data<<<<<
179.565	1108.33
179.642	1159.25
179.718	1196.58
179.795	1231.35
179.871	1262.49
179.948	1277.01
180.024	1298.57
180.101	1317.74
180.177	1333.2
180.254	1355.5
180.33	1376.15
180.407	1423.24
180.483	1510.71
180.56	1591.42
180.636	1668.09
180.712	1660.35
180.789	1672.61
180.865	1681.58
180.942	1687.9
181.018	1697.26
181.095	1709.85
181.171	1714.8
181.248	1713.94
181.324	1727.87
181.4	1735.9
181.477	1747.21
181.553	1760.08
181.63	1777.52
181.706	1796.73
181.782	1802.24
181.859	1799.48
181.935	1805.38
182.011	1801.34
182.088	1817.59
182.164	1837.13
182.24	1850.15
182.317	1859.66
182.393	1855.24
182.469	1870.3
182.546	1886.23
182.622	1890.93
182.698	1883.28
182.775	1894.07
182.851	1907.24
182.927	1900.63
183.003	1895.83
183.08	1888.13
183.156	1899.73
183.232	1898.11
183.308	1885.56
183.385	1892.69
183.461	1909.04
183.537	1908.47
183.613	1921.26
183.69	1912.27
183.766	1902.05
183.842	1906.66
183.918	1910.42
183.995	1922.82
184.071	1925.06
184.147	1917.74
184.223	1907.09
184.299	1922.02
184.375	1911
184.452	1921.17
184.528	1975.82
184.604	1984.66
184.68	1995.17
184.756	1998.83
184.832	2002.25
184.908	2004.77
184.985	2003.68
185.061	1989.08
185.137	1998.83
185.213	1986.28
185.289	1989.51
185.365	1982.29
185.441	1984.71
185.517	1997.36
185.593	1994.94
185.669	1991.56
185.745	2002.88
185.822	2019.94
185.898	2012.52
185.974	2023.89
186.05	2015.23
186.126	1976.08
186.202	1969.19
186.278	1965.05
186.354	1955.64
186.43	1961.21
186.506	1960.16
186.582	1959.73
186.658	1967.91
186.734	1949.03
186.81	1954.31
186.886	1956.31
186.962	1968.62
187.038	1962.53
187.114	1954.49
187.19	1962.77
187.266	1954.16
187.341	1954.12
187.417	1947.27
187.493	1945.75
187.569	1949.22
187.645	1943.66
187.721	1933.1
187.797	1939.85
187.873	1945.03
187.949	1941.85
188.025	1934.81
188.101	1939.28
188.176	1944.32
188.252	1937.61
188.328	1942.79
188.404	1940.94
188.48	1935.71
188.556	1928.72
188.632	1929.58
188.707	1929.15
188.783	1922.63
188.859	1919.54
188.935	1908.04
189.011	1916.45
189.086	1909.51
189.162	1899.29
189.238	1897.29
189.314	1895.73
189.39	1894.16
189.465	1885.55
189.541	1899.24
189.617	1885.41
189.693	1880.85
189.768	1884.27
189.844	1907.19
189.92	1900.45
189.996	1911.81
190.071	1922.84
190.147	1924.27
190.223	1932.35
190.298	1926.46
190.374	1918.23
190.45	1926.45
190.526	1933.25
190.601	1926.4
190.677	1931.25
190.753	1955.46
190.828	1958.93
190.904	1971.87
190.98	1983.71
191.055	1995.22
191.131	1986.61
191.207	2006.96
191.282	2015.61
191.358	2007.15
191.433	1996.25
191.509	2008.51
191.585	2002.81
191.66	2003.62
191.736	2007.8
191.811	2000.1
191.887	2013.27
191.963	2034.15
192.038	2044.52
192.114	2045.99
192.189	2049.7
192.265	2044.76
192.34	2026.39
192.416	2026.63
192.491	2023.44
192.567	2027.53
192.642	2030.91
192.718	2033.29
192.793	2022.78
192.869	2017.88
192.944	2020.21
193.02	2024.78
193.095	2031.05
193.171	2036.67
193.246	2035.05
193.322	2036.57
193.397	2039.04
193.473	2028.96
193.548	2012.5
193.624	2016.02
193.699	2014.59
193.775	2031.01
193.85	2028.35
193.925	2038.38
194.001	2036.67
194.076	2028.59
194.152	2016.65
194.227	2008.66
194.302	1998.58
194.378	2003.43
194.453	2003.33
194.529	2017.03
194.604	2002.15
194.679	1994.68
194.755	1975.14
194.83	1987.51
194.905	1983.23
194.981	1989.13
195.056	1981.9
195.131	1988.61
195.207	1985.95
195.282	1977.15
195.357	1959.31
195.433	1979.42
195.508	1970.24
195.583	1975.38
195.659	1990.26
195.734	1997.64
195.809	1998.83
195.884	2009.24
195.96	2006.15
196.035	2016.89
196.11	2011.75
196.185	2024.21
196.261	2030.01
196.336	2059.92
196.411	2043.84
196.486	2050.03
196.561	2046.36
196.637	2050.69
196.712	2061.35
196.787	2063.63
196.862	2078.75
196.937	2086.69
197.013	2090.02
197.088	2096.02
197.163	2116.67
197.238	2132.9
197.313	2130.71
197.388	2141.56
197.464	2167.11
197.539	2177.43
197.614	2171.34
197.689	2183.81
197.764	2200.94
197.839	2217.21
197.914	2210.22
197.989	2233.96
198.065	2247.38
198.14	2292.47
198.215	2320.21
198.29	2333.68
198.365	2345.01
198.44	2354.62
198.515	2381.57
198.59	2395.61
198.665	2418.79
198.74	2428.46
198.815	2427.79
198.89	2452.92
198.965	2482.97
199.04	2481.54
199.115	2497.01
199.19	2539
199.265	2539.72
199.34	2547.72
199.415	2581.74
199.49	2605.92
199.565	2612.59
199.64	2634.26
199.715	2632.88
199.79	2640.97
199.865	2646.64
199.94	2646.26
200.015	2675.99
200.09	2677.04
200.165	2683.75
200.24	2693.85
200.315	2732.57
200.39	2748.67
200.464	2751.87
200.539	2752.01
200.614	2766.16
200.689	2788.98
200.764	2792.51
200.839	2809.03
200.914	2813.56
200.989	2799.54
201.063	2809.88
201.138	2797.12
201.213	2797.36
201.288	2778.02
201.363	2781.83
201.438	2784.59
201.512	2801.5
201.587	2786.15
201.662	2795.73
201.737	2803.98
201.812	2809.08
201.886	2777.74
201.961	2785.27
202.036	2775.65
202.111	2773.89
202.186	2749.13
202.26	2732.78
202.335	2713.29
202.41	2710.29
202.485	2693.05
202.559	2679.33
202.634	2655.61
202.709	2661.7
202.784	2643.32
202.858	2643.46
202.933	2627.27
203.008	2619.36
203.082	2601.45
203.157	2599.07
203.232	2555.17
203.306	2539.07
203.381	2509.87
203.456	2485.68
203.53	2463
203.605	2443.63
203.68	2419.43
203.754	2411.2
203.829	2398.25
203.904	2382.16
203.978	2371.31
204.053	2379.49
204.127	2364.83
204.202	2364.26
204.277	2352.41
204.351	2346.03
204.426	2338.8
204.5	2329.8
204.575	2298.77
204.65	2305.58
204.724	2297.92
204.799	2305.91
204.873	2301.91
204.948	2299.91
205.022	2289.2
205.097	2282.49
205.171	2295.81
205.246	2307.19
205.32	2304.86
205.395	2303.96
205.469	2294.49
205.544	2295.92
205.618	2276.98
205.693	2287.07
205.767	2273.65
205.842	2292.74
205.916	2286.89
205.991	2279.08
206.065	2283.7
206.14	2298.39
206.214	2294.58
206.289	2291.92
206.363	2306.1
206.438	2309.53
206.512	2319.43
206.586	2338.94
206.661	2346.56
206.735	2328.48
206.81	2328.91
206.884	2347.28
206.958	2336
207.033	2352.98
207.107	2365.65
207.181	2398.7
207.256	2396.84
207.33	2421.35
207.405	2433.07
207.479	2453.5
207.553	2464.82
207.628	2457.3
207.702	2474.44
207.776	2476.63
207.851	2486.2
207.925	2508.93
207.999	2514.83
208.073	2521.93
208.148	2538.41
208.222	2541.65
208.296	2584.12
208.371	2613.67
208.445	2641.54
208.519	2687.74
208.593	2718.33
208.668	2734.72
208.742	2761.48
208.816	2787.96
208.89	2826.82
208.965	2856.78
209.039	2897.4
209.113	2950.62
209.187	3007.51
209.261	3042.41
209.336	3104.22
209.41	3168.63
209.484	3217.12
209.558	3288.18
209.632	3353.74
209.707	3420.14
209.781	3498.28
209.855	3579.14
209.929	3663.08
210.003	3735.92
210.077	3805.72
210.151	3930.53
210.226	4044.28
210.3	4151.35
210.374	4259.23
210.448	4353.27
210.522	4456.82
210.596	4564.33
210.67	4667.66
210.744	4816.76
210.818	4953.89
210.892	5080.54
210.966	5187.92
211.041	5320.12
211.115	5438.43
211.189	5588.47
211.263	5727.03
211.337	5867.39
211.411	6008.1
211.485	6139.51
211.559	6288.63
211.633	6442.99
211.707	6560.09
211.781	6719.41
211.855	6836.32
211.929	6987.31
212.003	7123.71
212.077	7290.44
212.151	7469.27
212.225	7645.98
212.299	7804.43
212.373	7965.09
212.447	8132.44
212.52	8330.28
212.594	8504.08
212.668	8701.47
212.742	8862.56
212.816	9047.79
212.89	9221.37
212.964	9409.39
213.038	9601.25
213.112	9801.05
213.186	9998.13
213.26	10158.79
213.333	10292.32
213.407	10493.76
213.481	10680.66
213.555	10892.97
213.629	11076.51
213.703	11248.98
213.777	11443.92
213.85	11615.25
213.924	11835.59
213.998	12025.87
214.072	12208.45
214.146	12388.38
214.219	12565.48
214.293	12756.88
214.367	12938.08
214.441	13137.06
214.515	13315.51
214.588	13472.42
214.662	13630
214.736	13792.55
214.81	13986.57
214.883	14184.06
214.957	14343.71
215.031	14507.66
215.105	14653.04
215.178	14812.6
215.252	14980.1
215.326	15122.93
215.4	15273.17
215.473	15386.69
215.547	15531.24
215.621	15682.21
215.694	15839.72
215.768	15968.27
215.842	16107.04
215.915	16247.15
215.989	16371.4
216.063	16506.01
216.136	16656.05
216.21	16797.36
216.284	16947.58
216.357	17077.23
216.431	17216.55
216.504	17361.52
216.578	17522.2
216.652	17668.61
216.725	17799.41
216.799	17943.69
216.873	18070
216.946	18194.29
217.02	18323.44
217.093	18446.47
217.167	18545.46
217.24	18647.86
217.314	18771.13
217.387	18885.54
217.461	18994.26
217.535	19122.92
217.608	19225.81
217.682	19330.87
217.755	19442.04
217.829	19539.48
217.902	19654.08
217.976	19745.64
218.049	19839.71
218.123	19922.26
218.196	20023.27
218.27	20117.01
218.343	20186.84
218.417	20287.08
218.49	20379.66
218.563	20481.58
218.637	20577.25
218.71	20686.99
218.784	20788.29
218.857	20887.91
218.931	20972.69
219.004	21050.38
219.077	21135.93
219.151	21213.57
219.224	21284.86
219.298	21363.71
219.371	21443.63
219.444	21507.39
219.518	21594.78
219.591	21669.34
219.665	21766.76
219.738	21842.92
219.811	21888.04
219.885	21964.2
219.958	22028.46
220.031	22095.36
220.105	22151.86
220.178	22208.55
220.251	22262.4
220.325	22330.52
220.398	22383.89
220.471	22449.88
220.544	22529.72
220.618	22573.93
220.691	22639.83
220.764	22694.74
220.838	22743.97
220.911	22793.82
220.984	22849.89
221.057	22897.77
221.131	22946.75
221.204	22960.25
221.277	23017.2
221.35	23100.57
221.424	23133.26
221.497	23175.06
221.57	23213.25
221.643	23264.99
221.716	23307.37
221.79	23341.75
221.863	23369.34
221.936	23395.23
222.009	23415.92
222.082	23444.47
222.155	23462.89
222.229	23501.37
222.302	23523.99
222.375	23553.16
222.448	23572.84
222.521	23600.62
222.594	23615.42
222.667	23626.8
222.74	23659.35
222.814	23667.12
222.887	23683.61
222.96	23711.63
223.033	23728.95
223.106	23747.66
223.179	23763.33
223.252	23784.17
223.325	23798.2
223.398	23800.27
223.471	23823.13
223.544	23839.97
223.617	23838.81
223.69	23855.83
223.763	23848.98
223.837	23878.69
223.91	23893.64
223.983	23896.3
224.056	23895.77
224.129	23912.5
224.202	23938.59
224.275	23935.31
224.348	23930.49
224.42	23909.7
224.493	23899.87
224.566	23907.29
224.639	23912.16
224.712	23912.07
224.785	23905.89
224.858	23909.66
224.931	23911.05
225.004	23894.95
225.077	23907.44
225.15	23889.59
225.223	23891.14
225.296	23907.05
225.369	23872.23
225.442	23859.79
225.514	23841.27
225.587	23837.17
225.66	23820.97
225.733	23809.1
225.806	23807.85
225.879	23805.82
225.952	23800.37
226.025	23812.77
226.097	23813.92
226.17	23805.58
226.243	23778.72
226.316	23766.32
226.389	23746.89
226.461	23739.6
226.534	23733.19
226.607	23706.09
226.68	23718.43
226.753	23701.41
226.825	23669.09
226.898	23677.53
226.971	23660.41
227.044	23660.12
227.117	23642.62
227.189	23641.99
227.262	23643.05
227.335	23642.38
227.407	23613.68
227.48	23599.6
227.553	23577.27
227.626	23553.35
227.698	23538.64
227.771	23527.79
227.844	23506.91
227.916	23494.95
227.989	23472.14
228.062	23458.5
228.134	23467.9
228.207	23438.87
228.28	23420.84
228.352	23409.12
228.425	23395.28
228.498	23385.92
228.57	23364.27
228.643	23374.06
228.716	23354.19
228.788	23327.57
228.861	23300.57
228.934	23298.59
229.006	23288.95
229.079	23268.74
229.151	23238.17
229.224	23208.85
229.296	23198.29
229.369	23201.19
229.442	23201.77
229.514	23182.38
229.587	23175.87
229.659	23131.56
229.732	23120.33
229.804	23115.26
229.877	23116.37
229.949	23109.72
230.022	23120.66
230.094	23112.08
230.167	23090.72
230.239	23066.47
230.312	23034.74
230.384	23034.93
230.457	23022.16
230.529	23002.87
230.602	22989.56
230.674	22977.41
230.747	22971.87
230.819	22967.14
230.892	22916.57
230.964	22891.3
231.037	22873.85
231.109	22843.96
231.181	22828.82
231.254	22794.93
231.326	22766.82
231.399	22744.25
231.471	22717.59
231.544	22663.83
231.616	22647.44
231.688	22622.12
231.761	22585.44
231.833	22566.97
231.905	22526.62
231.978	22508.06
232.05	22482.8
232.122	22458.01
232.195	22439.41
232.267	22430.58
232.339	22386.09
232.412	22382.28
232.484	22351.33
232.556	22321.2
232.629	22314.98
232.701	22299.89
232.773	22283.4
232.846	22250.14
232.918	22220.45
232.99	22190.75
233.062	22173.64
233.135	22150.06
233.207	22112.46
233.279	22102.63
233.351	22086.19
233.424	22051.29
233.496	22009.26
233.568	21997.54
233.64	21951.46
233.713	21914.25
233.785	21871.49
233.857	21849.99
233.929	21803.29
234.001	21793.84
234.074	21785.06
234.146	21737.44
234.218	21701.87
234.29	21663.98
234.362	21636.22
234.434	21591.97
234.507	21550.13
234.579	21509.55
234.651	21477.11
234.723	21454.12
234.795	21425
234.867	21381.82
234.939	21367.21
235.012	21340.7
235.084	21310.34
235.156	21293.57
235.228	21262.43
235.3	21225.61
235.372	21198.71
235.444	21177.22
235.516	21120.58
235.588	21093.06
235.66	21067.62
235.732	21028.14
235.804	21057.45
235.876	21035.66
235.948	21008.1
236.02	20981.44
236.092	20940.67
236.164	20905.78
236.236	20867.66
236.308	20819.22
236.38	20785.68
236.452	20734.98
236.524	20697.87
236.596	20676.47
236.668	20650.11
236.74	20613
236.812	20590.35
236.884	20560.03
236.956	20528.23
237.028	20486.93
237.1	20437.77
237.172	20408.27
237.244	20392.56
237.316	20312.56
237.388	20272.37
237.46	20245.19
237.532	20211.6
237.604	20175.31
237.675	20150.1
237.747	20128.27
237.819	20089.05
237.891	20058.44
237.963	20020.71
238.035	19977.48
238.107	19903.85
238.178	19875.99
238.25	19841.97
238.322	19825.68
238.394	19775.47
238.466	19741.01
238.538	19718.26
238.609	19688.34
238.681	19638.56
238.753	19587.52
238.825	19561.65
238.897	19526.23
238.968	19495.53
239.04	19454.18
239.112	19442.81
239.184	19393.61
239.255	19344.36
239.327	19319.25
239.399	19273.04
239.471	19241.86
239.542	19210.34
239.614	19193.18
239.686	19136.27
239.758	19109.62
239.829	19058.49
239.901	19042.4
239.973	19006.4
240.044	18970.4
240.116	18931.66
240.188	18895.9
240.259	18859.37
240.331	18812.68
240.403	18775.81
240.474	18717.12
240.546	18670.71
240.618	18613.17
240.689	18576.79
240.761	18542.72
240.833	18523.39
240.904	18491.35
240.976	18456.17
241.048	18427.25
241.119	18393.57
241.191	18364.66
241.262	18343.11
241.334	18301.33
241.405	18244.95
241.477	18202.78
241.549	18162.3
241.62	18130.21
241.692	18105.25
241.763	18084.96
241.835	18047.08
241.906	18011.66
241.978	17973.64
242.049	17961.15
242.121	17932
242.192	17912.67
242.264	17866.12
242.335	17804.1
242.407	17776.53
242.478	17736.2
242.55	17703.04
242.621	17661.6
242.693	17620.82
242.764	17580.49
242.836	17539.04
242.907	17519.24
242.979	17491.91
243.05	17458.8
243.122	17420.2
243.193	17381.31
243.264	17311.14
243.336	17274.95
243.407	17249.74
243.479	17226.8
243.55	17188.15
243.622	17162.22
243.693	17120.49
243.764	17103.52
243.836	17065.45
243.907	17026.46
243.978	16989.69
244.05	16960
244.121	16910.36
244.192	16876.48
244.264	16830.16
244.335	16800.76
244.407	16747.55
244.478	16710.25
244.549	16674.06
244.62	16633.43
244.692	16596.99
244.763	16584.07
244.834	16541.95
244.906	16497.08
244.977	16471.05
245.048	16448.35
245.119	16401.65
245.191	16356.44
245.262	16290.51
245.333	16273.2
245.405	16239.03
245.476	16209.05
245.547	16171.02
245.618	16147.94
245.689	16121.28
245.761	16085.42
245.832	16039.3
245.903	16014.72
245.974	15984.5
246.045	15948.2
246.117	15927.91
246.188	15881.11
246.259	15839.08
246.33	15812.47
246.401	15775.65
246.473	15715.35
246.544	15674.91
246.615	15652.93
246.686	15621.12
246.757	15612.64
246.828	15567.28
246.899	15556.24
246.97	15507.6
247.042	15469.48
247.113	15440.56
247.184	15422.58
247.255	15385.03
247.326	15361.27
247.397	15330.22
247.468	15302.94
247.539	15275.95
247.61	15233.72
247.681	15210.35
247.752	15188.12
247.823	15143.25
247.894	15125.12
247.965	15099.09
248.037	15067.13
248.108	15017.2
248.179	14985.67
248.25	14947.25
248.321	14925.85
248.392	14872.39
248.463	14876.15
248.534	14841.16
248.605	14817.73
248.675	14785.63
248.746	14765.48
248.817	14742.2
248.888	14716.45
248.959	14675.87
249.03	14648.44
249.101	14621.68
249.172	14592.95
249.243	14549.28
249.314	14538.77
249.385	14502.91
249.456	14474.85
249.527	14440.87
249.598	14424.09
249.669	14399.07
249.739	14380.95
249.81	14362.2
249.881	14329.95
249.952	14294.47
250.023	14269.98
250.094	14234.89
250.165	14188.99
250.235	14156.65
250.306	14128.59
250.377	14087.62
250.448	14056.14
250.519	14018.34
250.59	14006.68
250.66	13976.21
250.731	13963.58
250.802	13935.38
250.873	13906.89
250.944	13891.8
251.014	13858.83
251.085	13856.42
251.156	13834.49
251.227	13817.95
251.297	13793.32
251.368	13782.52
251.439	13766.47
251.51	13748.1
251.58	13708.28
251.651	13686.11
251.722	13673.72
251.792	13635.44
251.863	13609.7
251.934	13598.85
252.005	13600.88
252.075	13571.62
252.146	13557.25
252.217	13540.23
252.287	13522.4
252.358	13502.73
252.429	13489.23
252.499	13463.54
252.57	13424.15
252.641	13405.78
252.711	13383.85
252.782	13351.6
252.852	13341.09
252.923	13308.7
252.994	13286.71
253.064	13274.81
253.135	13239.09
253.205	13205.58
253.276	13197.34
253.347	13197.77
253.417	13170.59
253.488	13136.65
253.558	13109.85
253.629	13086.42
253.699	13073.45
253.77	13058.22
253.841	13031.99
253.911	13016.95
253.982	12999.69
254.052	12992.8
254.123	12966
254.193	12940.54
254.264	12954.96
254.334	12924.01
254.405	12894.85
254.475	12865.05
254.546	12841.53
254.616	12841.43
254.687	12829.82
254.757	12816.42
254.827	12784.41
254.898	12768.11
254.968	12744.78
255.039	12713.16
255.109	12693.4
255.18	12655.46
255.25	12612.36
255.321	12595.2
255.391	12555.43
255.461	12552.2
255.532	12515.09
255.602	12493.83
255.673	12455.31
255.743	12424.89
255.813	12377.8
255.884	12365.75
255.954	12352.01
256.024	12348.4
256.095	12320.05
256.165	12284.96
256.235	12263.17
256.306	12232.52
256.376	12220.13
256.446	12200.41
256.517	12194.24
256.587	12188.51
256.657	12172.36
256.728	12157.56
256.798	12139.73
256.868	12117.6
256.938	12094.17
257.009	12080.24
257.079	12070.46
257.149	12075.95
257.219	12031.03
257.29	12020.33
257.36	11987.6
257.43	11976.76
257.5	11937.33
257.571	11918.72
257.641	11906.43
257.711	11875.68
257.781	11867.58
257.852	11862.23
257.922	11833.94
257.992	11806.95
258.062	11784.29
258.132	11775.71
258.202	11751.85
258.273	11735.18
258.343	11734.89
258.413	11697.87
258.483	11674.74
258.553	11641
258.623	11612.75
258.693	11596.56
258.764	11591.35
258.834	11581.66
258.904	11566.67
258.974	11543.01
259.044	11517.03
259.114	11504.6
259.184	11485.75
259.254	11469.08
259.324	11417.27
259.394	11403
259.464	11398.86
259.535	11380.44
259.605	11354.85
259.675	11333.5
259.745	11316.39
259.815	11286.9
259.885	11272.87
259.955	11282.27
260.025	11259.62
260.095	11240.06
260.165	11227.24
260.235	11224.59
260.305	11207.43
260.375	11171.33
260.445	11178.42
260.515	11179.43
260.585	11167.19
260.655	11157.89
260.725	11140.49
260.795	11137.21
260.865	11139.04
260.934	11109.4
261.004	11099.24
261.074	11090.46
261.144	11089.21
261.214	11083.52
261.284	11063.48
261.354	11051.14
261.424	11026.37
261.494	11028.25
261.564	11012.97
261.634	11001.98
261.703	10965.65
261.773	10951.48
261.843	10946.62
261.913	10927
261.983	10897.99
262.053	10889.99
262.123	10867.78
262.192	10841.9
262.262	10832.56
262.332	10801.23
262.402	10793.43
262.472	10775.02
262.541	10731.75
262.611	10722.6
262.681	10695.08
262.751	10690.12
262.821	10668.58
262.89	10631.86
262.96	10617.26
263.03	10612.4
263.1	10602.28
263.169	10587.87
263.239	10579.05
263.309	10575.49
263.379	10554.34
263.448	10534.34
263.518	10522.39
263.588	10508.32
263.657	10511.65
263.727	10503.89
263.797	10494.4
263.867	10475.7
263.936	10439.18
264.006	10443.52
264.076	10423.81
264.145	10406.81
264.215	10378.48
264.285	10381.13
264.354	10352.66
264.424	10332.23
264.494	10305.63
264.563	10288.53
264.633	10291.85
264.702	10280.96
264.772	10251.96
264.842	10240.3
264.911	10233.89
264.981	10203.78
265.05	10191.45
265.12	10173.09
265.19	10165.72
265.259	10160.47
265.329	10160.42
265.398	10153.49
265.468	10163.65
265.537	10143.28
265.607	10137.06
265.676	10138.7
265.746	10124.97
265.815	10126.37
265.885	10107.39
265.955	10090.38
266.024	10071.07
266.094	10037.83
266.163	10034.46
266.232	10032.48
266.302	10024.73
266.371	10015.81
266.441	9998.67
266.51	9996.5
266.58	9979.78
266.649	9951.46
266.719	9940.72
266.788	9925.78
266.858	9933.97
266.927	9889.75
266.996	9884.55
267.066	9878.58
267.135	9852.61
267.205	9843.56
267.274	9831.57
267.343	9835.9
267.413	9820.54
267.482	9820.2
267.552	9825.93
267.621	9801.7
267.69	9771.99
267.76	9758.89
267.829	9750.89
267.898	9744.34
267.968	9722.91
268.037	9716.79
268.106	9718.38
268.176	9694.54
268.245	9676.33
268.314	9655.91
268.384	9661.59
268.453	9649.94
268.522	9634.62
268.592	9633.85
268.661	9614.2
268.73	9605.44
268.799	9581.69
268.869	9584.44
268.938	9553.95
269.007	9531.27
269.076	9519.71
269.146	9525.06
269.215	9518.65
269.284	9519.47
269.353	9498.67
269.422	9479.65
269.492	9461.88
269.561	9417.05
269.63	9415.46
269.699	9402.51
269.768	9397.16
269.838	9390.03
269.907	9384.45
269.976	9364.42
270.045	9328.83
270.114	9323.44
270.183	9314.05
270.253	9311.84
270.322	9286.37
270.391	9278.04
270.46	9279.77
270.529	9274.81
270.598	9269.18
270.667	9253.19
270.736	9229.64
270.806	9226.75
270.875	9228.01
270.944	9218.42
271.013	9239.13
271.082	9227.72
271.151	9217.75
271.22	9184.53
271.289	9167.92
271.358	9155.59
271.427	9150.82
271.496	9146.06
271.565	9133.44
271.634	9125.84
271.703	9144.71
271.772	9145
271.841	9140.67
271.91	9118.28
271.979	9111.25
272.048	9085.98
272.117	9084.82
272.186	9069.37
272.255	9067.3
272.324	9061.33
272.393	9054.88
272.462	9035.18
272.531	9027.87
272.6	9018.09
272.669	9027.09
272.738	9012.32
272.807	9006.15
272.876	8986.42
272.945	9020.89
273.013	9016.22
273.082	9016.12
273.151	8977.22
273.22	8976.74
273.289	8960.95
273.358	8974.67
273.427	8963.26
273.496	8960.37
273.564	8953.53
273.633	8954.69
273.702	8933.32
273.771	8921.38
273.84	8912.47
273.909	8915.84
273.977	8912.52
274.046	8906.27
274.115	8904.29
274.184	8890.53
274.253	8883.02
274.322	8892.26
274.39	8850.76
274.459	8847.39
274.528	8821.59
274.597	8812.06
274.665	8807.06
274.734	8816.06
274.803	8794.78
274.872	8785.49
274.94	8774.76
275.009	8799.89
275.078	8790.55
275.147	8794.55
275.215	8796.33
275.284	8806.05
275.353	8792.91
275.421	8772.88
275.49	8784.49
275.559	8774.96
275.627	8766.2
275.696	8756.33
275.765	8753.3
275.833	8750.84
275.902	8744.49
275.971	8750.89
276.039	8773.32
276.108	8775.87
276.177	8771.97
276.245	8768.17
276.314	8759.32
276.383	8764.47
276.451	8731.82
276.52	8731.34
276.588	8738.32
276.657	8734.9
276.725	8723.16
276.794	8718.68
276.863	8721.96
276.931	8704.63
277	8709.54
277.068	8728.31
277.137	8745.63
277.205	8740.1
277.274	8752.27
277.342	8757.38
277.411	8739.67
277.48	8717
277.548	8705.16
277.617	8707.13
277.685	8703.18
277.754	8709.73
277.822	8705.83
277.89	8715.89
277.959	8709.92
278.027	8693.94
278.096	8686
278.164	8707.04
278.233	8709.35
278.301	8704.05
278.37	8704.2
278.438	8693.75
278.507	8691.97
278.575	8664.49
278.643	8660.59
278.712	8644.66
278.78	8631.57
278.849	8642.64
278.917	8652.12
278.985	8649.09
279.054	8654.62
279.122	8660.16
279.191	8656.16
279.259	8652.51
279.327	8634.79
279.396	8647.84
279.464	8643.94
279.532	8648.66
279.601	8650.15
279.669	8639.32
279.737	8650.53
279.806	8653.13
279.874	8663.19
279.942	8658.62
280.011	8653.04
280.079	8665.46
280.147	8683.55
280.215	8690.29
280.284	8685.09
280.352	8669.88
280.42	8678.69
280.488	8663.19
280.557	8657.18
280.625	8658.77
280.693	8659.73
280.761	8655.83
280.83	8639.71
280.898	8652.27
280.966	8636.39
281.034	8601.49
281.102	8587.73
281.171	8581.28
281.239	8588.6
281.307	8575.7
281.375	8564.58
281.443	8592.25
281.512	8580.56
281.58	8580.85
281.648	8565.21
281.716	8570.31
281.784	8574.59
281.852	8563.42
281.92	8560.06
281.989	8562.99
282.057	8547.11
282.125	8585.82
282.193	8585.38
282.261	8578.74
282.329	8571.23
282.397	8578.98
282.465	8587.21
282.533	8600.35
282.601	8583.7
282.67	8562.18
282.738	8556.12
282.806	8566.22
282.874	8551.93
282.942	8561.99
283.01	8557.66
283.078	8564.25
283.146	8554.77
283.214	8560.55
283.282	8560.21
283.35	8576.09
283.418	8581.1
283.486	8593.13
283.554	8553.07
283.622	8554.23
283.69	8561.45
283.758	8556.06
283.826	8559.09
283.894	8565.39
283.962	8582.19
284.03	8594.8
284.098	8595.91
284.165	8588.5
284.233	8585.85
284.301	8581.47
284.369	8565.88
284.437	8556.44
284.505	8553.7
284.573	8570.5
284.641	8555.34
284.709	8566.17
284.777	8542.73
284.845	8548.31
284.912	8547.54
284.98	8548.6
285.048	8543.31
285.116	8545.57
285.184	8561.88
285.252	8564.19
285.319	8545.67
285.387	8540.71
285.455	8533.01
285.523	8533.59
285.591	8531.66
285.659	8534.69
285.726	8547.25
285.794	8531.52
285.862	8524.35
285.93	8519.64
285.997	8509
286.065	8510.2
286.133	8500.77
286.201	8503.32
286.269	8486.04
286.336	8474.25
286.404	8465.59
286.472	8479.26
286.539	8458.28
286.607	8441
286.675	8440.71
286.743	8452.84
286.81	8444.18
286.878	8451.35
286.946	8451.35
287.013	8453.75
287.081	8453.51
287.149	8438.45
287.216	8462.03
287.284	8461.11
287.352	8461.83
287.419	8464.87
287.487	8479.26
287.555	8480.17
287.622	8475.02
287.69	8476.13
287.758	8492.06
287.825	8494.13
287.893	8474.78
287.96	8482.14
288.028	8488.16
288.096	8488.97
288.163	8489.31
288.231	8484.74
288.298	8486.47
288.366	8502.06
288.433	8499.23
288.501	8490.23
288.569	8491.91
288.636	8483.97
288.704	8497.78
288.771	8510.34
288.839	8502.98
288.906	8494.99
288.974	8501.92
289.041	8501.92
289.109	8496.15
289.176	8500.91
289.244	8499.66
289.311	8516.31
289.379	8526.46
289.446	8528.34
289.514	8525.6
289.581	8527.04
289.649	8526.66
289.716	8526.37
289.783	8519.34
289.851	8537.72
289.918	8538.92
289.986	8549.46
290.053	8552.5
290.121	8546.05
290.188	8546.1
290.255	8571.6
290.323	8564.82
290.39	8563.47
290.458	8575.02
290.525	8587.72
290.592	8578.14
290.66	8581.66
290.727	8574.68
290.794	8587.72
290.862	8587.53
290.929	8590.13
290.996	8586.61
291.064	8596.24
291.131	8608.13
291.198	8618.72
291.266	8614.53
291.333	8617.99
291.4	8621.89
291.468	8645
291.535	8645.77
291.602	8650
291.669	8643.89
291.737	8651.11
291.804	8649.71
291.871	8660.54
291.938	8671.18
292.006	8701.65
292.073	8713.58
292.14	8722.1
292.207	8715.51
292.275	8721.67
292.342	8730.72
292.409	8757.96
292.476	8785.88
292.543	8779.14
292.611	8779.82
292.678	8806.68
292.745	8827.42
292.812	8839.74
292.879	8833.63
292.946	8840.94
293.014	8848.02
293.081	8855.38
293.148	8865.54
293.215	8882.34
293.282	8873.63
293.349	8883.59
293.416	8863.76
293.484	8874.93
293.551	8890.43
293.618	8906.55
293.685	8932.11
293.752	8930.04
293.819	8924.27
293.886	8904.34
293.953	8909.97
294.02	8913.82
294.087	8915.02
294.154	8913.77
294.221	8923.69
294.288	8921.43
294.356	8938.95
294.423	8948.67
294.49	8940.97
294.557	8955.6
294.624	8947.47
294.691	8973.37
294.758	8972.74
294.825	8986.46
294.892	8983.09
294.959	8978.13
295.026	8982.61
295.093	8977.02
295.16	8979.72
295.226	8981.07
295.293	9007.11
295.36	9013.51
295.427	9032.82
295.494	9043.41
295.561	9047.75
295.628	9070.62
295.695	9087.13
295.762	9085.45
295.829	9095.61
295.896	9110.77
295.963	9120.69
296.03	9128.92
296.096	9130.7
296.163	9141.68
296.23	9154.01
296.297	9167.92
296.364	9176.15
296.431	9185.4
296.498	9179.09
296.564	9205.13
296.631	9211.87
296.698	9194.49
296.765	9211.3
296.832	9199.5
296.899	9185.49
296.965	9198.44
297.032	9176.48
297.099	9191.36
297.166	9201.09
297.233	9198.82
297.299	9192.23
297.366	9192.13
297.433	9193.82
297.5	9205.08
297.566	9209.42
297.633	9209.66
297.7	9212.69
297.767	9206.24
297.833	9213.13
297.9	9212.31
297.967	9194.59
298.033	9208.26
298.1	9240.33
298.167	9233.5
298.234	9231.28
298.3	9241.25
298.367	9240.77
298.434	9248.13
298.5	9240.28
298.567	9238.45
298.634	9233.74
298.7	9250.92
298.767	9249.24
298.834	9266.19
298.9	9258.48
298.967	9246.83
299.033	9257.33
299.1	9275.72
299.167	9291.32
299.233	9281.89
299.3	9298.01
299.366	9311.59
299.433	9320.74
299.5	9297.63
299.566	9305.91
299.633	9330.75
299.699	9343.8
299.766	9343.8
299.832	9347.08
299.899	9358.44
299.965	9366.15
300.032	9364.9
300.099	9369.52
300.165	9379.34
300.232	9376.21
300.298	9381.12
300.365	9396.43
300.431	9391.23
300.498	9377.61
300.564	9386.03
300.631	9401.92
300.697	9414.2
300.763	9413.96
300.83	9409.63
300.896	9424.8
300.963	9431.59
301.029	9430.62
301.096	9433.13
301.162	9442.42
301.229	9442.23
301.295	9430.81
301.361	9438.18
301.428	9440.16
301.494	9429.85
301.561	9433.61
301.627	9438.66
301.693	9440.11
301.76	9439.72
301.826	9437.46
301.892	9450.7
301.959	9452.87
302.025	9449.07
302.092	9448.01
302.158	9458.41
302.224	9463.85
302.291	9452.92
302.357	9448.44
302.423	9440.4
302.49	9430.96
302.556	9442.71
302.622	9441.75
302.688	9452.39
302.755	9460.19
302.821	9473.29
302.887	9483.69
302.954	9484.89
303.02	9485.42
303.086	9491.68
303.152	9490.53
303.219	9486.63
303.285	9482.82
303.351	9490.87
303.417	9490.77
303.483	9478.49
303.55	9468.43
303.616	9465.39
303.682	9462.89
303.748	9459.85
303.815	9475.7
303.881	9488.07
303.947	9474.01
304.013	9469.1
304.079	9461.4
304.145	9447.29
304.212	9439.1
304.278	9430.34
304.344	9419.84
304.41	9407.46
304.476	9399.08
304.542	9386.85
304.608	9394.03
304.674	9380.98
304.741	9371.92
304.807	9376.5
304.873	9382.33
304.939	9398.99
305.005	9382.13
305.071	9381.56
305.137	9383.67
305.203	9360.51
305.269	9354.15
305.335	9361.57
305.401	9363.4
305.467	9360.17
305.533	9366.24
305.599	9375.44
305.666	9385.94
305.732	9389.45
305.798	9404.86
305.864	9424.56
305.93	9434.81
305.996	9434.38
306.062	9434.86
306.128	9438.09
306.194	9424.51
306.259	9424.27
306.325	9412.42
306.391	9422.68
306.457	9429.32
306.523	9422.1
306.589	9443.63
306.655	9431.83
306.721	9421.47
306.787	9410.69
306.853	9422.78
306.919	9404.53
306.985	9397.5
307.051	9389.12
307.117	9374.34
307.183	9364.03
307.248	9338.94
307.314	9345.78
307.38	9343.71
307.446	9348.67
307.512	9330.8
307.578	9334.03
307.644	9329.5
307.709	9332.49
307.775	9327.29
307.841	9323.68
307.907	9332.29
307.973	9315.15
308.039	9318.18
308.104	9313.75
308.17	9317.75
308.236	9301.47
308.302	9309.18
308.368	9292.66
308.433	9289.44
308.499	9290.11
308.565	9285.54
308.631	9285.73
308.696	9264.16
308.762	9252.12
308.828	9245.72
308.894	9230.31
308.959	9209.27
309.025	9196.8
309.091	9194.44
309.156	9190.54
309.222	9191.36
309.288	9179.23
309.354	9153.86
309.419	9150.05
309.485	9141.34
309.551	9144.23
309.616	9127.91
309.682	9118.08
309.748	9116.49
309.813	9112.07
309.879	9104.03
309.945	9086.12
310.01	9081.49
310.076	9079.62
310.141	9077.93
310.207	9063.49
310.273	9065.99
310.338	9074.08
310.404	9060.79
310.469	9045.39
310.535	9032
310.601	9010.1
310.666	9013.56
310.732	9026.42
310.797	9014.81
310.863	9009.37
310.928	8995.07
310.994	9002.97
311.059	9002.44
311.125	9000.13
311.191	9009.76
311.256	8995.8
311.322	9004.85
311.387	8988.43
311.453	9240.37
311.518	9212.7
311.584	9212.98
311.649	9215.82
311.715	9202.25
311.78	9203.4
311.846	9190.41
311.911	9195.65
311.976	9201.33
312.042	9186.94
312.107	9171.1
312.173	9161.86
312.238	9153.97
312.304	9152.28
312.369	9138.85
312.434	9123.21
312.5	9115.26
312.565	9081.37
312.631	9088.11
312.696	9076.22
312.761	9077.91
312.827	8814.46
312.892	8847.24
312.958	8845.03
313.023	8841.42
313.088	8841.66
313.154	8825.73
313.219	8817.5
313.284	8803.15
313.35	8791.31
313.415	8781.25
313.48	8776.05
313.546	8778.08
313.611	8783.18
313.676	8777.45
313.741	8770.62
313.807	8784.96
313.872	8788.62
313.937	8798.58
314.003	8807.44
314.068	8807.29
314.133	8807.49
314.198	8797.96
314.264	8777.69
314.329	8763.97
314.394	8759.21
314.459	8754.68
314.525	8780.14
314.59	8779.23
314.655	8771.34
314.72	8779.81
314.785	8780.63
314.851	8774.37
314.916	8752.71
314.981	8737.84
315.046	8722.05
315.111	8715.03
315.176	8701.07
315.242	8702.95
315.307	8695.97
315.372	8670.5
315.437	8661.75
315.502	8658.38
315.567	8670.6
315.632	8657.9
315.698	8659.15
315.763	8650.72
315.828	8636.33
315.893	8627.04
315.958	8623.53
316.023	8614.58
316.088	8594.65
316.153	8573.48
316.218	8567.95
316.283	8554.52
316.348	8540.23
316.413	8538.4
316.479	8518.49
316.544	8482.4
316.609	8449.87
316.674	8415.04
316.739	8386.46
316.804	8351.39
316.869	8308.18
316.934	8268.53
316.999	8240
317.064	8190.26
317.129	8148.89
317.194	8115.7
317.259	8065.42
317.324	8011.22
317.389	7962.98
317.454	7922.04
317.518	7889.58
317.583	7861.97
317.648	7837.1
317.713	7803.1
317.778	7741.93
317.843	7713.94
317.908	7675.53
317.973	7637.97
318.038	7608.21
318.103	7572.54
318.168	7539.27
318.233	7512.92
318.297	7464.47
318.362	7423.94
318.427	7387.9
318.492	7365.54
318.557	7321.42
318.622	7294.31
318.687	7269.76
318.751	7235.74
318.816	7199.69
318.881	7167.4
318.946	7114.97
319.011	7075.46
319.075	7032.6
319.14	7001.86
319.205	6959.72
319.27	6924.85
319.335	6881.52
319.399	6842.56
319.464	6812.78
319.529	6763.75
319.594	6722.49
319.658	6689.01
319.723	6648.29
319.788	6621.31
319.853	6564.3
319.917	6533.77
319.982	6482.77
320.047	6444.84
320.112	6417.43
320.176	6369.38
320.241	6327.32
320.306	6296.36
320.37	6254.5
320.435	6220.47
320.5	6192.83
320.564	6152.52
320.629	6115.43
320.694	6082.9
320.758	6044.7
320.823	6003.68
320.888	5978.74
320.952	5927.46
321.017	5890.52
321.082	5850.57
321.146	5812.78
321.211	5778.58
321.275	5741.18
321.34	5695.39
321.405	5655.83
321.469	5609.28
321.534	5569.93
321.598	5524.38
321.663	5489.72
321.727	5451.8
321.792	5402.91
321.857	5359.82
321.921	5320.76
321.986	5276.44
322.05	5220.82
322.115	5182.68
322.179	5136.16
322.244	5082.33
322.308	5050.96
322.373	5004.55
322.437	4965.33
322.502	4941.47
322.566	4899.52
322.631	4859.97
322.695	4821.15
322.76	4776.82
322.824	4738.43
322.889	4696.94
322.953	4652.48
323.018	4588.98
323.082	4528.79
323.146	4479.43
323.211	4425.89
323.275	4381.45
323.34	4340.37
323.404	4302.98
323.468	4257.63
323.533	4214.36
323.597	4171.2
323.662	4124.49
323.726	4091.21
323.79	4043.98
323.855	3977.61
323.919	3929.62
323.983	3884.36
324.048	3817.42
324.112	3910.52
324.177	3788.59
324.241	3589.87
324.305	3393.04
324.37	3203.54
324.434	3021.67
324.498	2978.96
324.562	2928.43
324.627	2868.55
324.691	2810.42
324.755	2746.53
324.82	2667.97
324.884	2591.58
324.948	2515.32
325.012	2416.07
325.077	2286.38
