Data from 20250702_urea_0.5M_MAYP1162681_22-54-59-974.txt Node
Date: Wed Jul 02 22:54:59 BST 2025
User: adleo
Spectrometer: MAYP116268
Trigger mode: 0
Integration Time (sec): 1.000000E0
Scans to average: 1
Electric dark correction enabled: true
Nonlinearity correction enabled: true
Boxcar width: 10
XAxis mode: Wavelengths
Number of Pixels in Spectrum: 2068
>>>>>Begin Spectral Data<<<<<
179.565	1229.4
179.642	1284.83
179.718	1333.57
179.795	1375.49
179.871	1409.62
179.948	1426.45
180.024	1446.12
180.101	1466.76
180.177	1480.29
180.254	1501.65
180.33	1525.68
180.407	1579.66
180.483	1677.53
180.56	1768.99
180.636	1855.16
180.712	1841.18
180.789	1853.73
180.865	1865.42
180.942	1875.78
181.018	1885.34
181.095	1897.75
181.171	1902.36
181.248	1903.6
181.324	1917.25
181.4	1923.57
181.477	1933.89
181.553	1946.68
181.63	1967.5
181.706	1985.38
181.782	1995.17
181.859	1996.08
181.935	2001.69
182.011	1998.88
182.088	2013.82
182.164	2034.89
182.24	2049.06
182.317	2060.95
182.393	2055.05
182.469	2069.32
182.546	2082.44
182.622	2088.63
182.698	2086.15
182.775	2097.85
182.851	2113.46
182.927	2107.32
183.003	2101.85
183.08	2096
183.156	2105.27
183.232	2103.51
183.308	2092.05
183.385	2098.23
183.461	2117.83
183.537	2115.12
183.613	2128.15
183.69	2119.97
183.766	2108.84
183.842	2113.31
183.918	2117.26
183.995	2130.57
184.071	2133.57
184.147	2126.43
184.223	2113.64
184.299	2124.35
184.375	2115.55
184.452	2124.97
184.528	2177.75
184.604	2188.97
184.68	2201.67
184.756	2210.67
184.832	2213.76
184.908	2220.13
184.985	2221.27
185.061	2203.72
185.137	2214.19
185.213	2203.96
185.289	2207.05
185.365	2199.01
185.441	2199.2
185.517	2212.67
185.593	2211.86
185.669	2208.49
185.745	2220.95
185.822	2238.74
185.898	2232.12
185.974	2241.3
186.05	2230.31
186.126	2186.52
186.202	2177.25
186.278	2174.58
186.354	2166.64
186.43	2176.35
186.506	2174.97
186.582	2173.21
186.658	2181.01
186.734	2160.13
186.81	2164.74
186.886	2166.17
186.962	2179.3
187.038	2175.87
187.114	2166.69
187.19	2176.77
187.266	2167.31
187.341	2166.26
187.417	2158.41
187.493	2156.94
187.569	2157.32
187.645	2152.13
187.721	2145.23
187.797	2154.27
187.873	2159.55
187.949	2151.52
188.025	2140.76
188.101	2141.95
188.176	2150.18
188.252	2144.42
188.328	2156.31
188.404	2151.74
188.48	2147.04
188.556	2139.42
188.632	2140.9
188.707	2141.85
188.783	2135.57
188.859	2132.95
188.935	2124.1
189.011	2133.14
189.086	2127.24
189.162	2119.73
189.238	2116.45
189.314	2114.35
189.39	2109.6
189.465	2098.8
189.541	2118.02
189.617	2103.99
189.693	2099.8
189.768	2101.23
189.844	2127.31
189.92	2117.75
189.996	2131.74
190.071	2143.11
190.147	2145.39
190.223	2153.05
190.298	2145.06
190.374	2131.36
190.45	2143.34
190.526	2147.25
190.601	2140.68
190.677	2142.49
190.753	2171.57
190.828	2173.14
190.904	2186.65
190.98	2200.5
191.055	2211.58
191.131	2200.97
191.207	2222.43
191.282	2235.46
191.358	2228.66
191.433	2213.71
191.509	2225.74
191.585	2218.13
191.66	2220.55
191.736	2224.03
191.811	2214.46
191.887	2232.36
191.963	2257.91
192.038	2262.43
192.114	2266.24
192.189	2270.95
192.265	2268.28
192.34	2245.76
192.416	2249.05
192.491	2246.95
192.567	2250.28
192.642	2252.47
192.718	2253.57
192.793	2240.96
192.869	2233.77
192.944	2235.34
193.02	2241.82
193.095	2245.43
193.171	2252.43
193.246	2250.62
193.322	2247.91
193.397	2247.29
193.473	2231.92
193.548	2213.12
193.624	2217.73
193.699	2215.78
193.775	2229.97
193.85	2229.16
193.925	2239.06
194.001	2234.82
194.076	2225.12
194.152	2213.22
194.227	2207.99
194.302	2195.67
194.378	2200.52
194.453	2196.19
194.529	2206.66
194.604	2190.05
194.679	2183.3
194.755	2164.7
194.83	2176.6
194.905	2174.94
194.981	2184.79
195.056	2181.98
195.131	2188.45
195.207	2186.59
195.282	2178.41
195.357	2157.71
195.433	2173.55
195.508	2160.94
195.583	2168.5
195.659	2185.68
195.734	2196.96
195.809	2195.49
195.884	2207.85
195.96	2206.71
196.035	2220.94
196.11	2219.13
196.185	2232.02
196.261	2236.4
196.336	2266.8
196.411	2251.76
196.486	2257.09
196.561	2250.71
196.637	2254.85
196.712	2269.94
196.787	2276.89
196.862	2289.4
196.937	2302.16
197.013	2307.58
197.088	2317.15
197.163	2341.05
197.238	2359.1
197.313	2357.82
197.388	2372.48
197.464	2402.43
197.539	2415.28
197.614	2411.85
197.689	2422.09
197.764	2441.14
197.839	2463.85
197.914	2458.8
197.989	2484.61
198.065	2500.17
198.14	2550.91
198.215	2579.72
198.29	2592.68
198.365	2604.63
198.44	2618.58
198.515	2649.02
198.59	2666.5
198.665	2692.89
198.74	2699.09
198.815	2700.23
198.89	2720
198.965	2750.4
199.04	2743.83
199.115	2758.4
199.19	2797.99
199.265	2802.13
199.34	2810.95
199.415	2845.52
199.49	2870.44
199.565	2876.25
199.64	2901.8
199.715	2900.17
199.79	2908.56
199.865	2918.91
199.94	2916.1
200.015	2948.47
200.09	2952.24
200.165	2958.15
200.24	2967.01
200.315	3010.82
200.39	3021.54
200.464	3029.65
200.539	3030.84
200.614	3050.1
200.689	3073.31
200.764	3083.86
200.839	3100.3
200.914	3105.3
200.989	3090.04
201.063	3102.34
201.138	3086.95
201.213	3083.85
201.288	3064.07
201.363	3066.5
201.438	3064.26
201.512	3080.75
201.587	3062.48
201.662	3062.91
201.737	3073.64
201.812	3079.98
201.886	3043.47
201.961	3052.2
202.036	3040.81
202.111	3036.85
202.186	3009.26
202.26	2992
202.335	2968.25
202.41	2962.87
202.485	2944.8
202.559	2930.69
202.634	2902.71
202.709	2913.67
202.784	2899.46
202.858	2901.04
202.933	2884.83
203.008	2880.59
203.082	2859.05
203.157	2859.72
203.232	2816.04
203.306	2797.73
203.381	2766.7
203.456	2744.73
203.53	2725.42
203.605	2706.23
203.68	2685.54
203.754	2675.55
203.829	2661.16
203.904	2641.63
203.978	2629.53
204.053	2635.15
204.127	2619.91
204.202	2617.33
204.277	2600.09
204.351	2589.42
204.426	2579.84
204.5	2569.94
204.575	2530.94
204.65	2542.9
204.724	2532.03
204.799	2543.6
204.873	2538.78
204.948	2537.59
205.022	2528.6
205.097	2519.11
205.171	2531.49
205.246	2537.88
205.32	2536.07
205.395	2538.02
205.469	2528.41
205.544	2535.65
205.618	2518.69
205.693	2530.36
205.767	2519.98
205.842	2540.47
205.916	2534.75
205.991	2526.89
206.065	2531.94
206.14	2548.22
206.214	2543.5
206.289	2537.5
206.363	2552.59
206.438	2556.69
206.512	2564.69
206.586	2581.6
206.661	2588.79
206.735	2569.28
206.81	2569.71
206.884	2588.75
206.958	2578.61
207.033	2596.55
207.107	2604.75
207.181	2639.06
207.256	2636.68
207.33	2655.44
207.405	2670.75
207.479	2693.52
207.553	2701.94
207.628	2692.23
207.702	2707.52
207.776	2705.47
207.851	2713.19
207.925	2730.97
207.999	2730.4
208.073	2734.97
208.148	2742.45
208.222	2739.5
208.296	2777.03
208.371	2802.97
208.445	2821.75
208.519	2861.5
208.593	2884.66
208.668	2893.81
208.742	2910.18
208.816	2925.14
208.89	2957.05
208.965	2971.74
209.039	2994.25
209.113	3032.3
209.187	3072.09
209.261	3088.78
209.336	3131.99
209.41	3177.45
209.484	3204.03
209.558	3255.27
209.632	3298.31
209.707	3339.72
209.781	3393.6
209.855	3448.12
209.929	3500.58
210.003	3546.03
210.077	3583.66
210.151	3678.59
210.226	3757.67
210.3	3827.33
210.374	3897.77
210.448	3950.68
210.522	4012.54
210.596	4084.2
210.67	4153.23
210.744	4260.36
210.818	4353.9
210.892	4438.62
210.966	4499.41
211.041	4584.1
211.115	4650.46
211.189	4741.53
211.263	4839.85
211.337	4924.92
211.411	5016.4
211.485	5095.42
211.559	5193.74
211.633	5277.54
211.707	5332.39
211.781	5427.24
211.855	5486.54
211.929	5578.37
212.003	5655.86
212.077	5766.95
212.151	5870.42
212.225	5972.93
212.299	6062.27
212.373	6152.36
212.447	6253.41
212.52	6388.67
212.594	6500.02
212.668	6620.52
212.742	6719.2
212.816	6828.54
212.89	6940.74
212.964	7050.45
213.038	7170.51
213.112	7294.95
213.186	7432.29
213.26	7524.4
213.333	7594.26
213.407	7720
213.481	7839.91
213.555	7974.9
213.629	8085.84
213.703	8197.78
213.777	8319.89
213.85	8421.12
213.924	8580.74
213.998	8698.85
214.072	8812.55
214.146	8916.23
214.219	9039.95
214.293	9151.09
214.367	9267.8
214.441	9394.14
214.515	9508.22
214.588	9594.91
214.662	9683.62
214.736	9781
214.81	9903.5
214.883	10035.54
214.957	10141.08
215.031	10248.54
215.105	10340.69
215.178	10440.61
215.252	10550.08
215.326	10640.37
215.4	10737.06
215.473	10793.64
215.547	10892.47
215.621	10997.1
215.694	11112.03
215.768	11190.92
215.842	11286.68
215.915	11383.5
215.989	11459.94
216.063	11554.75
216.136	11665.21
216.21	11760.54
216.284	11873.43
216.357	11986.26
216.431	12084.06
216.504	12188.99
216.578	12305.93
216.652	12415.97
216.725	12512.28
216.799	12614.14
216.873	12715.61
216.946	12822.62
217.02	12915.51
217.093	13009.03
217.167	13072.66
217.24	13154.66
217.314	13248.8
217.387	13337.55
217.461	13405.76
217.535	13513.7
217.608	13592.37
217.682	13680.39
217.755	13785.43
217.829	13859.38
217.902	13939.21
217.976	14018.51
218.049	14092.99
218.123	14160.81
218.196	14250.28
218.27	14318.4
218.343	14378.03
218.417	14459.97
218.49	14530.84
218.563	14630.43
218.637	14710.25
218.71	14807.24
218.784	14892.51
218.857	14982.6
218.931	15063.25
219.004	15151.12
219.077	15234.61
219.151	15311.59
219.224	15378.97
219.298	15450.5
219.371	15533.02
219.444	15589.9
219.518	15671.79
219.591	15754.02
219.665	15852.54
219.738	15919.54
219.811	15989.24
219.885	16073.25
219.958	16153.98
220.031	16226.57
220.105	16293.27
220.178	16363.01
220.251	16432.61
220.325	16502.35
220.398	16571.7
220.471	16647.13
220.544	16718.46
220.618	16768.1
220.691	16828.93
220.764	16897.85
220.838	16967.49
220.911	17028.65
220.984	17122.39
221.057	17188.12
221.131	17242.53
221.204	17265.09
221.277	17347.35
221.35	17446.58
221.424	17503.45
221.497	17555.98
221.57	17615.5
221.643	17684.22
221.716	17747.54
221.79	17787.25
221.863	17835.78
221.936	17880.5
222.009	17929.9
222.082	17990.81
222.155	18041.46
222.229	18110.42
222.302	18157.56
222.375	18192.3
222.448	18240.11
222.521	18281.94
222.594	18324.63
222.667	18361.02
222.74	18433.74
222.814	18471.85
222.887	18495.37
222.96	18540.77
223.033	18594.16
223.106	18638.45
223.179	18687.31
223.252	18720.8
223.325	18770.82
223.398	18810.82
223.471	18857.61
223.544	18898.82
223.617	18931.88
223.69	18975.1
223.763	18998.47
223.837	19041.75
223.91	19087
223.983	19115.72
224.056	19134.71
224.129	19177.26
224.202	19229.21
224.275	19246.27
224.348	19264.29
224.42	19285.97
224.493	19309.83
224.566	19332.28
224.639	19375.99
224.712	19396.28
224.785	19423.99
224.858	19450.06
224.931	19476.66
225.004	19491.12
225.077	19517.38
225.15	19526.06
225.223	19547.02
225.296	19600.75
225.369	19609.76
225.442	19627.98
225.514	19651.45
225.587	19684.31
225.66	19698.63
225.733	19716.99
225.806	19746.77
225.879	19767.34
225.952	19783.87
226.025	19815.68
226.097	19847.97
226.17	19853.94
226.243	19856.93
226.316	19875.82
226.389	19895.73
226.461	19924.54
226.534	19955.29
226.607	19974.57
226.68	20018.08
226.753	20043.77
226.825	20036.4
226.898	20081.12
226.971	20099.86
227.044	20121.26
227.117	20135.67
227.189	20154.85
227.262	20179.38
227.335	20201.11
227.407	20218.9
227.48	20242.37
227.553	20255.52
227.626	20269.16
227.698	20281.74
227.771	20296.77
227.844	20303.86
227.916	20326.7
227.989	20326.36
228.062	20324.77
228.134	20358.7
228.207	20365.54
228.28	20364.92
228.352	20384.48
228.425	20382.8
228.498	20405.06
228.57	20407.18
228.643	20434.65
228.716	20449.01
228.788	20450.8
228.861	20450.12
228.934	20475.33
229.006	20482.08
229.079	20487.81
229.151	20485.59
229.224	20485.55
229.296	20499.42
229.369	20541.64
229.442	20559.43
229.514	20556.25
229.587	20588.63
229.659	20578.08
229.732	20585.02
229.804	20605.35
229.877	20640.68
229.949	20663.43
230.022	20689.6
230.094	20708.83
230.167	20716.44
230.239	20709.74
230.312	20726.61
230.384	20765.89
230.457	20763.15
230.529	20776.01
230.602	20793.94
230.674	20801.03
230.747	20823.29
230.819	20842.38
230.892	20805.51
230.964	20806.57
231.037	20815.72
231.109	20812.06
231.181	20826.66
231.254	20828.01
231.326	20829.17
231.399	20811.72
231.471	20812.3
231.544	20793.55
231.616	20805.26
231.688	20810.57
231.761	20808.44
231.833	20800.64
231.905	20770.61
231.978	20772.97
232.05	20770.9
232.122	20764.97
232.195	20758.47
232.267	20771.38
232.339	20758.42
232.412	20781.17
232.484	20774.08
232.556	20771.04
232.629	20778.32
232.701	20774.66
232.773	20765.41
232.846	20752.01
232.918	20747.38
232.99	20740.3
233.062	20732.25
233.135	20722.66
233.207	20691.81
233.279	20696.49
233.351	20698.8
233.424	20684.97
233.496	20670.66
233.568	20684.68
233.64	20669.4
233.713	20656.1
233.785	20636.29
233.857	20625.35
233.929	20599.09
234.001	20603.57
234.074	20608.97
234.146	20585.02
234.218	20568.2
234.29	20561.55
234.362	20542.37
234.434	20512.05
234.507	20482.99
234.579	20451.38
234.651	20427.71
234.723	20427.86
234.795	20419.52
234.867	20399.43
234.939	20395.67
235.012	20376.34
235.084	20359.57
235.156	20349.59
235.228	20333.5
235.3	20319.14
235.372	20312.2
235.444	20302.9
235.516	20262.61
235.588	20243.04
235.66	20224.92
235.732	20203.33
235.804	20235.43
235.876	20232.68
235.948	20234.22
236.02	20213.36
236.092	20196.87
236.164	20185.21
236.236	20161.84
236.308	20132.49
236.38	20111.77
236.452	20078.95
236.524	20062.13
236.596	20052.49
236.668	20025.17
236.74	20002.62
236.812	19979.19
236.884	19966.38
236.956	19949.22
237.028	19920.31
237.1	19885.56
237.172	19871.3
237.244	19867.05
237.316	19805.03
237.388	19771.92
237.46	19739.73
237.532	19726.43
237.604	19702.67
237.675	19689.86
237.747	19673.52
237.819	19639.98
237.891	19610.68
237.963	19586.97
238.035	19561.09
238.107	19488.37
238.178	19481.63
238.25	19452.71
238.322	19448.95
238.394	19394.02
238.466	19363.13
238.538	19345.83
238.609	19324.48
238.681	19281.59
238.753	19237.3
238.825	19207.09
238.897	19178.99
238.968	19170.85
239.04	19139.96
239.112	19139.77
239.184	19088.83
239.255	19050.62
239.327	19029.75
239.399	19011.92
239.471	18996.11
239.542	18974.62
239.614	18961.61
239.686	18914.19
239.758	18906.67
239.829	18869.37
239.901	18850.58
239.973	18826.53
240.044	18802.34
240.116	18782.58
240.188	18760.8
240.259	18735.5
240.331	18708.18
240.403	18683.79
240.474	18636.57
240.546	18596.43
240.618	18543.22
240.689	18520.04
240.761	18492.05
240.833	18475.57
240.904	18439.37
240.976	18398.89
241.048	18367.72
241.119	18347.28
241.191	18321.36
241.262	18292.06
241.334	18251.77
241.405	18224.11
241.477	18179.97
241.549	18138.23
241.62	18098.86
241.692	18069.42
241.763	18045.75
241.835	18011.39
241.906	17984.6
241.978	17938.92
242.049	17922.63
242.121	17897.9
242.192	17872.12
242.264	17825.76
242.335	17783.4
242.407	17764.61
242.478	17729.33
242.55	17699.74
242.621	17664.75
242.693	17625.43
242.764	17592.13
242.836	17554.2
242.907	17521.67
242.979	17496.8
243.05	17472.56
243.122	17452.18
243.193	17416.18
243.264	17359.26
243.336	17325.04
243.407	17303.45
243.479	17285.09
243.55	17259.84
243.622	17238.1
243.693	17210.73
243.764	17204.27
243.836	17163.16
243.907	17116.41
243.978	17082.87
244.05	17055.83
244.121	16996.46
244.192	16969.37
244.264	16923.35
244.335	16889.85
244.407	16848.5
244.478	16814.71
244.549	16782.52
244.62	16726.9
244.692	16697.79
244.763	16687.91
244.834	16648.82
244.906	16603.04
244.977	16576.15
245.048	16552.29
245.119	16513.59
245.191	16473.34
245.262	16413.72
245.333	16395.7
245.405	16364.66
245.476	16337.62
245.547	16300.56
245.618	16290.77
245.689	16264.36
245.761	16238
245.832	16207.44
245.903	16185.32
245.974	16157.02
246.045	16121.16
246.117	16115.14
246.188	16069.59
246.259	16012.23
246.33	15971.6
246.401	15939.16
246.473	15891.4
246.544	15848.5
246.615	15825.08
246.686	15782.37
246.757	15762.56
246.828	15721.5
246.899	15705.4
246.97	15663.17
247.042	15621.33
247.113	15585.71
247.184	15573.86
247.255	15533.27
247.326	15507.39
247.397	15476.01
247.468	15456.87
247.539	15426.07
247.61	15380.09
247.681	15354.01
247.752	15342.2
247.823	15311.55
247.894	15279.2
247.965	15240.93
248.037	15208.49
248.108	15155.76
248.179	15129.24
248.25	15098.54
248.321	15077.47
248.392	15032.31
248.463	15023.87
248.534	14992.44
248.605	14972.68
248.675	14936.77
248.746	14919.13
248.817	14895.89
248.888	14875.5
248.959	14822.82
249.03	14801.7
249.101	14780.01
249.172	14756.97
249.243	14704.81
249.314	14694.54
249.385	14670.39
249.456	14654.29
249.527	14623.97
249.598	14609.61
249.669	14582.85
249.739	14560.49
249.81	14530.74
249.881	14494.49
249.952	14468.75
250.023	14448.8
250.094	14411.44
250.165	14373.93
250.235	14343.95
250.306	14313.92
250.377	14277.48
250.448	14255.73
250.519	14209.26
250.59	14192.97
250.66	14159.61
250.731	14156.67
250.802	14124.42
250.873	14105.53
250.944	14082.87
251.014	14054.48
251.085	14051.1
251.156	14031.58
251.227	14022.32
251.297	14024.83
251.368	14017.21
251.439	14000.63
251.51	13985.59
251.58	13953.43
251.651	13923.84
251.722	13916.8
251.792	13879.73
251.863	13847.72
251.934	13842.66
252.005	13847.67
252.075	13823.33
252.146	13816.14
252.217	13803.08
252.287	13790.79
252.358	13765.57
252.429	13758.39
252.499	13727.11
252.57	13702.76
252.641	13692.78
252.711	13667.09
252.782	13617.19
252.852	13609.05
252.923	13582.68
252.994	13568.12
253.064	13552.79
253.135	13519.82
253.205	13479.66
253.276	13472.48
253.347	13458.16
253.417	13424.27
253.488	13391.4
253.558	13355.87
253.629	13328.05
253.699	13309.88
253.77	13299.37
253.841	13269.91
253.911	13251.26
253.982	13230.29
254.052	13214.14
254.123	13188.06
254.193	13162.51
254.264	13175.29
254.334	13136.53
254.405	13099.6
254.475	13067.35
254.546	13049.23
254.616	13045.71
254.687	13032.4
254.757	13013.26
254.827	12994.32
254.898	12977.54
254.968	12959.8
255.039	12932.13
255.109	12917.77
255.18	12885.13
255.25	12833.79
255.321	12824.49
255.391	12775.9
255.461	12774.84
255.532	12727.21
255.602	12703.4
255.673	12669.08
255.743	12639.67
255.813	12601.64
255.884	12589.54
255.954	12572.14
256.024	12569.92
256.095	12547.12
256.165	12509.9
256.235	12491.63
256.306	12466.23
256.376	12453.02
256.446	12439.91
256.517	12429.11
256.587	12419.62
256.657	12401.25
256.728	12384.38
256.798	12361.72
256.868	12349.05
256.938	12319.06
257.009	12304.99
257.079	12289.08
257.149	12293.23
257.219	12248.69
257.29	12235.24
257.36	12203.86
257.43	12190.99
257.5	12142.98
257.571	12115.02
257.641	12107.41
257.711	12072.12
257.781	12064.89
257.852	12044.98
257.922	12008.59
257.992	11982.47
258.062	11964.49
258.132	11955.43
258.202	11936.92
258.273	11922.84
258.343	11925.88
258.413	11907.23
258.483	11890.07
258.553	11861.29
258.623	11829.28
258.693	11817.81
258.764	11813.62
258.834	11803.5
258.904	11779.88
258.974	11763.54
259.044	11743.2
259.114	11727.25
259.184	11709.9
259.254	11677.31
259.324	11641.94
259.394	11624.44
259.464	11630.08
259.535	11601.16
259.605	11580.05
259.675	11548.82
259.745	11536.67
259.815	11493.49
259.885	11467.51
259.955	11484.62
260.025	11461.25
260.095	11441.34
260.165	11425.68
260.235	11423.22
260.305	11405.58
260.375	11379.17
260.445	11378.59
260.515	11384.37
260.585	11377.39
260.655	11366.35
260.725	11361.87
260.795	11350.64
260.865	11359.46
260.934	11331.02
261.004	11323.55
261.074	11306.15
261.144	11313.48
261.214	11297.91
261.284	11281.86
261.354	11275.36
261.424	11236.56
261.494	11236.8
261.564	11220.03
261.634	11215.69
261.703	11177.04
261.773	11164.27
261.843	11157.91
261.913	11143.6
261.983	11106.01
262.053	11101.72
262.123	11079.98
262.192	11049.43
262.262	11045.19
262.332	11010.93
262.402	10998.2
262.472	10975.8
262.541	10937.68
262.611	10933.44
262.681	10907.71
262.751	10902.36
262.821	10880.67
262.89	10859.37
262.96	10844.05
263.03	10852.24
263.1	10834.84
263.169	10823.33
263.239	10810.17
263.309	10813.31
263.379	10801.74
263.448	10785.26
263.518	10768.25
263.588	10753.6
263.657	10763.19
263.727	10758.23
263.797	10740.69
263.867	10726.23
263.936	10707.01
264.006	10703.64
264.076	10674.48
264.145	10658.1
264.215	10635.21
264.285	10636.27
264.354	10599.03
264.424	10582.17
264.494	10542.75
264.563	10520.92
264.633	10524.39
264.702	10508.45
264.772	10467.68
264.842	10442.05
264.911	10434.58
264.981	10400.61
265.05	10387.6
265.12	10364.43
265.19	10348.38
265.259	10344.19
265.329	10338.17
265.398	10323.67
265.468	10335.57
265.537	10317.21
265.607	10309.22
265.676	10306.37
265.746	10290.76
265.815	10285.95
265.885	10268.6
265.955	10250.78
266.024	10231.7
266.094	10196.63
266.163	10202.75
266.232	10206.12
266.302	10194.65
266.371	10185.79
266.441	10178.23
266.51	10176.49
266.58	10160.36
266.649	10136.12
266.719	10134.82
266.788	10122.25
266.858	10125.43
266.927	10091.8
266.996	10082.89
267.066	10072.53
267.135	10048.78
267.205	10041.27
267.274	10036.02
267.343	10032.5
267.413	10019.5
267.482	10022.63
267.552	10025.09
267.621	9993.87
267.69	9964.39
267.76	9953.6
267.829	9941.17
267.898	9924.94
267.968	9901.72
268.037	9898.78
268.106	9897.58
268.176	9865.11
268.245	9851.72
268.314	9833.71
268.384	9825.23
268.453	9816.9
268.522	9807.65
268.592	9806.83
268.661	9790.84
268.73	9780.34
268.799	9761.55
268.869	9768.68
268.938	9741.47
269.007	9721.82
269.076	9711.9
269.146	9709.92
269.215	9704.43
269.284	9716.86
269.353	9700.77
269.422	9687.29
269.492	9667.93
269.561	9629.88
269.63	9625.16
269.699	9603.78
269.768	9590.92
269.838	9592.65
269.907	9588.95
269.976	9564.38
270.045	9530.82
270.114	9528.37
270.183	9515.46
270.253	9509.97
270.322	9482.38
270.391	9469.37
270.46	9471.97
270.529	9467.3
270.598	9463.11
270.667	9449.82
270.736	9420.3
270.806	9421.31
270.875	9422.03
270.944	9411.29
271.013	9434.02
271.082	9426.32
271.151	9428.2
271.22	9400.32
271.289	9379.03
271.358	9365.89
271.427	9364.78
271.496	9363.29
271.565	9343.69
271.634	9339.16
271.703	9367.09
271.772	9370.71
271.841	9364.01
271.91	9341.29
271.979	9332.57
272.048	9307.1
272.117	9307.87
272.186	9287.84
272.255	9280.86
272.324	9282.16
272.393	9275.51
272.462	9253.07
272.531	9248.06
272.6	9235.5
272.669	9240.94
272.738	9232.51
272.807	9224.76
272.876	9199.05
272.945	9226.3
273.013	9229.92
273.082	9230.16
273.151	9180.94
273.22	9172.56
273.289	9164.33
273.358	9169.48
273.427	9161.15
273.496	9168.28
273.564	9160.19
273.633	9169.67
273.702	9156.34
273.771	9139.1
273.84	9134.67
273.909	9131.2
273.977	9131.01
274.046	9120.56
274.115	9126.29
274.184	9109.45
274.253	9101.26
274.322	9115.8
274.39	9078.97
274.459	9060.81
274.528	9031.5
274.597	9029.38
274.665	9026.15
274.734	9034.43
274.803	9026.88
274.872	9016
274.94	9003.14
275.009	9053.42
275.078	9038.16
275.147	9029.02
275.215	9030.94
275.284	9037.39
275.353	9028.25
275.421	9004.22
275.49	9018.43
275.559	8999.65
275.627	8992.58
275.696	8988.39
275.765	8983.19
275.833	8978.76
275.902	8971.25
275.971	8985.6
276.039	8990.84
276.108	8998.59
276.177	8989.98
276.245	8979
276.314	8975.73
276.383	8976.31
276.451	8919.28
276.52	8918.27
276.588	8929.92
276.657	8931.66
276.725	8924.19
276.794	8926.26
276.863	8932.09
276.931	8909.65
277	8924.58
277.068	8937.86
277.137	8954.86
277.205	8953.36
277.274	8973
277.342	8988.7
277.411	8970.17
277.48	8959.05
277.548	8944.75
277.617	8947.01
277.685	8947.01
277.754	8951.01
277.822	8944.94
277.89	8959.34
277.959	8959.96
278.027	8937.63
278.096	8927.13
278.164	8951.11
278.233	8948.51
278.301	8941.39
278.37	8942.16
278.438	8929.54
278.507	8928.24
278.575	8899.17
278.643	8894.74
278.712	8869.52
278.78	8848.29
278.849	8857.77
278.917	8868.6
278.985	8858.97
279.054	8857.58
279.122	8864.32
279.191	8862.15
279.259	8854.45
279.327	8826
279.396	8836.83
279.464	8838.23
279.532	8839
279.601	8834.66
279.669	8825.56
279.737	8830.67
279.806	8842.03
279.874	8839.33
279.942	8842.12
280.011	8830.05
280.079	8835.87
280.147	8852.43
280.215	8859.89
280.284	8855.41
280.352	8840.06
280.42	8854.74
280.488	8846.79
280.557	8835.24
280.625	8840.01
280.693	8841.26
280.761	8845.98
280.83	8826.38
280.898	8841.02
280.966	8825.52
281.034	8787.78
281.102	8773.53
281.171	8768.19
281.239	8767.71
281.307	8763.86
281.375	8748.7
281.443	8782.63
281.512	8784.46
281.58	8794.81
281.648	8783.93
281.716	8779.98
281.784	8776.13
281.852	8764.29
281.92	8765.88
281.989	8772.81
282.057	8749.47
282.125	8796.75
282.193	8790.06
282.261	8790.06
282.329	8771.57
282.397	8778.55
282.465	8785.68
282.533	8802.18
282.601	8798.67
282.67	8774.6
282.738	8771.43
282.806	8786.06
282.874	8775.08
282.942	8772.63
283.01	8766.22
283.078	8774.26
283.146	8775.27
283.214	8784.27
283.282	8785.81
283.35	8801.8
283.418	8800.16
283.486	8806.08
283.554	8760.82
283.622	8763.52
283.69	8760.29
283.758	8766.4
283.826	8768.47
283.894	8771.94
283.962	8789.56
284.03	8803.57
284.098	8810.69
284.165	8800.68
284.233	8795.09
284.301	8783.11
284.369	8770.98
284.437	8758.08
284.505	8754.52
284.573	8766.45
284.641	8758.03
284.709	8768.43
284.777	8740.03
284.845	8747.63
284.912	8752.54
284.98	8756.68
285.048	8753.8
285.116	8762.8
285.184	8776.13
285.252	8773.14
285.319	8762.36
285.387	8747.58
285.455	8729.78
285.523	8734.2
285.591	8734.4
285.659	8735.5
285.726	8750.04
285.794	8739.45
285.862	8736.32
285.93	8732.23
285.997	8731.75
286.065	8729.2
286.133	8722.94
286.201	8724.48
286.269	8708.69
286.336	8700.66
286.404	8696.81
286.472	8704.6
286.539	8680.93
286.607	8659.08
286.675	8661
286.743	8669.13
286.81	8665.91
286.878	8681.41
286.946	8667.98
287.013	8673.32
287.081	8675.2
287.149	8661.48
287.216	8677.8
287.284	8679.14
287.352	8678.33
287.419	8672.55
287.487	8686.22
287.555	8682.18
287.622	8680.39
287.69	8684.2
287.758	8703.26
287.825	8700.13
287.893	8685.02
287.96	8696.03
288.028	8716.63
288.096	8716.83
288.163	8715.62
288.231	8705.08
288.298	8701.04
288.366	8723.61
288.433	8718.46
288.501	8711.2
288.569	8714.08
288.636	8707.97
288.704	8714.13
288.771	8720.92
288.839	8707.25
288.906	8700.18
288.974	8711.44
289.041	8710.43
289.109	8703.45
289.176	8710.67
289.244	8712.45
289.311	8727.18
289.379	8736.08
289.446	8732.91
289.514	8731.17
289.581	8731.85
289.649	8734.88
289.716	8734.74
289.783	8722.41
289.851	8740.94
289.918	8739.79
289.986	8748.79
290.053	8755.04
290.121	8755.04
290.188	8758.37
290.255	8793.84
290.323	8788.11
290.39	8779.16
290.458	8786.67
290.525	8797.26
290.592	8783.97
290.66	8784.88
290.727	8775.79
290.794	8785.32
290.862	8783.54
290.929	8788.98
290.996	8794.56
291.064	8803.46
291.131	8816.41
291.198	8828.93
291.266	8830.76
291.333	8828.35
291.4	8834.03
291.468	8851.55
291.535	8849.34
291.602	8850.93
291.669	8837.64
291.737	8843.75
291.804	8849.29
291.871	8868.4
291.938	8881.88
292.006	8911.78
292.073	8923.28
292.14	8937.1
292.207	8931.42
292.275	8940.27
292.342	8949.8
292.409	8972.82
292.476	8998.67
292.543	8987.6
292.611	8987.55
292.678	9003.48
292.745	9034.82
292.812	9045.99
292.879	9046.14
292.946	9049.8
293.014	9061.97
293.081	9070.11
293.148	9086.86
293.215	9099.91
293.282	9091.2
293.349	9097.07
293.416	9082.24
293.484	9098.9
293.551	9110.74
293.618	9124.61
293.685	9149.55
293.752	9142.57
293.819	9135.06
293.886	9123.64
293.953	9134.24
294.02	9148.44
294.087	9153.88
294.154	9147.23
294.221	9166.98
294.288	9160.77
294.356	9177.33
294.423	9184.02
294.49	9179.3
294.557	9187.73
294.624	9178.39
294.691	9199.24
294.758	9202.12
294.825	9210.5
294.892	9202.94
294.959	9202.41
295.026	9214.21
295.093	9203.81
295.16	9204.48
295.226	9214.79
295.293	9239.68
295.36	9239.87
295.427	9249.65
295.494	9260.92
295.561	9262.36
295.628	9276.48
295.695	9299.92
295.762	9299.49
295.829	9314.03
295.896	9329.05
295.963	9338.35
296.03	9352.31
296.096	9358.76
296.163	9369.45
296.23	9377.54
296.297	9389.73
296.364	9391.75
296.431	9398.97
296.498	9396.13
296.564	9425.21
296.631	9421.26
296.698	9404.31
296.765	9433.59
296.832	9425.36
296.899	9412.69
296.965	9433.73
297.032	9414.23
297.099	9431.61
297.166	9442.59
297.233	9441.2
297.299	9436.77
297.366	9439.46
297.433	9442.64
297.5	9447.7
297.566	9445.87
297.633	9447.17
297.7	9451.93
297.767	9450.63
297.833	9456.17
297.9	9457.47
297.967	9442.98
298.033	9457.91
298.1	9494.65
298.167	9477.03
298.234	9482.71
298.3	9488.68
298.367	9483.58
298.434	9492.25
298.5	9478.86
298.567	9476.98
298.634	9470.67
298.7	9489.11
298.767	9493.69
298.834	9502.84
298.9	9493.93
298.967	9487.43
299.033	9496.39
299.1	9515.22
299.167	9525.86
299.233	9515.94
299.3	9534
299.366	9550.8
299.433	9566.99
299.5	9535.78
299.566	9545.94
299.633	9562.84
299.699	9575.84
299.766	9573.87
299.832	9578.2
299.899	9587.21
299.965	9601.76
300.032	9598.19
300.099	9609.08
300.165	9604.65
300.232	9600.22
300.298	9609.75
300.365	9622.27
300.431	9624.39
300.498	9614.76
300.564	9622.85
300.631	9637.87
300.697	9648.18
300.763	9643.7
300.83	9640.62
300.896	9656.03
300.963	9668.55
301.029	9666.67
301.096	9670.38
301.162	9679.82
301.229	9671.01
301.295	9657.52
301.361	9661.13
301.428	9667.49
301.494	9641.44
301.561	9647.17
301.627	9655.07
301.693	9657.04
301.76	9663.83
301.826	9660.03
301.892	9671.59
301.959	9677.75
302.025	9675.05
302.092	9668.36
302.158	9675.92
302.224	9679.24
302.291	9670.29
302.357	9660.99
302.423	9654.92
302.49	9644.33
302.556	9660.22
302.622	9663.26
302.688	9676.4
302.755	9688.25
302.821	9699.28
302.887	9718.93
302.954	9722.3
303.02	9721.82
303.086	9734.49
303.152	9727.55
303.219	9730.59
303.285	9728.56
303.351	9739.45
303.417	9738.53
303.483	9731.55
303.55	9728.27
303.616	9727.21
303.682	9727.17
303.748	9720.28
303.815	9738.1
303.881	9749.52
303.947	9737.28
304.013	9740.07
304.079	9732.27
304.145	9709.78
304.212	9706.89
304.278	9702.03
304.344	9698.89
304.41	9693.74
304.476	9679.29
304.542	9674.77
304.608	9673.03
304.674	9657.33
304.741	9650.2
304.807	9655.98
304.873	9662.34
304.939	9679.63
305.005	9655.31
305.071	9645.53
305.137	9643.85
305.203	9616.73
305.269	9615.48
305.335	9624.29
305.401	9622.46
305.467	9619.19
305.533	9625.4
305.599	9634.89
305.666	9636.72
305.732	9631.66
305.798	9643.32
305.864	9667.02
305.93	9677.8
305.996	9680.4
306.062	9684.59
306.128	9682.47
306.194	9667.4
306.259	9664.94
306.325	9653.19
306.391	9666.34
306.457	9681.03
306.523	9690.75
306.589	9714.98
306.655	9708.82
306.721	9689.12
306.787	9673.47
306.853	9685.94
306.919	9672.79
306.985	9663.35
307.051	9654.15
307.117	9646.06
307.183	9638.31
307.248	9602.04
307.314	9600.02
307.38	9600.16
307.446	9603.39
307.512	9587.07
307.578	9588.17
307.644	9579.21
307.709	9579.6
307.775	9577.58
307.841	9574.25
307.907	9568.86
307.973	9551.43
308.039	9556.05
308.104	9562.16
308.17	9566.26
308.236	9553.35
308.302	9556.1
308.368	9535.97
308.433	9544.63
308.499	9540.49
308.565	9527.92
308.631	9539.92
308.696	9517.14
308.762	9503.17
308.828	9495.9
308.894	9480.59
308.959	9466.14
309.025	9461.28
309.091	9456.17
309.156	9443.27
309.222	9443.32
309.288	9433.88
309.354	9411.63
309.419	9399.21
309.485	9381.34
309.551	9381.53
309.616	9364.92
309.682	9365.16
309.748	9363.43
309.813	9354.47
309.879	9345.56
309.945	9336.99
310.01	9326.78
310.076	9331.36
310.141	9321.68
310.207	9311.08
310.273	9316.77
310.338	9326.16
310.404	9313.11
310.469	9298.76
310.535	9291.58
310.601	9269.91
310.666	9274.15
310.732	9283.11
310.797	9270.39
310.863	9262.5
310.928	9254.36
310.994	9256.19
311.059	9254.36
311.125	9250.99
311.191	9260.04
311.256	9244.64
311.322	9251.81
311.387	9232.27
311.453	9597.83
311.518	9575.54
311.584	9576.31
311.649	9581.27
311.715	9567.59
311.78	9564.47
311.846	9561.72
311.911	9567.88
311.976	9567.02
312.042	9549.11
312.107	9534.42
312.173	9529.41
312.238	9525.47
312.304	9526.38
312.369	9521.47
312.434	9504.96
312.5	9497.69
312.565	9465.09
312.631	9476.21
312.696	9464.94
312.761	9466.48
312.827	9087.25
312.892	9123.55
312.958	9118.59
313.023	9108.43
313.088	9104.29
313.154	9089.7
313.219	9076.03
313.284	9059.95
313.35	9057.11
313.415	9051.76
313.48	9044.45
313.546	9052.34
313.611	9064.52
313.676	9053.55
313.741	9042.28
313.807	9050.08
313.872	9057.45
313.937	9063.75
314.003	9074.63
314.068	9075.45
314.133	9078.49
314.198	9068.47
314.264	9050.51
314.329	9031.83
314.394	9030.73
314.459	9029.72
314.525	9049.5
314.59	9044.88
314.655	9041.41
314.72	9048.83
314.785	9046.66
314.851	9043.44
314.916	9019.46
314.981	8997.27
315.046	8984.27
315.111	8974.89
315.176	8958.42
315.242	8957.31
315.307	8952.16
315.372	8936.52
315.437	8922.51
315.502	8915.53
315.567	8927.18
315.632	8911.48
315.698	8915.43
315.763	8905.61
315.828	8896.22
315.893	8891.89
315.958	8884.52
316.023	8871.82
316.088	8851.26
316.153	8826.91
316.218	8821.9
316.283	8801.55
316.348	8791.2
316.413	8791.39
316.479	8773.83
316.544	8748.66
316.609	8719.15
316.674	8679.64
316.739	8640.28
316.804	8614.39
316.869	8580.75
316.934	8544.27
316.999	8516.79
317.064	8465.93
317.129	8423.88
317.194	8385.14
317.259	8332.16
317.324	8282.75
317.389	8238.78
317.454	8196.3
317.518	8170.56
317.583	8145.2
317.648	8120.38
317.713	8078.87
317.778	8018.4
317.843	7996.61
317.908	7952.17
317.973	7915.13
318.038	7890.36
318.103	7857.9
318.168	7825.77
318.233	7792.59
318.297	7742.87
318.362	7695.79
318.427	7655.03
318.492	7635.41
318.557	7584.84
318.622	7562.04
318.687	7545.99
318.751	7509.17
318.816	7480.08
318.881	7442.78
318.946	7387.21
319.011	7343.9
319.075	7307.75
319.14	7270.22
319.205	7223.79
319.27	7190.4
319.335	7139.22
319.399	7099.38
319.464	7065.12
319.529	7007.62
319.594	6963.22
319.658	6930.17
319.723	6890.78
319.788	6864.85
319.853	6809.31
319.917	6783.81
319.982	6725.92
320.047	6679.57
320.112	6646.58
320.176	6596.82
320.241	6562.1
320.306	6529.93
320.37	6490.94
320.435	6455.6
320.5	6431.93
320.564	6391.8
320.629	6353.97
320.694	6326.23
320.758	6285.05
320.823	6240.99
320.888	6216.42
320.952	6174.67
321.017	6133.07
321.082	6094.69
321.146	6057.98
321.211	6017.92
321.275	5977
321.34	5937.14
321.405	5894.17
321.469	5852.58
321.534	5805.87
321.598	5750.87
321.663	5717.48
321.727	5684.83
321.792	5632.37
321.857	5589.11
321.921	5548.74
321.986	5503.64
322.05	5443.78
322.115	5406.34
322.179	5362.45
322.244	5307.05
322.308	5273.6
322.373	5231.82
322.437	5192.68
322.502	5170.3
322.566	5131.39
322.631	5095.47
322.695	5051.84
322.76	5007.06
322.824	4970.04
322.889	4931.26
322.953	4890.72
323.018	4825.32
323.082	4763.04
323.146	4715.24
323.211	4658.08
323.275	4612.42
323.34	4567.73
323.404	4532.62
323.468	4485.72
323.533	4447.12
323.597	4401.64
323.662	4346.06
323.726	4311.23
323.79	4265.89
323.855	4201.54
323.919	4148.8
323.983	4099.17
324.048	4037.01
324.112	4175.2
324.177	4043.63
324.241	3833.18
324.305	3628.71
324.37	3428.35
324.434	3233.3
324.498	3191.06
324.562	3140.67
324.627	3079.56
324.691	3022.3
324.755	2959.39
324.82	2881.74
324.884	2799.37
324.948	2726.4
325.012	2634.17
325.077	2502.54
