Data from 20250702_urea_0.5M_MAYP1162681_09-24-59-941.txt Node
Date: Thu Jul 03 09:24:59 BST 2025
User: adleo
Spectrometer: MAYP116268
Trigger mode: 0
Integration Time (sec): 1.000000E0
Scans to average: 1
Electric dark correction enabled: true
Nonlinearity correction enabled: true
Boxcar width: 10
XAxis mode: Wavelengths
Number of Pixels in Spectrum: 2068
>>>>>Begin Spectral Data<<<<<
179.565	1172.79
179.642	1227.44
179.718	1268.92
179.795	1309.54
179.871	1341.42
179.948	1358.71
180.024	1380.95
180.101	1404.44
180.177	1417.89
180.254	1442.27
180.33	1465.99
180.407	1518.35
180.483	1610.85
180.56	1697.89
180.636	1779.69
180.712	1768.47
180.789	1778.21
180.865	1790.23
180.942	1798.07
181.018	1809.81
181.095	1823.17
181.171	1830.16
181.248	1832.72
181.324	1848.22
181.4	1852.69
181.477	1865.95
181.553	1879.78
181.63	1899.47
181.706	1914.78
181.782	1922.9
181.859	1921.24
181.935	1923.57
182.011	1916.91
182.088	1933.79
182.164	1954.2
182.24	1969.07
182.317	1977.87
182.393	1975.97
182.469	1988.14
182.546	1999.31
182.622	2003.45
182.698	1998.84
182.775	2009.58
182.851	2023.13
182.927	2016.67
183.003	2011.58
183.08	2004.12
183.156	2010.39
183.232	2005.78
183.308	1995.46
183.385	2004.63
183.461	2020.52
183.537	2022.71
183.613	2039.68
183.69	2033.5
183.766	2020.04
183.842	2026.32
183.918	2032.74
183.995	2047.81
184.071	2054.38
184.147	2052.43
184.223	2039.21
184.299	2052.1
184.375	2044.83
184.452	2051.77
184.528	2098.24
184.604	2110.13
184.68	2124.11
184.756	2132.39
184.832	2139.09
184.908	2144.04
184.985	2142.71
185.061	2130.25
185.137	2141.19
185.213	2127.4
185.289	2126.06
185.365	2122.12
185.441	2119.17
185.517	2132.06
185.593	2127.4
185.669	2122.98
185.745	2129.21
185.822	2149.94
185.898	2140.57
185.974	2146.32
186.05	2140.13
186.126	2108.08
186.202	2102.09
186.278	2095.19
186.354	2088.39
186.43	2094.24
186.506	2092.39
186.582	2094.81
186.658	2099.99
186.734	2079.16
186.81	2082.3
186.886	2086.39
186.962	2097.76
187.038	2094.67
187.114	2087.48
187.19	2093.28
187.266	2083.63
187.341	2086.63
187.417	2078.88
187.493	2080.83
187.569	2085.44
187.645	2075.69
187.721	2064.37
187.797	2071.83
187.873	2075.88
187.949	2068.98
188.025	2062.32
188.101	2064.93
188.176	2066.98
188.252	2062.32
188.328	2070.35
188.404	2069.36
188.48	2063.13
188.556	2057.89
188.632	2056.99
188.707	2053.8
188.783	2052.71
188.859	2047.62
188.935	2034.92
189.011	2038.96
189.086	2031.93
189.162	2022.03
189.238	2020.51
189.314	2018.23
189.39	2012.67
189.465	2006.2
189.541	2022.51
189.617	2005.3
189.693	2000.83
189.768	2003.4
189.844	2028.28
189.92	2020.01
189.996	2029.05
190.071	2038.75
190.147	2037.08
190.223	2047.45
190.298	2042.6
190.374	2029.85
190.45	2041.55
190.526	2052.35
190.601	2048.45
190.677	2052.54
190.753	2083.09
190.828	2086.56
190.904	2103.12
190.98	2116.01
191.055	2126.23
191.131	2117.67
191.207	2141.31
191.282	2149.44
191.358	2142.16
191.433	2125.55
191.509	2137.3
191.585	2136.39
191.66	2140.96
191.736	2147.38
191.811	2139.63
191.887	2154.19
191.963	2176.55
192.038	2182.11
192.114	2182.11
192.189	2190.01
192.265	2185.06
192.34	2161.07
192.416	2160.79
192.491	2155.41
192.567	2159.88
192.642	2164.07
192.718	2162.45
192.793	2149.89
192.869	2146.71
192.944	2149.32
193.02	2159.84
193.095	2163.88
193.171	2166.59
193.246	2166.59
193.322	2164.93
193.397	2163.31
193.473	2150.94
193.548	2131.24
193.624	2136.48
193.699	2136.62
193.775	2149.99
193.85	2150.71
193.925	2156.18
194.001	2155.08
194.076	2149.04
194.152	2139.14
194.227	2131.44
194.302	2122.07
194.378	2126.26
194.453	2125.64
194.529	2138.15
194.604	2120.36
194.679	2115.84
194.755	2098.05
194.83	2107.72
194.905	2105.05
194.981	2114.9
195.056	2106.48
195.131	2116.76
195.207	2114.66
195.282	2104.1
195.357	2085.54
195.433	2101.81
195.508	2094.58
195.583	2101.48
195.659	2113.94
195.734	2119.08
195.809	2119.89
195.884	2131.4
195.96	2131.4
196.035	2145.86
196.11	2140.86
196.185	2152.99
196.261	2155.32
196.336	2190.53
196.411	2176.92
196.486	2182.29
196.561	2178.2
196.637	2187.95
196.712	2200.33
196.787	2204.23
196.862	2218.59
196.937	2226.68
197.013	2230.11
197.088	2238.39
197.163	2258.85
197.238	2272.18
197.313	2274.56
197.388	2286.08
197.464	2317.17
197.539	2325.78
197.614	2317.07
197.689	2329.78
197.764	2345.73
197.839	2364.86
197.914	2355.82
197.989	2376.47
198.065	2390.32
198.14	2438.34
198.215	2464.14
198.29	2474.52
198.365	2488.24
198.44	2499.14
198.515	2526.23
198.59	2543.52
198.665	2570.66
198.74	2579.86
198.815	2585.95
198.89	2606.34
198.965	2633.73
199.04	2626.77
199.115	2644.68
199.19	2685.88
199.265	2687.64
199.34	2698.93
199.415	2732.1
199.49	2751.44
199.565	2762.39
199.64	2785.26
199.715	2779.21
199.79	2787.35
199.865	2794.64
199.94	2793.74
200.015	2823.19
200.09	2828.86
200.165	2831.39
200.24	2836.96
200.315	2875.98
200.39	2890.28
200.464	2899.29
200.539	2898.76
200.614	2915.2
200.689	2938.47
200.764	2945.76
200.839	2964.92
200.914	2967.92
200.989	2959.19
201.063	2974.45
201.138	2957.73
201.213	2959.82
201.288	2943
201.363	2948.82
201.438	2951.25
201.512	2967.07
201.587	2951.91
201.662	2956.91
201.737	2972.02
201.812	2981.13
201.886	2947.69
201.961	2955.65
202.036	2941.6
202.111	2941.74
202.186	2913.11
202.26	2895.23
202.335	2872.59
202.41	2863.29
202.485	2848.05
202.559	2828.84
202.634	2802.54
202.709	2811.16
202.784	2792.81
202.858	2794.62
202.933	2774.89
203.008	2766.55
203.082	2746.02
203.157	2747.45
203.232	2706.44
203.306	2685.23
203.381	2650.59
203.456	2629.68
203.53	2607.51
203.605	2588.7
203.68	2568.21
203.754	2561.22
203.829	2546.17
203.904	2525.83
203.978	2516.31
204.053	2522.07
204.127	2507.31
204.202	2506.79
204.277	2489.27
204.351	2481.31
204.426	2472.31
204.5	2465.12
204.575	2433.37
204.65	2445.09
204.724	2434.47
204.799	2441.7
204.873	2438.79
204.948	2440.08
205.022	2429.42
205.097	2420.03
205.171	2435.41
205.246	2443.32
205.32	2442.7
205.395	2444.32
205.469	2435.94
205.544	2440.94
205.618	2423.28
205.693	2437.32
205.767	2425.09
205.842	2446.76
205.916	2439.09
205.991	2430.38
206.065	2435.62
206.14	2448.22
206.214	2438.55
206.289	2433.22
206.363	2444.93
206.438	2445.98
206.512	2452.6
206.586	2471.31
206.661	2481.12
206.735	2458.7
206.81	2455.32
206.884	2470.27
206.958	2457.22
207.033	2479.55
207.107	2489.27
207.181	2522.8
207.256	2517.56
207.33	2536.42
207.405	2548.86
207.479	2572.95
207.553	2581.47
207.628	2567.57
207.702	2583.05
207.776	2582.81
207.851	2587.19
207.925	2606.11
207.999	2606.97
208.073	2608.63
208.148	2611.97
208.222	2603.82
208.296	2639.05
208.371	2659.31
208.445	2674.08
208.519	2710.9
208.593	2724.33
208.668	2725.67
208.742	2731.06
208.816	2738.25
208.89	2762.37
208.965	2772.24
209.039	2786.87
209.113	2811.46
209.187	2842.56
209.261	2850.71
209.336	2880.54
209.41	2914.34
209.484	2928.41
209.558	2962.36
209.632	2990.43
209.707	3019.32
209.781	3060.42
209.855	3092.33
209.929	3127.46
210.003	3155.17
210.077	3171.63
210.151	3241.58
210.226	3300.29
210.3	3352.91
210.374	3406.15
210.448	3437.28
210.522	3471.36
210.596	3511.85
210.67	3555.62
210.744	3634.76
210.818	3697.48
210.892	3754.6
210.966	3780.15
211.041	3830.26
211.115	3865.89
211.189	3927.13
211.263	3982.12
211.337	4028
211.411	4083.73
211.485	4125.91
211.559	4181.82
211.633	4230.51
211.707	4244.1
211.781	4292.57
211.855	4304.34
211.929	4343.83
212.003	4371.46
212.077	4437.11
212.151	4500.18
212.225	4560.1
212.299	4600.75
212.373	4647.55
212.447	4699.46
212.52	4785.91
212.594	4844.08
212.668	4914.55
212.742	4964.7
212.816	5022.31
212.89	5078.11
212.964	5143.86
213.038	5214.84
213.112	5293.05
213.186	5372.92
213.26	5414.59
213.333	5441.38
213.407	5513.97
213.481	5584.74
213.555	5665.33
213.629	5719.15
213.703	5775.07
213.777	5844.58
213.85	5901.29
213.924	6005.85
213.998	6076.59
214.072	6140.81
214.146	6199.64
214.219	6270.44
214.293	6335.8
214.367	6407.18
214.441	6487.4
214.515	6544.16
214.588	6588.92
214.662	6623.54
214.736	6672.85
214.81	6755.22
214.883	6832.42
214.957	6891.77
215.031	6944.31
215.105	6995.06
215.178	7053.49
215.252	7108.88
215.326	7153.72
215.4	7197.01
215.473	7219.7
215.547	7268.11
215.621	7319.4
215.694	7394.93
215.768	7429.97
215.842	7479.53
215.915	7528.19
215.989	7569.78
216.063	7621.19
216.136	7685.2
216.21	7751.21
216.284	7821.71
216.357	7894.29
216.431	7957.34
216.504	8030.89
216.578	8123.73
216.652	8200.35
216.725	8260.68
216.799	8335.06
216.873	8402.28
216.946	8476.95
217.02	8531.27
217.093	8588.68
217.167	8636.9
217.24	8686.53
217.314	8750.72
217.387	8809.77
217.461	8868.78
217.535	8943.2
217.608	9001.97
217.682	9059.41
217.755	9133.36
217.829	9189.06
217.902	9240.97
217.976	9302.02
218.049	9353.01
218.123	9398.76
218.196	9468.11
218.27	9520.55
218.343	9572.52
218.417	9636.48
218.49	9694.8
218.563	9770.56
218.637	9841.22
218.71	9924.41
218.784	9988.57
218.857	10056.05
218.931	10123.97
219.004	10191.74
219.077	10257.85
219.151	10320.09
219.224	10379.01
219.298	10434.42
219.371	10508.66
219.444	10561.95
219.518	10628.3
219.591	10691.61
219.665	10774.73
219.738	10836.65
219.811	10898.13
219.885	10966.76
219.958	11023.38
220.031	11083.42
220.105	11145.2
220.178	11203.71
220.251	11255.76
220.325	11322.7
220.398	11390.9
220.471	11459.33
220.544	11531.43
220.618	11586.48
220.691	11646.77
220.764	11710.15
220.838	11778.74
220.911	11824.91
220.984	11910.66
221.057	11973.8
221.131	12041.52
221.204	12070.88
221.277	12146.36
221.35	12232.89
221.424	12287.16
221.497	12355.71
221.57	12419.14
221.643	12487.74
221.716	12557.05
221.79	12611.43
221.863	12665.56
221.936	12728.66
222.009	12780.87
222.082	12838.47
222.155	12890.44
222.229	12968.58
222.302	13034.43
222.375	13082.15
222.448	13158.03
222.521	13207.05
222.594	13256.23
222.667	13297.59
222.74	13368.64
222.814	13418.58
222.887	13468.67
222.96	13541.56
223.033	13600.42
223.106	13659.47
223.179	13717.75
223.252	13771.79
223.325	13831.86
223.398	13891.34
223.471	13937.77
223.544	13994.51
223.617	14051.2
223.69	14105.96
223.763	14139.51
223.837	14194.32
223.91	14262.48
223.983	14288.95
224.056	14324.47
224.129	14377.79
224.202	14440.26
224.275	14480.71
224.348	14513.1
224.42	14558.03
224.493	14578.47
224.566	14625.66
224.639	14671.98
224.712	14710.74
224.785	14747.91
224.858	14782.08
224.931	14809.41
225.004	14853.95
225.077	14900.47
225.15	14916.38
225.223	14959.33
225.296	15031.15
225.369	15058.24
225.442	15085.04
225.514	15134.26
225.587	15193.83
225.66	15242.66
225.733	15289.71
225.806	15335.02
225.879	15377.05
225.952	15404.19
226.025	15471.14
226.097	15522.52
226.17	15561.56
226.243	15582.15
226.316	15622.73
226.389	15674.21
226.461	15726.6
226.534	15760.68
226.607	15790.47
226.68	15853.03
226.753	15887.54
226.825	15893.09
226.898	15940.71
226.971	15984.23
227.044	16033.68
227.117	16062.36
227.189	16098.75
227.262	16140.83
227.335	16181.27
227.407	16212.02
227.48	16250.77
227.553	16283.35
227.626	16305.13
227.698	16343.98
227.771	16384.66
227.844	16411.6
227.916	16446.88
227.989	16466.88
228.062	16500.24
228.134	16563.62
228.207	16592.29
228.28	16627.96
228.352	16667
228.425	16704.54
228.498	16743.96
228.57	16771.05
228.643	16817.03
228.716	16845.7
228.788	16867.92
228.861	16896.69
228.934	16940.02
229.006	16968.65
229.079	16992.8
229.151	17012.55
229.224	17027.21
229.296	17065.62
229.369	17121.47
229.442	17164.7
229.514	17191.93
229.587	17242.68
229.659	17251.98
229.732	17283.31
229.804	17322.68
229.877	17378.83
229.949	17422.05
230.022	17469.04
230.094	17484.03
230.167	17510.44
230.239	17536.32
230.312	17564.9
230.384	17622.34
230.457	17652.51
230.529	17691.06
230.602	17716.85
230.674	17761.23
230.747	17794.92
230.819	17834.72
230.892	17829.71
230.964	17845.13
231.037	17874.63
231.109	17887.4
231.181	17922.14
231.254	17934.67
231.326	17952.02
231.399	17964.55
231.471	17971.59
231.544	17972.74
231.616	18020.26
231.688	18037.51
231.761	18048.98
231.833	18062.48
231.905	18054.38
231.978	18077.46
232.05	18085.9
232.122	18109.66
232.195	18115.49
232.267	18148.69
232.339	18154.04
232.412	18186.18
232.484	18204.5
232.556	18217.7
232.629	18261.75
232.701	18285.26
232.773	18301.6
232.846	18308.63
232.918	18317.84
232.99	18336.92
233.062	18351.09
233.135	18350.37
233.207	18350.99
233.279	18370.7
233.351	18389.69
233.424	18387.14
233.496	18381.4
233.568	18410.89
233.64	18406.51
233.713	18417.79
233.785	18425.35
233.857	18436.15
233.929	18431.23
234.001	18448.43
234.074	18470.94
234.146	18447.57
234.218	18441.01
234.29	18441.59
234.362	18451.76
234.434	18438.46
234.507	18426.6
234.579	18410.22
234.651	18414.56
234.723	18432.48
234.795	18445.54
234.867	18451.71
234.939	18478.31
235.012	18481.54
235.084	18486.46
235.156	18497.11
235.228	18492.58
235.3	18478.17
235.372	18475.18
235.444	18492.53
235.516	18466.89
235.588	18458.7
235.66	18462.65
235.732	18451.28
235.804	18511.76
235.876	18513.92
235.948	18526.65
236.02	18529.2
236.092	18532.96
236.164	18529.59
236.236	18515.27
236.308	18493.06
236.38	18481.83
236.452	18464.24
236.524	18467.76
236.596	18470.41
236.668	18464.34
236.74	18452.53
236.812	18454.07
236.884	18452.68
236.956	18446.46
237.028	18434.99
237.1	18419.81
237.172	18423.57
237.244	18434.75
237.316	18380.87
237.388	18367.81
237.46	18355.43
237.532	18346.46
237.604	18322.8
237.675	18320.59
237.747	18323.38
237.819	18306.37
237.891	18299.67
237.963	18269.02
238.035	18248.01
238.107	18195.39
238.178	18202.52
238.25	18187.19
238.322	18197.89
238.394	18170.71
238.466	18142.71
238.538	18138.57
238.609	18127.97
238.681	18089.41
238.753	18057.9
238.825	18054.19
238.897	18032.6
238.968	18032.74
239.04	18015.88
239.112	18028.31
239.184	17999.49
239.255	17969.61
239.327	17954.43
239.399	17937.57
239.471	17936.99
239.542	17922.67
239.614	17924.84
239.686	17867.11
239.758	17855.3
239.829	17817.95
239.901	17802.82
239.973	17779.88
240.044	17756.65
240.116	17736.41
240.188	17714.05
240.259	17694.1
240.331	17658.39
240.403	17643.16
240.474	17602.97
240.546	17568.61
240.618	17521.62
240.689	17494.44
240.761	17476.61
240.833	17471.07
240.904	17443.41
240.976	17410.06
241.048	17383.31
241.119	17367.36
241.191	17353.86
241.262	17349.43
241.334	17321.48
241.405	17303.94
241.477	17281.53
241.549	17261.57
241.62	17238.54
241.692	17221.62
241.763	17209.14
241.835	17183.69
241.906	17158.1
241.978	17120.13
242.049	17103.45
242.121	17092.27
242.192	17078.68
242.264	17036.51
242.335	16991.78
242.407	16968.89
242.478	16945.32
242.55	16930.96
242.621	16898.04
242.693	16867.39
242.764	16834.72
242.836	16803.1
242.907	16773.03
242.979	16749.75
243.05	16719.39
243.122	16696.2
243.193	16674.66
243.264	16625.6
243.336	16601.35
243.407	16580.24
243.479	16568.15
243.55	16555.47
243.622	16533.11
243.693	16502.12
243.764	16498.89
243.836	16475.9
243.907	16444.23
243.978	16411.27
244.05	16383.46
244.121	16329.28
244.192	16315.98
244.264	16273.66
244.335	16251.2
244.407	16211.25
244.478	16176.93
244.549	16145.6
244.62	16107.62
244.692	16072.72
244.763	16059.76
244.834	16016.81
244.906	15983.56
244.977	15958.69
245.048	15944.37
245.119	15904.66
245.191	15862.67
245.262	15806.62
245.333	15786.23
245.405	15757.26
245.476	15738.56
245.547	15714.41
245.618	15703.23
245.689	15671.03
245.761	15640.47
245.832	15615.7
245.903	15593.91
245.974	15577.33
246.045	15548.99
246.117	15543.64
246.188	15503.48
246.259	15451.86
246.33	15428.67
246.401	15394.11
246.473	15352.66
246.544	15303.83
246.615	15290.14
246.686	15261.7
246.757	15254.96
246.828	15216.15
246.899	15199.28
246.97	15153.54
247.042	15112.08
247.113	15098.73
247.184	15080.7
247.255	15057.42
247.326	15021.51
247.397	14992.3
247.468	14959.71
247.539	14935.03
247.61	14885
247.681	14866.68
247.752	14862.2
247.823	14812.11
247.894	14786.66
247.965	14747.76
248.037	14716.91
248.108	14670.35
248.179	14644.84
248.25	14607.25
248.321	14588.93
248.392	14547.91
248.463	14546.51
248.534	14512.91
248.605	14482.78
248.675	14458.05
248.746	14431.01
248.817	14414.86
248.888	14388.54
248.959	14338.26
249.03	14309.68
249.101	14279.55
249.172	14249.66
249.243	14194.51
249.314	14193.55
249.385	14165.44
249.456	14146.89
249.527	14122.59
249.598	14097.57
249.669	14066.62
249.739	14047.05
249.81	14022.27
249.881	13990.99
249.952	13962.4
250.023	13944.27
250.094	13904.02
250.165	13871.82
250.235	13843.33
250.306	13814.07
250.377	13785.68
250.448	13778.16
250.519	13735.88
250.59	13730.91
250.66	13704.16
250.731	13703.73
250.802	13682.9
250.873	13666.8
250.944	13651.18
251.014	13618.69
251.085	13619.32
251.156	13606.25
251.227	13592.66
251.297	13578.34
251.368	13563.01
251.439	13541.7
251.51	13521.94
251.58	13494.46
251.651	13453.44
251.722	13437.05
251.792	13393.37
251.863	13367.68
251.934	13352.49
252.005	13360.21
252.075	13331.72
252.146	13318.6
252.217	13299.51
252.287	13274.93
252.358	13247.55
252.429	13240.6
252.499	13206.96
252.57	13179.77
252.641	13160.2
252.711	13134.79
252.782	13097.05
252.852	13093.77
252.923	13071.26
252.994	13050.19
253.064	13034.86
253.135	13011.58
253.205	12982.12
253.276	12976.63
253.347	12967.23
253.417	12935.41
253.488	12907.02
253.558	12882.1
253.629	12858.33
253.699	12845.17
253.77	12832.93
253.841	12800.29
253.911	12777.49
253.982	12763.32
254.052	12758.54
254.123	12744.95
254.193	12713.28
254.264	12732.37
254.334	12695.73
254.405	12660.25
254.475	12622.85
254.546	12596.53
254.616	12595.81
254.687	12588
254.757	12573.34
254.827	12543.89
254.898	12529.77
254.968	12508.41
255.039	12477.75
255.109	12465.75
255.18	12430.42
255.25	12383.76
255.321	12381.25
255.391	12342.83
255.461	12344.47
255.532	12292.12
255.602	12263.68
255.673	12229.94
255.743	12197.21
255.813	12151.95
255.884	12150.02
255.954	12147.9
256.024	12147.41
256.095	12118.59
256.165	12085.91
256.235	12068.46
256.306	12042.77
256.376	12029.99
256.446	12017.85
256.517	12006.13
256.587	11989.17
256.657	11971.91
256.728	11963.09
256.798	11938.6
256.868	11916.87
256.938	11885.68
257.009	11880.81
257.079	11873.87
257.149	11877.1
257.219	11833.72
257.29	11833.43
257.36	11794.73
257.43	11780.31
257.5	11740.16
257.571	11716.79
257.641	11702.18
257.711	11671.29
257.781	11663.82
257.852	11657.17
257.922	11621.31
257.992	11602.85
258.062	11585.98
258.132	11580.19
258.202	11550.26
258.273	11533.49
258.343	11533.83
258.413	11510.6
258.483	11488.86
258.553	11450.26
258.623	11426.11
258.693	11413.24
258.764	11406.01
258.834	11398.83
258.904	11384.23
258.974	11360.9
259.044	11342.44
259.114	11335.6
259.184	11322.88
259.254	11303.79
259.324	11255.02
259.394	11237.28
259.464	11232.37
259.535	11208.22
259.605	11176.9
259.675	11154.83
259.745	11139.89
259.815	11108.61
259.885	11085.91
259.955	11095.31
260.025	11076.18
260.095	11059.94
260.165	11052.32
260.235	11046.98
260.305	11018.69
260.375	10985.97
260.445	10990.3
260.515	10988.33
260.585	10975.6
260.655	10958.4
260.725	10952.18
260.795	10949.2
260.865	10955.32
260.934	10933.92
261.004	10928.19
261.074	10914.02
261.144	10915.66
261.214	10913.58
261.284	10891.76
261.354	10885.3
261.424	10855.52
261.494	10858.41
261.564	10838.27
261.634	10828.24
261.703	10788.44
261.773	10785.45
261.843	10777.21
261.913	10759.05
261.983	10728.83
262.053	10720.74
262.123	10701.42
262.192	10670.24
262.262	10662.68
262.332	10632.8
262.402	10622.25
262.472	10610.3
262.541	10573.35
262.611	10566.99
262.681	10537.45
262.751	10534.7
262.821	10516.44
262.89	10493.75
262.96	10477.12
263.03	10491.44
263.1	10473.9
263.169	10464.94
263.239	10453.61
263.309	10461.23
263.379	10452.12
263.448	10433.28
263.518	10416.13
263.588	10402.21
263.657	10404.52
263.727	10398.64
263.797	10388.43
263.867	10370.17
263.936	10334.61
264.006	10338.22
264.076	10319.29
264.145	10308.55
264.215	10290.91
264.285	10285.86
264.354	10246.98
264.424	10227.86
264.494	10189.12
264.563	10167.78
264.633	10168.93
264.702	10156.5
264.772	10117.82
264.842	10096.96
264.911	10092.38
264.981	10065.31
265.05	10049.22
265.12	10029.8
265.19	10015.64
265.259	10004.66
265.329	9997.91
265.398	9983.99
265.468	9995.7
265.537	9979.47
265.607	9966.94
265.676	9961.83
265.746	9953.16
265.815	9955.19
265.885	9942.76
265.955	9921.95
266.024	9909.81
266.094	9879.32
266.163	9880.91
266.232	9879.61
266.302	9864.73
266.371	9859.72
266.441	9842.81
266.51	9844.55
266.58	9829.86
266.649	9807.41
266.719	9805.82
266.788	9800.19
266.858	9807.6
266.927	9769.46
266.996	9759.39
267.066	9748.07
267.135	9720.57
267.205	9709.11
267.274	9704.72
267.343	9701.45
267.413	9687.92
267.482	9689.56
267.552	9692.45
267.621	9666.68
267.69	9634.41
267.76	9632.39
267.829	9614.95
267.898	9610.96
267.968	9584.37
268.037	9575.13
268.106	9573.15
268.176	9548.49
268.245	9530.96
268.314	9516.95
268.384	9514.01
268.453	9508.47
268.522	9500.52
268.592	9501.25
268.661	9489.45
268.73	9474.95
268.799	9460.02
268.869	9471.53
268.938	9438.3
269.007	9417.55
269.076	9405.9
269.146	9406.81
269.215	9389.62
269.284	9395.98
269.353	9373.64
269.422	9362.22
269.492	9344.07
269.561	9307.33
269.63	9302.18
269.699	9286.82
269.768	9268.81
269.838	9262.12
269.907	9254.22
269.976	9230.97
270.045	9203.19
270.114	9192.98
270.183	9178.2
270.253	9171.22
270.322	9138.19
270.391	9130.58
270.46	9128.94
270.529	9121.82
270.598	9119.07
270.667	9110.55
270.736	9086.04
270.806	9083.49
270.875	9083.63
270.944	9084.21
271.013	9102.31
271.082	9089.99
271.151	9084.16
271.22	9063.42
271.289	9054.22
271.358	9039.39
271.427	9036.69
271.496	9032.65
271.565	9015.95
271.634	9016.28
271.703	9007.71
271.772	9011.76
271.841	9002.47
271.91	8984.08
271.979	8976.71
272.048	8954.04
272.117	8949.08
272.186	8937.81
272.255	8938.25
272.324	8938.25
272.393	8925.4
272.462	8908.98
272.531	8902.82
272.6	8888.95
272.669	8890.59
272.738	8876.29
272.807	8873.11
272.876	8852.23
272.945	8875.86
273.013	8877.31
273.082	8877.4
273.151	8859.83
273.22	8856.7
273.289	8849.77
273.358	8867.01
273.427	8857.81
273.496	8855.36
273.564	8858.78
273.633	8862.43
273.702	8838.22
273.771	8827.06
273.84	8822.29
273.909	8826.82
273.977	8826.34
274.046	8818.59
274.115	8821.28
274.184	8811.27
274.253	8800.34
274.322	8806.99
274.39	8775.55
274.459	8762.99
274.528	8738.64
274.597	8733.49
274.665	8726.27
274.734	8731.46
274.803	8712.35
274.872	8706.19
274.94	8694.69
275.009	8741.64
275.078	8721.91
275.147	8726.67
275.215	8728.7
275.284	8735.05
275.353	8714.88
275.421	8686.39
275.49	8699.15
275.559	8684.18
275.627	8672.44
275.696	8666.08
275.765	8665.94
275.833	8654.78
275.902	8658.05
275.971	8667.68
276.039	8676
276.108	8681.78
276.177	8679.42
276.245	8668.4
276.314	8665.89
276.383	8672.68
276.451	8610.85
276.52	8613.07
276.588	8625.15
276.657	8622.69
276.725	8610.85
276.794	8611.72
276.863	8628.08
276.931	8607.77
277	8616.62
277.068	8625.86
277.137	8642.08
277.205	8641.27
277.274	8663.11
277.342	8668.07
277.411	8646.51
277.48	8640.45
277.548	8629.04
277.617	8627.98
277.685	8623.41
277.754	8624.08
277.822	8618.94
277.89	8629.67
277.959	8625.63
278.027	8605.99
278.096	8595.07
278.164	8621.54
278.233	8607.2
278.301	8592.38
278.37	8596.04
278.438	8584.68
278.507	8589.68
278.575	8558.88
278.643	8556.04
278.712	8536.17
278.78	8524.43
278.849	8534.19
278.917	8545.12
278.985	8537.42
279.054	8537.66
279.122	8549.06
279.191	8548.73
279.259	8545.31
279.327	8524.09
279.396	8537.8
279.464	8531.07
279.532	8534.82
279.601	8527.84
279.669	8534.43
279.737	8556.57
279.806	8565.09
279.874	8575.34
279.942	8569.08
280.011	8570.24
280.079	8574.23
280.147	8590.3
280.215	8589.58
280.284	8580.92
280.352	8565.57
280.42	8577.98
280.488	8569.32
280.557	8560.95
280.625	8558.54
280.693	8558.35
280.761	8557
280.83	8539.73
280.898	8552.33
280.966	8539.58
281.034	8509.69
281.102	8494.35
281.171	8481.98
281.239	8485.39
281.307	8477.45
281.375	8469.75
281.443	8492.52
281.512	8483.61
281.58	8490.93
281.648	8478.95
281.716	8483.61
281.784	8481.4
281.852	8471.15
281.92	8471.92
281.989	8484.58
282.057	8472.74
282.125	8523.19
282.193	8523.96
282.261	8526.32
282.329	8525.79
282.397	8523.72
282.465	8526.03
282.533	8538.68
282.601	8525.5
282.67	8500.62
282.738	8491.76
282.806	8502.54
282.874	8493.78
282.942	8502.92
283.01	8490.7
283.078	8494.65
283.146	8490.27
283.214	8500.08
283.282	8501.67
283.35	8510.67
283.418	8501.86
283.486	8504.61
283.554	8451.22
283.622	8452.14
283.69	8446.27
283.758	8439.87
283.826	8443.33
283.894	8450.07
283.962	8476.39
284.03	8492.66
284.098	8497.81
284.165	8496.8
284.233	8493.19
284.301	8488.04
284.369	8481.93
284.437	8475.77
284.505	8470.52
284.573	8486.11
284.641	8470.52
284.709	8480.53
284.777	8461.77
284.845	8468.79
284.912	8476.01
284.98	8478.61
285.048	8471.78
285.116	8484.05
285.184	8494.68
285.252	8497.04
285.319	8488.81
285.387	8475.38
285.455	8452.81
285.523	8455.7
285.591	8448.39
285.659	8452.96
285.726	8464.32
285.794	8448.49
285.862	8453.2
285.93	8458.21
285.997	8453.59
286.065	8457.48
286.133	8447.04
286.201	8448.92
286.269	8429.09
286.336	8421.54
286.404	8413.5
286.472	8422.36
286.539	8398.01
286.607	8378.33
286.675	8383.86
286.743	8388.29
286.81	8380.11
286.878	8398.39
286.946	8395.65
287.013	8399.6
287.081	8398.54
287.149	8381.65
287.216	8394.4
287.284	8385.88
287.352	8380.54
287.419	8374.38
287.487	8390.69
287.555	8389.3
287.622	8387.85
287.69	8399.21
287.758	8407.87
287.825	8411.67
287.893	8400.08
287.96	8414.03
288.028	8431.93
288.096	8432.17
288.163	8435.15
288.231	8422.54
288.298	8418.55
288.366	8425.05
288.433	8421.82
288.501	8414.89
288.569	8417.01
288.636	8414.99
288.704	8426.54
288.771	8439.53
288.839	8433.66
288.906	8418.74
288.974	8430.44
289.041	8431.21
289.109	8417.73
289.176	8428.66
289.244	8437.99
289.311	8456.71
289.379	8461.53
289.446	8464.27
289.514	8459.36
289.581	8455.56
289.649	8465.66
289.716	8472.45
289.783	8463.26
289.851	8483.27
289.918	8483.27
289.986	8489.77
290.053	8495.64
290.121	8492.18
290.188	8491.45
290.255	8516.91
290.323	8517.82
290.39	8507.24
290.458	8507.91
290.525	8525.33
290.592	8521.09
290.66	8517.44
290.727	8506.03
290.794	8517.82
290.862	8516.57
290.929	8521.09
290.996	8525.62
291.064	8533.46
291.131	8542.17
291.198	8559.16
291.266	8559.55
291.333	8560.41
291.4	8567.53
291.468	8587.22
291.535	8580.58
291.602	8585.78
291.669	8576.92
291.737	8581.3
291.804	8593.33
291.871	8610.95
291.938	8617.68
292.006	8640.74
292.073	8653.16
292.14	8667.88
292.207	8659.89
292.275	8660.04
292.342	8667.31
292.409	8692.91
292.476	8711.78
292.543	8704.51
292.611	8703.98
292.678	8720.2
292.745	8747.83
292.812	8762.51
292.879	8756.21
292.946	8766.5
293.014	8780.7
293.081	8792.4
293.148	8807.75
293.215	8819.83
293.282	8815.02
293.349	8825.71
293.416	8806.02
293.484	8814.25
293.551	8826.19
293.618	8841.83
293.685	8862.48
293.752	8855.98
293.819	8853.09
293.886	8841.4
293.953	8846.88
294.02	8858.53
294.087	8865.42
294.154	8862.82
294.221	8877.55
294.288	8880.1
294.356	8896.8
294.423	8901.28
294.49	8895.17
294.557	8906.67
294.624	8896.66
294.691	8918.32
294.758	8911.34
294.825	8922.84
294.892	8918.61
294.959	8915.43
295.026	8924.29
295.093	8915.29
295.16	8924.29
295.226	8921.93
295.293	8948.7
295.36	8953.56
295.427	8962.56
295.494	8972.96
295.561	8974.74
295.628	8992.51
295.695	9004.79
295.762	9006.13
295.829	9017.35
295.896	9033.48
295.963	9044.74
296.03	9055.91
296.096	9061.74
296.163	9076.71
296.23	9089.18
296.297	9106.61
296.364	9107.76
296.431	9116.76
296.498	9118.98
296.564	9141.17
296.631	9144.97
296.698	9132.99
296.765	9154.17
296.832	9147.04
296.899	9134.24
296.965	9153.5
297.032	9131.63
297.099	9144.97
297.166	9152.82
297.233	9144.68
297.299	9133.95
297.366	9127.35
297.433	9130.24
297.5	9140.93
297.566	9142.52
297.633	9140.93
297.7	9141.75
297.767	9138.14
297.833	9142.61
297.9	9145.17
297.967	9127.02
298.033	9143.24
298.1	9173.1
298.167	9167.8
298.234	9172.47
298.3	9183.59
298.367	9176.95
298.434	9187.11
298.5	9177.91
298.567	9178.58
298.634	9181.14
298.7	9205.26
298.767	9205.74
298.834	9217.39
298.9	9207.9
298.967	9203.38
299.033	9212.62
299.1	9233.18
299.167	9249.74
299.233	9246.9
299.3	9259.66
299.366	9283.35
299.433	9293.22
299.5	9265.73
299.566	9270.44
299.633	9288.84
299.699	9300.88
299.766	9300.68
299.832	9305.88
299.899	9319.94
299.965	9330.49
300.032	9330.01
300.099	9335.59
300.165	9345.32
300.232	9344.69
300.298	9347.01
300.365	9364.82
300.431	9362.46
300.498	9352.01
300.564	9360.34
300.631	9371.03
300.697	9385.19
300.763	9380.71
300.83	9378.4
300.896	9390.73
300.963	9395.64
301.029	9400.98
301.096	9405.7
301.162	9420
301.229	9414.76
301.295	9405.56
301.361	9406.42
301.428	9409.41
301.494	9388.22
301.561	9392.94
301.627	9398.38
301.693	9407.73
301.76	9404.11
301.826	9402.91
301.892	9410.18
301.959	9415.48
302.025	9414.08
302.092	9414.32
302.158	9418.95
302.224	9426.56
302.291	9418.51
302.357	9420.1
302.423	9404.89
302.49	9393.52
302.556	9401.66
302.622	9398.24
302.688	9407.15
302.755	9423.04
302.821	9430.75
302.887	9447.89
302.954	9442.06
303.02	9447.69
303.086	9452.03
303.152	9450.92
303.219	9452.32
303.285	9459.01
303.351	9469.7
303.417	9470.96
303.483	9458.48
303.55	9450.11
303.616	9445.14
303.682	9445.82
303.748	9438.89
303.815	9463.35
303.881	9476.11
303.947	9465.9
304.013	9470.38
304.079	9463.06
304.145	9436.67
304.212	9437.63
304.278	9428.63
304.344	9426.61
304.41	9408.31
304.476	9396.99
304.542	9393.72
304.608	9391.89
304.674	9375.66
304.741	9371.28
304.807	9370.02
304.873	9376.67
304.939	9394.15
305.005	9380.33
305.071	9384.33
305.137	9388.03
305.203	9354.66
305.269	9352.21
305.335	9358.75
305.401	9359.96
305.467	9354.66
305.533	9367.33
305.599	9371.23
305.666	9377.2
305.732	9382.83
305.798	9400.89
305.864	9424.73
305.93	9430.65
305.996	9440.62
306.062	9437.25
306.128	9426.84
306.194	9414.66
306.259	9410.04
306.325	9403.06
306.391	9412.11
306.457	9412.98
306.523	9414.08
306.589	9442.69
306.655	9427.18
306.721	9411.53
306.787	9397.81
306.853	9415.67
306.919	9401.13
306.985	9396.08
307.051	9396.03
307.117	9384.13
307.183	9375.51
307.248	9344.84
307.314	9351
307.38	9340.17
307.446	9348.02
307.512	9340.36
307.578	9351.39
307.644	9347.63
307.709	9348.64
307.775	9338.05
307.841	9336.8
307.907	9334.82
307.973	9310.7
308.039	9310.36
308.104	9318.16
308.17	9319.32
308.236	9301.16
308.302	9299.91
308.368	9287.01
308.433	9281.95
308.499	9284.31
308.565	9273.62
308.631	9282.24
308.696	9256.05
308.762	9247.62
308.828	9247.33
308.894	9226.39
308.959	9201.69
309.025	9190.42
309.091	9185.9
309.156	9177.76
309.222	9177.38
309.288	9164.42
309.354	9149.36
309.419	9144.35
309.485	9128.6
309.551	9135.58
309.616	9121.48
309.682	9122.73
309.748	9117.24
309.813	9116.09
309.879	9102.56
309.945	9093.17
310.01	9081.57
310.076	9090.28
310.141	9086.28
310.207	9071.84
310.273	9077.76
310.338	9081.85
310.404	9070.06
310.469	9057.64
310.535	9052.97
310.601	9029.28
310.666	9035.54
310.732	9040.83
310.797	9036.45
310.863	9026.1
310.928	9012.67
310.994	9015.12
311.059	9010.12
311.125	9003.09
311.191	9010.07
311.256	8999.24
311.322	9000.11
311.387	8980.56
311.453	9395.66
311.518	9364.91
311.584	9362.21
311.649	9367.12
311.715	9360.33
311.78	9359.13
311.846	9346.85
311.911	9357.88
311.976	9365.49
312.042	9348.64
312.107	9339.83
312.173	9326.11
312.238	9319.66
312.304	9314.51
312.369	9305.55
312.434	9296.31
312.5	9291.83
312.565	9259.82
312.631	9263.77
312.696	9260.83
312.761	9266.22
312.827	8834.71
312.892	8882.75
312.958	8869.56
313.023	8863.49
313.088	8864.7
313.154	8858.54
313.219	8854.44
313.284	8835.62
313.35	8828.45
313.415	8821.32
313.48	8809.53
313.546	8816.8
313.611	8824.02
313.676	8821.86
313.741	8812.95
313.807	8811.51
313.872	8813.82
313.937	8820.07
314.003	8831.39
314.068	8827.83
314.133	8830.18
314.198	8821.42
314.264	8795.52
314.329	8789.79
314.394	8789.41
314.459	8779.45
314.525	8792.39
314.59	8787.1
314.655	8775.93
314.72	8778
314.785	8776.75
314.851	8774.1
314.916	8754.9
314.981	8744.36
315.046	8730.64
315.111	8727.03
315.176	8722.84
315.242	8728.62
315.307	8728.52
315.372	8708.02
315.437	8694.3
315.502	8686.7
315.567	8695.12
315.632	8680.73
315.698	8685.4
315.763	8680.97
315.828	8670.53
315.893	8669.66
315.958	8659.55
316.023	8650.41
316.088	8634.05
316.153	8611.14
316.218	8606.57
316.283	8593.39
316.348	8569.62
316.413	8562.88
316.479	8544.16
316.544	8511.97
316.609	8479.78
316.674	8440.37
316.739	8405.92
316.804	8380.9
316.869	8345.68
316.934	8310.41
316.999	8280.78
317.064	8231.85
317.129	8184.84
317.194	8150.64
317.259	8101.37
317.324	8053.23
317.389	8015.9
317.454	7978.81
317.518	7948.61
317.583	7924.9
317.648	7896.37
317.713	7866.56
317.778	7809.81
317.843	7779.56
317.908	7742.97
317.973	7703.82
318.038	7676.41
318.103	7643.96
318.168	7606.7
318.233	7578.67
318.297	7530.73
318.362	7493.86
318.427	7457.38
318.492	7432.47
318.557	7387.35
318.622	7355.09
318.687	7330.53
318.751	7289.64
318.816	7256.28
318.881	7225.47
318.946	7169.43
319.011	7127.77
319.075	7089.28
319.14	7062.95
319.205	7022.92
319.27	6985.16
319.335	6941.78
319.399	6898.83
319.464	6868.33
319.529	6818.91
319.594	6778.84
319.658	6751.51
319.723	6708.63
319.788	6681.54
319.853	6630.34
319.917	6601.92
319.982	6552.75
320.047	6520.96
320.112	6491.19
320.176	6437.62
320.241	6400.5
320.306	6375.73
320.37	6333.3
320.435	6297.59
320.5	6262.02
320.564	6222.32
320.629	6187.05
320.694	6155.67
320.758	6118.58
320.823	6074.48
320.888	6054.19
320.952	6002.71
321.017	5962.74
321.082	5924.99
321.146	5886.85
321.211	5849.49
321.275	5809.35
321.34	5765.05
321.405	5723.95
321.469	5681.46
321.534	5645.89
321.598	5594.12
321.663	5559.97
321.727	5531.58
321.792	5488.25
321.857	5446.06
321.921	5408.48
321.986	5360.66
322.05	5305.37
322.115	5269.86
322.179	5227.94
322.244	5170.02
322.308	5139.99
322.373	5088.3
322.437	5051.61
322.502	5020.8
322.566	4977.03
322.631	4941.49
322.695	4906.45
322.76	4861.01
322.824	4825.39
322.889	4782.12
322.953	4742.07
323.018	4676.53
323.082	4610.78
323.146	4558.2
323.211	4505.71
323.275	4459.53
323.34	4421.13
323.404	4388.03
323.468	4339.76
323.533	4293.47
323.597	4249.06
323.662	4200.38
323.726	4166.14
323.79	4119.81
323.855	4058.93
323.919	4013.48
323.983	3970.4
324.048	3902.72
324.112	4040.21
324.177	3914.63
324.241	3712.13
324.305	3512.39
324.37	3316.67
324.434	3131.8
324.498	3089.45
324.562	3042.33
324.627	2983.73
324.691	2927.45
324.755	2861.12
324.82	2788.56
324.884	2716.52
324.948	2648.21
325.012	2552.64
325.077	2434.22
