Data from 20250702_urea_0.5M_MAYP1162681_04-04-59-483.txt Node
Date: Thu Jul 03 04:04:59 BST 2025
User: adleo
Spectrometer: MAYP116268
Trigger mode: 0
Integration Time (sec): 1.000000E0
Scans to average: 1
Electric dark correction enabled: true
Nonlinearity correction enabled: true
Boxcar width: 10
XAxis mode: Wavelengths
Number of Pixels in Spectrum: 2068
>>>>>Begin Spectral Data<<<<<
179.565	1174.9
179.642	1226.19
179.718	1271.43
179.795	1309.42
179.871	1342.95
179.948	1360.69
180.024	1378.04
180.101	1396.95
180.177	1409.36
180.254	1434.5
180.33	1456.77
180.407	1509.23
180.483	1601.01
180.56	1689.62
180.636	1772.46
180.712	1757.92
180.789	1766.61
180.865	1774.22
180.942	1787.57
181.018	1797.45
181.095	1811.57
181.171	1817.09
181.248	1820.13
181.324	1833.87
181.4	1842.14
181.477	1853.6
181.553	1867.33
181.63	1889.06
181.706	1905.03
181.782	1915.34
181.859	1911.44
181.935	1915.44
182.011	1910.35
182.088	1929.84
182.164	1949.16
182.24	1961.09
182.317	1971.92
182.393	1970.21
182.469	1985.76
182.546	1996.36
182.622	2000.26
182.698	1996.74
182.775	2006.87
182.851	2020.04
182.927	2013.34
183.003	2006.02
183.08	1998.27
183.156	2006.83
183.232	2005.64
183.308	1996.89
183.385	2004.26
183.461	2021.47
183.537	2021.09
183.613	2034.26
183.69	2025.27
183.766	2012.33
183.842	2022.85
183.918	2030.17
183.995	2043.77
184.071	2046.29
184.147	2043.06
184.223	2031.13
184.299	2041.59
184.375	2030.27
184.452	2037.27
184.528	2093.22
184.604	2104.16
184.68	2115.95
184.756	2120.95
184.832	2126.23
184.908	2130.51
184.985	2128.56
185.061	2113.15
185.137	2125.8
185.213	2117.86
185.289	2119.14
185.365	2111.58
185.441	2107.49
185.517	2117.15
185.593	2113.25
185.669	2111.16
185.745	2117.67
185.822	2136.55
185.898	2124.99
185.974	2134.22
186.05	2126.55
186.126	2086.96
186.202	2080.54
186.278	2076.88
186.354	2067.84
186.43	2073.79
186.506	2072.98
186.582	2073.08
186.658	2080.4
186.734	2058.48
186.81	2057.29
186.886	2058.57
186.962	2071.36
187.038	2067.08
187.114	2062.9
187.19	2073.89
187.266	2064.8
187.341	2067.42
187.417	2061.76
187.493	2066.61
187.569	2073.08
187.645	2066.33
187.721	2053.43
187.797	2059.9
187.873	2065.32
187.949	2061.95
188.025	2053.1
188.101	2054.52
188.176	2061.51
188.252	2057.14
188.328	2066.12
188.404	2066.22
188.48	2063.03
188.556	2058.13
188.632	2063.84
188.707	2058.8
188.783	2052.61
188.859	2048.24
188.935	2036.44
189.011	2040.06
189.086	2034.64
189.162	2024.08
189.238	2022.03
189.314	2018.89
189.39	2012.43
189.465	2002.87
189.541	2019.04
189.617	2005.54
189.693	2002.45
189.768	2005.82
189.844	2031.94
189.92	2023.67
189.996	2034.37
190.071	2043.41
190.147	2042.51
190.223	2045.93
190.298	2040.61
190.374	2029.86
190.45	2041.13
190.526	2052.07
190.601	2049.26
190.677	2049.5
190.753	2077.57
190.828	2081.43
190.904	2097.41
190.98	2115.48
191.055	2124.47
191.131	2114.29
191.207	2135.51
191.282	2145.49
191.358	2133.84
191.433	2115.14
191.509	2127.59
191.585	2123.93
191.66	2125.6
191.736	2132.4
191.811	2123.41
191.887	2139.11
191.963	2160.18
192.038	2164.32
192.114	2162.18
192.189	2164.6
192.265	2164.56
192.34	2140.47
192.416	2140.24
192.491	2132.67
192.567	2135.86
192.642	2142.19
192.718	2145.66
192.793	2132.29
192.869	2126.68
192.944	2130.67
193.02	2140.62
193.095	2145.37
193.171	2149.56
193.246	2149.7
193.322	2147.47
193.397	2151.42
193.473	2138.38
193.548	2120.78
193.624	2130.15
193.699	2129.86
193.775	2148.33
193.85	2148.38
193.925	2157.13
194.001	2156.27
194.076	2152.9
194.152	2141
194.227	2133.72
194.302	2123.31
194.378	2128.97
194.453	2128.39
194.529	2139.19
194.604	2124.97
194.679	2116.84
194.755	2099.62
194.83	2110
194.905	2108.47
194.981	2112.85
195.056	2104.1
195.131	2111.09
195.207	2106.43
195.282	2097.3
195.357	2074.7
195.433	2086.4
195.508	2077.74
195.583	2085.3
195.659	2098.29
195.734	2106.66
195.809	2105
195.884	2113.46
195.96	2114.61
196.035	2128.92
196.11	2126.78
196.185	2137.63
196.261	2143.81
196.336	2174.64
196.411	2159.17
196.486	2165.74
196.561	2158.79
196.637	2170.73
196.712	2187.91
196.787	2190.15
196.862	2206.46
196.937	2217.78
197.013	2226.16
197.088	2235.48
197.163	2255.81
197.238	2272.91
197.313	2270.72
197.388	2285.18
197.464	2311.98
197.539	2320.4
197.614	2313.55
197.689	2323.55
197.764	2342.35
197.839	2360.06
197.914	2354.39
197.989	2377.67
198.065	2389.57
198.14	2441
198.215	2466.81
198.29	2475.24
198.365	2489.85
198.44	2500.52
198.515	2527.85
198.59	2540.52
198.665	2567.9
198.74	2577.09
198.815	2575.71
198.89	2597.52
198.965	2625.58
199.04	2622.58
199.115	2638.53
199.19	2677.73
199.265	2680.87
199.34	2687.49
199.415	2722.95
199.49	2741.24
199.565	2750.72
199.64	2774.21
199.715	2771.63
199.79	2777.54
199.865	2785.74
199.94	2783.12
200.015	2810.9
200.09	2816.34
200.165	2826.53
200.24	2829.82
200.315	2869.08
200.39	2886.05
200.464	2893.58
200.539	2896.77
200.614	2914.4
200.689	2936.95
200.764	2946.11
200.839	2963.4
200.914	2967.88
200.989	2957.67
201.063	2974.21
201.138	2958.59
201.213	2957.02
201.288	2936.85
201.363	2943.62
201.438	2943
201.512	2958.63
201.587	2942.9
201.662	2946.62
201.737	2957.15
201.812	2964.73
201.886	2932.05
201.961	2943.55
202.036	2931.21
202.111	2925.96
202.186	2897.86
202.26	2880.26
202.335	2858.76
202.41	2854.43
202.485	2838.99
202.559	2819.79
202.634	2793.05
202.709	2798.86
202.784	2781.28
202.858	2779.75
202.933	2761.46
203.008	2756.02
203.082	2738.87
203.157	2738.49
203.232	2697.58
203.306	2678.85
203.381	2645.98
203.456	2621.59
203.53	2598.03
203.605	2579.8
203.68	2555.98
203.754	2549.03
203.829	2536.69
203.904	2515.79
203.978	2505.88
204.053	2510.12
204.127	2496.78
204.202	2497.17
204.277	2482.69
204.351	2476.22
204.426	2470.6
204.5	2461.65
204.575	2427.8
204.65	2435.61
204.724	2427.32
204.799	2435.6
204.873	2431.17
204.948	2433.08
205.022	2421.8
205.097	2410.65
205.171	2421.88
205.246	2430.36
205.32	2431.46
205.395	2429.84
205.469	2422.84
205.544	2426.89
205.618	2409.8
205.693	2418.99
205.767	2403.99
205.842	2426.85
205.916	2421.19
205.991	2410.62
206.065	2419.14
206.14	2433.98
206.214	2431.51
206.289	2426.27
206.363	2437.79
206.438	2440.79
206.512	2446.74
206.586	2470.26
206.661	2480.02
206.735	2462.56
206.81	2467.18
206.884	2478.27
206.958	2466.28
207.033	2481.89
207.107	2489.18
207.181	2523.42
207.256	2518.99
207.33	2540.42
207.405	2554.58
207.479	2575.43
207.553	2585.05
207.628	2568.44
207.702	2581.29
207.776	2576.01
207.851	2580.01
207.925	2600.11
207.999	2600.02
208.073	2603.88
208.148	2606.78
208.222	2600.35
208.296	2637.06
208.371	2659.52
208.445	2679.53
208.519	2716.01
208.593	2738.45
208.668	2740.93
208.742	2749.51
208.816	2764.56
208.89	2788.4
208.965	2797.7
209.039	2816
209.113	2849.51
209.187	2883.32
209.261	2895.57
209.336	2934.66
209.41	2975.28
209.484	2993.17
209.558	3035.9
209.632	3072.52
209.707	3108.47
209.781	3156.69
209.855	3199.21
209.929	3237.79
210.003	3271.23
210.077	3302.44
210.151	3381.39
210.226	3448.04
210.3	3509.33
210.374	3565.97
210.448	3605.27
210.522	3651.65
210.596	3704.9
210.67	3751.41
210.744	3843.62
210.818	3923.52
210.892	3989.62
210.966	4028.18
211.041	4091.93
211.115	4138.73
211.189	4213.41
211.263	4284.75
211.337	4342.7
211.411	4409.15
211.485	4464.56
211.559	4535.49
211.633	4596.18
211.707	4628.6
211.781	4701.44
211.855	4736.05
211.929	4797.68
212.003	4850.8
212.077	4932.27
212.151	5016.05
212.225	5103.8
212.299	5163.96
212.373	5229.74
212.447	5302.74
212.52	5414.07
212.594	5495.23
212.668	5585.72
212.742	5654.77
212.816	5731.89
212.89	5809.85
212.964	5895.16
213.038	5987.53
213.112	6088.05
213.186	6189.04
213.26	6251.88
213.333	6300.45
213.407	6393.78
213.481	6483.76
213.555	6585.83
213.629	6660.41
213.703	6732.93
213.777	6819.59
213.85	6897.42
213.924	7023.08
213.998	7111.79
214.072	7194.76
214.146	7275.01
214.219	7364.75
214.293	7448.76
214.367	7539.72
214.441	7638.31
214.515	7716.6
214.588	7779.74
214.662	7836.2
214.736	7900.39
214.81	8002.17
214.883	8103.93
214.957	8182.62
215.031	8262.46
215.105	8326.71
215.178	8404.32
215.252	8483.76
215.326	8550.98
215.4	8617.29
215.473	8651.23
215.547	8720.64
215.621	8796.85
215.694	8885.19
215.768	8948.49
215.842	9020.21
215.915	9088.82
215.989	9147.42
216.063	9221.52
216.136	9304.24
216.21	9388.02
216.284	9481.34
216.357	9560.08
216.431	9633.72
216.504	9720.84
216.578	9818.38
216.652	9908.77
216.725	9991.04
216.799	10079.19
216.873	10157.18
216.946	10239.31
217.02	10313.11
217.093	10382.97
217.167	10434.33
217.24	10495.66
217.314	10565.67
217.387	10633.45
217.461	10707.8
217.535	10804.03
217.608	10868.07
217.682	10944.21
217.755	11026.95
217.829	11098.46
217.902	11169.59
217.976	11242.85
218.049	11310.17
218.123	11376.54
218.196	11451.14
218.27	11510.57
218.343	11562.05
218.417	11632.32
218.49	11698.06
218.563	11788.14
218.637	11869.84
218.71	11965.52
218.784	12041.82
218.857	12124.63
218.931	12205.8
219.004	12274.97
219.077	12346.41
219.151	12416.44
219.224	12482.1
219.298	12540.04
219.371	12617.07
219.444	12675.64
219.518	12732.66
219.591	12807.62
219.665	12899.31
219.738	12971.86
219.811	13038.38
219.885	13125.97
219.958	13201.41
220.031	13268.85
220.105	13334.61
220.178	13395.93
220.251	13451.85
220.325	13523.63
220.398	13588.03
220.471	13660.34
220.544	13730.29
220.618	13785.24
220.691	13856.54
220.764	13913.95
220.838	13988.82
220.911	14036.83
220.984	14117.62
221.057	14194.51
221.131	14253.37
221.204	14284.17
221.277	14370.7
221.35	14454.19
221.424	14503.41
221.497	14558.03
221.57	14617.75
221.643	14679.89
221.716	14749.45
221.79	14802.13
221.863	14860.03
221.936	14915.27
222.009	14966.75
222.082	15025.41
222.155	15076.07
222.229	15137.48
222.302	15196.05
222.375	15242.33
222.448	15312.46
222.521	15369.34
222.594	15421.83
222.667	15460.1
222.74	15515.15
222.814	15557.76
222.887	15610.63
222.96	15678.16
223.033	15740.82
223.106	15802.76
223.179	15856.89
223.252	15902.87
223.325	15947.74
223.398	15994.93
223.471	16046.16
223.544	16096.29
223.617	16145.21
223.69	16195.97
223.763	16240.16
223.837	16293.95
223.91	16353.77
223.983	16379.21
224.056	16404.52
224.129	16448.38
224.202	16505.3
224.275	16546.99
224.348	16569.64
224.42	16588.49
224.493	16597.45
224.566	16622.46
224.639	16662.95
224.712	16694.9
224.785	16733.12
224.858	16769.46
224.931	16796.26
225.004	16824.5
225.077	16859.54
225.15	16869.27
225.223	16905.37
225.296	16959.68
225.369	16985.47
225.442	17004.94
225.514	17044.17
225.587	17093.04
225.66	17133.91
225.733	17172.32
225.806	17212.17
225.879	17242.97
225.952	17279.16
226.025	17337.77
226.097	17392.22
226.17	17424.8
226.243	17437.72
226.316	17465.28
226.389	17505.57
226.461	17552.95
226.534	17599.84
226.607	17628.9
226.68	17688.56
226.753	17724.65
226.825	17741.14
226.898	17781.81
226.971	17822.1
227.044	17870.58
227.117	17894.43
227.189	17922.48
227.262	17963.68
227.335	17995.68
227.407	18026.82
227.48	18053.27
227.553	18076.69
227.626	18098.38
227.698	18130.52
227.771	18165.12
227.844	18187.72
227.916	18214.28
227.989	18225.89
228.062	18238.18
228.134	18286.9
228.207	18302.61
228.28	18313.65
228.352	18341.02
228.425	18369.11
228.498	18393.5
228.57	18395.86
228.643	18434.56
228.716	18455.37
228.788	18458.22
228.861	18473.25
228.934	18512.67
229.006	18541.15
229.079	18561.39
229.151	18573.97
229.224	18573.73
229.296	18606.26
229.369	18649.82
229.442	18686.2
229.514	18693.29
229.587	18729.86
229.659	18730.2
229.732	18758.97
229.804	18789.67
229.877	18828.17
229.949	18848.84
230.022	18882.53
230.094	18902.58
230.167	18924.07
230.239	18939.25
230.312	18958.52
230.384	19004.21
230.457	19018.52
230.529	19037.31
230.602	19056.98
230.674	19079.29
230.747	19119.62
230.819	19144.44
230.892	19139.19
230.964	19149.4
231.037	19181.02
231.109	19184.82
231.181	19209.88
231.254	19224.58
231.326	19238.22
231.399	19239.76
231.471	19248.39
231.544	19242.31
231.616	19272.05
231.688	19283.56
231.761	19285.44
231.833	19296.53
231.905	19281.2
231.978	19284.38
232.05	19290.26
232.122	19306.16
232.195	19308.96
232.267	19324.62
232.339	19322.31
232.412	19335.75
232.484	19346.11
232.556	19337.3
232.629	19370.6
232.701	19373.82
232.773	19369.39
232.846	19374.4
232.918	19384.47
232.99	19395.99
233.062	19412.71
233.135	19407.51
233.207	19391.46
233.279	19405.68
233.351	19418.3
233.424	19418.74
233.496	19420.95
233.568	19443.31
233.64	19426.4
233.713	19429.15
233.785	19413.1
233.857	19417.29
233.929	19407.85
234.001	19427.36
234.074	19447.99
234.146	19422.54
234.218	19421.48
234.29	19413.2
234.362	19399.65
234.434	19368.81
234.507	19347.42
234.579	19326.94
234.651	19327.95
234.723	19335.95
234.795	19336.19
234.867	19318.94
234.939	19326.45
235.012	19317.2
235.084	19303.9
235.156	19306.74
235.228	19291.95
235.3	19286.02
235.372	19278.5
235.444	19279.66
235.516	19230.89
235.588	19219.04
235.66	19214.94
235.732	19193.59
235.804	19235.09
235.876	19233.16
235.948	19241.35
236.02	19237.21
236.092	19222.27
236.164	19203.23
236.236	19183.57
236.308	19159.67
236.38	19157.4
236.452	19136.06
236.524	19131.43
236.596	19143.28
236.668	19138.27
236.74	19130.8
236.812	19129.21
236.884	19118.66
236.956	19099.34
237.028	19087.38
237.1	19067.05
237.172	19063.48
237.244	19069.75
237.316	19029.36
237.388	19005.65
237.46	18987.29
237.532	18986.43
237.604	18964.6
237.675	18965.46
237.747	18960.07
237.819	18937.42
237.891	18918.67
237.963	18893.95
238.035	18876.46
238.107	18819.11
238.178	18814.44
238.25	18789.52
238.322	18780.27
238.394	18743.6
238.466	18726.3
238.538	18709.53
238.609	18697.38
238.681	18663.8
238.753	18634.21
238.825	18604.09
238.897	18584.33
238.968	18574.21
239.04	18537.97
239.112	18548.48
239.184	18506.26
239.255	18477.73
239.327	18462.07
239.399	18438.99
239.471	18419.81
239.542	18391.28
239.614	18388.58
239.686	18331.24
239.758	18321.26
239.829	18288.88
239.901	18275.67
239.973	18245.12
240.044	18225.31
240.116	18201.46
240.188	18168.88
240.259	18135.1
240.331	18106.96
240.403	18089.66
240.474	18047.34
240.546	18016.21
240.618	17963.93
240.689	17934.53
240.761	17906.87
240.833	17896.51
240.904	17867.01
240.976	17846.72
241.048	17822.73
241.119	17795.84
241.191	17773.96
241.262	17756.51
241.334	17716.22
241.405	17685.43
241.477	17661.67
241.549	17630.87
241.62	17603.74
241.692	17582.01
241.763	17568.03
241.835	17533.04
241.906	17511.12
241.978	17471.41
242.049	17454.01
242.121	17434.49
242.192	17423.98
242.264	17386.34
242.335	17331.55
242.407	17308.18
242.478	17264.85
242.55	17239.36
242.621	17200.9
242.693	17176.56
242.764	17141.28
242.836	17119.55
242.907	17099.11
242.979	17072.12
243.05	17046.2
243.122	17012.99
243.193	16974.63
243.264	16919.3
243.336	16897.8
243.407	16870.81
243.479	16849.75
243.55	16823.82
243.622	16800.5
243.693	16768.69
243.764	16747.72
243.836	16718.18
243.907	16684.35
243.978	16657.4
244.05	16628.2
244.121	16577.45
244.192	16553.64
244.264	16508.72
244.335	16472.04
244.407	16414.3
244.478	16387.36
244.549	16355.6
244.62	16311.06
244.692	16285.95
244.763	16266.34
244.834	16225.85
244.906	16188.01
244.977	16167.96
245.048	16151.58
245.119	16116.59
245.191	16082.41
245.262	16037.3
245.333	16024
245.405	15998.02
245.476	15976.04
245.547	15955.07
245.618	15942.97
245.689	15913.86
245.761	15884.94
245.832	15855.4
245.903	15848.6
245.974	15818.14
246.045	15787.63
246.117	15778.95
246.188	15727.38
246.259	15691.61
246.33	15667.75
246.401	15633.48
246.473	15584.07
246.544	15540.6
246.615	15516.79
246.686	15478.03
246.757	15458.56
246.828	15410.26
246.899	15390.45
246.97	15341.91
247.042	15292.89
247.113	15272.45
247.184	15263.58
247.255	15229.12
247.326	15202.56
247.397	15168.34
247.468	15142.36
247.539	15109.05
247.61	15062.29
247.681	15055.54
247.752	15039.54
247.823	14997.07
247.894	14973.16
247.965	14939.66
248.037	14905.87
248.108	14860.41
248.179	14825.32
248.25	14795.53
248.321	14784.35
248.392	14744.19
248.463	14741.59
248.534	14723.27
248.605	14692.76
248.675	14642.87
248.746	14623.59
248.817	14603.58
248.888	14575.96
248.959	14531.52
249.03	14511.32
249.101	14487.27
249.172	14457.14
249.243	14410.38
249.314	14398.33
249.385	14372.44
249.456	14354.27
249.527	14326.98
249.598	14305.53
249.669	14277.91
249.739	14255.06
249.81	14228.3
249.881	14185.45
249.952	14156.53
250.023	14122.83
250.094	14092.17
250.165	14070.24
250.235	14039.68
250.306	14012.44
250.377	13983.56
250.448	13962.98
250.519	13919.21
250.59	13910.44
250.66	13878.96
250.731	13865.46
250.802	13836.53
250.873	13811.37
250.944	13790.4
251.014	13758.3
251.085	13752.13
251.156	13735.16
251.227	13713.61
251.297	13694.71
251.368	13677.79
251.439	13659.33
251.51	13647.08
251.58	13606.98
251.651	13573.42
251.722	13557.56
251.792	13514.51
251.863	13485.45
251.934	13480.82
252.005	13483.76
252.075	13457.15
252.146	13446.4
252.217	13436.85
252.287	13427.31
252.358	13403.74
252.429	13396.26
252.499	13367.77
252.57	13349.74
252.641	13341.31
252.711	13329.06
252.782	13291.66
252.852	13291.8
252.923	13263.07
252.994	13235.21
253.064	13226.91
253.135	13192.21
253.205	13160.92
253.276	13159.62
253.347	13156.73
253.417	13121.78
253.488	13096.13
253.558	13066.77
253.629	13039.01
253.699	13017.46
253.77	12999.77
253.841	12980.82
253.911	12960.33
253.982	12945.25
254.052	12928.86
254.123	12901.62
254.193	12877.03
254.264	12895.11
254.334	12862.72
254.405	12823.33
254.475	12789.2
254.546	12761.97
254.616	12763.99
254.687	12757.24
254.757	12735.99
254.827	12709.67
254.898	12691.15
254.968	12670.86
255.039	12643.19
255.109	12631.19
255.18	12591.85
255.25	12543.41
255.321	12518.58
255.391	12476.21
255.461	12472.93
255.532	12421.55
255.602	12399.85
255.673	12352.81
255.743	12325.19
255.813	12281.47
255.884	12276.98
255.954	12271.49
256.024	12272.12
256.095	12246.09
256.165	12207.23
256.235	12189.83
256.306	12162.07
256.376	12147.61
256.446	12131.22
256.517	12118.97
256.587	12105.24
256.657	12099.07
256.728	12087.11
256.798	12071.98
256.868	12056.12
256.938	12023.68
257.009	12017.27
257.079	12003.68
257.149	12014.18
257.219	11971.24
257.29	11957.02
257.36	11922.17
257.43	11908.77
257.5	11862.01
257.571	11837.58
257.641	11824.76
257.711	11795.74
257.781	11779.35
257.852	11772.31
257.922	11732.98
257.992	11715.05
258.062	11693.65
258.132	11681.36
258.202	11658.42
258.273	11634.9
258.343	11635
258.413	11617.45
258.483	11597.3
258.553	11565.45
258.623	11541.88
258.693	11523.66
258.764	11525.78
258.834	11529.63
258.904	11512.67
258.974	11494.84
259.044	11479.66
259.114	11468.33
259.184	11450.35
259.254	11433
259.324	11389.62
259.394	11380.32
259.464	11377.05
259.535	11360.66
259.605	11336.56
259.675	11308.85
259.745	11302.2
259.815	11265.09
259.885	11237.72
259.955	11248.56
260.025	11226.49
260.095	11203.41
260.165	11189.48
260.235	11181.96
260.305	11149.19
260.375	11119.5
260.445	11120.61
260.515	11114.88
260.585	11107.5
260.655	11094.59
260.725	11092.18
260.795	11080.71
260.865	11090.01
260.934	11061.82
261.004	11050.68
261.074	11032.47
261.144	11035.55
261.214	11021.24
261.284	11013.14
261.354	11007.31
261.424	10979.6
261.494	10985.87
261.564	10969.82
261.634	10961.72
261.703	10929.39
261.773	10919.22
261.843	10909.29
261.913	10890.89
261.983	10857.06
262.053	10853.25
262.123	10831.91
262.192	10797.21
262.262	10796.54
262.332	10753.46
262.402	10745.55
262.472	10724.74
262.541	10690.29
262.611	10682.72
262.681	10658
262.751	10651.98
262.821	10635.5
262.89	10608.85
262.96	10593.53
263.03	10597.77
263.1	10587.8
263.169	10570.79
263.239	10560.29
263.309	10567.76
263.379	10564.43
263.448	10554.41
263.518	10535.62
263.588	10518.85
263.657	10516.63
263.727	10505.98
263.797	10493.84
263.867	10475.29
263.936	10451.64
264.006	10451.25
264.076	10434.1
264.145	10422.1
264.215	10393.63
264.285	10390.4
264.354	10359.67
264.424	10332.54
264.494	10302.86
264.563	10284.41
264.633	10293.13
264.702	10287.59
264.772	10247.17
264.842	10223.13
264.911	10209.06
264.981	10178.47
265.05	10167.24
265.12	10153.32
265.19	10137.95
265.259	10136.99
265.329	10124.65
265.398	10115.74
265.468	10124.46
265.537	10103.55
265.607	10094.26
265.676	10090.93
265.746	10073.11
265.815	10068.87
265.885	10057.74
265.955	10035.92
266.024	10014.68
266.094	9975.71
266.163	9966.41
266.232	9965.79
266.302	9949.84
266.371	9944.01
266.441	9929.03
266.51	9922.34
266.58	9908.66
266.649	9889.73
266.719	9883.27
266.788	9881.68
266.858	9885.34
266.927	9854.42
266.996	9854.47
267.066	9844.01
267.135	9819.21
267.205	9817.33
267.274	9807.12
267.343	9808.08
267.413	9798.16
267.482	9803.32
267.552	9807.12
267.621	9778.42
267.69	9754.09
267.76	9740.66
267.829	9731.41
267.898	9721.73
267.968	9700.63
268.037	9689.22
268.106	9684.02
268.176	9662.25
268.245	9643.66
268.314	9619.38
268.384	9617.74
268.453	9602.23
268.522	9589.81
268.592	9591.88
268.661	9564.81
268.73	9556.63
268.799	9538.52
268.869	9548.1
268.938	9520.89
269.007	9501.63
269.076	9493.3
269.146	9490.5
269.215	9484.63
269.284	9486.36
269.353	9471
269.422	9461.28
269.492	9444.42
269.561	9405.42
269.63	9395.26
269.699	9377.59
269.768	9368.63
269.838	9361.16
269.907	9354.18
269.976	9331.65
270.045	9302.61
270.114	9305.07
270.183	9290.77
270.253	9281.96
270.322	9248.64
270.391	9234.19
270.46	9236.36
270.529	9238.96
270.598	9236.36
270.667	9224.37
270.736	9202.46
270.806	9198.03
270.875	9197.84
270.944	9188.74
271.013	9213.39
271.082	9200.58
271.151	9196.63
271.22	9175.98
271.289	9160.04
271.358	9147.72
271.427	9146.27
271.496	9137.9
271.565	9119.5
271.634	9110.79
271.703	9115.27
271.772	9117.48
271.841	9104.24
271.91	9083.45
271.979	9075.21
272.048	9049.41
272.117	9045.89
272.186	9030.58
272.255	9036.36
272.324	9032.99
272.393	9029.48
272.462	9007.62
272.531	9003.72
272.6	8996.01
272.669	8992.74
272.738	8983.31
272.807	8978.3
272.876	8960.34
272.945	8983.07
273.013	8986.92
273.082	8989.13
273.151	8961.45
273.22	8957.74
273.289	8957.02
273.358	8969.59
273.427	8954.13
273.496	8954.62
273.564	8950.28
273.633	8952.98
273.702	8929.39
273.771	8917.45
273.84	8913.26
273.909	8910.28
273.977	8909.89
274.046	8896.42
274.115	8909.9
274.184	8889.87
274.253	8881.59
274.322	8883.81
274.39	8851.94
274.459	8830.71
274.528	8806.07
274.597	8801.45
274.665	8796.97
274.734	8794.23
274.803	8775.65
274.872	8765.25
274.94	8749.27
275.009	8775.66
275.078	8761.22
275.147	8757.46
275.215	8754.33
275.284	8758.96
275.353	8749.57
275.421	8724.16
275.49	8739.66
275.559	8720.45
275.627	8715.25
275.696	8709.96
275.765	8712.8
275.833	8709.14
275.902	8713.04
275.971	8721.85
276.039	8735.13
276.108	8737.63
276.177	8737.92
276.245	8725.17
276.314	8729.6
276.383	8740.47
276.451	8710.29
276.52	8711.78
276.588	8725.74
276.657	8731.56
276.725	8721.5
276.794	8724.97
276.863	8735.89
276.931	8708.84
277	8713.22
277.068	8728.23
277.137	8746.53
277.205	8740.12
277.274	8756.87
277.342	8765.1
277.411	8743.5
277.48	8729.15
277.548	8717.31
277.617	8719.29
277.685	8722.27
277.754	8718.76
277.822	8704.37
277.89	8710.63
277.959	8700.71
278.027	8674.29
278.096	8658.89
278.164	8682.67
278.233	8672.85
278.301	8662.94
278.37	8675.31
278.438	8664.48
278.507	8666.55
278.575	8635.6
278.643	8635.89
278.712	8617.4
278.78	8600.56
278.849	8614.75
278.917	8620.05
278.985	8615.28
279.054	8618.27
279.122	8624.81
279.191	8624.33
279.259	8622.02
279.327	8602.77
279.396	8621.25
279.464	8626.64
279.532	8633.23
279.601	8627.74
279.669	8626.2
279.737	8635.83
279.806	8633.42
279.874	8640.74
279.942	8634.34
280.011	8630.49
280.079	8633.47
280.147	8648.49
280.215	8657.2
280.284	8653.3
280.352	8644.93
280.42	8650.46
280.488	8638.86
280.557	8631.5
280.625	8630.63
280.693	8630.39
280.761	8631.93
280.83	8619.03
280.898	8629.62
280.966	8611.43
281.034	8578.31
281.102	8562.82
281.171	8552.91
281.239	8561.67
281.307	8556.04
281.375	8545.83
281.443	8571.01
281.512	8566.19
281.58	8570.48
281.648	8552.57
281.716	8546.13
281.784	8544.49
281.852	8536.5
281.92	8537.03
281.989	8541.94
282.057	8527.12
282.125	8577.09
282.193	8580.36
282.261	8577.66
282.329	8569.82
282.397	8576.41
282.465	8582.95
282.533	8598.06
282.601	8593.59
282.67	8569.19
282.738	8560.62
282.806	8570.87
282.874	8553.59
282.942	8557.06
283.01	8546.47
283.078	8550.9
283.146	8548.73
283.214	8558.36
283.282	8565.62
283.35	8577.13
283.418	8568.32
283.486	8576.6
283.554	8529.04
283.622	8521.96
283.69	8522.78
283.758	8516.86
283.826	8516.04
283.894	8520.61
283.962	8536.69
284.03	8550.12
284.098	8553.2
284.165	8550.45
284.233	8549.25
284.301	8543.91
284.369	8535.25
284.437	8527.06
284.505	8521
284.573	8538.76
284.641	8528.07
284.709	8534.43
284.777	8516.14
284.845	8530.72
284.912	8535.63
284.98	8541.07
285.048	8541.21
285.116	8543.04
285.184	8557.62
285.252	8560.61
285.319	8543.96
285.387	8531.92
285.455	8513.3
285.523	8518.11
285.591	8509.41
285.659	8508.11
285.726	8518.79
285.794	8505.51
285.862	8505.41
285.93	8514.03
285.997	8512.39
286.065	8511.28
286.133	8503.58
286.201	8498.15
286.269	8483.08
286.336	8468.12
286.404	8459.98
286.472	8466.87
286.539	8449.83
286.607	8437.51
286.675	8441.36
286.743	8454.84
286.81	8453.78
286.878	8471.87
286.946	8462.1
287.013	8469.85
287.081	8472.21
287.149	8461.33
287.216	8481.16
287.284	8478.51
287.352	8479.09
287.419	8473.7
287.487	8482.36
287.555	8479.81
287.622	8479.23
287.69	8484.33
287.758	8500.98
287.825	8499.2
287.893	8488.04
287.96	8496.55
288.028	8505.79
288.096	8504.25
288.163	8506.95
288.231	8490.54
288.298	8489.29
288.366	8507.57
288.433	8503.29
288.501	8495.21
288.569	8501.41
288.636	8496.6
288.704	8510.85
288.771	8512.92
288.839	8507.57
288.906	8496.22
288.974	8501.22
289.041	8501.99
289.109	8488.66
289.176	8495.21
289.244	8502.67
289.311	8518.89
289.379	8526.06
289.446	8524.9
289.514	8525
289.581	8522.06
289.649	8527.84
289.716	8528.7
289.783	8520.81
289.851	8534.19
289.918	8532.16
289.986	8534.76
290.053	8536.98
290.121	8526.92
290.188	8529.71
290.255	8554.54
290.323	8562.24
290.39	8561.81
290.458	8570.18
290.525	8588.61
290.592	8580.24
290.66	8579.9
290.727	8568.93
290.794	8579.71
290.862	8579.08
290.929	8586.35
290.996	8585.39
291.064	8598.86
291.131	8602.91
291.198	8615.08
291.266	8621
291.333	8625.43
291.4	8632.41
291.468	8649.59
291.535	8656.91
291.602	8659.02
291.669	8649.49
291.737	8651.95
291.804	8656.57
291.871	8667.59
291.938	8676.01
292.006	8704.41
292.073	8719.19
292.14	8726.6
292.207	8723.04
292.275	8726.55
292.342	8729.97
292.409	8757.93
292.476	8778.78
292.543	8776.9
292.611	8775.46
292.678	8787.92
292.745	8811.31
292.812	8822.29
292.879	8819.5
292.946	8822
293.014	8840.58
293.081	8853.77
293.148	8862.05
293.215	8873.07
293.282	8867.78
293.349	8880.68
293.416	8862.53
293.484	8872.98
293.551	8888.91
293.618	8904.22
293.685	8925.44
293.752	8919.76
293.819	8912.88
293.886	8897.76
293.953	8906.24
294.02	8920.68
294.087	8923.61
294.154	8918.32
294.221	8932.76
294.288	8934.83
294.356	8949.32
294.423	8953.61
294.49	8943.88
294.557	8955.1
294.624	8950.28
294.691	8976.9
294.758	8974.55
294.825	8988.07
294.892	8979.6
294.959	8980.03
295.026	8990.34
295.093	8986.15
295.16	8993.08
295.226	8995.92
295.293	9022.25
295.36	9027.69
295.427	9036.07
295.494	9051.91
295.561	9062.98
295.628	9084.12
295.695	9096.69
295.762	9102.08
295.829	9112.58
295.896	9135.49
295.963	9146.47
296.03	9156.24
296.096	9157.3
296.163	9167.56
296.23	9170.64
296.297	9186.43
296.364	9181.61
296.431	9182.63
296.498	9181.28
296.564	9204.92
296.631	9210.21
296.698	9195.38
296.765	9211.42
296.832	9198.85
296.899	9188.02
296.965	9205.35
297.032	9185.46
297.099	9206.02
297.166	9211.17
297.233	9207.8
297.299	9201.4
297.366	9200.82
297.433	9202.27
297.5	9207.47
297.566	9205.64
297.633	9210.74
297.7	9210.07
297.767	9215.75
297.833	9225.43
297.9	9228.84
297.967	9216.33
298.033	9227.16
298.1	9258.41
298.167	9254.66
298.234	9261.11
298.3	9270.98
298.367	9261.11
298.434	9270.06
298.5	9260.19
298.567	9257.59
298.634	9253.69
298.7	9265.68
298.767	9267.41
298.834	9277.96
298.9	9273.48
298.967	9269.48
299.033	9278.92
299.1	9294.47
299.167	9305.93
299.233	9304.25
299.3	9321.92
299.366	9331.84
299.433	9349.27
299.5	9323.8
299.566	9328.32
299.633	9351.44
299.699	9360.83
299.766	9362.41
299.832	9359
299.899	9366.85
299.965	9385.05
300.032	9382.54
300.099	9387.36
300.165	9396.27
300.232	9396.89
300.298	9401.66
300.365	9413.31
300.431	9422.9
300.498	9409.65
300.564	9416.88
300.631	9423.23
300.697	9434.02
300.763	9437.97
300.83	9436.57
300.896	9443.65
300.963	9455.26
301.029	9459.35
301.096	9463.16
301.162	9477.46
301.229	9478.47
301.295	9467.34
301.361	9467.83
301.428	9469.99
301.494	9458.48
301.561	9460.12
301.627	9461.37
301.693	9467.06
301.76	9472.83
301.826	9461.13
301.892	9480.54
301.959	9489.4
302.025	9484.49
302.092	9474.57
302.158	9477.26
302.224	9475.63
302.291	9474.66
302.357	9467.01
302.423	9459.54
302.49	9446.44
302.556	9460.17
302.622	9461.37
302.688	9469.99
302.755	9481.02
302.821	9488.92
302.887	9498.45
302.954	9499.99
303.02	9509.34
303.086	9513.09
303.152	9509.53
303.219	9506.45
303.285	9512.18
303.351	9519.45
303.417	9525.71
303.483	9521.47
303.55	9515.5
303.616	9516.47
303.682	9511.89
303.748	9508.57
303.815	9524.99
303.881	9542.76
303.947	9526
304.013	9526.72
304.079	9518.2
304.145	9502.31
304.212	9504.72
304.278	9498.31
304.344	9494.7
304.41	9481.12
304.476	9471.78
304.542	9465.23
304.608	9470.72
304.674	9451.41
304.741	9444.57
304.807	9440.38
304.873	9443.8
304.939	9458.29
305.005	9437.58
305.071	9436.77
305.137	9434.45
305.203	9400.84
305.269	9396.55
305.335	9403.15
305.401	9397.42
305.467	9399.01
305.533	9402.96
305.599	9407.44
305.666	9418.61
305.732	9415.77
305.798	9427.71
305.864	9450.2
305.93	9456.41
305.996	9458.29
306.062	9462
306.128	9460.75
306.194	9452.99
306.259	9452.32
306.325	9445.67
306.391	9455.98
306.457	9468.55
306.523	9470.52
306.589	9500.71
306.655	9490.22
306.721	9477.65
306.787	9465.61
306.853	9480.2
306.919	9461.28
306.985	9456.94
307.051	9447.27
307.117	9441.1
307.183	9435.42
307.248	9410.18
307.314	9417.65
307.38	9418.56
307.446	9422.37
307.512	9407.73
307.578	9411.58
307.644	9403.3
307.709	9407.15
307.775	9406.14
307.841	9407.01
307.907	9410.81
307.973	9390.44
308.039	9391.5
308.104	9392.51
308.17	9398.38
308.236	9382.35
308.302	9392.07
308.368	9377.39
308.433	9380.42
308.499	9376.28
308.565	9367.37
308.631	9370.31
308.696	9341.71
308.762	9321.72
308.828	9318.31
308.894	9296.59
308.959	9271.56
309.025	9267.18
309.091	9259.95
309.156	9246.85
309.222	9238.33
309.288	9219.79
309.354	9193.32
309.419	9193.32
309.485	9179.69
309.551	9180.56
309.616	9164.19
309.682	9156.05
309.748	9149.12
309.813	9139.97
309.879	9132.55
309.945	9126.25
310.01	9113.78
310.076	9121.14
310.141	9120.9
310.207	9104.14
310.273	9107.85
310.338	9117.29
310.404	9102.56
310.469	9087.2
310.535	9082.14
310.601	9065.96
310.666	9077.23
310.732	9097.88
310.797	9083.49
310.863	9078
310.928	9070.2
310.994	9075.74
311.059	9070.92
311.125	9068.8
311.191	9077.33
311.256	9063.17
311.322	9062.55
311.387	9049.41
311.453	9446.05
311.518	9421.45
311.584	9420.97
311.649	9430.79
311.715	9419.33
311.78	9419.48
311.846	9406.29
311.911	9411.2
311.976	9411.73
312.042	9391.7
312.107	9367.1
312.173	9357.13
312.238	9351.41
312.304	9347.03
312.369	9331.81
312.434	9320.98
312.5	9311.79
312.565	9278.18
312.631	9289.16
312.696	9279.82
312.761	9280.69
312.827	8869.94
312.892	8911.15
312.958	8909.61
313.023	8900.12
313.088	8900.12
313.154	8882.94
313.219	8878.9
313.284	8868.21
313.35	8856.71
313.415	8845.59
313.48	8840.53
313.546	8843.33
313.611	8848.53
313.676	8836.59
313.741	8829.75
313.807	8835.53
313.872	8838.56
313.937	8844.67
314.003	8859.55
314.068	8859.46
314.133	8861.57
314.198	8856.81
314.264	8834.8
314.329	8821.47
314.394	8819.06
314.459	8813.24
314.525	8841.35
314.59	8837.69
314.655	8823.93
314.72	8830.81
314.785	8831.24
314.851	8831.48
314.916	8806.31
314.981	8794.57
315.046	8792.45
315.111	8784.46
315.176	8772.72
315.242	8773.24
315.307	8772.72
315.372	8739.64
315.437	8727.32
315.502	8724.29
315.567	8731.85
315.632	8711.25
315.698	8711.97
315.763	8709.56
315.828	8700.75
315.893	8686.7
315.958	8684.24
316.023	8679.96
316.088	8667.74
316.153	8647.72
316.218	8637.37
316.283	8626.69
316.348	8603.98
316.413	8598.92
316.479	8582.13
316.544	8550.47
316.609	8523.96
316.674	8486.04
316.739	8456.74
316.804	8431.67
316.869	8393.22
316.934	8353.43
316.999	8327.3
317.064	8277.85
317.129	8235.45
317.194	8202.55
317.259	8154.68
317.324	8105.8
317.389	8060.92
317.454	8023.16
317.518	7995.07
317.583	7974.19
317.648	7956.54
317.713	7919.84
317.778	7865.88
317.843	7844.19
317.908	7808.75
317.973	7772.82
318.038	7743.3
318.103	7704.6
318.168	7665.7
318.233	7635.79
318.297	7587.95
318.362	7547.71
318.427	7509.31
318.492	7480.22
318.557	7430.42
318.622	7404.08
318.687	7380.67
318.751	7337.52
318.816	7302.38
318.881	7267.44
318.946	7211.2
319.011	7162.18
319.075	7127.68
319.14	7089.43
319.205	7038.06
319.27	7000.59
319.335	6948.32
319.399	6908.83
319.464	6882.36
319.529	6832.03
319.594	6793.26
319.658	6764.2
319.723	6719.01
319.788	6692.12
319.853	6634.82
319.917	6607.5
319.982	6553.14
320.047	6515.06
320.112	6490.24
320.176	6439.1
320.241	6403.33
320.306	6369.58
320.37	6326.53
320.435	6293.5
320.5	6270.46
320.564	6233.21
320.629	6195.16
320.694	6169.39
320.758	6130.09
320.823	6084.56
320.888	6059.32
320.952	6008.71
321.017	5964.9
321.082	5930.08
321.146	5894.87
321.211	5867.29
321.275	5827.1
321.34	5789.07
321.405	5744.85
321.469	5698.96
321.534	5657.45
321.598	5609.02
321.663	5577.13
321.727	5546.78
321.792	5500.28
321.857	5451.09
321.921	5412.74
321.986	5369.38
322.05	5314.09
322.115	5277.33
322.179	5238.14
322.244	5181.8
322.308	5147.98
322.373	5102.91
322.437	5065.17
322.502	5039.48
322.566	4992.97
322.631	4957.53
322.695	4916.4
322.76	4873.69
322.824	4841.23
322.889	4798.92
322.953	4755.13
323.018	4691.46
323.082	4629.83
323.146	4578.01
323.211	4524.76
323.275	4481.83
323.34	4438.6
323.404	4404.88
323.468	4359.43
323.533	4316.52
323.597	4276.66
323.662	4232.75
323.726	4201.14
323.79	4153.23
323.855	4088.09
323.919	4044.15
323.983	3999.12
324.048	3933.58
324.112	4072.14
324.177	3942.21
324.241	3739.76
324.305	3539.97
324.37	3345.35
324.434	3157.7
324.498	3116.47
324.562	3069.15
324.627	3011.17
324.691	2958.82
324.755	2894.73
324.82	2820.81
324.884	2743.51
324.948	2670.44
325.012	2572.06
325.077	2446.95
