Data from 20250702_urea_0.5M_MAYP1162681_03-54-59-528.txt Node
Date: Thu Jul 03 03:54:59 BST 2025
User: adleo
Spectrometer: MAYP116268
Trigger mode: 0
Integration Time (sec): 1.000000E0
Scans to average: 1
Electric dark correction enabled: true
Nonlinearity correction enabled: true
Boxcar width: 10
XAxis mode: Wavelengths
Number of Pixels in Spectrum: 2068
>>>>>Begin Spectral Data<<<<<
179.565	1168.2
179.642	1220.95
179.718	1266.12
179.795	1300.85
179.871	1334.73
179.948	1350.85
180.024	1370.71
180.101	1394.18
180.177	1409.61
180.254	1434.28
180.33	1455.37
180.407	1508.59
180.483	1602.08
180.56	1692.11
180.636	1774.96
180.712	1764.5
180.789	1775.62
180.865	1786.26
180.942	1792.63
181.018	1804.7
181.095	1821.01
181.171	1825.62
181.248	1827.33
181.324	1841.12
181.4	1851.96
181.477	1862.27
181.553	1876.53
181.63	1899.11
181.706	1916.8
181.782	1924.07
181.859	1918.75
181.935	1927.59
182.011	1919.03
182.088	1935.82
182.164	1952.51
182.24	1966.39
182.317	1974.52
182.393	1972.57
182.469	1989.59
182.546	2004.14
182.622	2007.14
182.698	2001.29
182.775	2013.89
182.851	2025.4
182.927	2016.5
183.003	2011.61
183.08	2005.85
183.156	2014.56
183.232	2007.99
183.308	1992.73
183.385	2000.71
183.461	2020.5
183.537	2019.4
183.613	2035.09
183.69	2027.06
183.766	2014.45
183.842	2019.59
183.918	2027.58
183.995	2041.75
184.071	2043.65
184.147	2038.09
184.223	2029.96
184.299	2041.14
184.375	2028.72
184.452	2040.19
184.528	2096.62
184.604	2105.22
184.68	2115.49
184.756	2121.77
184.832	2128.67
184.908	2134.9
184.985	2133.57
185.061	2115.31
185.137	2123.73
185.213	2113.55
185.289	2114.97
185.365	2109.36
185.441	2107.94
185.517	2117.74
185.593	2111.98
185.669	2109.94
185.745	2120.35
185.822	2134.67
185.898	2128.48
185.974	2138.61
186.05	2129.81
186.126	2089.93
186.202	2083.89
186.278	2082.66
186.354	2076
186.43	2080.14
186.506	2079.09
186.582	2079.61
186.658	2090.36
186.734	2070.62
186.81	2072.05
186.886	2073.72
186.962	2086.89
187.038	2084.22
187.114	2079.13
187.19	2087.6
187.266	2076.71
187.341	2077.62
187.417	2068.96
187.493	2067.63
187.569	2069.1
187.645	2060.69
187.721	2049.32
187.797	2055.26
187.873	2056.92
187.949	2051.5
188.025	2047.74
188.101	2051.03
188.176	2055.4
188.252	2050.46
188.328	2058.77
188.404	2059.58
188.48	2053.02
188.556	2046.08
188.632	2045.7
188.707	2043.41
188.783	2041.89
188.859	2038.13
188.935	2024.82
189.011	2033.09
189.086	2026.96
189.162	2017.78
189.238	2017.07
189.314	2014.74
189.39	2011.26
189.465	2005.79
189.541	2018.64
189.617	2003.47
189.693	1995.72
189.768	1999
189.844	2021.93
189.92	2013.47
189.996	2021.93
190.071	2032.92
190.147	2031.59
190.223	2039.44
190.298	2034.44
190.374	2020.65
190.45	2033.15
190.526	2045.14
190.601	2041.81
190.677	2044.28
190.753	2071.98
190.828	2074.35
190.904	2090.58
190.98	2106.32
191.055	2115.03
191.131	2109.08
191.207	2129.72
191.282	2139.95
191.358	2131.81
191.433	2117.25
191.509	2130.9
191.585	2127.14
191.66	2130.37
191.736	2138.27
191.811	2128.14
191.887	2142.46
191.963	2167.58
192.038	2174.05
192.114	2176.05
192.189	2178.76
192.265	2172.39
192.34	2154.06
192.416	2154.92
192.491	2150.97
192.567	2153.54
192.642	2157.49
192.718	2158.15
192.793	2147.12
192.869	2147.21
192.944	2150.35
193.02	2157.82
193.095	2160.72
193.171	2170.43
193.246	2170.86
193.322	2168.81
193.397	2172.76
193.473	2160.39
193.548	2141.07
193.624	2144.73
193.699	2138.97
193.775	2156.82
193.85	2159.81
193.925	2167.86
194.001	2167.86
194.076	2158.48
194.152	2144.31
194.227	2135.17
194.302	2123
194.378	2124.04
194.453	2120.62
194.529	2130.94
194.604	2117.1
194.679	2111.49
194.755	2089.47
194.83	2100.84
194.905	2097.28
194.981	2105.32
195.056	2100.32
195.131	2104.18
195.207	2103.18
195.282	2095.04
195.357	2074.82
195.433	2091.99
195.508	2078.53
195.583	2084.28
195.659	2097.98
195.734	2109.31
195.809	2111.11
195.884	2124.05
195.96	2126.19
196.035	2140.75
196.11	2135.94
196.185	2149.31
196.261	2151.64
196.336	2182.61
196.411	2166.09
196.486	2172.9
196.561	2167.85
196.637	2173.99
196.712	2191.17
196.787	2191.93
196.862	2206.49
196.937	2216.62
197.013	2221.14
197.088	2230.8
197.163	2253.5
197.238	2269.93
197.313	2267.88
197.388	2280.21
197.464	2308.68
197.539	2319.48
197.614	2310.2
197.689	2325.81
197.764	2341
197.839	2361.41
197.914	2354.75
197.989	2376.45
198.065	2388.3
198.14	2437.7
198.215	2467.41
198.29	2477.08
198.365	2493.27
198.44	2502.5
198.515	2529.6
198.59	2545.26
198.665	2572.79
198.74	2577.17
198.815	2581.6
198.89	2604.17
198.965	2634.81
199.04	2629.66
199.115	2645.61
199.19	2690.15
199.265	2691.67
199.34	2699.53
199.415	2731.27
199.49	2754.08
199.565	2764.8
199.64	2789.91
199.715	2785.95
199.79	2790.76
199.865	2798.91
199.94	2792.63
200.015	2824.36
200.09	2828.03
200.165	2835.56
200.24	2842.57
200.315	2884.78
200.39	2896.55
200.464	2904.27
200.539	2905.18
200.614	2920.05
200.689	2940.93
200.764	2946.32
200.839	2963.13
200.914	2970
200.989	2958.65
201.063	2968.94
201.138	2951.8
201.213	2951.99
201.288	2934.35
201.363	2937.4
201.438	2937.4
201.512	2953.79
201.587	2939.15
201.662	2945.35
201.737	2955.79
201.812	2964.66
201.886	2931.88
201.961	2941.61
202.036	2927.75
202.111	2922.41
202.186	2895.54
202.26	2881.05
202.335	2858.21
202.41	2852.73
202.485	2835.25
202.559	2819.86
202.634	2794.32
202.709	2804.22
202.784	2787.78
202.858	2787.35
202.933	2767.34
203.008	2762.86
203.082	2744.14
203.157	2741.81
203.232	2700.23
203.306	2680.78
203.381	2644.71
203.456	2622.56
203.53	2601.01
203.605	2581.68
203.68	2561.96
203.754	2553.53
203.829	2538.62
203.904	2516.72
203.978	2502.76
204.053	2509
204.127	2494.67
204.202	2495.96
204.277	2477.82
204.351	2468.91
204.426	2460.44
204.5	2455.63
204.575	2421.11
204.65	2433.4
204.724	2424.78
204.799	2431.82
204.873	2425.44
204.948	2429.29
205.022	2418.16
205.097	2411.68
205.171	2426.53
205.246	2434.82
205.32	2434.77
205.395	2433.67
205.469	2428.87
205.544	2437.87
205.618	2419.49
205.693	2433.3
205.767	2420.07
205.842	2443.97
205.916	2438.16
205.991	2429.78
206.065	2434.64
206.14	2451.72
206.214	2446.1
206.289	2440.48
206.363	2451.62
206.438	2453.14
206.512	2458.29
206.586	2477.76
206.661	2482.81
206.735	2460.2
206.81	2458.92
206.884	2476.91
206.958	2467.15
207.033	2484
207.107	2489.76
207.181	2519.44
207.256	2511.29
207.33	2532.48
207.405	2546.64
207.479	2567.5
207.553	2576.54
207.628	2562.45
207.702	2573.26
207.776	2571.26
207.851	2577.74
207.925	2597.94
207.999	2601.56
208.073	2600.85
208.148	2605.8
208.222	2601.89
208.296	2639.74
208.371	2663.01
208.445	2679.21
208.519	2712.55
208.593	2734.56
208.668	2738.66
208.742	2753.06
208.816	2768.35
208.89	2793.85
208.965	2802.44
209.039	2822.08
209.113	2851.77
209.187	2888.69
209.261	2901.65
209.336	2938.83
209.41	2978.07
209.484	2998.58
209.558	3042.89
209.632	3080.69
209.707	3114.98
209.781	3159.19
209.855	3201.46
209.929	3245.54
210.003	3279.94
210.077	3311.14
210.151	3386.22
210.226	3457.03
210.3	3522.88
210.374	3579.85
210.448	3619.25
210.522	3669.88
210.596	3722.94
210.67	3775.77
210.744	3866.22
210.818	3940.58
210.892	4006.2
210.966	4045.66
211.041	4113.25
211.115	4160.33
211.189	4239.7
211.263	4312.13
211.337	4376.45
211.411	4447.11
211.485	4500.23
211.559	4572.27
211.633	4636.83
211.707	4670.25
211.781	4741.96
211.855	4768.43
211.929	4827.05
212.003	4877.05
212.077	4954.27
212.151	5036.61
212.225	5114.59
212.299	5178.54
212.373	5246.04
212.447	5321.2
212.52	5431.67
212.594	5512.41
212.668	5600.56
212.742	5664.48
212.816	5745.53
212.89	5824.61
212.964	5903.96
213.038	5991.49
213.112	6089.38
213.186	6192.24
213.26	6265.12
213.333	6313.07
213.407	6405.58
213.481	6501.84
213.555	6610.06
213.629	6691.95
213.703	6770.34
213.777	6866.27
213.85	6940.88
213.924	7063.03
213.998	7151.21
214.072	7235
214.146	7315.74
214.219	7406.25
214.293	7498.58
214.367	7586.8
214.441	7688.2
214.515	7770.23
214.588	7840.58
214.662	7899.64
214.736	7964.9
214.81	8056.4
214.883	8150.85
214.957	8231.98
215.031	8309.52
215.105	8376.38
215.178	8447.88
215.252	8529.49
215.326	8593.89
215.4	8661.69
215.473	8706.46
215.547	8777.36
215.621	8851.4
215.694	8936.09
215.768	8999.82
215.842	9068.38
215.915	9139.4
215.989	9193.76
216.063	9273.74
216.136	9358.25
216.21	9442.03
216.284	9543.4
216.357	9634.81
216.431	9712.35
216.504	9802.7
216.578	9909.63
216.652	9997.72
216.725	10080.09
216.799	10167.38
216.873	10252.07
216.946	10343.12
217.02	10415.67
217.093	10494.83
217.167	10553.51
217.24	10619.04
217.314	10690.92
217.387	10756.35
217.461	10832.29
217.535	10928.62
217.608	10985.43
217.682	11063.11
217.755	11148.51
217.829	11210.82
217.902	11278.15
217.976	11352.27
218.049	11410.78
218.123	11460.66
218.196	11534.83
218.27	11609.06
218.343	11666.17
218.417	11735.44
218.49	11803.69
218.563	11888.56
218.637	11959.42
218.71	12051.53
218.784	12128.13
218.857	12216.09
218.931	12296.49
219.004	12366.05
219.077	12433.53
219.151	12513.94
219.224	12578.77
219.298	12642.02
219.371	12718.18
219.444	12775.59
219.518	12843.99
219.591	12926.91
219.665	13022.5
219.738	13096.21
219.811	13145.81
219.885	13222.7
219.958	13288.98
220.031	13354.01
220.105	13437.12
220.178	13508.22
220.251	13559.61
220.325	13623.92
220.398	13691.84
220.471	13758.51
220.544	13832.07
220.618	13885
220.691	13945.79
220.764	14014.2
220.838	14078.07
220.911	14136.88
220.984	14228.33
221.057	14299.43
221.131	14357.37
221.204	14391.89
221.277	14473.88
221.35	14561.52
221.424	14617.82
221.497	14689.84
221.57	14745.71
221.643	14800.47
221.716	14864.39
221.79	14923.39
221.863	14979.26
221.936	15027.85
222.009	15089.45
222.082	15140.5
222.155	15196.36
222.229	15274.02
222.302	15328
222.375	15382.57
222.448	15442.58
222.521	15487.55
222.594	15537.25
222.667	15583.18
222.74	15648.06
222.814	15687.59
222.887	15742.44
222.96	15804.13
223.033	15864.57
223.106	15913.5
223.179	15964.44
223.252	16009.41
223.325	16057.42
223.398	16108.51
223.471	16156.51
223.544	16205.63
223.617	16254.02
223.69	16304.58
223.763	16331.67
223.837	16380.49
223.91	16435.87
223.983	16455.63
224.056	16479.78
224.129	16524.07
224.202	16581.38
224.275	16612.27
224.348	16635.5
224.42	16664.37
224.493	16685
224.566	16706.06
224.639	16749.87
224.712	16776.18
224.785	16805.2
224.858	16839.7
224.931	16870.94
225.004	16901.3
225.077	16931.28
225.15	16945.35
225.223	16983.95
225.296	17041.98
225.369	17062.94
225.442	17087.42
225.514	17134.41
225.587	17181.35
225.66	17215.96
225.733	17242.9
225.806	17284.1
225.879	17323.14
225.952	17342.9
226.025	17386.22
226.097	17436.15
226.17	17463.62
226.243	17476.78
226.316	17518.27
226.389	17552.3
226.461	17584.25
226.534	17620.25
226.607	17649.31
226.68	17706.61
226.753	17741.93
226.825	17754.51
226.898	17794.36
226.971	17824.77
227.044	17862.65
227.117	17885.4
227.189	17916.24
227.262	17958.94
227.335	17992.57
227.407	18008.53
227.48	18043.42
227.553	18082.88
227.626	18105.82
227.698	18148.76
227.771	18188.23
227.844	18197.53
227.916	18225.29
227.989	18244.95
228.062	18265.72
228.134	18312.22
228.207	18335.31
228.28	18348.61
228.352	18374.1
228.425	18397.38
228.498	18432.94
228.57	18443.78
228.643	18488.17
228.716	18520.55
228.788	18530.82
228.861	18545.75
228.934	18586.38
229.006	18609.12
229.079	18620.88
229.151	18627.58
229.224	18629.75
229.296	18650.47
229.369	18697.65
229.442	18738.51
229.514	18752.73
229.587	18789.5
229.659	18788
229.732	18810.51
229.804	18842.27
229.877	18886.02
229.949	18922.31
230.022	18955.85
230.094	18978.45
230.167	18991.9
230.239	18987.8
230.312	19014.93
230.384	19062.11
230.457	19080.61
230.529	19100.76
230.602	19125.14
230.674	19156.08
230.747	19189.91
230.819	19219.35
230.892	19209.42
230.964	19223.45
231.037	19246.68
231.109	19253.18
231.181	19286.67
231.254	19285.52
231.326	19294.09
231.399	19297.56
231.471	19303.06
231.544	19284.07
231.616	19303.59
231.688	19323.1
231.761	19332.21
231.833	19323.39
231.905	19294.62
231.978	19309.9
232.05	19316.07
232.122	19323.63
232.195	19322.43
232.267	19334.19
232.339	19336.89
232.412	19368.02
232.484	19366.43
232.556	19377.27
232.629	19408.45
232.701	19414.28
232.773	19430.47
232.846	19432.01
232.918	19433.84
232.99	19435.68
233.062	19457.75
233.135	19460.73
233.207	19443.92
233.279	19463.1
233.351	19484.44
233.424	19490.76
233.496	19481.74
233.568	19504.83
233.64	19494.18
233.713	19491.14
233.785	19486.66
233.857	19490.27
233.929	19463.63
234.001	19480.83
234.074	19483.87
234.146	19462.85
234.218	19455.05
234.29	19446.13
234.362	19434.33
234.434	19413.99
234.507	19404.79
234.579	19387.49
234.651	19377.8
234.723	19380.35
234.795	19366.38
234.867	19350.67
234.939	19359.1
235.012	19349.22
235.084	19345.75
235.156	19336.65
235.228	19322.57
235.3	19317.27
235.372	19304.89
235.444	19312.84
235.516	19279.49
235.588	19269.61
235.66	19254.48
235.732	19240.07
235.804	19288.84
235.876	19290.87
235.948	19293.37
236.02	19269.81
236.092	19254.96
236.164	19242.82
236.236	19232.03
236.308	19228.03
236.38	19221.91
236.452	19202.92
236.524	19200.85
236.596	19188.32
236.668	19183.64
236.74	19175.07
236.812	19162.49
236.884	19161.96
236.956	19155.4
237.028	19137.53
237.1	19110.2
237.172	19113.72
237.244	19123.45
237.316	19058.3
237.388	19032.62
237.46	19018.06
237.532	19029.77
237.604	19009.92
237.675	19007.56
237.747	18996.43
237.819	18970.55
237.891	18952.24
237.963	18925.92
238.035	18904.29
238.107	18857.4
238.178	18854.31
238.25	18824.2
238.322	18825.83
238.394	18785.31
238.466	18752.15
238.538	18732.92
238.609	18722.76
238.681	18680.16
238.753	18638.52
238.825	18627.15
238.897	18607.05
238.968	18591.58
239.04	18552.5
239.112	18553.03
239.184	18518.72
239.255	18493.32
239.327	18466.1
239.399	18443.45
239.471	18425.66
239.542	18400.17
239.614	18391.45
239.686	18342.78
239.758	18330.97
239.829	18297.29
239.901	18282.39
239.973	18263.5
240.044	18244.85
240.116	18220.57
240.188	18192.04
240.259	18166.54
240.331	18127.12
240.403	18103.66
240.474	18061.1
240.546	18022.55
240.618	17974.07
240.689	17937.44
240.761	17909.93
240.833	17899.33
240.904	17865.54
240.976	17837.25
241.048	17813.35
241.119	17797.02
241.191	17769.16
241.262	17769.88
241.334	17722.66
241.405	17691.28
241.477	17652.97
241.549	17623.62
241.62	17589.93
241.692	17576.39
241.763	17554.37
241.835	17530.47
241.906	17504.73
241.978	17465.6
242.049	17449.45
242.121	17430.42
242.192	17424.25
242.264	17378.51
242.335	17335.28
242.407	17313.98
242.478	17277.11
242.55	17256.15
242.621	17220.87
242.693	17193.26
242.764	17147.96
242.836	17120.2
242.907	17098.61
242.979	17073.79
243.05	17043.67
243.122	17031.47
243.193	16990.02
243.264	16945.83
243.336	16908.62
243.407	16886.5
243.479	16873.25
243.55	16853.15
243.622	16822.74
243.693	16790.79
243.764	16778.64
243.836	16735.36
243.907	16711.55
243.978	16678.92
244.05	16644.37
244.121	16587.83
244.192	16559.78
244.264	16523.88
244.335	16493.13
244.407	16445.7
244.478	16429.03
244.549	16399.29
244.62	16346.71
244.692	16327.23
244.763	16307.42
244.834	16268.38
244.906	16235.75
244.977	16216.52
245.048	16201.73
245.119	16166.3
245.191	16121.53
245.262	16066.48
245.333	16060.41
245.405	16026.09
245.476	16004.35
245.547	15979.1
245.618	15962.18
245.689	15940.64
245.761	15911.91
245.832	15885.16
245.903	15865.54
245.974	15834.07
246.045	15796.47
246.117	15788.95
246.188	15742.05
246.259	15699.4
246.33	15677.56
246.401	15645.89
246.473	15592
246.544	15541.83
246.615	15525.68
246.686	15496.62
246.757	15490.21
246.828	15446.44
246.899	15426
246.97	15384.79
247.042	15348.2
247.113	15322.56
247.184	15304.44
247.255	15264.04
247.326	15236.52
247.397	15201.28
247.468	15166
247.539	15140.79
247.61	15099.05
247.681	15081.02
247.752	15071.91
247.823	15028.09
247.894	15001.53
247.965	14971.64
248.037	14946.29
248.108	14898.13
248.179	14868.87
248.25	14833.2
248.321	14803.36
248.392	14767.07
248.463	14761.86
248.534	14727.88
248.605	14715.78
248.675	14689.89
248.746	14671.48
248.817	14652.58
248.888	14633.16
248.959	14593.77
249.03	14573.43
249.101	14543.45
249.172	14510.91
249.243	14448.92
249.314	14442.94
249.385	14409
249.456	14383.12
249.527	14350.29
249.598	14326.86
249.669	14298.03
249.739	14270.22
249.81	14250.79
249.881	14204.23
249.952	14176.99
250.023	14144.55
250.094	14099.43
250.165	14056.76
250.235	14027.26
250.306	13994.58
250.377	13950.66
250.448	13922.27
250.519	13865.96
250.59	13857.29
250.66	13832.99
250.731	13838.87
250.802	13807.97
250.873	13790.18
250.944	13774.28
251.014	13742.51
251.085	13751.09
251.156	13722.69
251.227	13713.01
251.297	13703.46
251.368	13692.32
251.439	13672.46
251.51	13665.18
251.58	13635.63
251.651	13609.6
251.722	13600.64
251.792	13562.6
251.863	13544.04
251.934	13539.94
252.005	13552.38
252.075	13524.32
252.146	13505.77
252.217	13482.77
252.287	13465.85
252.358	13436.15
252.429	13430.27
252.499	13402.55
252.57	13376.91
252.641	13367.22
252.711	13349.58
252.782	13311.69
252.852	13308.46
252.923	13284.74
252.994	13262.56
253.064	13245.26
253.135	13215.66
253.205	13176.51
253.276	13175.07
253.347	13167.26
253.417	13129.22
253.488	13096.06
253.558	13070.89
253.629	13051.81
253.699	13031.51
253.77	13021.34
253.841	12998.3
253.911	12973.42
253.982	12946.52
254.052	12924.11
254.123	12905.69
254.193	12873.15
254.264	12892.77
254.334	12857.39
254.405	12823.94
254.475	12782.29
254.546	12756.74
254.616	12749.22
254.687	12736.11
254.757	12710.94
254.827	12689.44
254.898	12678.45
254.968	12664.42
255.039	12630.3
255.109	12612.41
255.18	12585.37
255.25	12540.15
255.321	12525.55
255.391	12487.8
255.461	12496.24
255.532	12454.11
255.602	12431.4
255.673	12393.18
255.743	12357.12
255.813	12315.76
255.884	12303.57
255.954	12301.93
256.024	12294.17
256.095	12263.99
256.165	12233.19
256.235	12217.48
256.306	12189.47
256.376	12177.23
256.446	12162.23
256.517	12150.47
256.587	12141.99
256.657	12119.96
256.728	12105.5
256.798	12086.99
256.868	12064.53
256.938	12033.78
257.009	12022.55
257.079	12010.25
257.149	12022.21
257.219	11975.26
257.29	11964.99
257.36	11928.07
257.43	11923.2
257.5	11891.73
257.571	11874.72
257.641	11858.13
257.711	11826.47
257.781	11814.27
257.852	11802.51
257.922	11760.53
257.992	11738.41
258.062	11715.7
258.132	11710.16
258.202	11687.85
258.273	11671.22
258.343	11673.24
258.413	11651.26
258.483	11630.34
258.553	11593.23
258.623	11559.98
258.693	11551.25
258.764	11549.56
258.834	11542.14
258.904	11513.71
258.974	11486.28
259.044	11466.43
259.114	11453.27
259.184	11435.73
259.254	11417.17
259.324	11368.59
259.394	11362.9
259.464	11369.36
259.535	11345.74
259.605	11318.85
259.675	11294.42
259.745	11280.97
259.815	11247.43
259.885	11219.57
259.955	11228.68
260.025	11206.76
260.095	11192.39
260.165	11182.23
260.235	11173.69
260.305	11152.73
260.375	11124.88
260.445	11123.53
260.515	11123.29
260.585	11120.06
260.655	11103.19
260.725	11093.6
260.795	11092.15
260.865	11095.09
260.934	11063.62
261.004	11053.07
261.074	11040.97
261.144	11045.02
261.214	11032.06
261.284	11012.78
261.354	11007.05
261.424	10975
261.494	10978.71
261.564	10957.7
261.634	10949.56
261.703	10915.68
261.773	10902.52
261.843	10897.61
261.913	10884.21
261.983	10846.72
262.053	10835.98
262.123	10811.93
262.192	10782.01
262.262	10773.67
262.332	10744.47
262.402	10738.35
262.472	10720.52
262.541	10682.41
262.611	10668.77
262.681	10650.85
262.751	10651.09
262.821	10633.12
262.89	10602.81
262.96	10585.46
263.03	10584.21
263.1	10566.57
263.169	10556.65
263.239	10556.36
263.309	10557.03
263.379	10551.78
263.448	10539.93
263.518	10520.7
263.588	10515.84
263.657	10516.22
263.727	10512.7
263.797	10493.48
263.867	10473.39
263.936	10448.05
264.006	10446.79
264.076	10430.85
264.145	10412.06
264.215	10384.3
264.285	10385.08
264.354	10360.36
264.424	10345.09
264.494	10317.77
264.563	10300.96
264.633	10300.62
264.702	10288.24
264.772	10253.31
264.842	10227.29
264.911	10216.02
264.981	10190.53
265.05	10175.84
265.12	10158.74
265.19	10144
265.259	10136.24
265.329	10124.29
265.398	10115.67
265.468	10126.12
265.537	10104.74
265.607	10095.92
265.676	10095.15
265.746	10076.36
265.815	10075.74
265.885	10061.04
265.955	10046.21
266.024	10021.01
266.094	9974.87
266.163	9969.14
266.232	9969.86
266.302	9956.18
266.371	9949.39
266.441	9937.15
266.51	9932.14
266.58	9919.19
266.649	9894.67
266.719	9891.29
266.788	9885.13
266.858	9885.03
266.927	9847.61
266.996	9839.37
267.066	9824.15
267.135	9795.63
267.205	9794.09
267.274	9785.38
267.343	9784.75
267.413	9762.89
267.482	9769.39
267.552	9783.45
267.621	9753.06
267.69	9726.08
267.76	9719.53
267.829	9704.56
267.898	9692.32
267.968	9669.93
268.037	9665.11
268.106	9662.13
268.176	9637.56
268.245	9625.09
268.314	9605.2
268.384	9606.69
268.453	9594.7
268.522	9590.32
268.592	9599.27
268.661	9580.73
268.73	9573.41
268.799	9551.88
268.869	9568.21
268.938	9543.89
269.007	9524.19
269.076	9520.05
269.146	9519.23
269.215	9509.7
269.284	9522.65
269.353	9505.46
269.422	9494
269.492	9473.73
269.561	9433.23
269.63	9426.54
269.699	9405.93
269.768	9398.08
269.838	9385.08
269.907	9380.84
269.976	9358.21
270.045	9319.69
270.114	9311.84
270.183	9296.96
270.253	9286.08
270.322	9250.3
270.391	9233.93
270.46	9238.65
270.529	9235.28
270.598	9233.35
270.667	9223.1
270.736	9194.2
270.806	9193.67
270.875	9196.23
270.944	9178.56
271.013	9203.21
271.082	9195.22
271.151	9191.17
271.22	9165.13
271.289	9153.28
271.358	9143.46
271.427	9139.03
271.496	9134.55
271.565	9121.84
271.634	9111.59
271.703	9118.23
271.772	9122.42
271.841	9111.25
271.91	9080.25
271.979	9068.74
272.048	9042.02
272.117	9039.42
272.186	9026.28
272.255	9020.4
272.324	9017.95
272.393	9015.73
272.462	8997.72
272.531	8987.57
272.6	8975.82
272.669	8978.37
272.738	8972.64
272.807	8967.3
272.876	8934.76
272.945	8962.01
273.013	8967.45
273.082	8966.3
273.151	8949.16
273.22	8946.65
273.289	8942.23
273.358	8957.53
273.427	8943.14
273.496	8944.97
273.564	8938.66
273.633	8942.9
273.702	8926.34
273.771	8910.21
273.84	8906.12
273.909	8902.03
273.977	8901.98
274.046	8894.52
274.115	8901.21
274.184	8882.39
274.253	8875.75
274.322	8890.38
274.39	8854.61
274.459	8832.13
274.528	8809.08
274.597	8794.73
274.665	8789.68
274.734	8790.88
274.803	8776.39
274.872	8772.78
274.94	8752.81
275.009	8810.45
275.078	8794.81
275.147	8792.5
275.215	8791.01
275.284	8793.56
275.353	8789.37
275.421	8764.82
275.49	8781.91
275.559	8767.81
275.627	8758.52
275.696	8751.83
275.765	8754.24
275.833	8748.9
275.902	8754.34
275.971	8767.48
276.039	8782.73
276.108	8784.42
276.177	8788.32
276.245	8778.35
276.314	8769.79
276.383	8777.29
276.451	8708.72
276.52	8709.01
276.588	8721.33
276.657	8724.08
276.725	8718.16
276.794	8710.46
276.863	8720.08
276.931	8694.71
277	8704.15
277.068	8716.85
277.137	8734.56
277.205	8735.91
277.274	8749.97
277.342	8750.45
277.411	8723.55
277.48	8708.1
277.548	8695.29
277.617	8693.18
277.685	8690.82
277.754	8698.37
277.822	8692.12
277.89	8713.2
277.959	8713.25
278.027	8696.79
278.096	8689.33
278.164	8712.92
278.233	8709.93
278.301	8702.76
278.37	8709.55
278.438	8692.46
278.507	8694
278.575	8665.6
278.643	8662.23
278.712	8644.81
278.78	8631.38
278.849	8648.9
278.917	8662.81
278.985	8663.92
279.054	8667.91
279.122	8672.29
279.191	8667.77
279.259	8662.23
279.327	8634.55
279.396	8643.36
279.464	8637.3
279.532	8645.05
279.601	8639.56
279.669	8634.84
279.737	8652.89
279.806	8647.26
279.874	8658.38
279.942	8654.53
280.011	8648.13
280.079	8648.22
280.147	8664.54
280.215	8662.76
280.284	8655.35
280.352	8635.9
280.42	8643.94
280.488	8630.32
280.557	8626.47
280.625	8628.78
280.693	8631.33
280.761	8634.7
280.83	8618.67
280.898	8625.94
280.966	8599.91
281.034	8564.63
281.102	8551.2
281.171	8537.92
281.239	8551.15
281.307	8541.29
281.375	8536.43
281.443	8560.73
281.512	8552.89
281.58	8559.67
281.648	8552.07
281.716	8549.71
281.784	8552.26
281.852	8541.34
281.92	8538.74
281.989	8547.4
282.057	8529.5
282.125	8577.79
282.193	8567.92
282.261	8572.73
282.329	8572.73
282.397	8582.02
282.465	8591.02
282.533	8603.77
282.601	8593.37
282.67	8569.74
282.738	8560.98
282.806	8571.52
282.874	8558.29
282.942	8568.92
283.01	8557.66
283.078	8563.63
283.146	8564.93
283.214	8575.37
283.282	8575.51
283.35	8588.56
283.418	8583.31
283.486	8591.88
283.554	8541.62
283.622	8547.2
283.69	8539.12
283.758	8532.19
283.826	8536.37
283.894	8539.98
283.962	8557.94
284.03	8572.47
284.098	8575.07
284.165	8574.73
284.233	8568.57
284.301	8558.95
284.369	8547.4
284.437	8545.23
284.505	8541.91
284.573	8551.39
284.641	8537.19
284.709	8540.66
284.777	8526.12
284.845	8536.04
284.912	8545.23
284.98	8549.75
285.048	8545.13
285.116	8551.77
285.184	8563.47
285.252	8566.89
285.319	8553.89
285.387	8544.89
285.455	8531.56
285.523	8538.68
285.591	8530.79
285.659	8530.99
285.726	8548.46
285.794	8535.61
285.862	8531.81
285.93	8531.18
285.997	8529.02
286.065	8523.92
286.133	8519.15
286.201	8516.17
286.269	8498.26
286.336	8481.37
286.404	8474.06
286.472	8486.14
286.539	8467.33
286.607	8455.34
286.675	8448.12
286.743	8457.6
286.81	8450.77
286.878	8464.29
286.946	8455.39
287.013	8462.7
287.081	8463.62
287.149	8446.72
287.216	8467.08
287.284	8464.53
287.352	8469.63
287.419	8466.84
287.487	8483.83
287.555	8491.77
287.622	8487.58
287.69	8497.69
287.758	8511.74
287.825	8505.63
287.893	8493.79
287.96	8501.92
288.028	8503.07
288.096	8513.04
288.163	8515.68
288.231	8503.65
288.298	8505.24
288.366	8515.97
288.433	8510.82
288.501	8504.38
288.569	8507.7
288.636	8503.85
288.704	8514.77
288.771	8519.82
288.839	8505.97
288.906	8503.66
288.974	8508.85
289.041	8510.54
289.109	8492.69
289.176	8503.37
289.244	8514.15
289.311	8527.14
289.379	8536.19
289.446	8542.35
289.514	8542.93
289.581	8546.25
289.649	8553.08
289.716	8549.33
289.783	8542.2
289.851	8556.11
289.918	8553.61
289.986	8563.04
290.053	8566.46
290.121	8565.59
290.188	8562.22
290.255	8598.89
290.323	8592.01
290.39	8588.21
290.458	8593.89
290.525	8612.03
290.592	8606.16
290.66	8609.33
290.727	8600.28
290.794	8612.36
290.862	8615.2
290.929	8611.93
290.996	8609.04
291.064	8620.88
291.131	8630.22
291.198	8642.54
291.266	8651.35
291.333	8656.35
291.4	8665.3
291.468	8682.49
291.535	8676.52
291.602	8689.23
291.669	8677.24
291.737	8678.16
291.804	8677.05
291.871	8692.02
291.938	8700.63
292.006	8724.56
292.073	8735.19
292.14	8747.66
292.207	8739.81
292.275	8739.33
292.342	8749.34
292.409	8775.53
292.476	8798.54
292.543	8796.85
292.611	8799.55
292.678	8812.21
292.745	8838.92
292.812	8846.58
292.879	8836.71
292.946	8844.17
293.014	8851.29
293.081	8864.82
293.148	8880.8
293.215	8890.81
293.282	8890.33
293.349	8894.47
293.416	8879.4
293.484	8893.65
293.551	8904.67
293.618	8924.46
293.685	8951.56
293.752	8945.59
293.819	8942.65
293.886	8924.07
293.953	8925.56
294.02	8940.49
294.087	8950.84
294.154	8948.86
294.221	8961.77
294.288	8965.66
294.356	8981.07
294.423	8987.76
294.49	8978.08
294.557	8990.07
294.624	8981.5
294.691	9001.53
294.758	9003.79
294.825	9005.86
294.892	8996.96
294.959	8996.72
295.026	9008.51
295.093	8999.36
295.16	9003.6
295.226	9002.44
295.293	9029.79
295.36	9033.83
295.427	9039.51
295.494	9048.57
295.561	9052.56
295.628	9076.5
295.695	9095.22
295.762	9099.85
295.829	9109.28
295.896	9130.37
295.963	9142.89
296.03	9153.38
296.096	9152.8
296.163	9164.65
296.23	9179.67
296.297	9194.54
296.364	9194.02
296.431	9195.51
296.498	9191.66
296.564	9214.67
296.631	9220.06
296.698	9208.99
296.765	9232.29
296.832	9223.57
296.899	9206.63
296.965	9224.3
297.032	9198
297.099	9207.2
297.166	9207.01
297.233	9206.91
297.299	9195.12
297.366	9193.86
297.433	9198.63
297.5	9215.68
297.566	9216.93
297.633	9220.11
297.7	9219.24
297.767	9221.65
297.833	9221.5
297.9	9227.04
297.967	9209.51
298.033	9219.05
298.1	9245.58
298.167	9240.09
298.234	9246.3
298.3	9256.08
298.367	9249.24
298.434	9261.47
298.5	9258.53
298.567	9263.25
298.634	9259.21
298.7	9277.74
298.767	9279.76
298.834	9295.22
298.9	9286.31
298.967	9281.5
299.033	9292.57
299.1	9307.6
299.167	9321.17
299.233	9316.41
299.3	9336.68
299.366	9356.18
299.433	9372.36
299.5	9344
299.566	9345.63
299.633	9359.16
299.699	9369.95
299.766	9366.58
299.832	9367.06
299.899	9370.05
299.965	9384.16
300.032	9379.1
300.099	9385.22
300.165	9389.07
300.232	9382.76
300.298	9383.43
300.365	9402.55
300.431	9397.59
300.498	9391.81
300.564	9391.96
300.631	9409.05
300.697	9413.48
300.763	9410.98
300.83	9405.1
300.896	9420.56
300.963	9426.29
301.029	9432.6
301.096	9438.52
301.162	9452.15
301.229	9451.47
301.295	9441.99
301.361	9439.44
301.428	9447.86
301.494	9429.37
301.561	9434.33
301.627	9443.14
301.693	9440.54
301.76	9439.48
301.826	9437.17
301.892	9448.2
301.959	9459.61
302.025	9456.48
302.092	9451.19
302.158	9463.37
302.224	9468.47
302.291	9463.71
302.357	9463.75
302.423	9459.71
302.49	9450.17
302.556	9461.06
302.622	9458.17
302.688	9471.85
302.755	9486.25
302.821	9492.65
302.887	9509.12
302.954	9507.14
303.02	9513.93
303.086	9521.06
303.152	9516.92
303.219	9512.05
303.285	9518.46
303.351	9520.39
303.417	9521.64
303.483	9512.78
303.55	9502.57
303.616	9501.56
303.682	9497.61
303.748	9487.93
303.815	9502.43
303.881	9515
303.947	9499.15
304.013	9500.65
304.079	9489.33
304.145	9469.49
304.212	9466.94
304.278	9456.29
304.344	9454.03
304.41	9440.84
304.476	9436.98
304.542	9435.01
304.608	9441.99
304.674	9422.82
304.741	9416.42
304.807	9413.53
304.873	9418.68
304.939	9437.32
305.005	9414.06
305.071	9417.91
305.137	9425.18
305.203	9396.96
305.269	9393.59
305.335	9406.98
305.401	9409.58
305.467	9412.61
305.533	9420.08
305.599	9428.51
305.666	9437.17
305.732	9439.2
305.798	9452.63
305.864	9474.83
305.93	9482.92
305.996	9484.61
306.062	9482.3
306.128	9476.86
306.194	9465.68
306.259	9467.03
306.325	9455.09
306.391	9473.1
306.457	9471.94
306.523	9474.01
306.589	9501.51
306.655	9489.23
306.721	9469.54
306.787	9452.78
306.853	9465.44
306.919	9448.25
306.985	9441.7
307.051	9438
307.117	9426.44
307.183	9411.75
307.248	9382.95
307.314	9382.57
307.38	9378.67
307.446	9387.82
307.512	9385.26
307.578	9393.16
307.644	9391.09
307.709	9389.16
307.775	9382.18
307.841	9387
307.907	9388.49
307.973	9364.07
308.039	9361.67
308.104	9370.48
308.17	9374.76
308.236	9355.65
308.302	9361.81
308.368	9348.37
308.433	9348.66
308.499	9347.7
308.565	9343.41
308.631	9349.82
308.696	9322.85
308.762	9310.67
308.828	9307.88
308.894	9292.18
308.959	9271.05
309.025	9258
309.091	9258.05
309.156	9247.94
309.222	9245.43
309.288	9227.38
309.354	9205.28
309.419	9206.77
309.485	9192.18
309.551	9198.87
309.616	9183.52
309.682	9180.05
309.748	9172.11
309.813	9163.39
309.879	9159.39
309.945	9143.7
310.01	9133.49
310.076	9135.85
310.141	9135.51
310.207	9119.38
310.273	9121.31
310.338	9126.36
310.404	9116.01
310.469	9097.09
310.535	9092.13
310.601	9071.77
310.666	9075.91
310.732	9093.14
310.797	9083.61
310.863	9072.49
310.928	9059.1
310.994	9065.99
311.059	9062.95
311.125	9062.52
311.191	9076.87
311.256	9061.37
311.322	9066.52
311.387	9046.4
311.453	9294
311.518	9269.11
311.584	9266.7
311.649	9264.83
311.715	9255.01
311.78	9256.74
311.846	9248.94
311.911	9255.63
311.976	9256.6
312.042	9244.03
312.107	9223.38
312.173	9216.88
312.238	9211.54
312.304	9207.59
312.369	9201.76
312.434	9185.25
312.5	9177.41
312.565	9140.09
312.631	9150.01
312.696	9144.76
312.761	9150.11
312.827	8893.5
312.892	8927.87
312.958	8924.07
313.023	8923.88
313.088	8921.62
313.154	8901.98
313.219	8893.07
313.284	8884.07
313.35	8876.9
313.415	8869.39
313.48	8867.08
313.546	8864.82
313.611	8867.22
313.676	8857.02
313.741	8842.39
313.807	8855.14
313.872	8861.02
313.937	8870.79
314.003	8871.85
314.068	8875.36
314.133	8879.36
314.198	8870.16
314.264	8856.2
314.329	8851.34
314.394	8846.14
314.459	8844.26
314.525	8867.03
314.59	8866.74
314.655	8850.47
314.72	8855.76
314.785	8861.2
314.851	8857.69
314.916	8840.99
314.981	8828.86
315.046	8820.05
315.111	8813.55
315.176	8804.17
315.242	8803.06
315.307	8792.13
315.372	8776.25
315.437	8762.58
315.502	8754.06
315.567	8764.12
315.632	8743.52
315.698	8742.89
315.763	8738.7
315.828	8732.49
315.893	8731.87
315.958	8729.8
316.023	8718.78
316.088	8701.59
316.153	8679.02
316.218	8670.84
316.283	8651.88
316.348	8634.51
316.413	8632.64
316.479	8619.45
316.544	8577.11
316.609	8546.93
316.674	8518.11
316.739	8481.4
316.804	8447.29
316.869	8412.6
316.934	8375.11
316.999	8346.48
317.064	8290.1
317.129	8245.16
317.194	8201.76
317.259	8145.76
317.324	8089.96
317.389	8048.98
317.454	8010.93
317.518	7976.3
317.583	7953.83
317.648	7926.8
317.713	7896.07
317.778	7834.41
317.843	7801.41
317.908	7767.42
317.973	7723.47
318.038	7692.02
318.103	7652.45
318.168	7626.34
318.233	7594.66
318.297	7549.08
318.362	7507.97
318.427	7472.6
318.492	7449.81
318.557	7408.28
318.622	7381.07
318.687	7359.01
318.751	7325.23
318.816	7293.89
318.881	7259.76
318.946	7196.27
319.011	7154.56
319.075	7112.41
319.14	7079.79
319.205	7037.03
319.27	7003.21
319.335	6964.11
319.399	6925.62
319.464	6901.6
319.529	6850.92
319.594	6808.99
319.658	6776.56
319.723	6737.95
319.788	6711.35
319.853	6657.36
319.917	6625.38
319.982	6574.14
320.047	6535.77
320.112	6507.49
320.176	6453.95
320.241	6417.56
320.306	6386.36
320.37	6346.85
320.435	6308.21
320.5	6279.27
320.564	6244.57
320.629	6204.07
320.694	6172.49
320.758	6125.9
320.823	6081.61
320.888	6055.51
320.952	6009.64
321.017	5967.18
321.082	5930.87
321.146	5899.06
321.211	5864.72
321.275	5825.39
321.34	5781.95
321.405	5739.6
321.469	5688.96
321.534	5649.07
321.598	5595.42
321.663	5571.35
321.727	5540.57
321.792	5496.09
321.857	5456.3
321.921	5420.3
321.986	5385.51
322.05	5328.68
322.115	5297.1
322.179	5254.6
322.244	5196.49
322.308	5162.77
322.373	5119.13
322.437	5077.07
322.502	5048.12
322.566	5003.43
322.631	4966.27
322.695	4930.41
322.76	4889.38
322.824	4856.63
322.889	4819.96
322.953	4780.05
323.018	4714.13
323.082	4651.49
323.146	4607.09
323.211	4552.73
323.275	4499.85
323.34	4447.66
323.404	4415.71
323.468	4371.79
323.533	4329.18
323.597	4286.2
323.662	4236.32
323.726	4201.98
323.79	4158.47
323.855	4092.8
323.919	4041.94
323.983	3997.15
324.048	3929.89
324.112	4076.24
324.177	3948.55
324.241	3741.03
324.305	3540.62
324.37	3344.32
324.434	3156.49
324.498	3112.59
324.562	3065.08
324.627	3010.67
324.691	2959.84
324.755	2895.88
324.82	2819.98
324.884	2742.55
324.948	2671.43
325.012	2580.34
325.077	2458.19
