Data from 20250702_urea_0.5M_MAYP1162681_06-04-59-864.txt Node
Date: Thu Jul 03 06:04:59 BST 2025
User: adleo
Spectrometer: MAYP116268
Trigger mode: 0
Integration Time (sec): 1.000000E0
Scans to average: 1
Electric dark correction enabled: true
Nonlinearity correction enabled: true
Boxcar width: 10
XAxis mode: Wavelengths
Number of Pixels in Spectrum: 2068
>>>>>Begin Spectral Data<<<<<
179.565	1170.64
179.642	1224.69
179.718	1265.9
179.795	1301.3
179.871	1334.03
179.948	1351.27
180.024	1367.41
180.101	1390.02
180.177	1403.37
180.254	1425.77
180.33	1449.4
180.407	1500.29
180.483	1593.88
180.56	1682.49
180.636	1765.53
180.712	1751.93
180.789	1759.58
180.865	1770.18
180.942	1779.11
181.018	1790.94
181.095	1801.64
181.171	1807.53
181.248	1811.62
181.324	1825.03
181.4	1835.29
181.477	1842.19
181.553	1855.4
181.63	1879.12
181.706	1896.04
181.782	1903.88
181.859	1903.22
181.935	1906.88
182.011	1901.94
182.088	1916.01
182.164	1931.28
182.24	1944.11
182.317	1954.9
182.393	1954.33
182.469	1972.44
182.546	1984.9
182.622	1989.32
182.698	1983.95
182.775	1992.41
182.851	2005.3
182.927	1999.69
183.003	1993.75
183.08	1990.8
183.156	2000.26
183.232	1997.41
183.308	1984.95
183.385	1992.22
183.461	2009.01
183.537	2010.67
183.613	2026.27
183.69	2017.24
183.766	2007.01
183.842	2011.77
183.918	2017.33
183.995	2031.64
184.071	2032.93
184.147	2025.56
184.223	2014.15
184.299	2027.7
184.375	2021.43
184.452	2026.95
184.528	2085.09
184.604	2098.26
184.68	2109.72
184.756	2118.81
184.832	2122.33
184.908	2125.52
184.985	2128.46
185.061	2113.72
185.137	2122.19
185.213	2109.3
185.289	2112.2
185.365	2107.78
185.441	2106.97
185.517	2117.06
185.593	2112.11
185.669	2106.59
185.745	2121.86
185.822	2137.26
185.898	2129.6
185.974	2137.74
186.05	2128.27
186.126	2084.96
186.202	2073.5
186.278	2070.36
186.354	2057.71
186.43	2066.37
186.506	2065.18
186.582	2062.52
186.658	2068.79
186.734	2050.01
186.81	2052.91
186.886	2054.81
186.962	2067.75
187.038	2062.94
187.114	2058.95
187.19	2066.65
187.266	2060.76
187.341	2057.52
187.417	2051.62
187.493	2051.43
187.569	2053.1
187.645	2049.25
187.721	2038.26
187.797	2048.29
187.873	2052.43
187.949	2046.53
188.025	2037.4
188.101	2039.63
188.176	2045.2
188.252	2040.59
188.328	2048.1
188.404	2048.76
188.48	2043.53
188.556	2035.92
188.632	2035.4
188.707	2035.16
188.783	2033.5
188.859	2025.03
188.935	2016.24
189.011	2024.04
189.086	2015.67
189.162	2007.58
189.238	2003.54
189.314	2001.69
189.39	1994.22
189.465	1988.37
189.541	2005.44
189.617	1992.7
189.693	1990.04
189.768	1992.89
189.844	2017.39
189.92	2008.5
189.996	2018.11
190.071	2029.1
190.147	2026.2
190.223	2038.85
190.298	2030.43
190.374	2015.73
190.45	2029.95
190.526	2036.37
190.601	2031.23
190.677	2034.13
190.753	2059.45
190.828	2061.4
190.904	2076.43
190.98	2091.7
191.055	2098.35
191.131	2090.03
191.207	2109.77
191.282	2119.23
191.358	2109.96
191.433	2093.06
191.509	2104.43
191.585	2099.86
191.66	2103
191.736	2113.51
191.811	2102.95
191.887	2120.41
191.963	2145.77
192.038	2151.9
192.114	2154.9
192.189	2157.18
192.265	2156.18
192.34	2136.86
192.416	2138.62
192.491	2132.96
192.567	2137
192.642	2143.09
192.718	2142.67
192.793	2130.16
192.869	2124.88
192.944	2129.25
193.02	2138.67
193.095	2145.28
193.171	2148.18
193.246	2147.61
193.322	2141.24
193.397	2144.05
193.473	2128.77
193.548	2109.03
193.624	2113.93
193.699	2112.21
193.775	2129.68
193.85	2129.68
193.925	2137.39
194.001	2133.44
194.076	2127.3
194.152	2115.27
194.227	2106.13
194.302	2096.53
194.378	2100.38
194.453	2098.67
194.529	2110.37
194.604	2098.33
194.679	2091.29
194.755	2073.7
194.83	2084.89
194.905	2085.98
194.981	2092.12
195.056	2085.51
195.131	2091.26
195.207	2088.6
195.282	2080.08
195.357	2059.2
195.433	2074.46
195.508	2063.33
195.583	2071.42
195.659	2084.45
195.734	2092.59
195.809	2092.4
195.884	2101.57
195.96	2101.15
196.035	2115.37
196.11	2110.66
196.185	2118.65
196.261	2121.98
196.336	2152.37
196.411	2138.43
196.486	2143.37
196.561	2137.28
196.637	2143.47
196.712	2159.98
196.787	2164.6
196.862	2176.58
196.937	2187.09
197.013	2193.52
197.088	2201.7
197.163	2226.5
197.238	2242.97
197.313	2243.07
197.388	2258.72
197.464	2287.57
197.539	2299.04
197.614	2294.52
197.689	2307.32
197.764	2323.88
197.839	2342.02
197.914	2339.25
197.989	2361.01
198.065	2373.76
198.14	2424.73
198.215	2455.14
198.29	2464.57
198.365	2474.19
198.44	2483.57
198.515	2513.76
198.59	2526.52
198.665	2554.99
198.74	2563.52
198.815	2565.14
198.89	2589.48
198.965	2617.92
199.04	2615.16
199.115	2631.49
199.19	2672.59
199.265	2672.83
199.34	2684.45
199.415	2719.29
199.49	2736.63
199.565	2746.3
199.64	2771.02
199.715	2766.11
199.79	2773.78
199.865	2782.6
199.94	2783.27
200.015	2816.38
200.09	2818.43
200.165	2825.58
200.24	2830.49
200.315	2868.36
200.39	2884.85
200.464	2888.52
200.539	2890.43
200.614	2904.25
200.689	2924.27
200.764	2929.08
200.839	2951.52
200.914	2957.39
200.989	2947.61
201.063	2963.39
201.138	2947.95
201.213	2946.86
201.288	2929.17
201.363	2932.7
201.438	2934.7
201.512	2952.43
201.587	2936.22
201.662	2941.18
201.737	2952.57
201.812	2961.87
201.886	2927.66
201.961	2937.44
202.036	2924.48
202.111	2917.42
202.186	2890.8
202.26	2877.93
202.335	2859.95
202.41	2850.23
202.485	2834.79
202.559	2814.78
202.634	2789.14
202.709	2798.52
202.784	2777.61
202.858	2775.75
202.933	2757.74
203.008	2749.45
203.082	2729.15
203.157	2727.48
203.232	2683.86
203.306	2665.66
203.381	2631.69
203.456	2610.92
203.53	2585.79
203.605	2567.32
203.68	2544.69
203.754	2536.51
203.829	2517.46
203.904	2495.03
203.978	2483.5
204.053	2483.5
204.127	2470.12
204.202	2469.27
204.277	2451.65
204.351	2447.84
204.426	2445.46
204.5	2435.7
204.575	2401.33
204.65	2412
204.724	2405.62
204.799	2416.37
204.873	2411.18
204.948	2410.56
205.022	2397.52
205.097	2387.85
205.171	2401.94
205.246	2411.94
205.32	2416.32
205.395	2418.37
205.469	2410.37
205.544	2415.56
205.618	2400.28
205.693	2414.56
205.767	2400.95
205.842	2422.38
205.916	2417.91
205.991	2405.76
206.065	2411.57
206.14	2426.7
206.214	2422.22
206.289	2418.22
206.363	2430.22
206.438	2430.6
206.512	2438.74
206.586	2457.02
206.661	2466.45
206.735	2444.94
206.81	2445.89
206.884	2454.84
206.958	2441.9
207.033	2458.6
207.107	2469.46
207.181	2502.04
207.256	2495.09
207.33	2514.7
207.405	2526.19
207.479	2544.47
207.553	2551.95
207.628	2538.91
207.702	2551
207.776	2546.09
207.851	2549.09
207.925	2566.2
207.999	2569.96
208.073	2571.06
208.148	2579.3
208.222	2573.96
208.296	2609.57
208.371	2630.4
208.445	2650.17
208.519	2686.27
208.593	2705.52
208.668	2706.9
208.742	2716.29
208.816	2726.2
208.89	2752.75
208.965	2760.71
209.039	2780.06
209.113	2811.18
209.187	2842.09
209.261	2853.38
209.336	2887.75
209.41	2923.17
209.484	2939.67
209.558	2977.72
209.632	3010.61
209.707	3041.03
209.781	3085.38
209.855	3127.07
209.929	3169.42
210.003	3201.48
210.077	3227.57
210.151	3301.25
210.226	3365.03
210.3	3421.34
210.374	3477.83
210.448	3516.5
210.522	3560.19
210.596	3606.03
210.67	3649.15
210.744	3736.37
210.818	3807.65
210.892	3868.66
210.966	3903.14
211.041	3960.62
211.115	4007.3
211.189	4079.47
211.263	4141.22
211.337	4196.33
211.411	4259.8
211.485	4309.13
211.559	4378.46
211.633	4439.94
211.707	4465.41
211.781	4529.76
211.855	4553.49
211.929	4609.51
212.003	4650.55
212.077	4723.99
212.151	4796.43
212.225	4874.13
212.299	4926.69
212.373	4981.94
212.447	5045.33
212.52	5147.93
212.594	5224.79
212.668	5307.54
212.742	5364.95
212.816	5434.73
212.89	5505.47
212.964	5576.92
213.038	5650.97
213.112	5737.89
213.186	5827.41
213.26	5886.43
213.333	5920.34
213.407	6008.77
213.481	6087.38
213.555	6176.77
213.629	6245.6
213.703	6316.74
213.777	6395.33
213.85	6460.05
213.924	6573.66
213.998	6656.84
214.072	6730.11
214.146	6797.59
214.219	6874.12
214.293	6953.95
214.367	7040.91
214.441	7127.54
214.515	7198.86
214.588	7259.22
214.662	7305.55
214.736	7367.12
214.81	7463.42
214.883	7552.9
214.957	7620.81
215.031	7689.94
215.105	7749.68
215.178	7819.36
215.252	7894.29
215.326	7952.77
215.4	8010.67
215.473	8045.07
215.547	8099.81
215.621	8164.39
215.694	8245.12
215.768	8302.81
215.842	8368.49
215.915	8429.56
215.989	8480.86
216.063	8547.85
216.136	8627.79
216.21	8704.07
216.284	8788.88
216.357	8860.75
216.431	8932.76
216.504	9013.2
216.578	9109.92
216.652	9197.19
216.725	9265.9
216.799	9342.27
216.873	9409.97
216.946	9494.37
217.02	9565.59
217.093	9641.15
217.167	9693.98
217.24	9753.99
217.314	9816.51
217.387	9875.74
217.461	9945.83
217.535	10030.99
217.608	10087.25
217.682	10147.95
217.755	10221.9
217.829	10280.29
217.902	10344.42
217.976	10405.36
218.049	10468.28
218.123	10518.73
218.196	10583.34
218.27	10647.43
218.343	10693.06
218.417	10763.84
218.49	10828.17
218.563	10907.44
218.637	10978.52
218.71	11058.18
218.784	11130.37
218.857	11208.58
218.931	11282.56
219.004	11341.21
219.077	11412.97
219.151	11487.14
219.224	11552.59
219.298	11615.44
219.371	11696.32
219.444	11746.98
219.518	11823.66
219.591	11892.06
219.665	11991.59
219.738	12061.97
219.811	12114.41
219.885	12195.34
219.958	12267.69
220.031	12334.26
220.105	12407.28
220.178	12472.02
220.251	12533.87
220.325	12596.15
220.398	12664.74
220.471	12738.16
220.544	12817.51
220.618	12873.91
220.691	12939.66
220.764	13003.82
220.838	13070.92
220.911	13123.8
220.984	13215.3
221.057	13275.8
221.131	13341.45
221.204	13364.5
221.277	13434.69
221.35	13533.51
221.424	13597.14
221.497	13660.24
221.57	13715.97
221.643	13778.25
221.716	13845.6
221.79	13900.02
221.863	13957.24
221.936	14013.11
222.009	14060.79
222.082	14117.04
222.155	14163.8
222.229	14233.22
222.302	14300.37
222.375	14355.23
222.448	14416.83
222.521	14466.1
222.594	14522.64
222.667	14563.33
222.74	14625.85
222.814	14683.75
222.887	14724.24
222.96	14780.49
223.033	14841.37
223.106	14898.11
223.179	14954.36
223.252	14999.96
223.325	15057.47
223.398	15113.91
223.471	15164.96
223.544	15222.8
223.617	15270.91
223.69	15328.9
223.763	15364.13
223.837	15420.14
223.91	15470.99
223.983	15494.52
224.056	15527.82
224.129	15576.36
224.202	15635.27
224.275	15675.75
224.348	15702.07
224.42	15733.16
224.493	15760.97
224.566	15791.24
224.639	15837.37
224.712	15870.53
224.785	15913.76
224.858	15946.11
224.931	15979.27
225.004	16011.95
225.077	16058.65
225.15	16075.81
225.223	16114.85
225.296	16179.14
225.369	16195.77
225.442	16229.56
225.514	16275.44
225.587	16324.61
225.66	16367.69
225.733	16398.54
225.806	16442.74
225.879	16488.62
225.952	16522.55
226.025	16579.62
226.097	16634.94
226.17	16670.75
226.243	16681.36
226.316	16722.52
226.389	16767.77
226.461	16817.99
226.534	16852.26
226.607	16882.62
226.68	16939.25
226.753	16972.89
226.825	16980.31
226.898	17032.41
226.971	17064.51
227.044	17108.75
227.117	17133.86
227.189	17170.82
227.262	17222.2
227.335	17259.35
227.407	17283.89
227.48	17321.57
227.553	17346.15
227.626	17369.77
227.698	17410.59
227.771	17455.26
227.844	17472.08
227.916	17495.6
227.989	17500.75
228.062	17539.07
228.134	17592.37
228.207	17611.31
228.28	17628.22
228.352	17658.49
228.425	17676.66
228.498	17714.05
228.57	17736.51
228.643	17781.43
228.716	17796.56
228.788	17807.79
228.861	17822.58
228.934	17860.75
229.006	17888.27
229.079	17910.14
229.151	17925.71
229.224	17928.51
229.296	17953.57
229.369	18003.73
229.442	18044.07
229.514	18067.3
229.587	18092.21
229.659	18088.79
229.732	18117.08
229.804	18154.38
229.877	18198.33
229.949	18231.48
230.022	18273.79
230.094	18291.77
230.167	18315.43
230.239	18337.21
230.312	18365.84
230.384	18423.95
230.457	18450.46
230.529	18470.7
230.602	18500
230.674	18532.91
230.747	18574.02
230.819	18620.42
230.892	18609.1
230.964	18635.31
231.037	18663.75
231.109	18682.69
231.181	18710.15
231.254	18729.33
231.326	18756.56
231.399	18779.64
231.471	18798.49
231.544	18788.56
231.616	18809.81
231.688	18823.69
231.761	18832.56
231.833	18839.74
231.905	18813.28
231.978	18824.51
232.05	18832.07
232.122	18847.83
232.195	18852.7
232.267	18870.92
232.339	18858.68
232.412	18880.31
232.484	18880.51
232.556	18886.1
232.629	18919.54
232.701	18927.35
232.773	18932.36
232.846	18935.54
232.918	18937.61
232.99	18935.49
233.062	18961.32
233.135	18978.23
233.207	18968.36
233.279	18983.25
233.351	18994.04
233.424	19006.57
233.496	19002.47
233.568	19041.8
233.64	19022.66
233.713	19018.18
233.785	19021.17
233.857	19028.98
233.929	19024.01
234.001	19043.24
234.074	19057.99
234.146	19034.71
234.218	19035.53
234.29	19042.33
234.362	19025.17
234.434	19006.76
234.507	19001.51
234.579	18979.25
234.651	18970.23
234.723	18979.39
234.795	18984.31
234.867	18974.86
234.939	18985.13
235.012	18988.45
235.084	18979.73
235.156	18989.56
235.228	18984.4
235.3	18970.72
235.372	18974.09
235.444	18984.35
235.516	18950.77
235.588	18947.59
235.66	18941.8
235.732	18929.18
235.804	18969.61
235.876	18971.44
235.948	18971.73
236.02	18956.6
236.092	18948.26
236.164	18948.84
236.236	18927.78
236.308	18905.66
236.38	18907.59
236.452	18883.88
236.524	18874.58
236.596	18870.72
236.668	18863.21
236.74	18854.29
236.812	18847.93
236.884	18833.86
236.956	18812.65
237.028	18794.53
237.1	18770.44
237.172	18772.27
237.244	18777.14
237.316	18730.15
237.388	18716.76
237.46	18694.78
237.532	18704.32
237.604	18676.18
237.675	18662.98
237.747	18667.41
237.819	18652.04
237.891	18634.45
237.963	18611.56
238.035	18585.82
238.107	18539.85
238.178	18537.92
238.25	18512.48
238.322	18506.41
238.394	18470.89
238.466	18455.76
238.538	18442.84
238.609	18432.53
238.681	18397.93
238.753	18367.09
238.825	18352.54
238.897	18330.56
238.968	18331.81
239.04	18297.5
239.112	18308.59
239.184	18272.93
239.255	18240.25
239.327	18220.54
239.399	18195.29
239.471	18193.31
239.542	18179.68
239.614	18167.97
239.686	18114.57
239.758	18106.38
239.829	18080.6
239.901	18073.95
239.973	18047.97
240.044	18035.59
240.116	18007.35
240.188	17982.14
240.259	17967.59
240.331	17928.55
240.403	17908.89
240.474	17866.44
240.546	17831.69
240.618	17789.52
240.689	17761.76
240.761	17740.32
240.833	17730.58
240.904	17708.75
240.976	17677.48
241.048	17653.67
241.119	17629.14
241.191	17606.92
241.262	17592.8
241.334	17558.78
241.405	17526.54
241.477	17491.79
241.549	17462.59
241.62	17440.66
241.692	17422.54
241.763	17399.26
241.835	17367.31
241.906	17340.61
241.978	17302.73
242.049	17295.55
242.121	17289.19
242.192	17282.78
242.264	17240.66
242.335	17195.6
242.407	17175.11
242.478	17139.88
242.55	17114.92
242.621	17081.52
242.693	17056.85
242.764	17032.51
242.836	16999.4
242.907	16975.59
242.979	16957.52
243.05	16926.29
243.122	16899.88
243.193	16863.15
243.264	16810.52
243.336	16786.95
243.407	16767.34
243.479	16756.64
243.55	16726.9
243.622	16684.64
243.693	16642.95
243.764	16636.44
243.836	16594.32
243.907	16557.98
243.978	16533.06
244.05	16504.33
244.121	16459.99
244.192	16439.75
244.264	16384.47
244.335	16360.76
244.407	16320.65
244.478	16295.64
244.549	16265.95
244.62	16217.17
244.692	16186.57
244.763	16168.25
244.834	16133.5
244.906	16095.28
244.977	16066.41
245.048	16050.75
245.119	16018.89
245.191	15985.05
245.262	15933.58
245.333	15929.48
245.405	15905.57
245.476	15875.3
245.547	15850.48
245.618	15831.25
245.689	15803.15
245.761	15780.93
245.832	15740.2
245.903	15724.97
245.974	15689.93
246.045	15660.09
246.117	15653.44
246.188	15614.73
246.259	15569.37
246.33	15529.85
246.401	15491.67
246.473	15453.59
246.544	15409.54
246.615	15388.86
246.686	15355.02
246.757	15334.3
246.828	15286.77
246.899	15269.47
246.97	15224.2
247.042	15181.54
247.113	15168.24
247.184	15158.31
247.255	15123.56
247.326	15093.24
247.397	15055.4
247.468	15029.56
247.539	15000.98
247.61	14953.64
247.681	14933.64
247.752	14929.3
247.823	14897.24
247.894	14880.66
247.965	14839.49
248.037	14808.26
248.108	14759.72
248.179	14734.94
248.25	14702.64
248.321	14686.01
248.392	14642.82
248.463	14639.54
248.534	14614.38
248.605	14583.24
248.675	14541.98
248.746	14526.84
248.817	14509.39
248.888	14487.36
248.959	14439.3
249.03	14419.39
249.101	14399.92
249.172	14369.31
249.243	14310.35
249.314	14301.43
249.385	14273.18
249.456	14256.22
249.527	14227.44
249.598	14211.77
249.669	14183.04
249.739	14160.96
249.81	14135.46
249.881	14089.91
249.952	14062.48
250.023	14037.99
250.094	14000.63
250.165	13968.76
250.235	13934.06
250.306	13911.74
250.377	13872.16
250.448	13854.08
250.519	13805.63
250.59	13795.75
250.66	13769.38
250.731	13764.37
250.802	13737.33
250.873	13712.5
250.944	13691.1
251.014	13663.96
251.085	13666.65
251.156	13641.44
251.227	13626.31
251.297	13612.52
251.368	13609.58
251.439	13595.41
251.51	13575.54
251.58	13543.1
251.651	13510.47
251.722	13497.16
251.792	13454.26
251.863	13434.68
251.934	13431.02
252.005	13436.42
252.075	13407.83
252.146	13393.66
252.217	13383.39
252.287	13369.85
252.358	13344.1
252.429	13333.11
252.499	13307.08
252.57	13274.98
252.641	13272.13
252.711	13251.07
252.782	13217.71
252.852	13210.14
252.923	13174.51
252.994	13154.36
253.064	13144.19
253.135	13112.86
253.205	13082.15
253.276	13080.13
253.347	13069.95
253.417	13034.23
253.488	13015.1
253.558	12988.73
253.629	12964.82
253.699	12942.79
253.77	12923.12
253.841	12900.8
253.911	12884.26
253.982	12855.44
254.052	12839.43
254.123	12814.37
254.193	12790.17
254.264	12803.91
254.334	12768.81
254.405	12741.72
254.475	12707.01
254.546	12681.85
254.616	12681.32
254.687	12665.12
254.757	12649.17
254.827	12627.28
254.898	12607.18
254.968	12573.58
255.039	12541.38
255.109	12522.68
255.18	12499.64
255.25	12452.35
255.321	12434.71
255.391	12397.78
255.461	12403.81
255.532	12360.76
255.602	12334.68
255.673	12298.82
255.743	12263.82
255.813	12223.33
255.884	12214.8
255.954	12206.37
256.024	12205.06
256.095	12181.88
256.165	12144.86
256.235	12126.64
256.306	12094.54
256.376	12090.87
256.446	12080.51
256.517	12066.63
256.587	12063.25
256.657	12039.73
256.728	12032.55
256.798	12013.46
256.868	11985.46
256.938	11949.64
257.009	11940.39
257.079	11929.49
257.149	11936.24
257.219	11892.04
257.29	11874.84
257.36	11840.66
257.43	11829.77
257.5	11786.73
257.571	11762.53
257.641	11756.46
257.711	11727.97
257.781	11717.9
257.852	11699.44
257.922	11664.01
257.992	11649.65
258.062	11619.86
258.132	11607.04
258.202	11585.59
258.273	11576.48
258.343	11580.34
258.413	11563.04
258.483	11539.42
258.553	11508.19
258.623	11476.18
258.693	11468.38
258.764	11463.36
258.834	11462.01
258.904	11440.9
258.974	11413.53
259.044	11393.38
259.114	11376.47
259.184	11356.71
259.254	11334.83
259.324	11293.33
259.394	11283.41
259.464	11282.3
259.535	11264.99
259.605	11241.48
259.675	11216.08
259.745	11198.58
259.815	11167.88
259.885	11141.67
259.955	11156.08
260.025	11126.64
260.095	11109.96
260.165	11095.75
260.235	11099.36
260.305	11070.06
260.375	11039.94
260.445	11045.82
260.515	11041.67
260.585	11036.37
260.655	11022.49
260.725	11017.63
260.795	11013.87
260.865	11011.94
260.934	10983.7
261.004	10970.98
261.074	10961.44
261.144	10960.57
261.214	10954.35
261.284	10938.64
261.354	10938.59
261.424	10909.77
261.494	10914.5
261.564	10893.78
261.634	10887.66
261.703	10851.08
261.773	10839.52
261.843	10833.97
261.913	10815.86
261.983	10782.99
262.053	10770.32
262.123	10749.22
262.192	10719.92
262.262	10713.03
262.332	10675.69
262.402	10663.06
262.472	10653.33
262.541	10609.44
262.611	10603.12
262.681	10575.22
262.751	10565.01
262.821	10545.83
262.89	10516.29
262.96	10503.38
263.03	10513.55
263.1	10493.21
263.169	10476.4
263.239	10468.93
263.309	10470.14
263.379	10460.45
263.448	10445.95
263.518	10439.49
263.588	10424.75
263.657	10428.61
263.727	10425.67
263.797	10420.13
263.867	10404.18
263.936	10371.32
264.006	10373.54
264.076	10359.66
264.145	10344.25
264.215	10325.26
264.285	10318.04
264.354	10287.83
264.424	10272.22
264.494	10235.75
264.563	10217.06
264.633	10222.41
264.702	10212.15
264.772	10173.27
264.842	10159.01
264.911	10155.88
264.981	10127.79
265.05	10117.53
265.12	10093.87
265.19	10076.91
265.259	10067.33
265.329	10061.69
265.398	10059.09
265.468	10067.47
265.537	10043.1
265.607	10035.44
265.676	10032.93
265.746	10024.02
265.815	10020.99
265.885	9999.7
265.955	9977.25
266.024	9964.68
266.094	9933.27
266.163	9925.85
266.232	9932.36
266.302	9911.36
266.371	9902.3
266.441	9888.62
266.51	9882.74
266.58	9867.91
266.649	9846.04
266.719	9845.13
266.788	9836.07
266.858	9838.29
266.927	9798.69
266.996	9789.78
267.066	9774.23
267.135	9746.05
267.205	9737.52
267.274	9731.36
267.343	9735.74
267.413	9728.09
267.482	9727.17
267.552	9724.14
267.621	9699.52
267.69	9665.33
267.76	9662.39
267.829	9653.92
267.898	9641.25
267.968	9616.21
268.037	9608.93
268.106	9602.91
268.176	9575.32
268.245	9558.8
268.314	9532.69
268.384	9537.08
268.453	9522.48
268.522	9516.37
268.592	9519.21
268.661	9492.96
268.73	9481.65
268.799	9457.13
268.869	9469.41
268.938	9435.99
269.007	9416.97
269.076	9406.09
269.146	9411.05
269.215	9401.9
269.284	9407.44
269.353	9391.26
269.422	9378.98
269.492	9365.98
269.561	9331.7
269.63	9328.81
269.699	9311.43
269.768	9310.51
269.838	9299.24
269.907	9303.29
269.976	9278.83
270.045	9246.86
270.114	9246.71
270.183	9237.23
270.253	9232.13
270.322	9195.44
270.391	9188.46
270.46	9192.21
270.529	9188.36
270.598	9185.28
270.667	9171.27
270.736	9138.71
270.806	9130.58
270.875	9134.38
270.944	9123.69
271.013	9142.76
271.082	9136.98
271.151	9132.5
271.22	9099.72
271.289	9092.21
271.358	9074.25
271.427	9070.25
271.496	9067.89
271.565	9057.4
271.634	9044.88
271.703	9071.66
271.772	9074.69
271.841	9069.3
271.91	9047.05
271.979	9040.27
272.048	9014.85
272.117	9012.05
272.186	9001.32
272.255	9004.79
272.324	9006.09
272.393	9000.45
272.462	8985.43
272.531	8967.72
272.6	8958.09
272.669	8963.82
272.738	8952.21
272.807	8949.95
272.876	8931.32
272.945	8954.34
273.013	8947.07
273.082	8954.77
273.151	8909.03
273.22	8908.5
273.289	8899.64
273.358	8915.82
273.427	8900.17
273.496	8901.38
273.564	8898.78
273.633	8897.96
273.702	8877.65
273.771	8863.4
273.84	8857.19
273.909	8857.38
273.977	8862.05
274.046	8852.61
274.115	8858.29
274.184	8840.49
274.253	8834.86
274.322	8843.47
274.39	8809.29
274.459	8805.68
274.528	8771.03
274.597	8766.46
274.665	8760.68
274.734	8764.15
274.803	8746.29
274.872	8736.9
274.94	8724.58
275.009	8753.13
275.078	8747.65
275.147	8743.8
275.215	8736.62
275.284	8745.14
275.353	8732.48
275.421	8709.43
275.49	8729.55
275.559	8716.51
275.627	8711.26
275.696	8692.69
275.765	8692.4
275.833	8685.95
275.902	8676.51
275.971	8696.15
276.039	8708.28
276.108	8710.3
276.177	8707.85
276.245	8696.25
276.314	8699.62
276.383	8703.03
276.451	8661.34
276.52	8659.9
276.588	8675.2
276.657	8679.73
276.725	8666.01
276.794	8662.01
276.863	8671.16
276.931	8641.41
277	8648.49
277.068	8658.83
277.137	8679.38
277.205	8677.36
277.274	8697.14
277.342	8708.02
277.411	8683.04
277.48	8672.45
277.548	8662.2
277.617	8662.25
277.685	8657.2
277.754	8661.34
277.822	8649.74
277.89	8668.99
277.959	8663.84
278.027	8644.59
278.096	8635.98
278.164	8665.97
278.233	8658.84
278.301	8650.57
278.37	8653.45
278.438	8638.68
278.507	8639.69
278.575	8615.19
278.643	8610.96
278.712	8588.19
278.78	8574.14
278.849	8584.77
278.917	8597.14
278.985	8596.71
279.054	8599.17
279.122	8611.58
279.191	8607.97
279.259	8609.22
279.327	8584.15
279.396	8595.7
279.464	8592.09
279.532	8595.6
279.601	8587.7
279.669	8585.35
279.737	8594.54
279.806	8598.2
279.874	8601.76
279.942	8597.43
280.011	8596.99
280.079	8598.73
280.147	8616.19
280.215	8623.22
280.284	8621.25
280.352	8602.57
280.42	8601.32
280.488	8589.63
280.557	8582.84
280.625	8582.36
280.693	8583.8
280.761	8587.27
280.83	8566.67
280.898	8574.76
280.966	8559.69
281.034	8525.38
281.102	8508.06
281.171	8499.2
281.239	8506.32
281.307	8500.55
281.375	8491.99
281.443	8519.42
281.512	8515.86
281.58	8517.06
281.648	8503.3
281.716	8495.5
281.784	8494.97
281.852	8491.6
281.92	8492.33
281.989	8502.82
282.057	8484.92
282.125	8528.96
282.193	8526.94
282.261	8531.66
282.329	8533.63
282.397	8533.78
282.465	8541.62
282.533	8561.15
282.601	8548.93
282.67	8524.2
282.738	8523.57
282.806	8529.25
282.874	8507.64
282.942	8513.12
283.01	8514.23
283.078	8513.56
283.146	8512.64
283.214	8517.6
283.282	8519.09
283.35	8531.22
283.418	8521.98
283.486	8530.01
283.554	8485.05
283.622	8485.2
283.69	8480.53
283.758	8475.67
283.826	8483.13
283.894	8486.64
283.962	8507.39
284.03	8527.21
284.098	8530.29
284.165	8521.58
284.233	8525.96
284.301	8519.75
284.369	8511.67
284.437	8497.09
284.505	8492.03
284.573	8510.37
284.641	8500.45
284.709	8509.45
284.777	8488.95
284.845	8488.38
284.912	8495.98
284.98	8503.63
285.048	8497.62
285.116	8508.01
285.184	8518.4
285.252	8512.68
285.319	8496.85
285.387	8483.27
285.455	8464.03
285.523	8472.16
285.591	8469.61
285.659	8469.95
285.726	8487.94
285.794	8471.39
285.862	8470.29
285.93	8472.55
285.997	8469.61
286.065	8460.42
286.133	8450.17
286.201	8452.96
286.269	8444.15
286.336	8433.66
286.404	8426.4
286.472	8432.61
286.539	8406.29
286.607	8388.39
286.675	8397.53
286.743	8412.01
286.81	8408.69
286.878	8426.26
286.946	8413.22
287.013	8415.14
287.081	8407.25
287.149	8389.15
287.216	8409.65
287.284	8408.06
287.352	8411.38
287.419	8402.87
287.487	8419.32
287.555	8425.39
287.622	8421.59
287.69	8434.96
287.758	8450.51
287.825	8439.54
287.893	8431.84
287.96	8440.69
288.028	8449.49
288.096	8448.87
288.163	8450.6
288.231	8431.83
288.298	8424.14
288.366	8441.99
288.433	8440.54
288.501	8437.99
288.569	8445.74
288.636	8442.18
288.704	8456.47
288.771	8463.45
288.839	8460.42
288.906	8452.91
288.974	8463.5
289.041	8463.55
289.109	8445.94
289.176	8450.32
289.244	8460.71
289.311	8476.74
289.379	8488.19
289.446	8490.06
289.514	8493.91
289.581	8494.44
289.649	8508.06
289.716	8517.59
289.783	8515.81
289.851	8533.71
289.918	8534.28
289.986	8538.95
290.053	8541.65
290.121	8542.13
290.188	8537.75
290.255	8561.57
290.323	8561.19
290.39	8547.37
290.458	8550.69
290.525	8563.25
290.592	8552.37
290.66	8549.15
290.727	8535.72
290.794	8548.09
290.862	8549.54
290.929	8546.89
290.996	8545.69
291.064	8549.34
291.131	8555.6
291.198	8560.75
291.266	8558.87
291.333	8561.66
291.4	8567.1
291.468	8586.07
291.535	8580.63
291.602	8592.03
291.669	8585.01
291.737	8589.48
291.804	8595.4
291.871	8613.45
291.938	8623.27
292.006	8663.27
292.073	8679.63
292.14	8695.18
292.207	8690.6
292.275	8695.61
292.342	8706.05
292.409	8730.6
292.476	8754.09
292.543	8744.37
292.611	8748.85
292.678	8769.49
292.745	8796.78
292.812	8806.36
292.879	8796.16
292.946	8799.09
293.014	8811.56
293.081	8817.96
293.148	8834.28
293.215	8844.96
293.282	8846.45
293.349	8864.51
293.416	8834.47
293.484	8847.9
293.551	8852.08
293.618	8864.36
293.685	8881.83
293.752	8875.33
293.819	8869.56
293.886	8857.86
293.953	8869.26
294.02	8878.99
294.087	8881.68
294.154	8870.13
294.221	8888.48
294.288	8893.96
294.356	8914.03
294.423	8915.19
294.49	8909.51
294.557	8920.05
294.624	8918.85
294.691	8936.95
294.758	8925.64
294.825	8930.6
294.892	8920.44
294.959	8921.5
295.026	8934.06
295.093	8930.88
295.16	8926.94
295.226	8927.56
295.293	8955.73
295.36	8961.94
295.427	8972.43
295.494	8992.37
295.561	9006.95
295.628	9024.58
295.695	9041.38
295.762	9043.06
295.829	9057.17
295.896	9075.9
295.963	9081.91
296.03	9085.14
296.096	9087.6
296.163	9107.43
296.23	9128.23
296.297	9142
296.364	9145.56
296.431	9151.24
296.498	9147.1
296.564	9179.4
296.631	9183.78
296.698	9163.8
296.765	9187.54
296.832	9178.82
296.899	9156.34
296.965	9173.96
297.032	9154.46
297.099	9167.89
297.166	9176.7
297.233	9172.13
297.299	9163.13
297.366	9167.51
297.433	9176.17
297.5	9179.21
297.566	9175.07
297.633	9174.68
297.7	9181.23
297.767	9178.39
297.833	9181.18
297.9	9189.61
297.967	9171.26
298.033	9186.62
298.1	9216.19
298.167	9205.45
298.234	9211.47
298.3	9223.6
298.367	9219.02
298.434	9227.45
298.5	9219.7
298.567	9211.85
298.634	9208.29
298.7	9232.17
298.767	9234.72
298.834	9242.52
298.9	9241.27
298.967	9235.35
299.033	9243.68
299.1	9257.5
299.167	9270.3
299.233	9267.17
299.3	9275.74
299.366	9292.5
299.433	9309.5
299.5	9286.48
299.566	9286.29
299.633	9301.65
299.699	9311.57
299.766	9304.25
299.832	9308.73
299.899	9318.41
299.965	9326.49
300.032	9328.95
300.099	9327.84
300.165	9331.21
300.232	9332.03
300.298	9337.33
300.365	9354.71
300.431	9357.74
300.498	9352.21
300.564	9361.21
300.631	9375.51
300.697	9392.32
300.763	9397.42
300.83	9386.01
300.896	9399.11
300.963	9412.68
301.029	9420.92
301.096	9426.31
301.162	9440.76
301.229	9431.56
301.295	9416.59
301.361	9423.28
301.428	9425.16
301.494	9411.24
301.561	9413.99
301.627	9418.32
301.693	9420.25
301.76	9415.53
301.826	9408.98
301.892	9418.42
301.959	9426.07
302.025	9421.4
302.092	9414.32
302.158	9418.95
302.224	9424.72
302.291	9420.82
302.357	9413.99
302.423	9402.09
302.49	9388.37
302.556	9395.88
302.622	9398
302.688	9414.66
302.755	9432.53
302.821	9441.24
302.887	9456.51
302.954	9457.18
303.02	9458.67
303.086	9460.21
303.152	9462.53
303.219	9460.17
303.285	9465.03
303.351	9473.02
303.417	9474.61
303.483	9464.26
303.55	9460.07
303.616	9457.09
303.682	9458.96
303.748	9455.69
303.815	9470.09
303.881	9482.61
303.947	9469.46
304.013	9473.65
304.079	9463.06
304.145	9444.23
304.212	9441.58
304.278	9434.69
304.344	9431.08
304.41	9419.57
304.476	9414.95
304.542	9408.26
304.608	9417.7
304.674	9401.66
304.741	9398.19
304.807	9402.28
304.873	9410.86
304.939	9422.41
305.005	9403.54
305.071	9394.82
305.137	9392.61
305.203	9368.96
305.269	9366.8
305.335	9385.1
305.401	9386.54
305.467	9382.78
305.533	9388.52
305.599	9392.9
305.666	9400.02
305.732	9404.74
305.798	9416.78
305.864	9437.34
305.93	9441.39
305.996	9434.65
306.062	9433.11
306.128	9427.09
306.194	9412.45
306.259	9410.86
306.325	9403.35
306.391	9418.32
306.457	9427.37
306.523	9432.09
306.589	9457.71
306.655	9452.8
306.721	9427.66
306.787	9411.92
306.853	9428.63
306.919	9416.3
306.985	9416.93
307.051	9405.85
307.117	9394.15
307.183	9396.17
307.248	9365.55
307.314	9366.36
307.38	9369.01
307.446	9374.31
307.512	9365.93
307.578	9373.88
307.644	9364.97
307.709	9366.56
307.775	9360.39
307.841	9354.81
307.907	9359.96
307.973	9339.35
308.039	9340.41
308.104	9347.82
308.17	9346.14
308.236	9331.21
308.302	9330
308.368	9315.8
308.433	9316.19
308.499	9312.86
308.565	9296.15
308.631	9303.43
308.696	9289.9
308.762	9275.5
308.828	9275.84
308.894	9257.15
308.959	9230.77
309.025	9222.49
309.091	9219.89
309.156	9213.49
309.222	9217.87
309.288	9205.06
309.354	9181.57
309.419	9173.19
309.485	9157.88
309.551	9165.58
309.616	9154.36
309.682	9150.94
309.748	9139.1
309.813	9135.2
309.879	9124.08
309.945	9114.31
310.01	9113.2
310.076	9108.87
310.141	9107.52
310.207	9092.45
310.273	9096.73
310.338	9106.21
310.404	9091.44
310.469	9068.9
310.535	9062.79
310.601	9036.89
310.666	9038.77
310.732	9049.93
310.797	9037.95
310.863	9031.35
310.928	9018.74
310.994	9022.68
311.059	9017.48
311.125	9024.37
311.191	9034.82
311.256	9024.85
311.322	9028.8
311.387	8998.81
311.453	9340.69
311.518	9315.18
311.584	9315.18
311.649	9316.87
311.715	9303.63
311.78	9310.22
311.846	9301.94
311.911	9304.3
311.976	9308.35
312.042	9291.5
312.107	9276.48
312.173	9265.74
312.238	9260.3
312.304	9263.62
312.369	9249.95
312.434	9234.45
312.5	9226.12
312.565	9194.78
312.631	9199.89
312.696	9185.54
312.761	9197.29
312.827	8849.53
312.892	8888.09
312.958	8879.76
313.023	8876.63
313.088	8874.56
313.154	8854.54
313.219	8847.32
313.284	8831.39
313.35	8826.72
313.415	8824.26
313.48	8818.06
313.546	8826.05
313.611	8831.53
313.676	8818.54
313.741	8809.34
313.807	8822.19
313.872	8820.94
313.937	8827.87
314.003	8832.83
314.068	8839.67
314.133	8839.47
314.198	8832.54
314.264	8809.72
314.329	8799.08
314.394	8791.19
314.459	8785.61
314.525	8803.37
314.59	8802.45
314.655	8797.4
314.72	8808.08
314.785	8805.1
314.851	8799.61
314.916	8784.07
314.981	8772.28
315.046	8763.9
315.111	8753.89
315.176	8737.48
315.242	8734.35
315.307	8734.35
315.372	8718.37
315.437	8709.32
315.502	8701.18
315.567	8712.35
315.632	8695.79
315.698	8701.47
315.763	8702
315.828	8694.35
315.893	8688.05
315.958	8684
316.023	8677.46
316.088	8655.61
316.153	8629.04
316.218	8620.72
316.283	8598.15
316.348	8579.58
316.413	8573.76
316.479	8564.52
316.544	8536.03
316.609	8512.21
316.674	8477.42
316.739	8443.74
316.804	8416.08
316.869	8377.44
316.934	8338.08
316.999	8308.49
317.064	8257.63
317.129	8208.13
317.194	8174.84
317.259	8128.22
317.324	8078.05
317.389	8026.39
317.454	7987.14
317.518	7958.57
317.583	7935.48
317.648	7912.88
317.713	7875.85
317.778	7817.51
317.843	7779.13
317.908	7742.49
317.973	7703.29
318.038	7674.35
318.103	7643.53
318.168	7605.16
318.233	7580.44
318.297	7528.37
318.362	7490.92
318.427	7448.58
318.492	7425.84
318.557	7376.77
318.622	7350.33
318.687	7326.45
318.751	7289.54
318.816	7256.04
318.881	7221.05
318.946	7169.24
319.011	7123.93
319.075	7085.2
319.14	7055.37
319.205	7015.01
319.27	6978.16
319.335	6933.24
319.399	6891.15
319.464	6859.06
319.529	6808.2
319.594	6767.07
319.658	6741.28
319.723	6701.9
319.788	6672.66
319.853	6619.83
319.917	6591.69
319.982	6541.32
320.047	6506.07
320.112	6481.54
320.176	6430.22
320.241	6393.92
320.306	6361.61
320.37	6322.3
320.435	6296.24
320.5	6265.85
320.564	6227.65
320.629	6189.7
320.694	6157.54
320.758	6112.92
320.823	6069.15
320.888	6043.11
320.952	5998.82
321.017	5949.65
321.082	5914.24
321.146	5883.35
321.211	5848.96
321.275	5813.9
321.34	5771.66
321.405	5721.6
321.469	5675.52
321.534	5637.31
321.598	5588.17
321.663	5559.63
321.727	5529.38
321.792	5477.9
321.857	5431.87
321.921	5392.86
321.986	5349.31
322.05	5292.39
322.115	5258.46
322.179	5218.5
322.244	5163.84
322.308	5129.78
322.373	5090.26
322.437	5045.24
322.502	5019.07
322.566	4973.05
322.631	4934.16
322.695	4895.72
322.76	4858.42
322.824	4827.06
322.889	4785.56
322.953	4745.84
323.018	4679.97
323.082	4618.53
323.146	4570.11
323.211	4520.16
323.275	4479.48
323.34	4435.48
323.404	4404.16
323.468	4357.99
323.533	4308.54
323.597	4263.85
323.662	4210.77
323.726	4173.85
323.79	4130.25
323.855	4063.67
323.919	4019.84
323.983	3973.37
324.048	3910.27
324.112	4058.39
324.177	3926.09
324.241	3722.58
324.305	3521.36
324.37	3327.03
324.434	3138.71
324.498	3095.73
324.562	3046.79
324.627	2985.95
324.691	2933.53
324.755	2868.17
324.82	2795.09
324.884	2724.19
324.948	2657.35
325.012	2566.25
325.077	2448.45
