Data from 20250702_urea_0.5M_MAYP1162681_16-24-59-853.txt Node
Date: Wed Jul 02 16:24:59 BST 2025
User: adleo
Spectrometer: MAYP116268
Trigger mode: 0
Integration Time (sec): 1.000000E0
Scans to average: 1
Electric dark correction enabled: true
Nonlinearity correction enabled: true
Boxcar width: 10
XAxis mode: Wavelengths
Number of Pixels in Spectrum: 2068
>>>>>Begin Spectral Data<<<<<
179.565	1126.49
179.642	1180.79
179.718	1219.44
179.795	1253.85
179.871	1283.94
179.948	1301.98
180.024	1319.42
180.101	1341.63
180.177	1355.46
180.254	1375.69
180.33	1397.04
180.407	1446.36
180.483	1533.73
180.56	1619.39
180.636	1697.72
180.712	1686.69
180.789	1698.9
180.865	1711.49
180.942	1722.32
181.018	1732.4
181.095	1740.15
181.171	1746.42
181.248	1746.42
181.324	1764.01
181.4	1772.8
181.477	1783.92
181.553	1798.22
181.63	1819.42
181.706	1832.97
181.782	1839.95
181.859	1840.8
181.935	1845.99
182.011	1841.38
182.088	1858.06
182.164	1874.7
182.24	1887.82
182.317	1895.33
182.393	1891.95
182.469	1904.98
182.546	1914.39
182.622	1917.86
182.698	1918.05
182.775	1926.89
182.851	1940.54
182.927	1930.17
183.003	1926.7
183.08	1920.81
183.156	1927.65
183.232	1922.57
183.308	1912.82
183.385	1923.14
183.461	1937.97
183.537	1938.49
183.613	1951.42
183.69	1943.15
183.766	1933.73
183.842	1942.1
183.918	1948.14
183.995	1962.74
184.071	1965.02
184.147	1961.03
184.223	1951.47
184.299	1958.61
184.375	1949.05
184.452	1952.81
184.528	2007.32
184.604	2016.21
184.68	2026.52
184.756	2031.76
184.832	2037.56
184.908	2042.03
184.985	2039.08
185.061	2026.05
185.137	2034.71
185.213	2022.15
185.289	2023.48
185.365	2013.41
185.441	2011.22
185.517	2022.3
185.593	2016.83
185.669	2015.69
185.745	2025.68
185.822	2040.56
185.898	2032.38
185.974	2043.6
186.05	2039.98
186.126	2002.12
186.202	1995.46
186.278	1993.32
186.354	1983.33
186.43	1989.95
186.506	1989.09
186.582	1989.57
186.658	1997.08
186.734	1978.16
186.81	1980.72
186.886	1983.48
186.962	1998.17
187.038	1994.13
187.114	1986.66
187.19	1993.79
187.266	1983.81
187.341	1985.66
187.417	1979.96
187.493	1979.53
187.569	1980.72
187.645	1975.2
187.721	1961.98
187.797	1971.02
187.873	1976.06
187.949	1970.64
188.025	1963.22
188.101	1966.26
188.176	1968.87
188.252	1962.22
188.328	1969.25
188.404	1968.45
188.48	1965.88
188.556	1959.55
188.632	1959.93
188.707	1960.98
188.783	1957.13
188.859	1953.56
188.935	1943.43
189.011	1950.04
189.086	1947.52
189.162	1939.01
189.238	1934.73
189.314	1933.12
189.39	1924.94
189.465	1916.95
189.541	1934.26
189.617	1919.95
189.693	1913.91
189.768	1918.05
189.844	1943.16
189.92	1934.42
189.996	1944.17
190.071	1954.49
190.147	1952.49
190.223	1962.19
190.298	1954.63
190.374	1945.07
190.45	1958.38
190.526	1965.99
190.601	1962.28
190.677	1961.9
190.753	1989.21
190.828	1992.2
190.904	2008.66
190.98	2021.97
191.055	2029.2
191.131	2021.31
191.207	2041.7
191.282	2052.45
191.358	2043.8
191.433	2027.57
191.509	2039.45
191.585	2036.22
191.66	2036.41
191.736	2044.92
191.811	2033.7
191.887	2049.06
191.963	2071.27
192.038	2073.46
192.114	2074.6
192.189	2076.31
192.265	2074.18
192.34	2052.72
192.416	2054.33
192.491	2050.72
192.567	2054.95
192.642	2058.9
192.718	2058.85
192.793	2047.72
192.869	2041.78
192.944	2044.01
193.02	2052.2
193.095	2059.47
193.171	2064.13
193.246	2063.37
193.322	2061.71
193.397	2062.71
193.473	2048.39
193.548	2030.88
193.624	2036.73
193.699	2033.5
193.775	2048.91
193.85	2050.77
193.925	2059.38
194.001	2057.57
194.076	2049.15
194.152	2038.26
194.227	2031.31
194.302	2021
194.378	2024.33
194.453	2024.42
194.529	2037.07
194.604	2023.71
194.679	2016.95
194.755	2000.55
194.83	2010.78
194.905	2006.98
194.981	2016.73
195.056	2012.59
195.131	2015.54
195.207	2012.07
195.282	2004.55
195.357	1985.19
195.433	1999.65
195.508	1990.19
195.583	1996.51
195.659	2009.49
195.734	2017.11
195.809	2013.87
195.884	2024.9
195.96	2026.99
196.035	2038.6
196.11	2034.08
196.185	2043.07
196.261	2044.3
196.336	2072.69
196.411	2061.56
196.486	2065.75
196.561	2059.04
196.637	2066.31
196.712	2083.3
196.787	2089.48
196.862	2102.61
196.937	2115.74
197.013	2120.49
197.088	2128.1
197.163	2149.04
197.238	2164.85
197.313	2165.7
197.388	2181.64
197.464	2209.91
197.539	2218.76
197.614	2213.19
197.689	2229.09
197.764	2244.22
197.839	2264.72
197.914	2260.06
197.989	2281.33
198.065	2296.13
198.14	2344.08
198.215	2369.69
198.29	2381.64
198.365	2390.73
198.44	2399.44
198.515	2423.72
198.59	2438.48
198.665	2464.66
198.74	2471.23
198.815	2472.42
198.89	2495.42
198.965	2522.61
199.04	2518.37
199.115	2532.89
199.19	2570.84
199.265	2569.41
199.34	2583.55
199.415	2615.67
199.49	2635.9
199.565	2645
199.64	2667.86
199.715	2664.72
199.79	2668.43
199.865	2673.81
199.94	2673.58
200.015	2708.12
200.09	2714.08
200.165	2720.46
200.24	2727.61
200.315	2766.32
200.39	2782.95
200.464	2785.81
200.539	2791.44
200.614	2807.06
200.689	2830.41
200.764	2837.9
200.839	2854.85
200.914	2855.66
200.989	2845.41
201.063	2859.14
201.138	2841.85
201.213	2843.33
201.288	2826.51
201.363	2835.23
201.438	2836.42
201.512	2850.37
201.587	2833.21
201.662	2834.07
201.737	2844.22
201.812	2852.09
201.886	2821.99
201.961	2829.19
202.036	2820.52
202.111	2814.71
202.186	2789.99
202.26	2772.54
202.335	2751.58
202.41	2745.67
202.485	2731.76
202.559	2712.52
202.634	2687.55
202.709	2698.41
202.784	2679.3
202.858	2676.4
202.933	2658.92
203.008	2651.82
203.082	2635.05
203.157	2633.2
203.232	2593.25
203.306	2574.01
203.381	2544.99
203.456	2523.42
203.53	2500.35
203.605	2479.36
203.68	2458.31
203.754	2446.93
203.829	2435.5
203.904	2416.94
203.978	2406.7
204.053	2410.89
204.127	2400.28
204.202	2397.9
204.277	2379.86
204.351	2370.34
204.426	2363.38
204.5	2356.05
204.575	2323.08
204.65	2331.93
204.724	2325.6
204.799	2333.26
204.873	2326.59
204.948	2321.97
205.022	2307.03
205.097	2300.37
205.171	2314.31
205.246	2321.17
205.32	2322.31
205.395	2320.45
205.469	2315.36
205.544	2318.88
205.618	2302.65
205.693	2314.22
205.767	2302.04
205.842	2322.94
205.916	2317.85
205.991	2309.47
206.065	2312.94
206.14	2327.69
206.214	2324.07
206.289	2316.88
206.363	2333.97
206.438	2341.3
206.512	2350.77
206.586	2369.71
206.661	2377.81
206.735	2356.44
206.81	2360.35
206.884	2377.2
206.958	2369.3
207.033	2385.43
207.107	2393.76
207.181	2425.19
207.256	2420
207.33	2444.14
207.405	2459.72
207.479	2485.95
207.553	2499.99
207.628	2492.86
207.702	2510.66
207.776	2509.71
207.851	2518.47
207.925	2538.58
207.999	2544.34
208.073	2554.01
208.148	2571.54
208.222	2572.25
208.296	2616.76
208.371	2643.84
208.445	2670.62
208.519	2710.92
208.593	2741.6
208.668	2760.43
208.742	2784.37
208.816	2813.48
208.89	2852.15
208.965	2876.05
209.039	2910.81
209.113	2954.67
209.187	3007.66
209.261	3038.84
209.336	3099.22
209.41	3158.99
209.484	3201.75
209.558	3265.12
209.632	3321.8
209.707	3379.69
209.781	3451.14
209.855	3522.24
209.929	3596.7
210.003	3660.26
210.077	3727.04
210.151	3838.63
210.226	3941.85
210.3	4041.1
210.374	4136.05
210.448	4217.45
210.522	4311.78
210.596	4408.08
210.67	4503.08
210.744	4642.95
210.818	4770.37
210.892	4890.33
210.966	4988.38
211.041	5108.32
211.115	5217.29
211.189	5352.84
211.263	5484.2
211.337	5613.04
211.411	5746.5
211.485	5865.91
211.559	6007.24
211.633	6141.97
211.707	6253.26
211.781	6393.62
211.855	6501.85
211.929	6641.68
212.003	6764.91
212.077	6920.57
212.151	7083.7
212.225	7256.06
212.299	7399.98
212.373	7543.69
212.447	7691.02
212.52	7879.66
212.594	8044.88
212.668	8220.24
212.742	8375.54
212.816	8538.08
212.89	8696.77
212.964	8862.01
213.038	9042.1
213.112	9226.87
213.186	9411.64
213.26	9561.71
213.333	9697.51
213.407	9878.91
213.481	10057.87
213.555	10249.73
213.629	10413.52
213.703	10569.19
213.777	10741.35
213.85	10897.13
213.924	11111.9
213.998	11285.52
214.072	11454.34
214.146	11612.51
214.219	11782.02
214.293	11950.41
214.367	12128.27
214.441	12316.72
214.515	12487.31
214.588	12630.03
214.662	12763.8
214.736	12909.85
214.81	13086.71
214.883	13268.05
214.957	13412.81
215.031	13558.97
215.105	13701.84
215.178	13850.99
215.252	14013.44
215.326	14146.54
215.4	14282.86
215.473	14384.38
215.547	14524.85
215.621	14667.53
215.694	14825.63
215.768	14950.72
215.842	15080.97
215.915	15210.92
215.989	15326.12
216.063	15452.84
216.136	15595.18
216.21	15733.9
216.284	15885.1
216.357	16012.97
216.431	16127.54
216.504	16270.45
216.578	16421.7
216.652	16556.02
216.725	16685.57
216.799	16817.58
216.873	16946.17
216.946	17076.68
217.02	17196.44
217.093	17317.8
217.167	17411.48
217.24	17508.88
217.314	17620.64
217.387	17733.17
217.461	17833.65
217.535	17955.29
217.608	18050.9
217.682	18152.78
217.755	18265.98
217.829	18363.13
217.902	18465.06
217.976	18572.81
218.049	18669.09
218.123	18746.25
218.196	18846.19
218.27	18925.71
218.343	18993.99
218.417	19084.16
218.49	19168.05
218.563	19269.54
218.637	19362.31
218.71	19468.23
218.784	19570.25
218.857	19669.04
218.931	19755.4
219.004	19851.4
219.077	19941.03
219.151	20028.74
219.224	20099.78
219.298	20182.71
219.371	20259.68
219.444	20322.9
219.518	20393.02
219.591	20470.42
219.665	20579.82
219.738	20652.07
219.811	20723.78
219.885	20808.7
219.958	20873.47
220.031	20940.56
220.105	21017.43
220.178	21076.81
220.251	21134.07
220.325	21196.63
220.398	21245.4
220.471	21301.41
220.544	21361.03
220.618	21414.39
220.691	21470.59
220.764	21528.62
220.838	21580.05
220.911	21631.43
220.984	21705.13
221.057	21766.1
221.131	21820.47
221.204	21838.84
221.277	21912.93
221.35	21988.08
221.424	22018.83
221.497	22063.47
221.57	22106.23
221.643	22135.44
221.716	22178.15
221.79	22204.32
221.863	22242.07
221.936	22278.22
222.009	22324.5
222.082	22362.97
222.155	22390.6
222.229	22441.89
222.302	22476.55
222.375	22499.36
222.448	22531.95
222.521	22551.76
222.594	22575.96
222.667	22582.71
222.74	22617.18
222.814	22628.42
222.887	22643.8
222.96	22685.55
223.033	22715.87
223.106	22745.33
223.179	22774.88
223.252	22804.44
223.325	22837.08
223.398	22854.1
223.471	22886.5
223.544	22895.66
223.617	22908.34
223.69	22921.7
223.763	22913.26
223.837	22940.5
223.91	22960.17
223.983	22967.69
224.056	22969.52
224.129	22985.72
224.202	23007.61
224.275	23012.58
224.348	23011.95
224.42	23004.62
224.493	22998.45
224.566	23014.89
224.639	23031.82
224.712	23031.1
224.785	23027.48
224.858	23025.89
224.931	23027.38
225.004	23024.83
225.077	23039.44
225.15	23009.64
225.223	23007.76
225.296	23043.59
225.369	23025.26
225.442	23027.43
225.514	23022.03
225.587	23033.7
225.66	23036.55
225.733	23039.15
225.806	23042.86
225.879	23050.87
225.952	23039.54
226.025	23060.61
226.097	23064.85
226.17	23050.97
226.243	23035.3
226.316	23028.98
226.389	23027.58
226.461	23029.61
226.534	23033.46
226.607	23024.98
226.68	23065.86
226.753	23059.5
226.825	23030.47
226.898	23047.4
226.971	23037.13
227.044	23040.84
227.117	23037.22
227.189	23033.03
227.262	23034.96
227.335	23027
227.407	23006.89
227.48	23012.82
227.553	22993.68
227.626	22972.22
227.698	22961.76
227.771	22959.64
227.844	22944.74
227.916	22941.61
227.989	22916.63
228.062	22900.48
228.134	22908.29
228.207	22876.52
228.28	22866.25
228.352	22859.69
228.425	22842.19
228.498	22848.17
228.57	22834.47
228.643	22822.27
228.716	22805.3
228.788	22784.72
228.861	22771.65
228.934	22766.59
229.006	22748.27
229.079	22734.77
229.151	22722.38
229.224	22696.25
229.296	22688.34
229.369	22700.44
229.442	22701.79
229.514	22684.29
229.587	22679.23
229.659	22646.4
229.732	22631.6
229.804	22629.52
229.877	22633.24
229.949	22636.18
230.022	22626.87
230.094	22610.87
230.167	22605.08
230.239	22581.75
230.312	22569.74
230.384	22573.02
230.457	22563.48
230.529	22551.66
230.602	22540.62
230.674	22528.91
230.747	22536.19
230.819	22535.61
230.892	22494.44
230.964	22475.2
231.037	22469.13
231.109	22449.55
231.181	22438.8
231.254	22425.07
231.326	22405.49
231.399	22380.52
231.471	22348.7
231.544	22313.22
231.616	22301.46
231.688	22287.38
231.761	22272.48
231.833	22241.49
231.905	22197.52
231.978	22183.78
232.05	22162
232.122	22144.3
232.195	22116.63
232.267	22105.69
232.339	22069.44
232.412	22061.63
232.484	22030.73
232.556	22004.41
232.629	22005.04
232.701	22001.37
232.773	21983.73
232.846	21957.17
232.918	21936.78
232.99	21919.04
233.062	21899.95
233.135	21879.42
233.207	21840.76
233.279	21824.27
233.351	21810.15
233.424	21786.82
233.496	21747.88
233.568	21744.26
233.64	21706.76
233.713	21683.91
233.785	21658.7
233.857	21639.9
233.929	21605.54
234.001	21601.68
234.074	21587.9
234.146	21535.07
234.218	21510.92
234.29	21479.06
234.362	21451.63
234.434	21409.36
234.507	21368.3
234.579	21332.25
234.651	21295.33
234.723	21275.57
234.795	21254.26
234.867	21222.21
234.939	21205.92
235.012	21173.24
235.084	21148.61
235.156	21121
235.228	21088.9
235.3	21050.92
235.372	21025.38
235.444	20995.16
235.516	20933.99
235.588	20912.64
235.66	20896.31
235.732	20849.55
235.804	20876.79
235.876	20849.85
235.948	20829.03
236.02	20793.7
236.092	20763.82
236.164	20729.84
236.236	20696.98
236.308	20653.65
236.38	20631.53
236.452	20594.56
236.524	20568.54
236.596	20548.73
236.668	20522.08
236.74	20492.83
236.812	20458.85
236.884	20430.9
236.956	20414.27
237.028	20374.85
237.1	20328.92
237.172	20310.27
237.244	20288.59
237.316	20210.22
237.388	20177.02
237.46	20135.91
237.532	20119.86
237.604	20074.27
237.675	20062.52
237.747	20032.93
237.819	19990.76
237.891	19962.71
237.963	19924.06
238.035	19891.87
238.107	19825.13
238.178	19813.18
238.25	19771.2
238.322	19761.85
238.394	19709.95
238.466	19657.04
238.538	19639.69
238.609	19603.93
238.681	19534.39
238.753	19485.87
238.825	19455.99
238.897	19417.77
238.968	19406.21
239.04	19363.46
239.112	19359.7
239.184	19310.21
239.255	19279.71
239.327	19249.06
239.399	19210.08
239.471	19185.64
239.542	19152.97
239.614	19132.49
239.686	19069.94
239.758	19047.43
239.829	19000.69
239.901	18976.21
239.973	18949.18
240.044	18911.25
240.116	18879.16
240.188	18844.94
240.259	18816.12
240.331	18776.42
240.403	18750.25
240.474	18696.66
240.546	18650.06
240.618	18592.04
240.689	18555.9
240.761	18523.32
240.833	18505.49
240.904	18469.16
240.976	18421.64
241.048	18389.06
241.119	18353.02
241.191	18324.01
241.262	18302.03
241.334	18260.3
241.405	18219.82
241.477	18178.13
241.549	18140.93
241.62	18100.16
241.692	18079.68
241.763	18056.79
241.835	18027.35
241.906	17989.42
241.978	17934.58
242.049	17908.36
242.121	17880.6
242.192	17856.84
242.264	17801.95
242.335	17753.42
242.407	17717.18
242.478	17681.23
242.55	17651.02
242.621	17611.31
242.693	17558.2
242.764	17513.38
242.836	17476.03
242.907	17457
242.979	17431.98
243.05	17401.14
243.122	17379.84
243.193	17340.56
243.264	17275.89
243.336	17236.03
243.407	17214.15
243.479	17203.84
243.55	17183.84
243.622	17159.16
243.693	17121.33
243.764	17100.27
243.836	17051.83
243.907	17016.6
243.978	16985.37
244.05	16950.58
244.121	16901.71
244.192	16886.52
244.264	16838.23
244.335	16802.33
244.407	16745.55
244.478	16703.09
244.549	16662.32
244.62	16608.58
244.692	16576.05
244.763	16563.08
244.834	16521.44
244.906	16473
244.977	16442.21
245.048	16420.28
245.119	16375.55
245.191	16338.59
245.262	16285.42
245.333	16271.35
245.405	16235.54
245.476	16203.25
245.547	16165.12
245.618	16140.78
245.689	16103.14
245.761	16074.75
245.832	16035.03
245.903	16009.73
245.974	15987.41
246.045	15955.89
246.117	15944.32
246.188	15897.71
246.259	15849.9
246.33	15812.16
246.401	15774.18
246.473	15719.95
246.544	15674.89
246.615	15652.23
246.686	15613.82
246.757	15598.97
246.828	15551.4
246.899	15536.21
246.97	15483.96
247.042	15448.25
247.113	15424.92
247.184	15420.05
247.255	15378.02
247.326	15352.9
247.397	15315.93
247.468	15291.06
247.539	15257.17
247.61	15210.51
247.681	15193.16
247.752	15170.36
247.823	15132.81
247.894	15101.19
247.965	15073.47
248.037	15031.34
248.108	14987.19
248.179	14949.16
248.25	14911.17
248.321	14892.23
248.392	14847.25
248.463	14843.21
248.534	14814.38
248.605	14794.33
248.675	14752.44
248.746	14734.7
248.817	14708.14
248.888	14689.77
248.959	14642.05
249.03	14616.74
249.101	14584.59
249.172	14544.39
249.243	14503.65
249.314	14489.53
249.385	14472.13
249.456	14443.54
249.527	14412.06
249.598	14393.55
249.669	14370.17
249.739	14353.4
249.81	14339.08
249.881	14309.39
249.952	14293.24
250.023	14263.11
250.094	14215.43
250.165	14179.14
250.235	14153.2
250.306	14136.67
250.377	14096.46
250.448	14074.38
250.519	14031.24
250.59	14027
250.66	14006.08
250.731	13993.98
250.802	13974.02
250.873	13952.33
250.944	13928.75
251.014	13905.86
251.085	13897.18
251.156	13879.92
251.227	13860.83
251.297	13845.6
251.368	13822.89
251.439	13798.6
251.51	13782.74
251.58	13751.64
251.651	13723.63
251.722	13715.2
251.792	13664.1
251.863	13635.95
251.934	13617
252.005	13620.81
252.075	13590.44
252.146	13572.46
252.217	13557.32
252.287	13533.51
252.358	13503.23
252.429	13497.93
252.499	13466.31
252.57	13441.1
252.641	13435.5
252.711	13417.62
252.782	13376.07
252.852	13373.94
252.923	13339.28
252.994	13326.51
253.064	13314.55
253.135	13283.8
253.205	13240.94
253.276	13238.19
253.347	13227.2
253.417	13198.09
253.488	13171.86
253.558	13139.85
253.629	13113.77
253.699	13087.79
253.77	13068.22
253.841	13039.78
253.911	13022.18
253.982	13003.38
254.052	12988.1
254.123	12956
254.193	12921.05
254.264	12927.26
254.334	12888.27
254.405	12858.43
254.475	12821.89
254.546	12798.84
254.616	12785.4
254.687	12775.66
254.757	12759.85
254.827	12736.76
254.898	12719.69
254.968	12700.79
255.039	12677.32
255.109	12660.74
255.18	12624.87
255.25	12577.97
255.321	12564.28
255.391	12526.44
255.461	12531.89
255.532	12486.72
255.602	12459.43
255.673	12422.12
255.743	12387.27
255.813	12347.7
255.884	12339.74
255.954	12323.55
256.024	12320.46
256.095	12304.07
256.165	12264.93
256.235	12240.11
256.306	12216.78
256.376	12209.93
256.446	12195.42
256.517	12177.2
256.587	12168.14
256.657	12158.36
256.728	12147.22
256.798	12129.34
256.868	12108.13
256.938	12074.15
257.009	12067.4
257.079	12046.86
257.149	12059.97
257.219	12023.68
257.29	12019.2
257.36	11978.66
257.43	11967.91
257.5	11927.57
257.571	11905.01
257.641	11896.81
257.711	11865.53
257.781	11851.31
257.852	11831.12
257.922	11791.02
257.992	11779.54
258.062	11757.76
258.132	11744.84
258.202	11725.46
258.273	11707.1
258.343	11703.34
258.413	11677.55
258.483	11652.06
258.553	11631.43
258.623	11594.56
258.693	11574.94
258.764	11565.11
258.834	11568
258.904	11553.88
258.974	11528.96
259.044	11507.75
259.114	11490.64
259.184	11484.86
259.254	11468.09
259.324	11427.03
259.394	11419.41
259.464	11414.69
259.535	11397.96
259.605	11375.6
259.675	11348.81
259.745	11331.84
259.815	11304.03
259.885	11276.9
259.955	11285
260.025	11254.3
260.095	11242.25
260.165	11238.01
260.235	11233.43
260.305	11206.78
260.375	11165.29
260.445	11173.48
260.515	11166.35
260.585	11163.89
260.655	11143.26
260.725	11138.73
260.795	11132.47
260.865	11132.47
260.934	11102.35
261.004	11085.91
261.074	11068.9
261.144	11071.65
261.214	11068.23
261.284	11053.58
261.354	11052.61
261.424	11019.07
261.494	11027.94
261.564	11009.67
261.634	10998.88
261.703	10958.64
261.773	10950.11
261.843	10947.17
261.913	10923.85
261.983	10896.14
262.053	10877.97
262.123	10858.36
262.192	10826.99
262.262	10824.58
262.332	10795.62
262.402	10789.59
262.472	10770.95
262.541	10737.36
262.611	10730.57
262.681	10697.18
262.751	10685.8
262.821	10659.35
262.89	10637.04
262.96	10626.15
263.03	10625.43
263.1	10611.74
263.169	10602.01
263.239	10591.89
263.309	10596.76
263.379	10585.39
263.448	10568.19
263.518	10567.32
263.588	10550.55
263.657	10548.15
263.727	10538.75
263.797	10516.01
263.867	10491.58
263.936	10469.32
264.006	10468.6
264.076	10446.19
264.145	10433.67
264.215	10404.57
264.285	10406.74
264.354	10379.23
264.424	10353.45
264.494	10317.61
264.563	10295.25
264.633	10296.89
264.702	10287.73
264.772	10250.93
264.842	10231.99
264.911	10219.08
264.981	10180.54
265.05	10170.66
265.12	10152.84
265.19	10137.23
265.259	10134.91
265.329	10129.18
265.398	10117.28
265.468	10128.12
265.537	10109.29
265.607	10099.51
265.676	10098.16
265.746	10085.15
265.815	10085.88
265.885	10066.08
265.955	10053.99
266.024	10036.16
266.094	10002.69
266.163	9995.94
266.232	10003.17
266.302	9993.1
266.371	9987.99
266.441	9981.59
266.51	9974.41
266.58	9961.07
266.649	9939
266.719	9937.27
266.788	9930.09
266.858	9936.98
266.927	9894.5
266.996	9891.12
267.066	9882.98
267.135	9860.78
267.205	9856.2
267.274	9837.85
267.343	9846.19
267.413	9832.85
267.482	9833.62
267.552	9836.46
267.621	9808.04
267.69	9772.25
267.76	9760.55
267.829	9754.19
267.898	9740.7
267.968	9721.73
268.037	9711.08
268.106	9702.7
268.176	9673.76
268.245	9655.12
268.314	9632.62
268.384	9632.96
268.453	9621.84
268.522	9616.34
268.592	9616.97
268.661	9595.73
268.73	9591.16
268.799	9573.67
268.869	9579.11
268.938	9552.48
269.007	9536.83
269.076	9529.13
269.146	9539.05
269.215	9528.84
269.284	9535.92
269.353	9514.97
269.422	9500.43
269.492	9492.82
269.561	9464.99
269.63	9465.32
269.699	9448.66
269.768	9436.38
269.838	9431.76
269.907	9427.91
269.976	9406.04
270.045	9374.84
270.114	9373.01
270.183	9359.82
270.253	9343.16
270.322	9315.62
270.391	9303.53
270.46	9308.11
270.529	9303
270.598	9293.42
270.667	9278.93
270.736	9246.81
270.806	9244.3
270.875	9243.1
270.944	9229.42
271.013	9248.88
271.082	9235.15
271.151	9236.31
271.22	9214.89
271.289	9198.66
271.358	9183.93
271.427	9175.11
271.496	9168.81
271.565	9151.33
271.634	9146.37
271.703	9165.49
271.772	9169.39
271.841	9162.5
271.91	9133.09
271.979	9125.29
272.048	9099.38
272.117	9097.46
272.186	9084.89
272.255	9086.96
272.324	9091.78
272.393	9090
272.462	9074.39
272.531	9066.21
272.6	9055.09
272.669	9057.64
272.738	9048.54
272.807	9040.69
272.876	9016.68
272.945	9042.48
273.013	9042.43
273.082	9041.18
273.151	9005.6
273.22	9001.02
273.289	8990.87
273.358	8999.58
273.427	8987.11
273.496	8987.69
273.564	8984.03
273.633	8987.79
273.702	8964.1
273.771	8948.7
273.84	8932.47
273.909	8924.34
273.977	8923.33
274.046	8909.27
274.115	8908.84
274.184	8893.58
274.253	8885.83
274.322	8897.24
274.39	8869.03
274.459	8850.59
274.528	8822.67
274.597	8818.77
274.665	8814.68
274.734	8821.18
274.803	8811.02
274.872	8801.44
274.94	8788.54
275.009	8842.29
275.078	8825.01
275.147	8821.25
275.215	8815.24
275.284	8825.92
275.353	8816.06
275.421	8785.11
275.49	8799.26
275.559	8791.66
275.627	8782.27
275.696	8774.86
275.765	8770.87
275.833	8759.27
275.902	8763.07
275.971	8779.67
276.039	8788.63
276.108	8787.95
276.177	8779.92
276.245	8769.13
276.314	8765.76
276.383	8768.65
276.451	8700.03
276.52	8703.79
276.588	8714.76
276.657	8716.54
276.725	8706.72
276.794	8707.4
276.863	8723.81
276.931	8698.44
277	8704.36
277.068	8718.37
277.137	8733.29
277.205	8732.71
277.274	8747
277.342	8757.83
277.411	8733.34
277.48	8718.71
277.548	8706.43
277.617	8709.8
277.685	8702.63
277.754	8709.03
277.822	8698.11
277.89	8716.21
277.959	8709.57
278.027	8697.73
278.096	8692.43
278.164	8719.82
278.233	8707.69
278.301	8701.2
278.37	8710.82
278.438	8698.98
278.507	8700.28
278.575	8674.87
278.643	8674.48
278.712	8658.12
278.78	8641.76
278.849	8653.59
278.917	8660.23
278.985	8654.32
279.054	8658.98
279.122	8668.18
279.191	8663.65
279.259	8659.18
279.327	8638.96
279.396	8652.92
279.464	8642.04
279.532	8646.13
279.601	8636.99
279.669	8638.86
279.737	8647.53
279.806	8644.73
279.874	8648.49
279.942	8642.62
280.011	8640.26
280.079	8645.75
280.147	8659.61
280.215	8664.42
280.284	8657.92
280.352	8647.67
280.42	8660.42
280.488	8651.81
280.557	8645.89
280.625	8645.5
280.693	8646.32
280.761	8651.71
280.83	8635.49
280.898	8650.99
280.966	8632.36
281.034	8600.02
281.102	8583.52
281.171	8574.76
281.239	8583.85
281.307	8576.3
281.375	8563.07
281.443	8586.07
281.512	8579.19
281.58	8585.93
281.648	8569.85
281.716	8571.25
281.784	8562.97
281.852	8548.24
281.92	8548.44
281.989	8556.47
282.057	8542.86
282.125	8588.34
282.193	8578
282.261	8576.84
282.329	8572.17
282.397	8576.46
282.465	8578.62
282.533	8592.82
282.601	8584.78
282.67	8562.59
282.738	8560.96
282.806	8575.44
282.874	8565.24
282.942	8573.27
283.01	8568.7
283.078	8572.6
283.146	8566.78
283.214	8579.19
283.282	8588.39
283.35	8594.31
283.418	8590.26
283.486	8591.42
283.554	8543.91
283.622	8547.23
283.69	8550.64
283.758	8541.74
283.826	8545.45
283.894	8552.91
283.962	8571.24
284.03	8584.72
284.098	8583.71
284.165	8576.97
284.233	8571.48
284.301	8558.78
284.369	8547.86
284.437	8536.74
284.505	8528.89
284.573	8546.03
284.641	8538.28
284.709	8542.56
284.777	8519.65
284.845	8528.08
284.912	8533.37
284.98	8539.14
285.048	8539.67
285.116	8541.36
285.184	8554.06
285.252	8553.63
285.319	8544.63
285.387	8537.17
285.455	8522.25
285.523	8528.22
285.591	8525.57
285.659	8528.51
285.726	8543.86
285.794	8527.26
285.862	8525.29
285.93	8526.44
285.997	8520.91
286.065	8512.58
286.133	8500.89
286.201	8503.68
286.269	8483.95
286.336	8477.35
286.404	8474.18
286.472	8474.42
286.539	8455.27
286.607	8445.88
286.675	8444.73
286.743	8448.72
286.81	8441.89
286.878	8452.52
286.946	8449.88
287.013	8451.51
287.081	8452.86
287.149	8438.09
287.216	8457.19
287.284	8447.57
287.352	8448.72
287.419	8445.21
287.487	8461.76
287.555	8468.79
287.622	8468.5
287.69	8473.98
287.758	8489.86
287.825	8485.25
287.893	8472.49
287.96	8477.02
288.028	8485.29
288.096	8483.32
288.163	8487.36
288.231	8478.17
288.298	8478.03
288.366	8485.39
288.433	8480.63
288.501	8471.63
288.569	8474.37
288.636	8471.19
288.704	8488.13
288.771	8499.87
288.839	8489.1
288.906	8485.63
288.974	8495.4
289.041	8492.8
289.109	8490.11
289.176	8489.39
289.244	8498.72
289.311	8521.92
289.379	8537.32
289.446	8543.19
289.514	8546.32
289.581	8544.73
289.649	8547.66
289.716	8548.91
289.783	8547.9
289.851	8572.88
289.918	8576.68
289.986	8586.59
290.053	8592.42
290.121	8589.92
290.188	8585.34
290.255	8617.49
290.323	8612.01
290.39	8608.78
290.458	8619.9
290.525	8630.29
290.592	8631.21
290.66	8633.85
290.727	8619.8
290.794	8628.8
290.862	8620.71
290.929	8623.02
290.996	8622.97
291.064	8626.01
291.131	8639.96
291.198	8649.93
291.266	8640.49
291.333	8638.52
291.4	8647.14
291.468	8659.07
291.535	8657.87
291.602	8663.12
291.669	8650.26
291.737	8654.21
291.804	8649.78
291.871	8660.27
291.938	8668.51
292.006	8692.38
292.073	8698.54
292.14	8712.21
292.207	8706.72
292.275	8706.2
292.342	8715.68
292.409	8740.95
292.476	8771.85
292.543	8758.52
292.611	8754.43
292.678	8774.84
292.745	8801.21
292.812	8810.07
292.879	8803.86
292.946	8806.79
293.014	8820.51
293.081	8831.39
293.148	8843.13
293.215	8855.6
293.282	8846.94
293.349	8853.19
293.416	8836.83
293.484	8848.96
293.551	8856.61
293.618	8872.21
293.685	8898.44
293.752	8895.31
293.819	8893.96
293.886	8883.95
293.953	8892.61
294.02	8906.14
294.087	8909.89
294.154	8901.86
294.221	8915.63
294.288	8919.86
294.356	8935.02
294.423	8938.63
294.49	8934.16
294.557	8952.07
294.624	8947.4
294.691	8970.69
294.758	8971.94
294.825	8984.65
294.892	8977.63
294.959	8980.47
295.026	8989.66
295.093	8984.85
295.16	8990.33
295.226	8986.82
295.293	9010.75
295.36	9020.81
295.427	9033.42
295.494	9043.78
295.561	9053.79
295.628	9072.62
295.695	9087.74
295.762	9095
295.829	9109.59
295.896	9125.72
295.963	9131.79
296.03	9142.43
296.096	9143.63
296.163	9155.28
296.23	9164.24
296.297	9184.6
296.364	9185.47
296.431	9186.29
296.498	9185.52
296.564	9204.48
296.631	9209.11
296.698	9198.85
296.765	9217.53
296.832	9204.96
296.899	9195.96
296.965	9210.36
297.032	9188.73
297.099	9206.45
297.166	9212.67
297.233	9210.55
297.299	9201.59
297.366	9202.8
297.433	9206.41
297.5	9224.08
297.566	9220.42
297.633	9217.19
297.7	9215.17
297.767	9213.92
297.833	9224.9
297.9	9223.79
297.967	9205.74
298.033	9224.71
298.1	9239.25
298.167	9228.66
298.234	9241.37
298.3	9247.72
298.367	9244.54
298.434	9253.12
298.5	9241.85
298.567	9238.72
298.634	9229.76
298.7	9252.54
298.767	9254.27
298.834	9263.51
298.9	9254.99
298.967	9255.57
299.033	9268.09
299.1	9280.75
299.167	9296.69
299.233	9287.01
299.3	9300.54
299.366	9320.28
299.433	9328.66
299.5	9309.3
299.566	9318.64
299.633	9331.4
299.699	9346.52
299.766	9345.42
299.832	9347.87
299.899	9356.78
299.965	9369.49
300.032	9373.06
300.099	9381.53
300.165	9384.61
300.232	9381.87
300.298	9383.27
300.365	9394.58
300.431	9394.53
300.498	9390.44
300.564	9393.28
300.631	9406.91
300.697	9422.41
300.763	9422.46
300.83	9421.98
300.896	9435.56
300.963	9436.23
301.029	9438.69
301.096	9434.69
301.162	9447.02
301.229	9445.24
301.295	9436.57
301.361	9438.69
301.428	9447.11
301.494	9430.74
301.561	9435.8
301.627	9442.88
301.693	9440.32
301.76	9447.93
301.826	9443.12
301.892	9456.12
301.959	9464.26
302.025	9463.83
302.092	9455.3
302.158	9466.23
302.224	9467.24
302.291	9454.53
302.357	9451.31
302.423	9442.4
302.49	9433.1
302.556	9441.48
302.622	9443.27
302.688	9450.83
302.755	9465.27
302.821	9467.39
302.887	9476.59
302.954	9476.59
303.02	9478.03
303.086	9485.21
303.152	9474.52
303.219	9468.84
303.285	9462.38
303.351	9469.46
303.417	9467.2
303.483	9458.05
303.55	9451.12
303.616	9453.91
303.682	9458.1
303.748	9458.97
303.815	9473.99
303.881	9488.39
303.947	9473.7
304.013	9474.04
304.079	9465.13
304.145	9443.02
304.212	9443.65
304.278	9432.48
304.344	9422.27
304.41	9414.23
304.476	9404.12
304.542	9400.36
304.608	9409.61
304.674	9399.35
304.741	9389.91
304.807	9392.61
304.873	9400.65
304.939	9410.28
305.005	9392.03
305.071	9396.89
305.137	9394.96
305.203	9375.27
305.269	9370.74
305.335	9388.85
305.401	9382.59
305.467	9385.86
305.533	9396.89
305.599	9400.79
305.666	9411
305.732	9415.19
305.798	9426.17
305.864	9454.1
305.93	9460.02
305.996	9454.77
306.062	9459.11
306.128	9449.72
306.194	9440.62
306.259	9438.54
306.325	9431.66
306.391	9436.04
306.457	9435.61
306.523	9433.1
306.589	9451.98
306.655	9446.68
306.721	9426.65
306.787	9417.89
306.853	9425.64
306.919	9406.52
306.985	9400.17
307.051	9391.98
307.117	9384.81
307.183	9370.5
307.248	9343.1
307.314	9347.77
307.38	9353.41
307.446	9356.68
307.512	9358.9
307.578	9361.02
307.644	9357.07
307.709	9356.54
307.775	9352.64
307.841	9349.56
307.907	9357.31
307.973	9336.12
308.039	9335.35
308.104	9337.08
308.17	9330.29
308.236	9318.98
308.302	9322.4
308.368	9310.22
308.433	9301.79
308.499	9296.93
308.565	9293.36
308.631	9297.6
308.696	9273.62
308.762	9255.28
308.828	9254.12
308.894	9229.66
308.959	9209.11
309.025	9200.15
309.091	9191.43
309.156	9181.08
309.222	9183.2
309.288	9166.25
309.354	9141.07
309.419	9130.92
309.485	9118.83
309.551	9126.82
309.616	9109.68
309.682	9102.89
309.748	9097.17
309.813	9098.37
309.879	9086
309.945	9077.86
310.01	9069.53
310.076	9076.32
310.141	9077.81
310.207	9059.75
310.273	9063.12
310.338	9065.44
310.404	9054.6
310.469	9037.75
310.535	9028.12
310.601	9005.55
310.666	9007.33
310.732	9020.47
310.797	9010.89
310.863	9001.31
310.928	8997.17
310.994	9002.99
311.059	9003.09
311.125	9000.01
311.191	9010.21
311.256	9005.11
311.322	9013.35
311.387	8991.25
311.453	9211.14
311.518	9183.32
311.584	9180.04
311.649	9185.39
311.715	9179.37
311.78	9180
311.846	9175.18
311.911	9179.03
311.976	9181.58
312.042	9172.63
312.107	9155.45
312.173	9147.26
312.238	9141.97
312.304	9138.02
312.369	9125.94
312.434	9110.44
312.5	9101.24
312.565	9065.86
312.631	9070.72
312.696	9050.17
312.761	9057.68
312.827	8826.91
312.892	8860.03
312.958	8856.61
313.023	8851.02
313.088	8845.05
313.154	8828.64
313.219	8821.81
313.284	8812.23
313.35	8807.41
313.415	8793.6
313.48	8793.84
313.546	8798.03
313.611	8805.35
313.676	8791.24
313.741	8779.98
313.807	8792.69
313.872	8798.7
313.937	8806.6
314.003	8810.54
314.068	8812.33
314.133	8810.78
314.198	8799.67
314.264	8780.17
314.329	8772.51
314.394	8769.53
314.459	8761.69
314.525	8779.3
314.59	8775.31
314.655	8761.3
314.72	8765.1
314.785	8769.63
314.851	8765.54
314.916	8746.19
314.981	8728.86
315.046	8721.98
315.111	8721.21
315.176	8703.69
315.242	8705.37
315.307	8699.79
315.372	8682.03
315.437	8672.26
315.502	8669.52
315.567	8676.16
315.632	8661.72
315.698	8660.95
315.763	8648.96
315.828	8642.13
315.893	8643.91
315.958	8643.05
316.023	8639.48
316.088	8620.52
316.153	8596.46
316.218	8587.85
316.283	8572.07
316.348	8557.39
316.413	8555.37
316.479	8536.08
316.544	8504.03
316.609	8468.33
316.674	8436.33
316.739	8404.43
316.804	8380.04
316.869	8341.74
316.934	8307.33
316.999	8276.45
317.064	8222.52
317.129	8182.83
317.194	8149.93
317.259	8091.52
317.324	8038.66
317.389	7991.52
317.454	7949.14
317.518	7918.75
317.583	7888.69
317.648	7867.81
317.713	7829.68
317.778	7766.72
317.843	7734.88
317.908	7700.41
317.973	7664.83
318.038	7638.72
318.103	7596.08
318.168	7558.09
318.233	7528.52
318.297	7478.86
318.362	7436.46
318.427	7399.46
318.492	7375.18
318.557	7328.42
318.622	7301.98
318.687	7277.33
318.751	7242.63
318.816	7209.38
318.881	7174.34
318.946	7126.24
319.011	7079.96
319.075	7040.94
319.14	7008.9
319.205	6959.27
319.27	6925.89
319.335	6878.71
319.399	6837.44
319.464	6811.22
319.529	6759.93
319.594	6716.36
319.658	6684.47
319.723	6646.78
319.788	6619.36
319.853	6564.56
319.917	6533.26
319.982	6480.2
320.047	6438.82
320.112	6410.92
320.176	6363.49
320.241	6327.54
320.306	6295.9
320.37	6253.95
320.435	6224.58
320.5	6198.85
320.564	6163.82
320.629	6122.03
320.694	6095.83
320.758	6053.55
320.823	6009.7
320.888	5979.87
320.952	5935.4
321.017	5898.08
321.082	5864.12
321.146	5830.2
321.211	5792.51
321.275	5753.77
321.34	5709.37
321.405	5669.77
321.469	5624.07
321.534	5585.15
321.598	5535.05
321.663	5502.78
321.727	5473.78
321.792	5421.39
321.857	5373.83
321.921	5336.89
321.986	5294.63
322.05	5236.66
322.115	5198.99
322.179	5158.32
322.244	5106.98
322.308	5075.51
322.373	5031.01
322.437	4984.46
322.502	4951.54
322.566	4910.55
322.631	4872.97
322.695	4836.45
322.76	4793.94
322.824	4758.75
322.889	4716.16
322.953	4674.38
323.018	4610.63
323.082	4548.04
323.146	4500.63
323.211	4449.44
323.275	4406.29
323.34	4361.09
323.404	4329.53
323.468	4285.09
323.533	4241.39
323.597	4195.89
323.662	4143.77
323.726	4101.93
323.79	4060.87
323.855	4001.96
323.919	3953.55
323.983	3912.82
324.048	3848.02
324.112	3987.9
324.177	3859.38
324.241	3659.65
324.305	3462.26
324.37	3269.4
324.434	3083.15
324.498	3041.41
324.562	2993.81
324.627	2935.9
324.691	2882.92
324.755	2816.73
324.82	2741.85
324.884	2666.89
324.948	2601.29
325.012	2509.47
325.077	2393.76
