Data from 20250702_urea_0.5M_MAYP1162681_15-35-00-085.txt Node
Date: Wed Jul 02 15:35:00 BST 2025
User: adleo
Spectrometer: MAYP116268
Trigger mode: 0
Integration Time (sec): 1.000000E0
Scans to average: 1
Electric dark correction enabled: true
Nonlinearity correction enabled: true
Boxcar width: 10
XAxis mode: Wavelengths
Number of Pixels in Spectrum: 2068
>>>>>Begin Spectral Data<<<<<
179.565	1107.49
179.642	1159.5
179.718	1201.21
179.795	1236.11
179.871	1265.69
179.948	1280.66
180.024	1298.62
180.101	1319.85
180.177	1332.7
180.254	1354.69
180.33	1376.11
180.407	1423.68
180.483	1513.09
180.56	1594.14
180.636	1671.28
180.712	1659.3
180.789	1667.67
180.865	1682.06
180.942	1692.75
181.018	1702.25
181.095	1716.18
181.171	1722.49
181.248	1723.16
181.324	1737.32
181.4	1741.98
181.477	1752.34
181.553	1767.16
181.63	1786.65
181.706	1801.19
181.782	1808.94
181.859	1808.22
181.935	1812.69
182.011	1807.13
182.088	1820.06
182.164	1840.69
182.24	1855
182.317	1863.17
182.393	1862.84
182.469	1874.1
182.546	1885.84
182.622	1889.46
182.698	1881.57
182.775	1893.07
182.851	1904.91
182.927	1899.87
183.003	1898.3
183.08	1893.5
183.156	1900.87
183.232	1897.73
183.308	1886.98
183.385	1893.78
183.461	1910.8
183.537	1909.95
183.613	1922.69
183.69	1915.32
183.766	1902.9
183.842	1909.28
183.918	1917.17
183.995	1926.49
184.071	1928.58
184.147	1923.35
184.223	1913.18
184.299	1927.39
184.375	1919.88
184.452	1927.3
184.528	1977.05
184.604	1988.03
184.68	1997.02
184.756	2002.1
184.832	2007.81
184.908	2012.37
184.985	2011.66
185.061	1994.35
185.137	2006.1
185.213	1994.97
185.289	1995.5
185.365	1989.7
185.441	1987.51
185.517	1999.83
185.593	1997.74
185.669	1994.79
185.745	2005.4
185.822	2021.79
185.898	2011.52
185.974	2015.14
186.05	2007
186.126	1968.38
186.202	1961.35
186.278	1959.11
186.354	1951.22
186.43	1957.35
186.506	1955.36
186.582	1957.12
186.658	1964.29
186.734	1942.33
186.81	1946.09
186.886	1949.18
186.962	1962.58
187.038	1959.3
187.114	1949.69
187.19	1957.35
187.266	1949.6
187.341	1948.08
187.417	1941.04
187.493	1944.65
187.569	1949.74
187.645	1945.99
187.721	1935.29
187.797	1942.46
187.873	1946.79
187.949	1943.8
188.025	1938.95
188.101	1944.46
188.176	1948.55
188.252	1944.27
188.328	1953.25
188.404	1951.35
188.48	1948.5
188.556	1941.46
188.632	1941.22
188.707	1942.55
188.783	1938.61
188.859	1935.04
188.935	1926.53
189.011	1934.47
189.086	1927.1
189.162	1918.16
189.238	1916.88
189.314	1913.7
189.39	1909.42
189.465	1904.38
189.541	1918.4
189.617	1901.86
189.693	1895.63
189.768	1899.3
189.844	1922.03
189.92	1915.66
189.996	1923.36
190.071	1932.59
190.147	1931.68
190.223	1940.2
190.298	1935.11
190.374	1923.37
190.45	1936.2
190.526	1944.38
190.601	1938.43
190.677	1940.72
190.753	1967.93
190.828	1968.12
190.904	1985.38
190.98	1998.5
191.055	2007.3
191.131	1998.93
191.207	2021.52
191.282	2028.46
191.358	2018.9
191.433	2006.82
191.509	2017.94
191.585	2015.8
191.66	2015.56
191.736	2021.55
191.811	2012.18
191.887	2025.03
191.963	2050.61
192.038	2054.13
192.114	2054.56
192.189	2056.79
192.265	2053.85
192.34	2034.15
192.416	2034.39
192.491	2029.25
192.567	2029.06
192.642	2031.06
192.718	2032.29
192.793	2016.98
192.869	2014.84
192.944	2016.41
193.02	2022.02
193.095	2023.59
193.171	2029.58
193.246	2029.58
193.322	2026.16
193.397	2027.25
193.473	2013.03
193.548	1995.05
193.624	1999
193.699	1999.81
193.775	2013.36
193.85	2014.07
193.925	2021.21
194.001	2020.31
194.076	2015.46
194.152	2006.89
194.227	1999.81
194.302	1986.45
194.378	1992.58
194.453	1991.63
194.529	2004.76
194.604	1991.63
194.679	1988.3
194.755	1972.66
194.83	1984.46
194.905	1985.27
194.981	1994.97
195.056	1988.13
195.131	1993.45
195.207	1994.31
195.282	1982.18
195.357	1967.82
195.433	1981.61
195.508	1969.77
195.583	1977.85
195.659	1987.89
195.734	1997.68
195.809	1995.73
195.884	2007.71
195.96	2009.33
196.035	2022.83
196.11	2019.36
196.185	2030.11
196.261	2031.96
196.336	2059.26
196.411	2045.75
196.486	2047.84
196.561	2042.33
196.637	2053.93
196.712	2066.77
196.787	2065.58
196.862	2081.46
196.937	2087.31
197.013	2092.69
197.088	2104.06
197.163	2124.56
197.238	2139.51
197.313	2138.04
197.388	2152.26
197.464	2179.29
197.539	2187.04
197.614	2178.57
197.689	2190.28
197.764	2207.03
197.839	2227.01
197.914	2222.59
197.989	2243.38
198.065	2258.41
198.14	2304.46
198.215	2328.3
198.29	2340.44
198.365	2354.19
198.44	2364
198.515	2394.99
198.59	2411.6
198.665	2434.97
198.74	2441.78
198.815	2447.07
198.89	2465.3
198.965	2495.31
199.04	2492.54
199.115	2509.06
199.19	2549.57
199.265	2549.91
199.34	2558.24
199.415	2588.4
199.49	2607.54
199.565	2616.2
199.64	2640.02
199.715	2636.35
199.79	2642.92
199.865	2648.59
199.94	2648.64
200.015	2678.94
200.09	2679.65
200.165	2686.03
200.24	2695.33
200.315	2736.38
200.39	2748.72
200.464	2758.73
200.539	2759.25
200.614	2772.92
200.689	2792.5
200.764	2801.71
200.839	2820.04
200.914	2824.09
200.989	2816.8
201.063	2828.28
201.138	2812.99
201.213	2812.18
201.288	2795.65
201.363	2801.85
201.438	2802.47
201.512	2817.23
201.587	2799.07
201.662	2803.93
201.737	2815.04
201.812	2819.61
201.886	2788.42
201.961	2794.76
202.036	2782.85
202.111	2776.94
202.186	2752.37
202.26	2738.69
202.335	2715.68
202.41	2711.72
202.485	2696.48
202.559	2677.81
202.634	2654.18
202.709	2664.66
202.784	2648.37
202.858	2649.32
202.933	2632.07
203.008	2626.02
203.082	2608.12
203.157	2608.26
203.232	2566.84
203.306	2546.21
203.381	2514.54
203.456	2489.35
203.53	2468.33
203.605	2450.34
203.68	2428.91
203.754	2421.54
203.829	2407.06
203.904	2391.73
203.978	2377.92
204.053	2385.16
204.127	2371.41
204.202	2372.64
204.277	2355.13
204.351	2345.99
204.426	2338.51
204.5	2327.33
204.575	2296.59
204.65	2305.92
204.724	2297.02
204.799	2309.57
204.873	2304.91
204.948	2304.48
205.022	2294.3
205.097	2287.63
205.171	2297.72
205.246	2306.86
205.32	2308.05
205.395	2307.29
205.469	2295.63
205.544	2302.3
205.618	2285.35
205.693	2299.35
205.767	2287.5
205.842	2307.06
205.916	2303.01
205.991	2293.3
206.065	2299.82
206.14	2312.1
206.214	2308.19
206.289	2304.62
206.363	2312.14
206.438	2317.81
206.512	2325.56
206.586	2345.17
206.661	2352.84
206.735	2337.09
206.81	2338.14
206.884	2352.7
206.958	2342.61
207.033	2363.21
207.107	2371.69
207.181	2404.07
207.256	2400.22
207.33	2420.02
207.405	2436.65
207.479	2461.69
207.553	2469.49
207.628	2460.55
207.702	2479.11
207.776	2479.26
207.851	2488.64
207.925	2510.5
207.999	2515.31
208.073	2524.79
208.148	2538.07
208.222	2539.36
208.296	2580.54
208.371	2611.09
208.445	2639.49
208.519	2682.98
208.593	2712.66
208.668	2729.53
208.742	2751.9
208.816	2779.1
208.89	2816.81
208.965	2846.72
209.039	2877.77
209.113	2932.92
209.187	2989.82
209.261	3024.05
209.336	3084.95
209.41	3144.96
209.484	3193.49
209.558	3263.79
209.632	3326.14
209.707	3390.39
209.781	3469.24
209.855	3542.06
209.929	3623.6
210.003	3693.62
210.077	3763.75
210.151	3883.73
210.226	3990.38
210.3	4098.07
210.374	4201.26
210.448	4288.29
210.522	4381.39
210.596	4486.25
210.67	4588.23
210.744	4728.35
210.818	4860.39
210.892	4982.94
210.966	5089.97
211.041	5222.44
211.115	5334.65
211.189	5474.73
211.263	5611.48
211.337	5744.49
211.411	5887.18
211.485	6009.2
211.559	6155.76
211.633	6292.8
211.707	6398.4
211.781	6552.2
211.855	6665.55
211.929	6804.78
212.003	6944.95
212.077	7116.36
212.151	7287.5
212.225	7451.97
212.299	7602.73
212.373	7757.78
212.447	7923.96
212.52	8116.87
212.594	8284.54
212.668	8464.42
212.742	8623.4
212.816	8791.69
212.89	8962.84
212.964	9141.02
213.038	9319.59
213.112	9508.39
213.186	9703.73
213.26	9872.46
213.333	10009.83
213.407	10194.68
213.481	10378.56
213.555	10564.39
213.629	10733.76
213.703	10898.64
213.777	11092.74
213.85	11261.98
213.924	11479.28
213.998	11661.22
214.072	11843.74
214.146	12013.3
214.219	12192.02
214.293	12373.68
214.367	12560.36
214.441	12742.61
214.515	12915.52
214.588	13078.16
214.662	13227.69
214.736	13387.92
214.81	13563.86
214.883	13749.16
214.957	13911.85
215.031	14077.24
215.105	14230
215.178	14384.79
215.252	14552.06
215.326	14680.76
215.4	14822.39
215.473	14936.96
215.547	15078.1
215.621	15215.52
215.694	15374.54
215.768	15513.74
215.842	15658.88
215.915	15794.32
215.989	15913.03
216.063	16040.18
216.136	16184.97
216.21	16322.72
216.284	16479.89
216.357	16626.84
216.431	16754.37
216.504	16896.83
216.578	17051.78
216.652	17199.5
216.725	17331.02
216.799	17462.63
216.873	17596.52
216.946	17731.99
217.02	17851.94
217.093	17973.43
217.167	18072.42
217.24	18171.21
217.314	18279.98
217.387	18389.03
217.461	18495.39
217.535	18629.6
217.608	18731.67
217.682	18834.94
217.755	18958.5
217.829	19039.12
217.902	19135.12
217.976	19242.58
218.049	19331.44
218.123	19410.91
218.196	19512.06
218.27	19600.49
218.343	19674.85
218.417	19763.86
218.49	19854.79
218.563	19959.03
218.637	20038.89
218.71	20148.33
218.784	20245.97
218.857	20334.3
218.931	20422.16
219.004	20500.09
219.077	20580.96
219.151	20668.28
219.224	20747.51
219.298	20819.42
219.371	20911.81
219.444	20980.64
219.518	21065.32
219.591	21142.19
219.665	21238.4
219.738	21306.93
219.811	21370.22
219.885	21440.3
219.958	21519.05
220.031	21580.84
220.105	21643.46
220.178	21717.16
220.251	21779.19
220.325	21837.86
220.398	21907.22
220.471	21956.68
220.544	22026.33
220.618	22074.68
220.691	22128.43
220.764	22174.75
220.838	22227.97
220.911	22271.74
220.984	22325.4
221.057	22368.93
221.131	22421.81
221.204	22436.81
221.277	22495.38
221.35	22560.47
221.424	22613.02
221.497	22661.08
221.57	22702.88
221.643	22745.6
221.716	22782.48
221.79	22805.43
221.863	22844.58
221.936	22879.97
222.009	22919.12
222.082	22950.99
222.155	22986.53
222.229	23032.19
222.302	23070.42
222.375	23099.45
222.448	23129.25
222.521	23162.9
222.594	23195.4
222.667	23209.92
222.74	23250.13
222.814	23270.24
222.887	23288.32
222.96	23313.44
223.033	23331.82
223.106	23354
223.179	23371.79
223.252	23392.67
223.325	23407.23
223.398	23417.31
223.471	23425.99
223.544	23438.05
223.617	23452.56
223.69	23466.31
223.763	23459.51
223.837	23476.91
223.91	23483.04
223.983	23486.22
224.056	23480.97
224.129	23474.21
224.202	23491.91
224.275	23490.95
224.348	23489.45
224.42	23486.85
224.493	23482.99
224.566	23485.5
224.639	23486.12
224.712	23480.82
224.785	23485.5
224.858	23502.13
224.931	23502.18
225.004	23497.22
225.077	23505.61
225.15	23486.37
225.223	23480.29
225.296	23513.33
225.369	23492.54
225.442	23488.97
225.514	23494.08
225.587	23504.36
225.66	23509.28
225.733	23500.31
225.806	23509.13
225.879	23500.11
225.952	23485.84
226.025	23485.55
226.097	23484.3
226.17	23484.2
226.243	23474.51
226.316	23467.42
226.389	23447.84
226.461	23452.03
226.534	23445.48
226.607	23427.01
226.68	23437.62
226.753	23437.66
226.825	23395.56
226.898	23408.78
226.971	23403.28
227.044	23382.16
227.117	23371.84
227.189	23364.41
227.262	23364.07
227.335	23353.32
227.407	23338.66
227.48	23338.66
227.553	23332.54
227.626	23319.13
227.698	23299.94
227.771	23284.46
227.844	23245.84
227.916	23245.98
227.989	23214.5
228.062	23204.9
228.134	23222.79
228.207	23212.13
228.28	23195.21
228.352	23181.71
228.425	23156.54
228.498	23148.39
228.57	23131.22
228.643	23128.96
228.716	23107.11
228.788	23079.97
228.861	23061.89
228.934	23066.71
229.006	23049.25
229.079	23025.43
229.151	23006.48
229.224	22975.05
229.296	22950.56
229.369	22971.92
229.442	22959.14
229.514	22940.87
229.587	22934.31
229.659	22891.88
229.732	22874.13
229.804	22865.94
229.877	22887.68
229.949	22888.79
230.022	22892.02
230.094	22876.16
230.167	22853.69
230.239	22832.58
230.312	22824.86
230.384	22825.06
230.457	22808.52
230.529	22793.81
230.602	22787.35
230.674	22775.11
230.747	22780.22
230.819	22790.19
230.892	22739.19
230.964	22723.37
231.037	22712.67
231.109	22691.65
231.181	22682.3
231.254	22664.22
231.326	22633.31
231.399	22602.17
231.471	22574.78
231.544	22522.33
231.616	22513.22
231.688	22497.93
231.761	22471.56
231.833	22446.78
231.905	22402.67
231.978	22383.19
232.05	22362.27
232.122	22342.31
232.195	22307.6
232.267	22293.48
232.339	22261.03
232.412	22250.53
232.484	22221.46
232.556	22193.16
232.629	22189.93
232.701	22167.32
232.773	22138.21
232.846	22109.81
232.918	22080.26
232.99	22054.18
233.062	22041.17
233.135	22030.03
233.207	21992.19
233.279	21979.51
233.351	21959.36
233.424	21929.72
233.496	21878.29
233.568	21862.19
233.64	21815.82
233.713	21798.27
233.785	21769.49
233.857	21748.96
233.929	21712.18
234.001	21698.2
234.074	21687.41
234.146	21632.12
234.218	21605.46
234.29	21573.56
234.362	21544.06
234.434	21499.62
234.507	21462.89
234.579	21414.07
234.651	21373.24
234.723	21356.42
234.795	21328.22
234.867	21296.27
234.939	21285.76
235.012	21268.65
235.084	21246.62
235.156	21237.9
235.228	21197.7
235.3	21160.49
235.372	21128.92
235.444	21119.43
235.516	21062.85
235.588	21028.96
235.66	21009.35
235.732	20968.53
235.804	20995.47
235.876	20969.93
235.948	20954.46
236.02	20912
236.092	20883.13
236.164	20848.33
236.236	20804.43
236.308	20760.38
236.38	20724.67
236.452	20675.51
236.524	20631.65
236.596	20598.88
236.668	20553.29
236.74	20517.34
236.812	20489.48
236.884	20464.52
236.956	20424.66
237.028	20386.64
237.1	20344.23
237.172	20322.83
237.244	20317.77
237.316	20237.81
237.388	20210.29
237.46	20167.55
237.532	20155.93
237.604	20119.84
237.675	20099.5
237.747	20074.88
237.819	20035.36
237.891	20002.25
237.963	19962.01
238.035	19934.21
238.107	19876.43
238.178	19866.79
238.25	19837.68
238.322	19822.89
238.394	19768.38
238.466	19735.61
238.538	19713.49
238.609	19683.95
238.681	19623.91
238.753	19568.1
238.825	19538.47
238.897	19493.89
238.968	19472.25
239.04	19426.66
239.112	19416.74
239.184	19371.29
239.255	19330.14
239.327	19306.77
239.399	19284.22
239.471	19255.4
239.542	19227.79
239.614	19202.68
239.686	19131.55
239.758	19103.41
239.829	19055.55
239.901	19038.35
239.973	18994.74
240.044	18949.97
240.116	18910.94
240.188	18883.37
240.259	18849.4
240.331	18802.08
240.403	18777.45
240.474	18720.35
240.546	18672.78
240.618	18615.34
240.689	18572.6
240.761	18543.39
240.833	18518.62
240.904	18463.64
240.976	18416.17
241.048	18380.22
241.119	18349.76
241.191	18323.26
241.262	18299.5
241.334	18254.73
241.405	18207.99
241.477	18175.07
241.549	18152.04
241.62	18123.9
241.692	18089.34
241.763	18053.83
241.835	18020.77
241.906	17980.19
241.978	17937.93
242.049	17918.84
242.121	17903.57
242.192	17877.88
242.264	17824.97
242.335	17778.46
242.407	17759.67
242.478	17730.56
242.55	17695.43
242.621	17645.84
242.693	17608.87
242.764	17566.22
242.836	17527.67
242.907	17496.54
242.979	17462.8
243.05	17417.41
243.122	17383.38
243.193	17341.65
243.264	17289.84
243.336	17250.99
243.407	17227.19
243.479	17209.26
243.55	17181.26
243.622	17142.46
243.693	17105.02
243.764	17087.52
243.836	17036.48
243.907	16990.26
243.978	16955.42
244.05	16923.76
244.121	16876.96
244.192	16847.56
244.264	16803.8
244.335	16764.81
244.407	16711.17
244.478	16676.08
244.549	16642.53
244.62	16592.22
244.692	16563.3
244.763	16540.02
244.834	16500.11
244.906	16455.44
244.977	16430.33
245.048	16403.63
245.119	16357.84
245.191	16314.08
245.262	16255.08
245.333	16236.91
245.405	16209.78
245.476	16172.62
245.547	16136.23
245.618	16114.83
245.689	16081.76
245.761	16048.79
245.832	16017.13
245.903	16005.03
245.974	15981.51
246.045	15948.11
246.117	15934.03
246.188	15885.93
246.259	15841.49
246.33	15808.71
246.401	15770.15
246.473	15714.29
246.544	15675.97
246.615	15656.4
246.686	15621.84
246.757	15603.04
246.828	15565.01
246.899	15542.36
246.97	15503.7
247.042	15466.25
247.113	15442.73
247.184	15431.11
247.255	15387.82
247.326	15361.99
247.397	15318.94
247.468	15281.35
247.539	15246.98
247.61	15200.03
247.681	15176.07
247.752	15165.9
247.823	15124.06
247.894	15099.19
247.965	15062.51
248.037	15028.19
248.108	14975.89
248.179	14943.49
248.25	14918.72
248.321	14891.53
248.392	14849.01
248.463	14837.64
248.534	14806.88
248.605	14782.83
248.675	14745.76
248.746	14727.44
248.817	14706.62
248.888	14687.87
248.959	14640.1
249.03	14621.64
249.101	14597.05
249.172	14567.26
249.243	14517.47
249.314	14507.53
249.385	14473.07
249.456	14452.48
249.527	14414.74
249.598	14395.26
249.669	14366.49
249.739	14341.23
249.81	14316.98
249.881	14275.96
249.952	14246.84
250.023	14225.48
250.094	14188.51
250.165	14146.38
250.235	14116.2
250.306	14085.88
250.377	14042.54
250.448	14024.08
250.519	13981.61
250.59	13967.82
250.66	13938.71
250.731	13920.87
250.802	13892.86
250.873	13877.87
250.944	13857.43
251.014	13831.06
251.085	13825.13
251.156	13812.99
251.227	13796.64
251.297	13785.22
251.368	13773.6
251.439	13760.78
251.51	13737.78
251.58	13695.36
251.651	13666.05
251.722	13650.34
251.792	13606.08
251.863	13583.96
251.934	13576.48
252.005	13575.57
252.075	13548.43
252.146	13537.97
252.217	13525.67
252.287	13511.07
252.358	13486.29
252.429	13482.82
252.499	13450.52
252.57	13430.27
252.641	13414.17
252.711	13388.82
252.782	13348.56
252.852	13345.67
252.923	13318.87
252.994	13300.26
253.064	13290.09
253.135	13263.38
253.205	13231.18
253.276	13233.59
253.347	13220.43
253.417	13181.14
253.488	13151.98
253.558	13124.4
253.629	13093.55
253.699	13074.41
253.77	13058.36
253.841	13030.64
253.911	12998.39
253.982	12989.57
254.052	12971.98
254.123	12952.74
254.193	12937.36
254.264	12951.97
254.334	12917.36
254.405	12880.53
254.475	12842.3
254.546	12823.98
254.616	12818.34
254.687	12803.11
254.757	12784.41
254.827	12766.86
254.898	12757.94
254.968	12739.38
255.039	12716.05
255.109	12703.62
255.18	12673.01
255.25	12627.6
255.321	12609.23
255.391	12574.91
255.461	12571.63
255.532	12527.09
255.602	12494.26
255.673	12447.79
255.743	12411.88
255.813	12357.75
255.884	12356.06
255.954	12344.49
256.024	12338.27
256.095	12315.14
256.165	12286.6
256.235	12264.81
256.306	12233.09
256.376	12218.05
256.446	12206.63
256.517	12191.98
256.587	12182.05
256.657	12167.78
256.728	12153.13
256.798	12137.17
256.868	12117.7
256.938	12081.21
257.009	12073.06
257.079	12063.81
257.149	12071.57
257.219	12036.43
257.29	12038.16
257.36	11999.89
257.43	11987.21
257.5	11943.45
257.571	11919.3
257.641	11905.42
257.711	11871.92
257.781	11861.07
257.852	11847
257.922	11809.84
257.992	11782.12
258.062	11756.91
258.132	11740.14
258.202	11720.28
258.273	11699.85
258.343	11694.35
258.413	11671.26
258.483	11650.97
258.553	11614.73
258.623	11579.25
258.693	11563.97
258.764	11564.31
258.834	11555.44
258.904	11540.6
258.974	11515.83
259.044	11497.51
259.114	11485.51
259.184	11470.57
259.254	11446.67
259.324	11404.88
259.394	11392.88
259.464	11394.61
259.535	11377.65
259.605	11357.07
259.675	11329.84
259.745	11321.36
259.815	11291.43
259.885	11269.55
259.955	11274.66
260.025	11257.17
260.095	11239.09
260.165	11222.85
260.235	11211.19
260.305	11185.07
260.375	11155.72
260.445	11160.39
260.515	11156.06
260.585	11147.53
260.655	11128.63
260.725	11128.97
260.795	11125.79
260.865	11118.47
260.934	11092.88
261.004	11077.65
261.074	11059.43
261.144	11054.56
261.214	11041.74
261.284	11030.08
261.354	11020.93
261.424	10991.82
261.494	10988.4
261.564	10970.52
261.634	10966.18
261.703	10928.01
261.773	10915.77
261.843	10905.37
261.913	10886.52
261.983	10859.2
262.053	10846.58
262.123	10829.47
262.192	10792.32
262.262	10779.41
262.332	10755.5
262.402	10746.64
262.472	10730.74
262.541	10694.55
262.611	10690.55
262.681	10663.66
262.751	10658.27
262.821	10641.93
262.89	10616.35
262.96	10605.7
263.03	10615.72
263.1	10603.05
263.169	10594.04
263.239	10582.81
263.309	10583.49
263.379	10577.61
263.448	10559.83
263.518	10543.83
263.588	10534.24
263.657	10538.63
263.727	10533.62
263.797	10516.03
263.867	10496.9
263.936	10471.8
264.006	10473.34
264.076	10454.74
264.145	10438.46
264.215	10410.76
264.285	10404.4
264.354	10370.15
264.424	10346.73
264.494	10314.35
264.563	10290.6
264.633	10291.23
264.702	10291.27
264.772	10263.14
264.842	10242.23
264.911	10231.2
264.981	10199.21
265.05	10187.26
265.12	10172.47
265.19	10156.13
265.259	10152.14
265.329	10143.9
265.398	10131.08
265.468	10142.89
265.537	10124.15
265.607	10121.11
265.676	10115.62
265.746	10106.76
265.815	10107.19
265.885	10096.02
265.955	10071.26
266.024	10049.87
266.094	10011.19
266.163	10002.52
266.232	10002.47
266.302	9987.73
266.371	9976.31
266.441	9971.79
266.51	9962.78
266.58	9943.66
266.649	9926.75
266.719	9920.73
266.788	9909.36
266.858	9916.44
266.927	9875.93
266.996	9870.58
267.066	9859.21
267.135	9835.42
267.205	9825.4
267.274	9814.23
267.343	9811.96
267.413	9797.8
267.482	9802.96
267.552	9810.47
267.621	9780.61
267.69	9751.27
267.76	9739.47
267.829	9731.43
267.898	9717.03
267.968	9696.61
268.037	9691.55
268.106	9686.25
268.176	9663.23
268.245	9644.4
268.314	9624.27
268.384	9624.17
268.453	9614.64
268.522	9600.43
268.592	9601.63
268.661	9580.49
268.73	9574.9
268.799	9562.57
268.869	9574.37
268.938	9548.27
269.007	9525.54
269.076	9517.16
269.146	9510.66
269.215	9503.87
269.284	9507.43
269.353	9496.69
269.422	9478.68
269.492	9461.49
269.561	9425.23
269.63	9421.19
269.699	9408.33
269.768	9392.59
269.838	9391.62
269.907	9385.94
269.976	9356.81
270.045	9326.04
270.114	9323.59
270.183	9309.24
270.253	9294.17
270.322	9260.22
270.391	9243.46
270.46	9245.39
270.529	9243.9
270.598	9238.41
270.667	9226.13
270.736	9201.19
270.806	9190.26
270.875	9195.65
270.944	9188.62
271.013	9202.15
271.082	9192.9
271.151	9188.23
271.22	9167.1
271.289	9151.74
271.358	9134.74
271.427	9135.22
271.496	9130.22
271.565	9116.25
271.634	9108.21
271.703	9111.44
271.772	9115.77
271.841	9109.18
271.91	9088.47
271.979	9075.86
272.048	9062.14
272.117	9055.16
272.186	9045.91
272.255	9042.01
272.324	9042.54
272.393	9036.77
272.462	9026.56
272.531	9018.38
272.6	9010.29
272.669	9012.31
272.738	8993.82
272.807	8986.46
272.876	8971.49
272.945	8998.54
273.013	9001.05
273.082	9006.34
273.151	8985.45
273.22	8978.04
273.289	8974.28
273.358	8987.18
273.427	8973.56
273.496	8972.4
273.564	8976.16
273.633	8976.54
273.702	8965.18
273.771	8945.21
273.84	8934.86
273.909	8927.2
273.977	8925.47
274.046	8910.4
274.115	8915.7
274.184	8905.59
274.253	8901.07
274.322	8905.54
274.39	8875.02
274.459	8860.63
274.528	8827.46
274.597	8819.76
274.665	8820.92
274.734	8825.73
274.803	8812.4
274.872	8814.47
274.94	8792.57
275.009	8839.47
275.078	8823.44
275.147	8816.85
275.215	8812.85
275.284	8816.32
275.353	8809.97
275.421	8785.32
275.49	8802.27
275.559	8793.94
275.627	8791.39
275.696	8781.38
275.765	8776.71
275.833	8765.4
275.902	8764.44
275.971	8777.86
276.039	8787.88
276.108	8784.27
276.177	8781.43
276.245	8765.78
276.314	8757.74
276.383	8770.93
276.451	8712.14
276.52	8715.74
276.588	8723.88
276.657	8731.48
276.725	8724.12
276.794	8722.53
276.863	8729.12
276.931	8704.62
277	8709.25
277.068	8709.63
277.137	8732.16
277.205	8731.29
277.274	8749.19
277.342	8754.92
277.411	8735.77
277.48	8723.88
277.548	8716.33
277.617	8714.74
277.685	8707.57
277.754	8705.69
277.822	8689.23
277.89	8698.28
277.959	8691.49
278.027	8683.26
278.096	8671.18
278.164	8695.83
278.233	8685.48
278.301	8679.03
278.37	8684.14
278.438	8669.84
278.507	8673.88
278.575	8645.44
278.643	8645.92
278.712	8625.37
278.78	8611.17
278.849	8621.71
278.917	8630.13
278.985	8617.57
279.054	8622.43
279.122	8642.88
279.191	8641.68
279.259	8643.8
279.327	8622.96
279.396	8640.48
279.464	8626.28
279.532	8630.66
279.601	8630.47
279.669	8625.61
279.737	8641.39
279.806	8644.47
279.874	8653.57
279.942	8654.82
280.011	8650.68
280.079	8657.13
280.147	8670.85
280.215	8675.61
280.284	8671.81
280.352	8660.36
280.42	8674.89
280.488	8657.8
280.557	8644.67
280.625	8650.34
280.693	8650.68
280.761	8656.07
280.83	8635.33
280.898	8651.79
280.966	8639.85
281.034	8606.06
281.102	8598.55
281.171	8591.48
281.239	8605.77
281.307	8595.72
281.375	8583.73
281.443	8607.75
281.512	8599.04
281.58	8610.3
281.648	8597.98
281.716	8597.26
281.784	8595.43
281.852	8591.39
281.92	8594.76
281.989	8603.27
282.057	8590.23
282.125	8632.88
282.193	8627.97
282.261	8627.69
282.329	8620.47
282.397	8616.57
282.465	8615.27
282.533	8630.76
282.601	8611.08
282.67	8583.7
282.738	8576.62
282.806	8582.59
282.874	8567.38
282.942	8566.56
283.01	8553.81
283.078	8557.22
283.146	8550.34
283.214	8554.14
283.282	8556.98
283.35	8564.88
283.418	8564.73
283.486	8560.35
283.554	8514.67
283.622	8514.96
283.69	8512.6
283.758	8509.47
283.826	8516.55
283.894	8520.11
283.962	8534.26
284.03	8554.62
284.098	8555.58
284.165	8551.01
284.233	8551.3
284.301	8547.45
284.369	8541.38
284.437	8539.41
284.505	8530.07
284.573	8546.77
284.641	8541.14
284.709	8542.97
284.777	8530.02
284.845	8527.95
284.912	8534.11
284.98	8538.44
285.048	8534.02
285.116	8545.61
285.184	8555.48
285.252	8554.13
285.319	8541.86
285.387	8537.82
285.455	8516.17
285.523	8523.09
285.591	8523.58
285.659	8523.48
285.726	8529.74
285.794	8516.94
285.862	8506.69
285.93	8512.22
285.997	8506.25
286.065	8499.47
286.133	8490.61
286.201	8484.55
286.269	8474.44
286.336	8470.59
286.404	8463.67
286.472	8468.09
286.539	8441.68
286.607	8420.31
286.675	8422.81
286.743	8436.19
286.81	8423.05
286.878	8438.16
286.946	8429.4
287.013	8425.6
287.081	8428.3
287.149	8415.35
287.216	8436.76
287.284	8434.65
287.352	8433.68
287.419	8430.7
287.487	8440.42
287.555	8438.54
287.622	8444.03
287.69	8445.38
287.758	8455
287.825	8456.78
287.893	8445.23
287.96	8457.02
288.028	8470.64
288.096	8473.43
288.163	8472.95
288.231	8462.65
288.298	8465.78
288.366	8480.41
288.433	8481.71
288.501	8474.25
288.569	8479.69
288.636	8468.62
288.704	8483.73
288.771	8487.91
288.839	8479.35
288.906	8479.4
288.974	8494.12
289.041	8487.24
289.109	8483.68
289.176	8494.51
289.244	8492.4
289.311	8507.22
289.379	8514.39
289.446	8518.57
289.514	8517.51
289.581	8514.15
289.649	8517.56
289.716	8514.48
289.783	8505.53
289.851	8524.68
289.918	8527.67
289.986	8535.08
290.053	8544.65
290.121	8542.1
290.188	8539.94
290.255	8565.59
290.323	8562.65
290.39	8555.87
290.458	8563.08
290.525	8576.32
290.592	8567.27
290.66	8570.83
290.727	8569.82
290.794	8581.95
290.862	8583.73
290.929	8584.59
290.996	8590.03
291.064	8607.5
291.131	8622.32
291.198	8629.98
291.266	8627.81
291.333	8630.99
291.4	8640.28
291.468	8658.28
291.535	8654.48
291.602	8665.59
291.669	8662.9
291.737	8666.65
291.804	8666.8
291.871	8682.87
291.938	8691.53
292.006	8717.63
292.073	8729.51
292.14	8738.66
292.207	8731.39
292.275	8732.79
292.342	8740.63
292.409	8762.29
292.476	8781.5
292.543	8772.26
292.611	8781.74
292.678	8796.8
292.745	8816.2
292.812	8824.96
292.879	8818.95
292.946	8825.78
293.014	8840.36
293.081	8852.64
293.148	8865.15
293.215	8880.89
293.282	8873.24
293.349	8878.92
293.416	8864.96
293.484	8878.92
293.551	8888.21
293.618	8900.19
293.685	8925.76
293.752	8929.27
293.819	8928.79
293.886	8914.59
293.953	8923.83
294.02	8925.99
294.087	8935.67
294.154	8926.24
294.221	8936.15
294.288	8933.22
294.356	8944.53
294.423	8944.77
294.49	8932.78
294.557	8943.81
294.624	8932.21
294.691	8953.92
294.758	8953.87
294.825	8963.11
294.892	8957.72
294.959	8956.04
295.026	8966.34
295.093	8952.62
295.16	8949.01
295.226	8950.55
295.293	8971.97
295.36	8971.54
295.427	8990.55
295.494	9001.2
295.561	9012.32
295.628	9035.04
295.695	9050.45
295.762	9056.61
295.829	9066.05
295.896	9082.7
295.963	9090.65
296.03	9104.85
296.096	9108.56
296.163	9114.77
296.23	9126.47
296.297	9134.22
296.364	9132.53
296.431	9139.32
296.498	9137.68
296.564	9158.58
296.631	9162.77
296.698	9148.47
296.765	9171.43
296.832	9156.6
296.899	9140.71
296.965	9156.7
297.032	9135.7
297.099	9156.07
297.166	9162.47
297.233	9162.23
297.299	9154.87
297.366	9155.49
297.433	9155.54
297.5	9169.46
297.566	9177.45
297.633	9175.33
297.7	9187.61
297.767	9187.75
297.833	9188.04
297.9	9193
297.967	9182.84
298.033	9200.56
298.1	9237.35
298.167	9230.95
298.234	9233.4
298.3	9243.95
298.367	9240.77
298.434	9247.56
298.5	9232.48
298.567	9234.7
298.634	9232.92
298.7	9244.23
298.767	9248.42
298.834	9266.48
298.9	9262.96
298.967	9254.15
299.033	9267.06
299.1	9279.91
299.167	9293.78
299.233	9294.21
299.3	9306.39
299.366	9322.91
299.433	9331.72
299.5	9300.56
299.566	9298.59
299.633	9318.67
299.699	9327.91
299.766	9326.42
299.832	9329.7
299.899	9342.17
299.965	9353.82
300.032	9350.35
300.099	9367.35
300.165	9368.32
300.232	9362.25
300.298	9355.07
300.365	9371.73
300.431	9367.26
300.498	9358.59
300.564	9365.71
300.631	9382.28
300.697	9401.44
300.763	9401.16
300.83	9394.99
300.896	9409
300.963	9419.79
301.029	9421.91
301.096	9423.11
301.162	9433.71
301.229	9431.39
301.295	9417.57
301.361	9419.02
301.428	9425.81
301.494	9407.22
301.561	9410.54
301.627	9417.67
301.693	9423.74
301.76	9421.47
301.826	9416.13
301.892	9423.88
301.959	9429.42
302.025	9420.75
302.092	9407.94
302.158	9408.13
302.224	9412.71
302.291	9408.09
302.357	9403.22
302.423	9396
302.49	9388.2
302.556	9397.25
302.622	9400.62
302.688	9413.43
302.755	9425.23
302.821	9430
302.887	9442.42
302.954	9443.05
303.02	9440.01
303.086	9439.44
303.152	9442.76
303.219	9443.24
303.285	9447.96
303.351	9455.33
303.417	9461.92
303.483	9457.83
303.55	9457.01
303.616	9454.27
303.682	9449.26
303.748	9444.88
303.815	9457.4
303.881	9466.4
303.947	9453.84
304.013	9447.29
304.079	9437.75
304.145	9415.74
304.212	9413.38
304.278	9407.65
304.344	9406.16
304.41	9398.65
304.476	9395.95
304.542	9391.76
304.608	9396.29
304.674	9382.18
304.741	9375.68
304.807	9373.46
304.873	9378.9
304.939	9391.33
305.005	9368.17
305.071	9371.35
305.137	9373.75
305.203	9355.26
305.269	9355.07
305.335	9361.95
305.401	9363.69
305.467	9363.83
305.533	9371.92
305.599	9380.88
305.666	9387.24
305.732	9388.73
305.798	9407.51
305.864	9430.82
305.93	9429.37
305.996	9424.17
306.062	9423.93
306.128	9424.65
306.194	9405.87
306.259	9399.61
306.325	9391.62
306.391	9402.36
306.457	9406.84
306.523	9407.12
306.589	9431.16
306.655	9419.94
306.721	9408.19
306.787	9392.49
306.853	9406.36
306.919	9390.9
306.985	9381.22
307.051	9375.3
307.117	9367.31
307.183	9357.05
307.248	9332.01
307.314	9340.05
307.38	9344.96
307.446	9349.63
307.512	9336.53
307.578	9348.52
307.644	9346.89
307.709	9346.6
307.775	9347.95
307.841	9343.56
307.907	9347.99
307.973	9326.56
308.039	9326.85
308.104	9330.99
308.17	9335.42
308.236	9320.98
308.302	9321.79
308.368	9312.21
308.433	9307.73
308.499	9297.91
308.565	9286.5
308.631	9290.98
308.696	9267.67
308.762	9249.33
308.828	9246.87
308.894	9229.97
308.959	9210.38
309.025	9203.11
309.091	9199.11
309.156	9187.6
309.222	9187.41
309.288	9172.58
309.354	9147.79
309.419	9144.03
309.485	9130.7
309.551	9135.13
309.616	9119.09
309.682	9116.54
309.748	9107.83
309.813	9102.34
309.879	9099.21
309.945	9079.28
310.01	9068.54
310.076	9067.87
310.141	9062.28
310.207	9043.22
310.273	9043.03
310.338	9047.6
310.404	9032.44
310.469	9021.7
310.535	9012.46
310.601	8993.44
310.666	8997.19
310.732	9009.9
310.797	9000.27
310.863	8989.39
310.928	8977.55
310.994	8982.7
311.059	8982.75
311.125	8978.03
311.191	8985.93
311.256	8973.99
311.322	8982.99
311.387	8959.84
311.453	9232.65
311.518	9215.27
311.584	9217.54
311.649	9224.52
311.715	9214.17
311.78	9211.91
311.846	9196.36
311.911	9203.63
311.976	9203.43
312.042	9186.54
312.107	9170.17
312.173	9162.9
312.238	9160.93
312.304	9157.8
312.369	9143.94
312.434	9129.3
312.5	9125.74
312.565	9097.96
312.631	9107.2
312.696	9104.56
312.761	9106.63
312.827	8826.74
312.892	8859.33
312.958	8854.32
313.023	8845.8
313.088	8839.01
313.154	8829.96
313.219	8823.27
313.284	8813.94
313.35	8809.03
313.415	8805.13
313.48	8804.89
313.546	8809.84
313.611	8810.76
313.676	8807.58
313.741	8803.15
313.807	8808.06
313.872	8818.65
313.937	8819.38
314.003	8822.89
314.068	8819.04
314.133	8825.49
314.198	8812.25
314.264	8791.7
314.329	8783.99
314.394	8778.51
314.459	8779.9
314.525	8793.14
314.59	8791.98
314.655	8780.62
314.72	8783.94
314.785	8784.81
314.851	8775.14
314.916	8757.04
314.981	8746.36
315.046	8735.91
315.111	8718.83
315.176	8710.84
315.242	8705.64
315.307	8708.81
315.372	8684.17
315.437	8673.63
315.502	8667.42
315.567	8679.98
315.632	8664.82
315.698	8658.81
315.763	8659.58
315.828	8643.7
315.893	8639.22
315.958	8634.5
316.023	8620.65
316.088	8600.29
316.153	8576.18
316.218	8568.05
316.283	8547.21
316.348	8528.4
316.413	8519.93
316.479	8512.28
316.544	8476.39
316.609	8444.67
316.674	8404.59
316.739	8373.61
316.804	8340.95
316.869	8301.49
316.934	8262.76
316.999	8236.58
317.064	8190.31
317.129	8145.27
317.194	8119.06
317.259	8074.12
317.324	8020.11
317.389	7977.69
317.454	7942.14
317.518	7909.15
317.583	7884.91
317.648	7863.41
317.713	7827.24
317.778	7767.18
317.843	7732.36
317.908	7696.25
317.973	7656.39
318.038	7632.11
318.103	7594.81
318.168	7567.59
318.233	7539.8
318.297	7488.22
318.362	7443.03
318.427	7404.73
318.492	7375.5
318.557	7322.68
318.622	7290.66
318.687	7273.27
318.751	7236.99
318.816	7199.84
318.881	7166.53
318.946	7110.45
319.011	7064.03
319.075	7023.53
319.14	6992.78
319.205	6949.93
319.27	6918.46
319.335	6874.61
319.399	6829.26
319.464	6803.17
319.529	6752.31
319.594	6710.28
319.658	6677.24
319.723	6640.41
319.788	6609.82
319.853	6557.91
319.917	6527.47
319.982	6476.48
320.047	6438.26
320.112	6411.04
320.176	6362.79
320.241	6327.36
320.306	6300.29
320.37	6259.44
320.435	6229.01
320.5	6200.75
320.564	6167.92
320.629	6124.45
320.694	6095.61
320.758	6054.49
320.823	6010.88
320.888	5979.17
320.952	5932.35
321.017	5893.88
321.082	5854.8
321.146	5821.22
321.211	5789.81
321.275	5751.06
321.34	5708.44
321.405	5660.44
321.469	5612.92
321.534	5575.63
321.598	5525.63
321.663	5497
321.727	5466.51
321.792	5419.2
321.857	5376.68
321.921	5333.6
321.986	5289.48
322.05	5230.21
322.115	5195
322.179	5152.55
322.244	5097.38
322.308	5062.8
322.373	5018.88
322.437	4979.99
322.502	4951.87
322.566	4905.32
322.631	4867.64
322.695	4827.96
322.76	4785.21
322.824	4750.74
322.889	4707.39
322.953	4661.31
323.018	4588.55
323.082	4525.3
323.146	4474.21
323.211	4419.62
323.275	4380.77
323.34	4339.45
323.404	4307.13
323.468	4260.69
323.533	4218.37
323.597	4176.84
323.662	4126.92
323.726	4090.68
323.79	4044.12
323.855	3981.05
323.919	3932.35
323.983	3888.76
324.048	3824.72
324.112	3962.38
324.177	3832.02
324.241	3632.48
324.305	3439.39
324.37	3250.75
324.434	3066.49
324.498	3025.21
324.562	2978.52
324.627	2915.6
324.691	2860.75
324.755	2796.85
324.82	2724.63
324.884	2647.39
324.948	2576.48
325.012	2487.73
325.077	2369.17
