Data from 20250702_urea_0.5M_MAYP1162681_17-14-59-620.txt Node
Date: Wed Jul 02 17:14:59 BST 2025
User: adleo
Spectrometer: MAYP116268
Trigger mode: 0
Integration Time (sec): 1.000000E0
Scans to average: 1
Electric dark correction enabled: true
Nonlinearity correction enabled: true
Boxcar width: 10
XAxis mode: Wavelengths
Number of Pixels in Spectrum: 2068
>>>>>Begin Spectral Data<<<<<
179.565	1112.28
179.642	1164.33
179.718	1205.91
179.795	1239.05
179.871	1271.44
179.948	1287.31
180.024	1305.18
180.101	1325.89
180.177	1341.42
180.254	1363.09
180.33	1384.78
180.407	1432.25
180.483	1522.04
180.56	1606.56
180.636	1684.84
180.712	1671.92
180.789	1682.51
180.865	1695.62
180.942	1701.56
181.018	1711.2
181.095	1724.84
181.171	1733.3
181.248	1734.82
181.324	1749.61
181.4	1759.16
181.477	1769.09
181.553	1783.68
181.63	1805.64
181.706	1820.42
181.782	1828.02
181.859	1824.69
181.935	1830.11
182.011	1827.5
182.088	1841.09
182.164	1856.69
182.24	1868.95
182.317	1881.16
182.393	1876.84
182.469	1892
182.546	1907.59
182.622	1915.53
182.698	1912.49
182.775	1919.48
182.851	1933.45
182.927	1926.23
183.003	1923.33
183.08	1918.43
183.156	1923.95
183.232	1920.43
183.308	1909.49
183.385	1916.96
183.461	1937.4
183.537	1934.78
183.613	1944.25
183.69	1937.4
183.766	1930.26
183.842	1936.64
183.918	1936.35
183.995	1951.52
184.071	1953.09
184.147	1946.86
184.223	1934.55
184.299	1944.15
184.375	1936.12
184.452	1943.92
184.528	1999.29
184.604	2006.09
184.68	2015.45
184.756	2022.49
184.832	2027.58
184.908	2033.47
184.985	2030.72
185.061	2016.69
185.137	2027.15
185.213	2016.45
185.289	2017.5
185.365	2008.18
185.441	2008.8
185.517	2024.4
185.593	2019.22
185.669	2014.37
185.745	2025.12
185.822	2040.09
185.898	2036
185.974	2043.51
186.05	2033.28
186.126	1994.27
186.202	1988
186.278	1986.28
186.354	1977.01
186.43	1982.72
186.506	1980.01
186.582	1980.44
186.658	1986.33
186.734	1968.89
186.81	1970.31
186.886	1973.35
186.962	1985.48
187.038	1977.58
187.114	1970.83
187.19	1977.87
187.266	1969.74
187.341	1970.59
187.417	1963.94
187.493	1962.37
187.569	1966.36
187.645	1961.37
187.721	1947.25
187.797	1955.95
187.873	1959.13
187.949	1954.38
188.025	1948.1
188.101	1952.47
188.176	1955.42
188.252	1949.24
188.328	1956.8
188.404	1959.36
188.48	1954.33
188.556	1946.38
188.632	1949.14
188.707	1948.43
188.783	1947.52
188.859	1944.48
188.935	1932.78
189.011	1939.3
189.086	1935.11
189.162	1926.32
189.238	1922.56
189.314	1921.8
189.39	1915.53
189.465	1909.2
189.541	1927.13
189.617	1910.54
189.693	1904.6
189.768	1906.36
189.844	1930.18
189.92	1920.92
189.996	1927.95
190.071	1939.79
190.147	1940.22
190.223	1948.31
190.298	1943.41
190.374	1930.05
190.45	1941.07
190.526	1950.58
190.601	1947.49
190.677	1945.64
190.753	1972.99
190.828	1978.03
190.904	1990.97
190.98	2007.61
191.055	2016.74
191.131	2006.14
191.207	2028.39
191.282	2039.28
191.358	2032.38
191.433	2017.87
191.509	2031.56
191.585	2028.42
191.66	2027.95
191.736	2034.7
191.811	2027.95
191.887	2040.5
191.963	2060.14
192.038	2065.19
192.114	2062.57
192.189	2064.71
192.265	2063.24
192.34	2042.49
192.416	2040.64
192.491	2036.64
192.567	2037.35
192.642	2039.16
192.718	2042.59
192.793	2028.51
192.869	2025.04
192.944	2029.08
193.02	2035.12
193.095	2037.26
193.171	2045.77
193.246	2044.87
193.322	2044.34
193.397	2041.68
193.473	2029.03
193.548	2012.43
193.624	2018.19
193.699	2018.52
193.775	2035.17
193.85	2037.17
193.925	2043.87
194.001	2043.49
194.076	2036.5
194.152	2027.61
194.227	2019.66
194.302	2007.97
194.378	2011.58
194.453	2008.3
194.529	2020.86
194.604	2007.16
194.679	2003.55
194.755	1982.53
194.83	1993.71
194.905	1989.25
194.981	1999.37
195.056	1994.71
195.131	2002.66
195.207	2000.18
195.282	1990.53
195.357	1972.41
195.433	1983.01
195.508	1971.12
195.583	1978.3
195.659	1990.81
195.734	1995.95
195.809	1998.8
195.884	2007.5
195.96	2008.54
196.035	2021.24
196.11	2016.25
196.185	2029.56
196.261	2032.41
196.336	2063.42
196.411	2051.43
196.486	2056.85
196.561	2051.72
196.637	2059.94
196.712	2076.07
196.787	2077.93
196.862	2091.34
196.937	2099.23
197.013	2104.42
197.088	2117.26
197.163	2137.57
197.238	2154.76
197.313	2153.9
197.388	2164.18
197.464	2193.35
197.539	2205.29
197.614	2200.1
197.689	2212.86
197.764	2226.56
197.839	2245.59
197.914	2239.88
197.989	2263.06
198.065	2277.9
198.14	2327.67
198.215	2350.32
198.29	2358.32
198.365	2372.84
198.44	2383.4
198.515	2411.39
198.59	2428.77
198.665	2453.28
198.74	2462.38
198.815	2463.43
198.89	2487.61
198.965	2516.19
199.04	2511.8
199.115	2527.75
199.19	2567.32
199.265	2570.27
199.34	2580.84
199.415	2611.72
199.49	2630.62
199.565	2638.57
199.64	2662
199.715	2654.9
199.79	2662.19
199.865	2669.76
199.94	2667.86
200.015	2698.78
200.09	2702.25
200.165	2709.73
200.24	2716.59
200.315	2751.93
200.39	2767.89
200.464	2772.75
200.539	2772.94
200.614	2786.7
200.689	2807.43
200.764	2814.54
200.839	2829.21
200.914	2833.73
200.989	2824.34
201.063	2841.4
201.138	2821.93
201.213	2821.64
201.288	2806.73
201.363	2811.11
201.438	2814.4
201.512	2826.92
201.587	2811.43
201.662	2814.87
201.737	2823.11
201.812	2829.59
201.886	2799.17
201.961	2808.27
202.036	2797.6
202.111	2796.84
202.186	2772.13
202.26	2756.07
202.335	2736.62
202.41	2731.62
202.485	2717.76
202.559	2700.89
202.634	2673.31
202.709	2682.83
202.784	2665.54
202.858	2663.2
202.933	2647.2
203.008	2639.05
203.082	2623.81
203.157	2624.2
203.232	2585.16
203.306	2566.67
203.381	2536.52
203.456	2515.99
203.53	2492.35
203.605	2473.08
203.68	2452.21
203.754	2446.36
203.829	2431.55
203.904	2411.65
203.978	2399.37
204.053	2401.51
204.127	2388.18
204.202	2386.9
204.277	2373.09
204.351	2366.14
204.426	2358.62
204.5	2349.77
204.575	2315.7
204.65	2321.93
204.724	2313.93
204.799	2322.49
204.873	2319.45
204.948	2318.69
205.022	2308.74
205.097	2301.64
205.171	2315.64
205.246	2322.21
205.32	2319.64
205.395	2320.54
205.469	2312.22
205.544	2320.17
205.618	2306.41
205.693	2318.41
205.767	2307.89
205.842	2328.17
205.916	2322.7
205.991	2315.61
206.065	2322.6
206.14	2336.35
206.214	2335.92
206.289	2329.68
206.363	2341.34
206.438	2344.39
206.512	2352.72
206.586	2371.62
206.661	2379.62
206.735	2357.97
206.81	2358.78
206.884	2377.43
206.958	2368.44
207.033	2389.61
207.107	2398.47
207.181	2429.14
207.256	2427.28
207.33	2448.32
207.405	2460.62
207.479	2481.52
207.553	2491.8
207.628	2480.95
207.702	2500.75
207.776	2499.42
207.851	2510.42
207.925	2531.19
207.999	2536.05
208.073	2543.67
208.148	2555.15
208.222	2555.57
208.296	2597.42
208.371	2627.73
208.445	2654.04
208.519	2695.1
208.593	2719.68
208.668	2731.88
208.742	2754.87
208.816	2776.54
208.89	2812.54
208.965	2836.72
209.039	2872.96
209.113	2922.26
209.187	2973.19
209.261	3000.12
209.336	3052.38
209.41	3103.22
209.484	3145.5
209.558	3208.86
209.632	3264.63
209.707	3319.36
209.781	3393.67
209.855	3465.1
209.929	3534.58
210.003	3597.43
210.077	3656.98
210.151	3769.99
210.226	3873.09
210.3	3971.48
210.374	4068.71
210.448	4146.88
210.522	4235.5
210.596	4328.53
210.67	4423.16
210.744	4558.59
210.818	4683.83
210.892	4805.29
210.966	4900.39
211.041	5015.55
211.115	5110.03
211.189	5245.85
211.263	5373.14
211.337	5489.99
211.411	5616.56
211.485	5732.35
211.559	5864.06
211.633	5993.42
211.707	6087.88
211.781	6219.76
211.855	6312.26
211.929	6443.58
212.003	6564.47
212.077	6713.07
212.151	6865.63
212.225	7015.96
212.299	7152.91
212.373	7281.73
212.447	7425.14
212.52	7606.37
212.594	7765.25
212.668	7939.83
212.742	8077.54
212.816	8229.16
212.89	8381.36
212.964	8543.2
213.038	8712.28
213.112	8890.67
213.186	9063.35
213.26	9210.78
213.333	9340.1
213.407	9511.14
213.481	9672.63
213.555	9855.89
213.629	10010.5
213.703	10158.24
213.777	10325.98
213.85	10470.95
213.924	10679.37
213.998	10849.56
214.072	11015.76
214.146	11166.01
214.219	11322.97
214.293	11490.53
214.367	11661.52
214.441	11840.23
214.515	11992.97
214.588	12130.24
214.662	12260.82
214.736	12402.09
214.81	12568.28
214.883	12735.88
214.957	12891.86
215.031	13040.71
215.105	13173.32
215.178	13326.56
215.252	13479.66
215.326	13608.28
215.4	13740.55
215.473	13849.25
215.547	13977.82
215.621	14107.49
215.694	14262.08
215.768	14387.22
215.842	14515.2
215.915	14641.59
215.989	14756.61
216.063	14882.32
216.136	15014.01
216.21	15143.2
216.284	15289.78
216.357	15421.61
216.431	15545.15
216.504	15678.86
216.578	15822.4
216.652	15956.73
216.725	16075.54
216.799	16205.87
216.873	16330.08
216.946	16466.14
217.02	16571.45
217.093	16678.93
217.167	16758.5
217.24	16851.81
217.314	16961.36
217.387	17068.98
217.461	17166.81
217.535	17283.34
217.608	17381.42
217.682	17490.24
217.755	17606.96
217.829	17701.51
217.902	17791.54
217.976	17891.25
218.049	17968.5
218.123	18052.25
218.196	18148.83
218.27	18236.97
218.343	18312.15
218.417	18398.17
218.49	18479.17
218.563	18585.19
218.637	18672.8
218.71	18794.92
218.784	18895.97
218.857	18992.26
218.931	19073.55
219.004	19152.39
219.077	19240.2
219.151	19319.32
219.224	19403.42
219.298	19469.73
219.371	19560.13
219.444	19630.25
219.518	19695.35
219.591	19774.58
219.665	19871.3
219.738	19935.3
219.811	19989.56
219.885	20071.92
219.958	20153.84
220.031	20215.19
220.105	20285.41
220.178	20346.52
220.251	20399.14
220.325	20461.6
220.398	20528.93
220.471	20592.5
220.544	20669.12
220.618	20715.97
220.691	20771.97
220.764	20809.95
220.838	20873.56
220.911	20923.64
220.984	21002.73
221.057	21071.84
221.131	21125.77
221.204	21151.56
221.277	21220.62
221.35	21295.81
221.424	21332.44
221.497	21376.26
221.57	21421.22
221.643	21467.69
221.716	21526.11
221.79	21563.85
221.863	21598.5
221.936	21627.09
222.009	21670.85
222.082	21714.96
222.155	21750.14
222.229	21806.92
222.302	21849.92
222.375	21877.83
222.448	21909.4
222.521	21926.37
222.594	21953.03
222.667	21975.97
222.74	22001.28
222.814	22028.22
222.887	22056.09
222.96	22091.37
223.033	22121.79
223.106	22149.27
223.179	22179.3
223.252	22207.7
223.325	22235.8
223.398	22258.02
223.471	22285.36
223.544	22302.81
223.617	22316.5
223.69	22337.56
223.763	22341.52
223.837	22371.6
223.91	22399.75
223.983	22405.01
224.056	22415.61
224.129	22439.52
224.202	22470.43
224.275	22487.15
224.348	22492.02
224.42	22493.57
224.493	22488.55
224.566	22499.59
224.639	22518.63
224.712	22517.57
224.785	22508.37
224.858	22514.15
224.931	22520.13
225.004	22524.56
225.077	22530.35
225.15	22510.68
225.223	22512.8
225.296	22546.12
225.369	22529.73
225.442	22520.08
225.514	22516.9
225.587	22530.88
225.66	22526.93
225.733	22534.59
225.806	22550.02
225.879	22558.41
225.952	22546.5
226.025	22564.29
226.097	22565.35
226.17	22568.63
226.243	22547.42
226.316	22558.03
226.389	22557.74
226.461	22562.56
226.534	22564.68
226.607	22562.12
226.68	22593.61
226.753	22594.81
226.825	22571.43
226.898	22580.97
226.971	22586.71
227.044	22595.82
227.117	22589.94
227.189	22595
227.262	22589.65
227.335	22591.14
227.407	22577.93
227.48	22588.3
227.553	22585.74
227.626	22584.01
227.698	22575.19
227.771	22583.53
227.844	22565.93
227.916	22568.48
227.989	22548.09
228.062	22532.42
228.134	22556.82
228.207	22542.93
228.28	22523.12
228.352	22508.22
228.425	22500.32
228.498	22502.34
228.57	22485.76
228.643	22494.39
228.716	22479.11
228.788	22459.73
228.861	22432.97
228.934	22435.19
229.006	22424.73
229.079	22408.09
229.151	22390.4
229.224	22368.13
229.296	22360.8
229.369	22383.6
229.442	22387.03
229.514	22373.82
229.587	22380.04
229.659	22341.13
229.732	22333.32
229.804	22336.65
229.877	22360.56
229.949	22361.14
230.022	22359.74
230.094	22352.03
230.167	22337.61
230.239	22319.82
230.312	22313.56
230.384	22331.54
230.457	22325.22
230.529	22321.85
230.602	22322.14
230.674	22312.88
230.747	22321.37
230.819	22321.32
230.892	22273.02
230.964	22259.08
231.037	22257.49
231.109	22246.79
231.181	22241.15
231.254	22227.94
231.326	22211.6
231.399	22188.12
231.471	22167.88
231.544	22122.56
231.616	22112.05
231.688	22100.1
231.761	22077.01
231.833	22059.61
231.905	22013.48
231.978	21999.74
232.05	21969.71
232.122	21946.37
232.195	21923.19
232.267	21904.97
232.339	21882.36
232.412	21881.35
232.484	21849.58
232.556	21821.33
232.629	21814.78
232.701	21806.44
232.773	21785.86
232.846	21768.6
232.918	21747.49
232.99	21736.5
233.062	21742.43
233.135	21732.3
233.207	21702.66
233.279	21692.05
233.351	21667.33
233.424	21650.65
233.496	21617.01
233.568	21620.24
233.64	21578.64
233.713	21545.77
233.785	21528.08
233.857	21501.14
233.929	21470.77
234.001	21467.4
234.074	21452.22
234.146	21404.79
234.218	21369.41
234.29	21335.04
234.362	21305.02
234.434	21252.29
234.507	21210.6
234.579	21161.87
234.651	21132.95
234.723	21108.8
234.795	21081.72
234.867	21054
234.939	21038.58
235.012	21011.83
235.084	20981.37
235.156	20973.95
235.228	20952.16
235.3	20922.04
235.372	20896.4
235.444	20880.26
235.516	20828.69
235.588	20798.95
235.66	20773.6
235.732	20737.74
235.804	20764.59
235.876	20742.56
235.948	20734.23
236.02	20707.72
236.092	20678.95
236.164	20640.1
236.236	20607.62
236.308	20572.63
236.38	20542.03
236.452	20498.32
236.524	20467.86
236.596	20451.33
236.668	20421.45
236.74	20391.81
236.812	20358.13
236.884	20343.86
236.956	20303.62
237.028	20263.57
237.1	20227.43
237.172	20219
237.244	20206.66
237.316	20130.22
237.388	20087.58
237.46	20051.19
237.532	20028.49
237.604	19993.02
237.675	19974.52
237.747	19946.52
237.819	19911.29
237.891	19882.81
237.963	19836.16
238.035	19797.03
238.107	19728.12
238.178	19706.77
238.25	19667.21
238.322	19662.2
238.394	19599.74
238.466	19560.66
238.538	19540.37
238.609	19516.95
238.681	19457.19
238.753	19414.74
238.825	19385.97
238.897	19360.33
238.968	19334.12
239.04	19292.96
239.112	19285.93
239.184	19232.87
239.255	19196.77
239.327	19167.04
239.399	19140.83
239.471	19124.88
239.542	19100.93
239.614	19085.46
239.686	19030.86
239.758	19014.95
239.829	18953.13
239.901	18934.67
239.973	18912.55
240.044	18882.87
240.116	18843.25
240.188	18803.79
240.259	18766.05
240.331	18722.92
240.403	18691.12
240.474	18640.76
240.546	18598.55
240.618	18536.48
240.689	18501.68
240.761	18465.54
240.833	18452.19
240.904	18405.59
240.976	18366.94
241.048	18327.62
241.119	18296.68
241.191	18269.89
241.262	18244.78
241.334	18213.75
241.405	18175.15
241.477	18132.88
241.549	18093.46
241.62	18060.26
241.692	18045.56
241.763	18024.45
241.835	17986.38
241.906	17949.32
241.978	17904.7
242.049	17879.83
242.121	17866.87
242.192	17855.93
242.264	17800.75
242.335	17746.39
242.407	17725.67
242.478	17691.35
242.55	17665.09
242.621	17615.4
242.693	17569.14
242.764	17528.75
242.836	17481.57
242.907	17448.85
242.979	17411.98
243.05	17377.09
243.122	17346.78
243.193	17303.02
243.264	17245.09
243.336	17217.76
243.407	17197.43
243.479	17179.26
243.55	17148.32
243.622	17109.09
243.693	17065.38
243.764	17055.93
243.836	17007.45
243.907	16970.53
243.978	16933.03
244.05	16900.84
244.121	16856.07
244.192	16840.5
244.264	16790.86
244.335	16763.82
244.407	16721.36
244.478	16693.31
244.549	16649.74
244.62	16601.3
244.692	16560.72
244.763	16542.02
244.834	16509.01
244.906	16465.54
244.977	16435.85
245.048	16413.97
245.119	16365.43
245.191	16318.78
245.262	16264.26
245.333	16253.76
245.405	16224.89
245.476	16200.59
245.547	16164.83
245.618	16143.34
245.689	16106.56
245.761	16074.99
245.832	16036.87
245.903	16006.36
245.974	15973.68
246.045	15939.74
246.117	15931.98
246.188	15891.54
246.259	15847.78
246.33	15799.68
246.401	15766.13
246.473	15722.56
246.544	15681.35
246.615	15667.9
246.686	15637
246.757	15619.74
246.828	15570.63
246.899	15540.98
246.97	15486.61
247.042	15442.41
247.113	15415.76
247.184	15404.48
247.255	15371.22
247.326	15340.56
247.397	15315.98
247.468	15286
247.539	15261.75
247.61	15209.84
247.681	15195.09
247.752	15171.61
247.823	15143.46
247.894	15111.89
247.965	15073.38
248.037	15036.94
248.108	14984.01
248.179	14954.27
248.25	14920.14
248.321	14893.48
248.392	14860.99
248.463	14856.99
248.534	14833.76
248.605	14811.58
248.675	14766.9
248.746	14736.29
248.817	14720
248.888	14688.91
248.959	14652.66
249.03	14629.95
249.101	14609.13
249.172	14571.67
249.243	14519.03
249.314	14494.83
249.385	14464.27
249.456	14444.51
249.527	14412.45
249.598	14390.56
249.669	14360.73
249.739	14336.33
249.81	14314.35
249.881	14268.32
249.952	14239.83
250.023	14210.28
250.094	14165.3
250.165	14129.68
250.235	14106.49
250.306	14072.26
250.377	14030.13
250.448	14000.68
250.519	13943.99
250.59	13928.37
250.66	13899.11
250.731	13896.7
250.802	13876.21
250.873	13856.35
250.944	13831.33
251.014	13811.66
251.085	13814.31
251.156	13791.56
251.227	13779.36
251.297	13776.66
251.368	13765.62
251.439	13748.99
251.51	13735.25
251.58	13701.03
251.651	13675.09
251.722	13661.11
251.792	13620.81
251.863	13596.66
251.934	13586.87
252.005	13593.38
252.075	13567.59
252.146	13554.77
252.217	13540.55
252.287	13536.11
252.358	13506.37
252.429	13499.72
252.499	13460.86
252.57	13442.4
252.641	13435.5
252.711	13409.86
252.782	13362.66
252.852	13354.85
252.923	13328.97
252.994	13309.06
253.064	13303.37
253.135	13267.36
253.205	13239.98
253.276	13241.33
253.347	13234.87
253.417	13206.81
253.488	13186.04
253.558	13153.16
253.629	13122.93
253.699	13099.46
253.77	13070.24
253.841	13047.2
253.911	13028.21
253.982	13010.28
254.052	12981.54
254.123	12949.54
254.193	12930.98
254.264	12947.22
254.334	12912.22
254.405	12876.94
254.475	12844.78
254.546	12814.95
254.616	12815.52
254.687	12795.28
254.757	12774.02
254.827	12747.26
254.898	12724.08
254.968	12698.96
255.039	12676.45
255.109	12667.77
255.18	12635.38
255.25	12591.42
255.321	12576.19
255.391	12538.59
255.461	12529.19
255.532	12484.89
255.602	12464.78
255.673	12416.44
255.743	12382.69
255.813	12341.72
255.884	12325.67
255.954	12308.75
256.024	12308.46
256.095	12280.89
256.165	12246.9
256.235	12229.6
256.306	12202.99
256.376	12194.27
256.446	12176.19
256.517	12156.19
256.587	12141.97
256.657	12127.89
256.728	12113.86
256.798	12091.21
256.868	12069.08
256.938	12051.97
257.009	12049.13
257.079	12037.37
257.149	12048.31
257.219	12010.28
257.29	11997.6
257.36	11970.08
257.43	11958.61
257.5	11912.91
257.571	11889.49
257.641	11879.56
257.711	11849.34
257.781	11841.38
257.852	11825.19
257.922	11791.35
257.992	11769.81
258.062	11745.42
258.132	11734.28
258.202	11714.33
258.273	11700.83
258.343	11702.04
258.413	11677.65
258.483	11656.49
258.553	11623.52
258.623	11594.46
258.693	11577.64
258.764	11581.06
258.834	11578.8
258.904	11560.91
258.974	11538.89
259.044	11521.25
259.114	11510.94
259.184	11504.96
259.254	11485.68
259.324	11449
259.394	11435.27
259.464	11434.01
259.535	11411.56
259.605	11384.42
259.675	11359.36
259.745	11341.96
259.815	11307.45
259.885	11282.78
259.955	11293
260.025	11268.23
260.095	11247.36
260.165	11230.73
260.235	11220.18
260.305	11189.33
260.375	11156.61
260.445	11168.95
260.515	11168.37
260.585	11162.73
260.655	11137.43
260.725	11125.77
260.795	11117
260.865	11124.32
260.934	11104.95
261.004	11100.9
261.074	11089.72
261.144	11086.15
261.214	11075.12
261.284	11055.7
261.354	11043.51
261.424	11013.38
261.494	11018.64
261.564	11007.99
261.634	11005.43
261.703	10971.31
261.773	10958.16
261.843	10954.45
261.913	10925.49
261.983	10890.36
262.053	10871.03
262.123	10850.41
262.192	10821.55
262.262	10812.1
262.332	10775.33
262.402	10761.89
262.472	10740.16
262.541	10704.02
262.611	10698.96
262.681	10677.18
262.751	10675.11
262.821	10659.93
262.89	10628.61
262.96	10611.74
263.03	10614.06
263.1	10595.84
263.169	10585.24
263.239	10576.33
263.309	10574.79
263.379	10567.7
263.448	10551.8
263.518	10543.23
263.588	10527.52
263.657	10527.23
263.727	10518.7
263.797	10507.96
263.867	10496.73
263.936	10470.86
264.006	10467.34
264.076	10449.56
264.145	10433.71
264.215	10410.44
264.285	10404.95
264.354	10373.35
264.424	10355.76
264.494	10321.02
264.563	10304.02
264.633	10306.04
264.702	10295.63
264.772	10261.28
264.842	10241.91
264.911	10234.93
264.981	10206.55
265.05	10195.52
265.12	10175.96
265.19	10163.87
265.259	10159.53
265.329	10140.89
265.398	10133.23
265.468	10140.31
265.537	10116.9
265.607	10111.94
265.676	10104.13
265.746	10093.49
265.815	10093.34
265.885	10080.05
265.955	10058.13
266.024	10038.81
266.094	9999.55
266.163	9999.5
266.232	10001.58
266.302	9990.55
266.371	9979.71
266.441	9959.96
266.51	9950.37
266.58	9940.4
266.649	9919.93
266.719	9912.32
266.788	9904.37
266.858	9909.23
266.927	9875.81
266.996	9869.93
267.066	9855.53
267.135	9833.71
267.205	9830.77
267.274	9820.17
267.343	9818.49
267.413	9810.73
267.482	9816.08
267.552	9821.09
267.621	9791.18
267.69	9763.39
267.76	9757.27
267.829	9749.56
267.898	9745.42
267.968	9723.89
268.037	9715.08
268.106	9710.55
268.176	9683.24
268.245	9674.77
268.314	9647.07
268.384	9644.23
268.453	9629.21
268.522	9625.79
268.592	9626.51
268.661	9597.13
268.73	9592.94
268.799	9566.5
268.869	9570.64
268.938	9541.36
269.007	9519.59
269.076	9513.53
269.146	9511.41
269.215	9492.87
269.284	9491.9
269.353	9471.73
269.422	9465.61
269.492	9447.12
269.561	9406
269.63	9408.65
269.699	9384.04
269.768	9375.81
269.838	9370.17
269.907	9373.21
269.976	9344.31
270.045	9312.92
270.114	9314.08
270.183	9295.34
270.253	9299.29
270.322	9270.59
270.391	9261.69
270.46	9268.52
270.529	9265.59
270.598	9259.13
270.667	9250.27
270.736	9231.73
270.806	9221.82
270.875	9218.01
270.944	9205.35
271.013	9226.68
271.082	9212.19
271.151	9214.55
271.22	9189.22
271.289	9178.24
271.358	9160.04
271.427	9156.48
271.496	9149.93
271.565	9132.65
271.634	9126.44
271.703	9141.03
271.772	9137.32
271.841	9123.03
271.91	9098.13
271.979	9086.19
272.048	9066.36
272.117	9069.49
272.186	9055.72
272.255	9057.11
272.324	9057.45
272.393	9050.76
272.462	9037.66
272.531	9031.36
272.6	9016.77
272.669	9025.53
272.738	9013.01
272.807	9009.88
272.876	8987.26
272.945	9007.43
273.013	9011.91
273.082	9017.01
273.151	8976.66
273.22	8983.02
273.289	8978.3
273.358	8988.51
273.427	8979.26
273.496	8976.86
273.564	8967.81
273.633	8965.11
273.702	8954.76
273.771	8937.96
273.84	8939.21
273.909	8937.33
273.977	8933.63
274.046	8926.02
274.115	8927.71
274.184	8912.26
274.253	8903.45
274.322	8918.27
274.39	8890.35
274.459	8873.31
274.528	8840.92
274.597	8836.3
274.665	8823.2
274.734	8825.13
274.803	8808.62
274.872	8797.93
274.94	8782.24
275.009	8833.58
275.078	8818.12
275.147	8812.59
275.215	8814.13
275.284	8814.27
275.353	8800.89
275.421	8780.97
275.49	8790.16
275.559	8780.48
275.627	8771.15
275.696	8760.37
275.765	8751.13
275.833	8741.98
275.902	8740.97
275.971	8755.41
276.039	8770.38
276.108	8775.24
276.177	8773.99
276.245	8771.82
276.314	8773.08
276.383	8782.32
276.451	8721.02
276.52	8729.01
276.588	8736.71
276.657	8740.41
276.725	8733.05
276.794	8733
276.863	8738.97
276.931	8718.8
277	8723.66
277.068	8738.05
277.137	8751.24
277.205	8752.64
277.274	8767.51
277.342	8771.93
277.411	8748.35
277.48	8728.52
277.548	8717.74
277.617	8719.09
277.685	8703.64
277.754	8704.51
277.822	8696.23
277.89	8711.44
277.959	8700.71
278.027	8675.15
278.096	8661.48
278.164	8683
278.233	8673.18
278.301	8662.4
278.37	8658.27
278.438	8640.7
278.507	8639.59
278.575	8622.17
278.643	8618.65
278.712	8603.93
278.78	8591.37
278.849	8603.49
278.917	8612.88
278.985	8607.82
279.054	8610.04
279.122	8625.68
279.191	8623.85
279.259	8614.76
279.327	8593.86
279.396	8611.67
279.464	8619.9
279.532	8623.65
279.601	8617.35
279.669	8611.96
279.737	8623.03
279.806	8629.52
279.874	8640.69
279.942	8638.38
280.011	8630.63
280.079	8634.24
280.147	8651.23
280.215	8653.88
280.284	8652.05
280.352	8643.58
280.42	8654.41
280.488	8639.39
280.557	8628.95
280.625	8629.28
280.693	8632.6
280.761	8630.97
280.83	8609.07
280.898	8620.14
280.966	8603.68
281.034	8571.34
281.102	8558.93
281.171	8556.37
281.239	8573.65
281.307	8559.89
281.375	8544.3
281.443	8568.94
281.512	8568.22
281.58	8570
281.648	8562.11
281.716	8562.83
281.784	8555.76
281.852	8545.79
281.92	8544.64
281.989	8560.33
282.057	8546.37
282.125	8590.8
282.193	8582.77
282.261	8582.91
282.329	8575.31
282.397	8577.9
282.465	8586.95
282.533	8603.6
282.601	8592.43
282.67	8566.49
282.738	8567.16
282.806	8580.69
282.874	8566.54
282.942	8570.58
283.01	8562.35
283.078	8569.47
283.146	8559.13
283.214	8565.77
283.282	8567.69
283.35	8578.33
283.418	8566.49
283.486	8566.1
283.554	8522.59
283.622	8528.17
283.69	8526.48
283.758	8522.63
283.826	8523.07
283.894	8533.03
283.962	8552.86
284.03	8571.58
284.098	8571.19
284.165	8568.21
284.233	8566
284.301	8561.86
284.369	8546.65
284.437	8541.02
284.505	8533.32
284.573	8549.92
284.641	8540.97
284.709	8545.4
284.777	8532.12
284.845	8539.34
284.912	8549.35
284.98	8556.71
285.048	8552.67
285.116	8562.1
285.184	8574.85
285.252	8578.75
285.319	8563.49
285.387	8554.35
285.455	8528.17
285.523	8535.44
285.591	8521.87
285.659	8524.8
285.726	8533.27
285.794	8523.46
285.862	8518.07
285.93	8520.38
285.997	8517.92
286.065	8517.11
286.133	8506.95
286.201	8501.47
286.269	8493.19
286.336	8485.68
286.404	8476.44
286.472	8485.39
286.539	8463.26
286.607	8441.46
286.675	8440.74
286.743	8448.73
286.81	8445.84
286.878	8464.6
286.946	8456.18
287.013	8465.61
287.081	8461.57
287.149	8450.02
287.216	8465.9
287.284	8465.71
287.352	8461.33
287.419	8457.38
287.487	8471.29
287.555	8477.31
287.622	8482.31
287.69	8483.8
287.758	8489.82
287.825	8487.41
287.893	8469.94
287.96	8475.33
288.028	8487.02
288.096	8490.15
288.163	8491.31
288.231	8474.46
288.298	8471.53
288.366	8484.86
288.433	8478.56
288.501	8478.65
288.569	8482.94
288.636	8477.98
288.704	8486.54
288.771	8493.81
288.839	8484.91
288.906	8477.02
288.974	8487.94
289.041	8480.2
289.109	8466.53
289.176	8477.31
289.244	8483.9
289.311	8498.68
289.379	8513.93
289.446	8522.26
289.514	8519.7
289.581	8518.74
289.649	8525.05
289.716	8527.4
289.783	8517.78
289.851	8542.95
289.918	8532.7
289.986	8544.15
290.053	8548.29
290.121	8552.81
290.188	8556.52
290.255	8584.09
290.323	8580.63
290.39	8572.4
290.458	8587.22
290.525	8605.27
290.592	8599.44
290.66	8600.02
290.727	8599.97
290.794	8609.79
290.862	8604.21
290.929	8610.03
290.996	8609.21
291.064	8620.71
291.131	8631.11
291.198	8643.48
291.266	8637.9
291.333	8644.34
291.4	8641.74
291.468	8667.64
291.535	8657.82
291.602	8663.5
291.669	8659.84
291.737	8666.05
291.804	8664.13
291.871	8675.58
291.938	8678.71
292.006	8701.82
292.073	8713.17
292.14	8726.22
292.207	8718.56
292.275	8721.6
292.342	8729.83
292.409	8755
292.476	8772.86
292.543	8766.6
292.611	8768.05
292.678	8778.92
292.745	8806.74
292.812	8823.59
292.879	8809
292.946	8817.62
293.014	8827.44
293.081	8831.87
293.148	8839.38
293.215	8853.14
293.282	8846.88
293.349	8852.37
293.416	8840.24
293.484	8854.87
293.551	8858.53
293.618	8878.94
293.685	8907.15
293.752	8900.7
293.819	8900.85
293.886	8887.32
293.953	8896.42
294.02	8909.37
294.087	8919.47
294.154	8912.35
294.221	8922.75
294.288	8919.72
294.356	8934.83
294.423	8941.43
294.49	8933.68
294.557	8957.22
294.624	8948.12
294.691	8968.1
294.758	8974.02
294.825	8977.97
294.892	8964.82
294.959	8963.04
295.026	8971.04
295.093	8956.21
295.16	8958.9
295.226	8960.39
295.293	8988.94
295.36	8986.97
295.427	8998.57
295.494	9008.83
295.561	9012.92
295.628	9028.86
295.695	9049.99
295.762	9054.57
295.829	9060.1
295.896	9078.44
295.963	9085.09
296.03	9105.36
296.096	9110.51
296.163	9116.77
296.23	9131.31
296.297	9147.34
296.364	9148.93
296.431	9152.83
296.498	9151.09
296.564	9175.74
296.631	9173.38
296.698	9160.91
296.765	9185.85
296.832	9174.29
296.899	9167.46
296.965	9189.12
297.032	9173.42
297.099	9192.78
297.166	9199.76
297.233	9197.55
297.299	9189.75
297.366	9182.48
297.433	9176.94
297.5	9185.61
297.566	9187.15
297.633	9188.02
297.7	9197.07
297.767	9200.05
297.833	9202.7
297.9	9207.08
297.967	9192.25
298.033	9207.52
298.1	9234.43
298.167	9226.54
298.234	9231.4
298.3	9234.92
298.367	9228.27
298.434	9239.49
298.5	9226.44
298.567	9222.83
298.634	9226.83
298.7	9242.28
298.767	9247.58
298.834	9265.49
298.9	9260.24
298.967	9259.37
299.033	9263.56
299.1	9274.16
299.167	9283.74
299.233	9276.23
299.3	9290.91
299.366	9306.08
299.433	9322.35
299.5	9294.86
299.566	9297.79
299.633	9312.38
299.699	9324.47
299.766	9321.05
299.832	9324.18
299.899	9332.95
299.965	9347.63
300.032	9341.04
300.099	9351
300.165	9360.73
300.232	9354.71
300.298	9354.95
300.365	9365.06
300.431	9368.39
300.498	9359.48
300.564	9374.31
300.631	9385.34
300.697	9400.12
300.763	9406.86
300.83	9398.72
300.896	9410.28
300.963	9423.28
301.029	9429.68
301.096	9437.87
301.162	9448.85
301.229	9441.43
301.295	9431.95
301.361	9433.58
301.428	9438.98
301.494	9426.12
301.561	9422.85
301.627	9428.58
301.693	9434.74
301.76	9438.88
301.826	9439.46
301.892	9453.91
301.959	9458.19
302.025	9459.93
302.092	9452.99
302.158	9461.61
302.224	9467.87
302.291	9462.77
302.357	9459.01
302.423	9447.69
302.49	9435.94
302.556	9442.25
302.622	9442.06
302.688	9450.87
302.755	9464.16
302.821	9469.12
302.887	9479.28
302.954	9480.44
303.02	9479.43
303.086	9484.82
303.152	9485.74
303.219	9482.61
303.285	9481.69
303.351	9487.62
303.417	9489.59
303.483	9482.08
303.55	9475.91
303.616	9470.47
303.682	9471
303.748	9458.63
303.815	9481.17
303.881	9484.83
303.947	9473.32
304.013	9475.68
304.079	9472.74
304.145	9453.62
304.212	9451.07
304.278	9440.18
304.344	9435.47
304.41	9431.85
304.476	9423.57
304.542	9411.92
304.608	9416.11
304.674	9395.06
304.741	9386.93
304.807	9385.58
304.873	9392.9
304.939	9401.76
305.005	9387.89
305.071	9385.48
305.137	9392.37
305.203	9365.35
305.269	9371.75
305.335	9385.96
305.401	9384.23
305.467	9383.07
305.533	9390.05
305.599	9396.17
305.666	9408.26
305.732	9402.28
305.798	9414.47
305.864	9440.19
305.93	9451.5
305.996	9449.33
306.062	9455.5
306.128	9449.67
306.194	9440.67
306.259	9437.78
306.325	9429.4
306.391	9437.82
306.457	9445.91
306.523	9446.64
306.589	9469.27
306.655	9462.72
306.721	9442.93
306.787	9430.65
306.853	9437.3
306.919	9420.78
306.985	9419.86
307.051	9413.99
307.117	9411.2
307.183	9404.02
307.248	9368.48
307.314	9369.59
307.38	9368.24
307.446	9376.91
307.512	9365.54
307.578	9371.27
307.644	9364.44
307.709	9357.98
307.775	9355.1
307.841	9351.19
307.907	9349.12
307.973	9322.98
308.039	9317.05
308.104	9322.69
308.17	9324.9
308.236	9314.74
308.302	9317.68
308.368	9301.84
308.433	9293.84
308.499	9289.32
308.565	9277.38
308.631	9283.49
308.696	9262.79
308.762	9247.62
308.828	9240.64
308.894	9224.99
308.959	9204.72
309.025	9202.79
309.091	9204.24
309.156	9189.94
309.222	9189.75
309.288	9177.18
309.354	9159.27
309.419	9159.7
309.485	9149.69
309.551	9153.25
309.616	9140.59
309.682	9138.81
309.748	9133.22
309.813	9130.77
309.879	9124.8
309.945	9112.14
310.01	9100.05
310.076	9105.11
310.141	9101.26
310.207	9087.34
310.273	9087.15
310.338	9092.3
310.404	9070.73
310.469	9053.88
310.535	9052.92
310.601	9034.72
310.666	9042.81
310.732	9054.46
310.797	9037.17
310.863	9027.64
310.928	9021.14
310.994	9024.85
311.059	9019.41
311.125	9019.7
311.191	9024.32
311.256	9013.49
311.322	9014.64
311.387	8999.63
311.453	9408.89
311.518	9382.23
311.584	9377.85
311.649	9383.72
311.715	9363.89
311.78	9369.71
311.846	9359.27
311.911	9358.25
311.976	9354.64
312.042	9336.69
312.107	9324.99
312.173	9315.41
312.238	9310.89
312.304	9300.29
312.369	9286.04
312.434	9274.2
312.5	9260.58
312.565	9235.21
312.631	9240.31
312.696	9240.7
312.761	9243.15
312.827	8819.73
312.892	8860.6
312.958	8851.55
313.023	8848.76
313.088	8851.55
313.154	8840.96
313.219	8836.49
313.284	8828.06
313.35	8822.53
313.415	8813.43
313.48	8803.51
313.546	8813.24
313.611	8816.32
313.676	8807.65
313.741	8802.12
313.807	8809.82
313.872	8819.83
313.937	8827.58
314.003	8835.33
314.068	8825.42
314.133	8830.37
314.198	8817.48
314.264	8796.2
314.329	8789.17
314.394	8777.33
314.459	8773.67
314.525	8783.92
314.59	8776.22
314.655	8763.8
314.72	8768.18
314.785	8768.86
314.851	8766.02
314.916	8744.94
314.981	8731.46
315.046	8726.02
315.111	8710.72
315.176	8694.74
315.242	8695.84
315.307	8693.97
315.372	8669.13
315.437	8661
315.502	8650.65
315.567	8661.72
315.632	8645.6
315.698	8655.32
315.763	8659.31
315.828	8648.29
315.893	8649.3
315.958	8649.16
316.023	8641.94
316.088	8628.61
316.153	8608.98
316.218	8602
316.283	8583.81
316.348	8566.87
316.413	8562.64
316.479	8545.8
316.544	8512.07
316.609	8478.19
316.674	8432.77
316.739	8405.21
316.804	8376.68
316.869	8339.34
316.934	8299.79
316.999	8269.1
317.064	8210.55
317.129	8164.31
317.194	8126.89
317.259	8070.55
317.324	8016.25
317.389	7975.94
317.454	7931.06
317.518	7894.94
317.583	7865.79
317.648	7839.24
317.713	7802.31
317.778	7743.1
317.843	7718.87
317.908	7686.13
317.973	7648.14
318.038	7627.36
318.103	7586.55
318.168	7552.75
318.233	7521.4
318.297	7473.43
318.362	7439.44
318.427	7407
318.492	7380.17
318.557	7335.34
318.622	7309.52
318.687	7291.21
318.751	7247.87
318.816	7221.72
318.881	7193.8
318.946	7141.66
319.011	7095.14
319.075	7056.08
319.14	7017.79
319.205	6972.63
319.27	6937.71
319.335	6895.14
319.399	6855.03
319.464	6826.59
319.529	6775.83
319.594	6741.91
319.658	6713.63
319.723	6669.39
319.788	6640.15
319.853	6590.39
319.917	6565.14
319.982	6510.02
320.047	6470.07
320.112	6442.13
320.176	6386.49
320.241	6347.21
320.306	6319.22
320.37	6280.59
320.435	6247.95
320.5	6219.45
320.564	6181.92
320.629	6140.13
320.694	6105.39
320.758	6060.81
320.823	6014.75
320.888	5989.09
320.952	5940.11
321.017	5900.15
321.082	5861.97
321.146	5821.96
321.211	5784.84
321.275	5742.21
321.34	5701.46
321.405	5658.83
321.469	5612.42
321.534	5574.02
321.598	5524.55
321.663	5489.97
321.727	5459.15
321.792	5413.18
321.857	5372.2
321.921	5334.05
321.986	5292.75
322.05	5237.18
322.115	5200.81
322.179	5161.73
322.244	5104.73
322.308	5068.95
322.373	5020.81
322.437	4980.1
322.502	4955.72
322.566	4909.7
322.631	4875.61
322.695	4837.41
322.76	4787.67
322.824	4754.26
322.889	4712.81
322.953	4670.8
323.018	4607.28
323.082	4547.09
323.146	4496.86
323.211	4445.81
323.275	4401.79
323.34	4358.6
323.404	4325.56
323.468	4275.39
323.533	4233.65
323.597	4190.68
323.662	4141.24
323.726	4106.67
323.79	4059.92
323.855	3994.12
323.919	3946.81
323.983	3898.82
324.048	3834.54
324.112	3968.15
324.177	3839.07
324.241	3638.86
324.305	3440.18
324.37	3246.89
324.434	3061.35
324.498	3018.14
324.562	2968.59
324.627	2907.85
324.691	2851
324.755	2786.85
324.82	2717.83
324.884	2640.1
324.948	2569.54
325.012	2477.19
325.077	2356.38
