Data from 20250702_urea_0.5M_MAYP1162681_18-15-00-294.txt Node
Date: Wed Jul 02 18:15:00 BST 2025
User: adleo
Spectrometer: MAYP116268
Trigger mode: 0
Integration Time (sec): 1.000000E0
Scans to average: 1
Electric dark correction enabled: true
Nonlinearity correction enabled: true
Boxcar width: 10
XAxis mode: Wavelengths
Number of Pixels in Spectrum: 2068
>>>>>Begin Spectral Data<<<<<
179.565	1136.96
179.642	1189.53
179.718	1230.47
179.795	1263.79
179.871	1290.93
179.948	1308.14
180.024	1324.43
180.101	1345.35
180.177	1360.23
180.254	1381.5
180.33	1402.32
180.407	1450.69
180.483	1541.14
180.56	1626.37
180.636	1704.94
180.712	1691.54
180.789	1701.8
180.865	1712.82
180.942	1719.99
181.018	1729.31
181.095	1744
181.171	1748.41
181.248	1749.98
181.324	1764.15
181.4	1772.42
181.477	1785.01
181.553	1797.03
181.63	1818.51
181.706	1834.49
181.782	1840
181.859	1838.43
181.935	1842.85
182.011	1839.9
182.088	1854.73
182.164	1869.47
182.24	1880.45
182.317	1889.86
182.393	1887.58
182.469	1900.65
182.546	1915.53
182.622	1921.33
182.698	1915.34
182.775	1927.65
182.851	1939.73
182.927	1933.79
183.003	1928.61
183.08	1922.38
183.156	1929.75
183.232	1925.71
183.308	1915.29
183.385	1924.28
183.461	1938.87
183.537	1938.4
183.613	1952.57
183.69	1943.87
183.766	1938.25
183.842	1948.33
183.918	1952.18
183.995	1965.21
184.071	1966.35
184.147	1960.88
184.223	1946.67
184.299	1956.18
184.375	1943.68
184.452	1949.29
184.528	2004.76
184.604	2017.5
184.68	2029.3
184.756	2038.9
184.832	2044.7
184.908	2048.08
184.985	2046.04
185.061	2034.53
185.137	2045.37
185.213	2028.83
185.289	2032.82
185.365	2023.41
185.441	2019.65
185.517	2032.3
185.593	2028.78
185.669	2026.93
185.745	2034.87
185.822	2051.46
185.898	2045.08
185.974	2057.16
186.05	2050.93
186.126	2009.3
186.202	1998.79
186.278	1993.04
186.354	1980.96
186.43	1987.9
186.506	1986.05
186.582	1982.91
186.658	1987.48
186.734	1967.7
186.81	1973.64
186.886	1971.31
186.962	1981.82
187.038	1980.25
187.114	1970.26
187.19	1980.44
187.266	1972.69
187.341	1974.02
187.417	1968.74
187.493	1968.6
187.569	1969.17
187.645	1963.42
187.721	1951.57
187.797	1962.65
187.873	1969.83
187.949	1965.6
188.025	1958.23
188.101	1961.65
188.176	1969.92
188.252	1967.07
188.328	1974.72
188.404	1974.06
188.48	1971.49
188.556	1965.97
188.632	1966.59
188.707	1972.25
188.783	1965.59
188.859	1958.8
188.935	1947.67
189.011	1954.8
189.086	1948.43
189.162	1939.68
189.238	1938.25
189.314	1937.07
189.39	1930.98
189.465	1923.04
189.541	1938.68
189.617	1923.57
189.693	1917.53
189.768	1919.05
189.844	1939.79
189.92	1933.99
189.996	1943.83
190.071	1953.06
190.147	1953.2
190.223	1961.9
190.298	1951.49
190.374	1938.7
190.45	1951.53
190.526	1959.38
190.601	1954.29
190.677	1956.52
190.753	1986.69
190.828	1987.78
190.904	2003.9
190.98	2017.03
191.055	2026.35
191.131	2018.12
191.207	2039.66
191.282	2047.55
191.358	2040.47
191.433	2030.48
191.509	2042.46
191.585	2036.8
191.66	2039.79
191.736	2044.69
191.811	2034.56
191.887	2050.54
191.963	2075.37
192.038	2079.93
192.114	2082.12
192.189	2086.54
192.265	2083.6
192.34	2055.53
192.416	2053.58
192.491	2046.44
192.567	2051.15
192.642	2051.53
192.718	2051.06
192.793	2039.4
192.869	2036.84
192.944	2040.54
193.02	2047.4
193.095	2049.3
193.171	2056.38
193.246	2057.29
193.322	2056.81
193.397	2056.76
193.473	2043.97
193.548	2026.84
193.624	2031.55
193.699	2030.22
193.775	2044.92
193.85	2045.25
193.925	2057.48
194.001	2059.99
194.076	2054.34
194.152	2043.3
194.227	2040.3
194.302	2031.08
194.378	2033.98
194.453	2032.89
194.529	2045.63
194.604	2030.41
194.679	2025.8
194.755	2008.35
194.83	2017.39
194.905	2015.68
194.981	2026.76
195.056	2022.15
195.131	2024.43
195.207	2024.91
195.282	2015.92
195.357	1996.66
195.433	2013.54
195.508	2002.65
195.583	2006.74
195.659	2019.39
195.734	2026.95
195.809	2024.96
195.884	2033.99
195.96	2033.8
196.035	2047.83
196.11	2041.88
196.185	2054.01
196.261	2056.95
196.336	2083.16
196.411	2070.84
196.486	2076.64
196.561	2066.98
196.637	2072.64
196.712	2088.34
196.787	2092.29
196.862	2105.18
196.937	2115.45
197.013	2118.73
197.088	2128.82
197.163	2152.23
197.238	2166.84
197.313	2165.7
197.388	2177.17
197.464	2206.67
197.539	2217.56
197.614	2210.86
197.689	2222.66
197.764	2237.13
197.839	2257.11
197.914	2251.68
197.989	2275.19
198.065	2289.14
198.14	2336.37
198.215	2362.35
198.29	2374.16
198.365	2384.92
198.44	2396.91
198.515	2424.62
198.59	2439.19
198.665	2463.66
198.74	2472.37
198.815	2473.61
198.89	2494.18
198.965	2526.61
199.04	2522.66
199.115	2538.75
199.19	2581.65
199.265	2582.37
199.34	2593.46
199.415	2625.01
199.49	2647.24
199.565	2655.48
199.64	2678.25
199.715	2674.87
199.79	2682.92
199.865	2689.59
199.94	2687.54
200.015	2716.55
200.09	2722.13
200.165	2729.51
200.24	2738.76
200.315	2778.48
200.39	2794.73
200.464	2800.93
200.539	2801.07
200.614	2820.27
200.689	2844.77
200.764	2852.06
200.839	2870.49
200.914	2874.78
200.989	2865.67
201.063	2879.64
201.138	2863.02
201.213	2862.73
201.288	2848.58
201.363	2853.15
201.438	2853.49
201.512	2870.02
201.587	2852.62
201.662	2851.9
201.737	2865.77
201.812	2871.68
201.886	2835.15
201.961	2841.78
202.036	2831.73
202.111	2826.77
202.186	2796.48
202.26	2778.32
202.335	2756.01
202.41	2750.63
202.485	2733.19
202.559	2715.33
202.634	2691.6
202.709	2700.03
202.784	2681.88
202.858	2679.88
202.933	2661.39
203.008	2655.34
203.082	2636.25
203.157	2638.1
203.232	2602.63
203.306	2579.52
203.381	2546.51
203.456	2525.99
203.53	2505.97
203.605	2485.12
203.68	2463.17
203.754	2456.46
203.829	2439.88
203.904	2420.94
203.978	2407.37
204.053	2417.08
204.127	2404.37
204.202	2401.23
204.277	2383.71
204.351	2375.38
204.426	2369.48
204.5	2363.43
204.575	2330.36
204.65	2339.41
204.724	2330.02
204.799	2335.16
204.873	2333.26
204.948	2337.02
205.022	2324.88
205.097	2317.79
205.171	2331.11
205.246	2340.97
205.32	2340.02
205.395	2340.64
205.469	2332.6
205.544	2340.83
205.618	2319.12
205.693	2328.88
205.767	2318.6
205.842	2339.45
205.916	2335.55
205.991	2325.18
206.065	2330.17
206.14	2345.11
206.214	2344.01
206.289	2340.06
206.363	2352.58
206.438	2352.43
206.512	2357.91
206.586	2381.47
206.661	2389.09
206.735	2371.39
206.81	2375.29
206.884	2390.24
206.958	2379.44
207.033	2396.52
207.107	2404.81
207.181	2439.43
207.256	2436.33
207.33	2455.99
207.405	2475.58
207.479	2498
207.553	2509.33
207.628	2495.63
207.702	2511.05
207.776	2508.52
207.851	2515.14
207.925	2537.92
207.999	2543.11
208.073	2550.82
208.148	2558.87
208.222	2557.49
208.296	2599.05
208.371	2623.79
208.445	2645.99
208.519	2687.76
208.593	2713.49
208.668	2725.31
208.742	2742.09
208.816	2764.05
208.89	2797.42
208.965	2812.69
209.039	2846.07
209.113	2889.02
209.187	2938.46
209.261	2966.54
209.336	3017.27
209.41	3070.07
209.484	3105.61
209.558	3164.24
209.632	3217.38
209.707	3274.55
209.781	3342.59
209.855	3402.6
209.929	3470.16
210.003	3534.19
210.077	3591.73
210.151	3698.99
210.226	3795.42
210.3	3891.63
210.374	3982.39
210.448	4059.11
210.522	4140.59
210.596	4225.76
210.67	4316.38
210.744	4446.13
210.818	4562.16
210.892	4670.71
210.966	4759.19
211.041	4873.38
211.115	4970.52
211.189	5093.7
211.263	5212.64
211.337	5325.66
211.411	5450.32
211.485	5555.62
211.559	5677.47
211.633	5797.63
211.707	5886.31
211.781	6018.88
211.855	6108.04
211.929	6230.38
212.003	6340.78
212.077	6486.5
212.151	6628.34
212.225	6774.06
212.299	6901.4
212.373	7031.29
212.447	7160.17
212.52	7332.03
212.594	7475.91
212.668	7633.58
212.742	7765.18
212.816	7914.17
212.89	8056.04
212.964	8208.94
213.038	8364.78
213.112	8532.66
213.186	8699.91
213.26	8837.96
213.333	8955.23
213.407	9115.21
213.481	9277.04
213.555	9455.73
213.629	9604.39
213.703	9752.53
213.777	9906.23
213.85	10045.43
213.924	10240.19
213.998	10412.41
214.072	10566.6
214.146	10709.59
214.219	10857.18
214.293	11013
214.367	11163.3
214.441	11334.75
214.515	11474.27
214.588	11605.6
214.662	11726.04
214.736	11856.61
214.81	12015.94
214.883	12168.24
214.957	12305.56
215.031	12439.36
215.105	12557.12
215.178	12685.97
215.252	12822.53
215.326	12944.15
215.4	13072.08
215.473	13158.9
215.547	13275.08
215.621	13398.1
215.694	13547.39
215.768	13666.36
215.842	13794.78
215.915	13915.39
215.989	14015.08
216.063	14144.7
216.136	14273.65
216.21	14402.41
216.284	14543.6
216.357	14670.18
216.431	14793.78
216.504	14926.38
216.578	15068.73
216.652	15202.01
216.725	15319.14
216.799	15451.74
216.873	15573.69
216.946	15693.57
217.02	15803.51
217.093	15909.41
217.167	16001.47
217.24	16094.4
217.314	16203.66
217.387	16296.64
217.461	16396.36
217.535	16516.85
217.608	16604.43
217.682	16699.9
217.755	16809.6
217.829	16901.46
217.902	16998.81
217.976	17090.52
218.049	17180.55
218.123	17263.39
218.196	17349.61
218.27	17440.31
218.343	17508.36
218.417	17600.55
218.49	17684.12
218.563	17790.62
218.637	17885.95
218.71	17988.64
218.784	18070.23
218.857	18159.58
218.931	18253.69
219.004	18334.32
219.077	18426.17
219.151	18515.61
219.224	18600.28
219.298	18681.82
219.371	18765.52
219.444	18824.03
219.518	18896.89
219.591	18971.05
219.665	19065.02
219.738	19138.08
219.811	19201.5
219.885	19287.66
219.958	19355.95
220.031	19421.15
220.105	19494.2
220.178	19555.02
220.251	19612.9
220.325	19686.63
220.398	19756.51
220.471	19821.8
220.544	19890.09
220.618	19929.8
220.691	19986.47
220.764	20041.17
220.838	20095.67
220.911	20141.7
220.984	20221.31
221.057	20286.47
221.131	20343.77
221.204	20367.77
221.277	20443.19
221.35	20518.66
221.424	20555.38
221.497	20612.64
221.57	20662.23
221.643	20706.85
221.716	20768.16
221.79	20803.24
221.863	20841.7
221.936	20875.78
222.009	20915.54
222.082	20961.18
222.155	20997.37
222.229	21048.75
222.302	21087.98
222.375	21129.29
222.448	21174.25
222.521	21203.99
222.594	21234.93
222.667	21253.25
222.74	21297.88
222.814	21332.44
222.887	21368.25
222.96	21409.56
223.033	21442.72
223.106	21478.77
223.179	21512.9
223.252	21537.91
223.325	21576.76
223.398	21608.19
223.471	21639.09
223.544	21666.17
223.617	21691.14
223.69	21722.47
223.763	21740.98
223.837	21775.69
223.91	21793.42
223.983	21796.94
224.056	21815.89
224.129	21841.43
224.202	21879.42
224.275	21888.91
224.348	21896.91
224.42	21897.68
224.493	21900.62
224.566	21909.49
224.639	21932.82
224.712	21950.52
224.785	21951.67
224.858	21961.27
224.931	21965.89
225.004	21973.22
225.077	21975.97
225.15	21961.22
225.223	21970.81
225.296	21996.6
225.369	21981.37
225.442	21987.68
225.514	22000.41
225.587	22001.71
225.66	22005.66
225.733	22014
225.806	22026.54
225.879	22027.5
225.952	22028.42
226.025	22044.81
226.097	22064.33
226.17	22051.03
226.243	22026.59
226.316	22048.13
226.389	22050.4
226.461	22060.57
226.534	22071.18
226.607	22074.69
226.68	22105.74
226.753	22098.17
226.825	22077.15
226.898	22099.08
226.971	22091.18
227.044	22104.77
227.117	22108.29
227.189	22118.9
227.262	22123.28
227.335	22128.92
227.407	22115.48
227.48	22116.39
227.553	22118.66
227.626	22118.61
227.698	22133.74
227.771	22135.48
227.844	22111.71
227.916	22109.5
227.989	22094.22
228.062	22082.84
228.134	22101.83
228.207	22100.96
228.28	22107.91
228.352	22110.41
228.425	22112.15
228.498	22125.84
228.57	22103.91
228.643	22109.74
228.716	22097.2
228.788	22081.73
228.861	22060.28
228.934	22076.28
229.006	22074.31
229.079	22057.53
229.151	22031.31
229.224	22003.45
229.296	22002.48
229.369	22025.09
229.442	22031.41
229.514	22018.25
229.587	22029.72
229.659	22003.98
229.732	21995.01
229.804	21998.34
229.877	22010.92
229.949	22007.3
230.022	22021.48
230.094	22019.07
230.167	22018.25
230.239	21999.69
230.312	21990.29
230.384	22018.44
230.457	22015.07
230.529	22011.45
230.602	22009.77
230.674	22011.55
230.747	22022.59
230.819	22029.82
230.892	21989.81
230.964	21977.61
231.037	21978.96
231.109	21958.28
231.181	21960.45
231.254	21938.33
231.326	21907.57
231.399	21882.07
231.471	21866.26
231.544	21824.23
231.616	21830.98
231.688	21822.49
231.761	21811.26
231.833	21800.17
231.905	21748.36
231.978	21722.09
232.05	21695
232.122	21689.69
232.195	21662.22
232.267	21662.36
232.339	21639.71
232.412	21644.77
232.484	21630.36
232.556	21602.02
232.629	21605.39
232.701	21590.16
232.773	21576.33
232.846	21567.89
232.918	21555.21
232.99	21541.53
233.062	21537.91
233.135	21514.24
233.207	21475.78
233.279	21467.1
233.351	21450.96
233.424	21433.41
233.496	21406.52
233.568	21414.71
233.64	21371.09
233.713	21352.92
233.785	21324.34
233.857	21308.97
233.929	21266.7
234.001	21260.67
234.074	21256.19
234.146	21228.57
234.218	21203.51
234.29	21179.75
234.362	21150.45
234.434	21108.32
234.507	21073.62
234.579	21023.01
234.651	20993.18
234.723	20974.77
234.795	20948.45
234.867	20924.5
234.939	20920.93
235.012	20904.6
235.084	20875.77
235.156	20862.28
235.228	20832.54
235.3	20797.75
235.372	20770.03
235.444	20757.12
235.516	20707.67
235.588	20676.49
235.66	20638.46
235.732	20605.59
235.804	20627.14
235.876	20611.48
235.948	20603.33
236.02	20571.67
236.092	20549.11
236.164	20520.58
236.236	20490.56
236.308	20463.96
236.38	20436.49
236.452	20402.56
236.524	20376.97
236.596	20361.93
236.668	20340.29
236.74	20318.32
236.812	20293.26
236.884	20269.79
236.956	20235.04
237.028	20202.71
237.1	20160.49
237.172	20149.79
237.244	20139.91
237.316	20078.85
237.388	20052.2
237.46	20014.56
237.532	20000.69
237.604	19967.77
237.675	19947.96
237.747	19921.99
237.819	19876.55
237.891	19842.86
237.963	19798.86
238.035	19757.13
238.107	19689.66
238.178	19676.27
238.25	19635.4
238.322	19618.58
238.394	19575.07
238.466	19547.41
238.538	19515.55
238.609	19495.99
238.681	19439.36
238.753	19387.12
238.825	19351.03
238.897	19313.83
238.968	19283.47
239.04	19233.69
239.112	19223.71
239.184	19181.84
239.255	19143.96
239.327	19117.65
239.399	19085.84
239.471	19057.41
239.542	19042.57
239.614	19032.83
239.686	18971.82
239.758	18949.18
239.829	18899.88
239.901	18878.72
239.973	18848.07
240.044	18821.42
240.116	18794.25
240.188	18758.73
240.259	18729.82
240.331	18687.22
240.403	18650.01
240.474	18602.02
240.546	18559.32
240.618	18506.36
240.689	18465.4
240.761	18438.27
240.833	18424.48
240.904	18382.27
240.976	18354.8
241.048	18304.59
241.119	18268.06
241.191	18240.35
241.262	18222.71
241.334	18192.01
241.405	18148.26
241.477	18104.4
241.549	18070.43
241.62	18031.06
241.692	18005.47
241.763	17983.06
241.835	17952.7
241.906	17921.86
241.978	17881.95
242.049	17866.48
242.121	17843.5
242.192	17824.85
242.264	17775.5
242.335	17721.86
242.407	17708.17
242.478	17667.31
242.55	17643.26
242.621	17597.09
242.693	17561.28
242.764	17520.85
242.836	17483.5
242.907	17459.31
242.979	17428.32
243.05	17389.91
243.122	17373.24
243.193	17334.44
243.264	17273.57
243.336	17237.86
243.407	17209.91
243.479	17195.79
243.55	17162.29
243.622	17126.82
243.693	17096.41
243.764	17078.1
243.836	17034.82
243.907	16991.54
243.978	16956.12
244.05	16924.65
244.121	16875.73
244.192	16845.13
244.264	16789.94
244.335	16759.29
244.407	16704.49
244.478	16682.51
244.549	16650.9
244.62	16592.58
244.692	16561.98
244.763	16544.53
244.834	16504.62
244.906	16459.99
244.977	16426.01
245.048	16414.69
245.119	16371.74
245.191	16319.06
245.262	16256.55
245.333	16235.87
245.405	16194.57
245.476	16170.42
245.547	16138.71
245.618	16120.63
245.689	16086.65
245.761	16068.29
245.832	16031.71
245.903	16006.35
245.974	15967.6
246.045	15927.16
246.117	15915.4
246.188	15860.31
246.259	15820.93
246.33	15787.67
246.401	15762.85
246.473	15718.51
246.544	15669.05
246.615	15651.61
246.686	15616.23
246.757	15602.92
246.828	15560.26
246.899	15548.65
246.97	15500.88
247.042	15462.22
247.113	15439.71
247.184	15430.65
247.255	15382.74
247.326	15351.99
247.397	15321.14
247.468	15294.48
247.539	15268.89
247.61	15212.97
247.681	15197.16
247.752	15177.74
247.823	15137.15
247.894	15106.06
247.965	15064.7
248.037	15031.15
248.108	14987.33
248.179	14963.81
248.25	14938.02
248.321	14921.54
248.392	14874.54
248.463	14867.93
248.534	14829.76
248.605	14804.74
248.675	14762.22
248.746	14753.21
248.817	14724.34
248.888	14699.41
248.959	14647.26
249.03	14622.05
249.101	14599.44
249.172	14571.33
249.243	14518.6
249.314	14505.39
249.385	14481.34
249.456	14467.64
249.527	14430.33
249.598	14403.48
249.669	14369.45
249.739	14341.78
249.81	14320.43
249.881	14286.59
249.952	14254.58
250.023	14226.18
250.094	14183.91
250.165	14149.87
250.235	14114.35
250.306	14096.94
250.377	14058.38
250.448	14049.22
250.519	14011.91
250.59	14003.28
250.66	13969.25
250.731	13958.64
250.802	13931.26
250.873	13901.42
250.944	13876.02
251.014	13847.04
251.085	13849.12
251.156	13834.08
251.227	13824.92
251.297	13808.82
251.368	13798.07
251.439	13773.29
251.51	13758.15
251.58	13723.73
251.651	13697.8
251.722	13677.89
251.792	13634.69
251.863	13610.59
251.934	13592.27
252.005	13586.97
252.075	13555.06
252.146	13540.11
252.217	13529.46
252.287	13513.07
252.358	13487.71
252.429	13478.31
252.499	13450.79
252.57	13426.78
252.641	13413.23
252.711	13380.65
252.782	13337.45
252.852	13332.34
252.923	13309.54
252.994	13295.7
253.064	13285.53
253.135	13259.07
253.205	13230.72
253.276	13226.48
253.347	13218.38
253.417	13192.16
253.488	13167.72
253.558	13148.34
253.629	13122.02
253.699	13104.81
253.77	13092.71
253.841	13071.45
253.911	13052.17
253.982	13033.51
254.052	13014.23
254.123	12986.17
254.193	12965.2
254.264	12984.82
254.334	12947.85
254.405	12917.38
254.475	12879.97
254.546	12853.65
254.616	12837.65
254.687	12820.2
254.757	12801.11
254.827	12779.13
254.898	12757.73
254.968	12725.67
255.039	12699.93
255.109	12690.48
255.18	12651.19
255.25	12604.67
255.321	12586.79
255.391	12550.01
255.461	12549.82
255.532	12504.17
255.602	12481.22
255.673	12439.33
255.743	12403.18
255.813	12359.75
255.884	12351.99
255.954	12348.03
256.024	12345.87
256.095	12325.23
256.165	12292.94
256.235	12279.73
256.306	12250.95
256.376	12236.35
256.446	12224.68
256.517	12207.47
256.587	12197.74
256.657	12184.96
256.728	12167.18
256.798	12152.23
256.868	12125.63
256.938	12097.28
257.009	12083.88
257.079	12071.64
257.149	12078.24
257.219	12034.67
257.29	12024.55
257.36	11985.89
257.43	11968.97
257.5	11928.96
257.571	11906.26
257.641	11900.48
257.711	11862.3
257.781	11853.77
257.852	11843.17
257.922	11805.62
257.992	11786.97
258.062	11769.42
258.132	11760.89
258.202	11737.95
258.273	11721.7
258.343	11724.84
258.413	11694.57
258.483	11674.95
258.553	11645.12
258.623	11612.58
258.693	11602.51
258.764	11596.58
258.834	11594.89
258.904	11577.4
258.974	11549.45
259.044	11524
259.114	11504
259.184	11488.86
259.254	11466.69
259.324	11429.73
259.394	11425.97
259.464	11422.01
259.535	11388.95
259.605	11360.61
259.675	11338.15
259.745	11313.82
259.815	11283.69
259.885	11261.43
259.955	11275.55
260.025	11254.68
260.095	11245.09
260.165	11233.33
260.235	11227.16
260.305	11194.88
260.375	11165.33
260.445	11172.37
260.515	11172.47
260.585	11166.06
260.655	11146.63
260.725	11134.39
260.795	11125.53
260.865	11122.25
260.934	11097.77
261.004	11092.47
261.074	11072.8
261.144	11071.36
261.214	11064.08
261.284	11048.08
261.354	11047.5
261.424	11018.59
261.494	11020.08
261.564	10995.17
261.634	10983.79
261.703	10942.98
261.773	10936.76
261.843	10931.27
261.913	10907.66
261.983	10877.06
262.053	10865.11
262.123	10848.34
262.192	10826.46
262.262	10816.53
262.332	10785.98
262.402	10773.5
262.472	10760.97
262.541	10727.68
262.611	10724.84
262.681	10701.85
262.751	10695.2
262.821	10675.69
262.89	10647.74
262.96	10631.84
263.03	10637.38
263.1	10626.39
263.169	10621.24
263.239	10604.56
263.309	10598.78
263.379	10598.06
263.448	10588.42
263.518	10577.87
263.588	10565.54
263.657	10564.57
263.727	10553.49
263.797	10538.6
263.867	10519.72
263.936	10486.28
264.006	10481.7
264.076	10461.66
264.145	10445.76
264.215	10422.87
264.285	10415.94
264.354	10380.14
264.424	10359.76
264.494	10329.46
264.563	10308.88
264.633	10318.33
264.702	10316.79
264.772	10286.62
264.842	10262.39
264.911	10253.09
264.981	10225.82
265.05	10207.71
265.12	10187.72
265.19	10180.59
265.259	10178.37
265.329	10165.99
265.398	10160.83
265.468	10173.36
265.537	10153.95
265.607	10141.42
265.676	10133.86
265.746	10127.16
265.815	10135.64
265.885	10116.76
265.955	10096.57
266.024	10078.85
266.094	10034.24
266.163	10031.83
266.232	10032.5
266.302	10012.61
266.371	10003.22
266.441	9987.42
266.51	9985.54
266.58	9967.67
266.649	9949.22
266.719	9943
266.788	9937.37
266.858	9939.63
266.927	9903.36
266.996	9894.55
267.066	9888.09
267.135	9860.4
267.205	9850.52
267.274	9829.09
267.343	9833.47
267.413	9827.16
267.482	9826.1
267.552	9830.58
267.621	9796.04
267.69	9764.5
267.76	9758.81
267.829	9741.43
267.898	9727.99
267.968	9704.01
268.037	9696.49
268.106	9693.12
268.176	9664.66
268.245	9650.88
268.314	9627.86
268.384	9629.98
268.453	9621.69
268.522	9609.56
268.592	9617.31
268.661	9599.87
268.73	9594.14
268.799	9567.75
268.869	9570.59
268.938	9538.9
269.007	9517.81
269.076	9510.93
269.146	9506.3
269.215	9497.35
269.284	9500.96
269.353	9487.04
269.422	9477.07
269.492	9464.36
269.561	9420.3
269.63	9420.44
269.699	9399.11
269.768	9388.52
269.838	9376.19
269.907	9369.98
269.976	9348.02
270.045	9316.19
270.114	9304.3
270.183	9291.15
270.253	9285.23
270.322	9252.25
270.391	9243.82
270.46	9246.71
270.529	9242.52
270.598	9245.51
270.667	9234.24
270.736	9207.18
270.806	9204.58
270.875	9210.21
270.944	9193.89
271.013	9211.41
271.082	9201.83
271.151	9201.54
271.22	9181.08
271.289	9172.03
271.358	9157.73
271.427	9156.86
271.496	9149.64
271.565	9139.68
271.634	9130.19
271.703	9153.55
271.772	9158.99
271.841	9150.32
271.91	9126.3
271.979	9115.18
272.048	9092.4
272.117	9092.07
272.186	9083.3
272.255	9084.89
272.324	9074.2
272.393	9073.39
272.462	9062.41
272.531	9051.14
272.6	9035.16
272.669	9039.01
272.738	9022.59
272.807	9017.68
272.876	8994.63
272.945	9017.69
273.013	9019.23
273.082	9023.56
273.151	8979.65
273.22	8979.6
273.289	8967.52
273.358	8980.28
273.427	8972.33
273.496	8970.51
273.564	8960.83
273.633	8964.39
273.702	8936.9
273.771	8928.38
273.84	8925.54
273.909	8918.47
273.977	8921.07
274.046	8917.21
274.115	8919.91
274.184	8910.43
274.253	8902.82
274.322	8908.74
274.39	8876.25
274.459	8858.82
274.528	8831.63
274.597	8829.46
274.665	8814.06
274.734	8825.61
274.803	8813.67
274.872	8805.1
274.94	8791.48
275.009	8823.45
275.078	8807.71
275.147	8811.08
275.215	8805.16
275.284	8803.57
275.353	8795.44
275.421	8770.94
275.49	8784.75
275.559	8769.88
275.627	8762.42
275.696	8750.15
275.765	8751.64
275.833	8744.52
275.902	8743.46
275.971	8752.51
276.039	8763.77
276.108	8767.62
276.177	8760.5
276.245	8751.26
276.314	8750.49
276.383	8759.25
276.451	8722.8
276.52	8727.61
276.588	8738.92
276.657	8745.61
276.725	8736.47
276.794	8727.13
276.863	8739.02
276.931	8718.9
277	8723.47
277.068	8735.74
277.137	8756.44
277.205	8752.4
277.274	8767.31
277.342	8774.92
277.411	8755.86
277.48	8741.66
277.548	8735.31
277.617	8735.74
277.685	8727.37
277.754	8732.52
277.822	8719.57
277.89	8729.88
277.959	8717.17
278.027	8692.58
278.096	8682.9
278.164	8706.34
278.233	8706.3
278.301	8693.69
278.37	8696.72
278.438	8682.57
278.507	8676.84
278.575	8650.9
278.643	8646.57
278.712	8625.35
278.78	8608.79
278.849	8617.02
278.917	8625.29
278.985	8621.73
279.054	8621.93
279.122	8639.25
279.191	8628.23
279.259	8625.92
279.327	8601.71
279.396	8617.21
279.464	8616.68
279.532	8615.09
279.601	8611.43
279.669	8606.71
279.737	8615.47
279.806	8612.15
279.874	8625.92
279.942	8631.74
280.011	8626.35
280.079	8634.24
280.147	8653.59
280.215	8659.99
280.284	8658.11
280.352	8647.04
280.42	8656.96
280.488	8649.59
280.557	8633.33
280.625	8637.22
280.693	8634.24
280.761	8639.97
280.83	8626.93
280.898	8638.86
280.966	8624.52
281.034	8595.3
281.102	8581.88
281.171	8575.91
281.239	8585.68
281.307	8577.64
281.375	8560.46
281.443	8581.74
281.512	8578.03
281.58	8583.08
281.648	8568.31
281.716	8564.89
281.784	8564.41
281.852	8553.92
281.92	8549.97
281.989	8557.39
282.057	8542.08
282.125	8590.65
282.193	8584.83
282.261	8582.91
282.329	8576.22
282.397	8577.85
282.465	8579.54
282.533	8593.44
282.601	8582.18
282.67	8560.62
282.738	8551.81
282.806	8564.28
282.874	8553.11
282.942	8557.4
283.01	8556.77
283.078	8564.57
283.146	8560.96
283.214	8569.19
283.282	8572.46
283.35	8583.62
283.418	8584.11
283.486	8590.31
283.554	8543.57
283.622	8545.69
283.69	8544.39
283.758	8537.22
283.826	8544.77
283.894	8549.35
283.962	8568.65
284.03	8581.59
284.098	8583.56
284.165	8581.88
284.233	8580.53
284.301	8571
284.369	8558.3
284.437	8546.03
284.505	8545.64
284.573	8560.03
284.641	8545.35
284.709	8550.16
284.777	8530.34
284.845	8536.11
284.912	8536.21
284.98	8542.37
285.048	8537.56
285.116	8541.26
285.184	8556.13
285.252	8557.38
285.319	8541.98
285.387	8531.64
285.455	8518.26
285.523	8524.95
285.591	8520.86
285.659	8523.17
285.726	8534.23
285.794	8523.07
285.862	8519.56
285.93	8515.47
285.997	8511.76
286.065	8510.8
286.133	8499.06
286.201	8500.6
286.269	8487.03
286.336	8482.65
286.404	8476.92
286.472	8488.09
286.539	8466.87
286.607	8453.97
286.675	8457.05
286.743	8470.28
286.81	8465.61
286.878	8477.35
286.946	8467.06
287.013	8466.48
287.081	8465.52
287.149	8455.6
287.216	8473.94
287.284	8470.42
287.352	8468.4
287.419	8466.53
287.487	8477.74
287.555	8482.7
287.622	8483.03
287.69	8492.66
287.758	8504.69
287.825	8500.69
287.893	8484.48
287.96	8494.72
288.028	8501.46
288.096	8497.23
288.163	8504.45
288.231	8494.34
288.298	8492.94
288.366	8507.04
288.433	8507.19
288.501	8500.5
288.569	8499.2
288.636	8495.11
288.704	8504.78
288.771	8515.61
288.839	8506.8
288.906	8504.69
288.974	8514.41
289.041	8516
289.109	8497.23
289.176	8505.31
289.244	8506.37
289.311	8517.83
289.379	8528.22
289.446	8528.8
289.514	8528.46
289.581	8518.31
289.649	8520.71
289.716	8529.81
289.783	8525.77
289.851	8539.86
289.918	8539.48
289.986	8552.23
290.053	8554.98
290.121	8559.74
290.188	8562.44
290.255	8587.65
290.323	8581.68
290.39	8577.88
290.458	8582.17
290.525	8601.27
290.592	8594.29
290.66	8597.61
290.727	8597.47
290.794	8611.52
290.862	8614.26
290.929	8622.11
290.996	8626.2
291.064	8631.73
291.131	8636.64
291.198	8642.66
291.266	8642.61
291.333	8645.35
291.4	8653.78
291.468	8670
291.535	8659.7
291.602	8666.39
291.669	8665.14
291.737	8668.17
291.804	8670.24
291.871	8683.33
291.938	8689.1
292.006	8716.5
292.073	8728.67
292.14	8735.84
292.207	8730.84
292.275	8733
292.342	8742.39
292.409	8762.94
292.476	8791.82
292.543	8782.2
292.611	8788.7
292.678	8803.57
292.745	8828.5
292.812	8836.68
292.879	8830.81
292.946	8842.46
293.014	8843.85
293.081	8851.22
293.148	8855.79
293.215	8870.28
293.282	8869.85
293.349	8882.75
293.416	8862.77
293.484	8868.16
293.551	8881.11
293.618	8895.07
293.685	8924.39
293.752	8915.1
293.819	8917.02
293.886	8904.6
293.953	8916.44
294.02	8928.48
294.087	8936.13
294.154	8926.26
294.221	8941.62
294.288	8939.41
294.356	8954.52
294.423	8968.24
294.49	8967.09
294.557	8990.34
294.624	8977.77
294.691	8993.56
294.758	8991.78
294.825	9002.52
294.892	9001.36
294.959	8998.33
295.026	9008.97
295.093	8993.18
295.16	8993.56
295.226	8997.17
295.293	9012.14
295.36	9011.66
295.427	9017.92
295.494	9027.94
295.561	9041.08
295.628	9054.37
295.695	9076.95
295.762	9078.59
295.829	9089.13
295.896	9095
295.963	9101.65
296.03	9117.34
296.096	9121.29
296.163	9126.63
296.23	9143.97
296.297	9159.66
296.364	9158.55
296.431	9154.36
296.498	9151.48
296.564	9176.03
296.631	9174.92
296.698	9163.89
296.765	9184.93
296.832	9178.72
296.899	9168.8
296.965	9184.07
297.032	9167.79
297.099	9176.31
297.166	9183.3
297.233	9174
297.299	9168.76
297.366	9170.06
297.433	9170.59
297.5	9180.7
297.566	9186.81
297.633	9181.66
297.7	9186.23
297.767	9188.21
297.833	9201.26
297.9	9208.91
297.967	9198.66
298.033	9207.27
298.1	9243.39
298.167	9232.65
298.234	9236.31
298.3	9243.48
298.367	9235.2
298.434	9244.74
298.5	9244.21
298.567	9242.38
298.634	9243.44
298.7	9266.11
298.767	9269.48
298.834	9279.6
298.9	9274.64
298.967	9266.74
299.033	9281.67
299.1	9297.37
299.167	9311.28
299.233	9304.3
299.3	9318.07
299.366	9331.69
299.433	9348.69
299.5	9317.97
299.566	9328.03
299.633	9345.03
299.699	9352.54
299.766	9350.33
299.832	9350.86
299.899	9354.71
299.965	9364.39
300.032	9362.75
300.099	9363.43
300.165	9370.22
300.232	9369.4
300.298	9371.13
300.365	9384.61
300.431	9376.04
300.498	9364.15
300.564	9373.92
300.631	9390.92
300.697	9400.55
300.763	9403.06
300.83	9395.98
300.896	9409.07
300.963	9414.18
301.029	9413.31
301.096	9420.82
301.162	9431.95
301.229	9425.44
301.295	9416.83
301.361	9420.68
301.428	9426.17
301.494	9412.93
301.561	9418.13
301.627	9419.57
301.693	9421.11
301.76	9423.04
301.826	9423.81
301.892	9439.51
301.959	9445.05
302.025	9436.76
302.092	9430.69
302.158	9440.42
302.224	9446.44
302.291	9440.09
302.357	9440.42
302.423	9434.02
302.49	9424.97
302.556	9436.43
302.622	9439.85
302.688	9452.41
302.755	9462.14
302.821	9472.16
302.887	9484.87
302.954	9477.94
303.02	9486.6
303.086	9500.42
303.152	9499.32
303.219	9489.11
303.285	9492.09
303.351	9498.07
303.417	9499.03
303.483	9492.96
303.55	9477.51
303.616	9477.12
303.682	9478.76
303.748	9473.22
303.815	9490.75
303.881	9503.85
303.947	9492.53
304.013	9495.47
304.079	9483
304.145	9464.26
304.212	9461.47
304.278	9453.09
304.344	9453.91
304.41	9442.21
304.476	9423.96
304.542	9422.08
304.608	9428.96
304.674	9411.44
304.741	9407.58
304.807	9407.39
304.873	9411.63
304.939	9428.14
305.005	9406.72
305.071	9403.25
305.137	9405.51
305.203	9375.66
305.269	9374.5
305.335	9389.09
305.401	9386.64
305.467	9389.62
305.533	9399.16
305.599	9401.28
305.666	9410.04
305.732	9404.12
305.798	9414.85
305.864	9442.69
305.93	9446.25
305.996	9440.91
306.062	9442.88
306.128	9434.36
306.194	9422.99
306.259	9421.17
306.325	9410.04
306.391	9428.44
306.457	9439.13
306.523	9440.76
306.589	9472.74
306.655	9462.72
306.721	9436.96
306.787	9425.64
306.853	9437.1
306.919	9416.11
306.985	9408.94
307.051	9399.98
307.117	9394.92
307.183	9390.88
307.248	9356.35
307.314	9359.87
307.38	9361.89
307.446	9366.9
307.512	9360.73
307.578	9362.71
307.644	9361.6
307.709	9367.28
307.775	9362.51
307.841	9356.35
307.907	9356.93
307.973	9334.63
308.039	9333.96
308.104	9344.02
308.17	9346.28
308.236	9331.21
308.302	9340.45
308.368	9332.75
308.433	9333.47
308.499	9327.16
308.565	9312.72
308.631	9319.07
308.696	9295.91
308.762	9292.11
308.828	9284.65
308.894	9264.47
308.959	9247.86
309.025	9240.01
309.091	9233.8
309.156	9218.97
309.222	9217.43
309.288	9201.78
309.354	9178.96
309.419	9176.22
309.485	9161.39
309.551	9161.97
309.616	9150.56
309.682	9144.44
309.748	9135.92
309.813	9131.54
309.879	9120.75
309.945	9108.62
310.01	9098.7
310.076	9101.5
310.141	9093.12
310.207	9078.19
310.273	9078.58
310.338	9083.68
310.404	9063.46
310.469	9050.08
310.535	9043.68
310.601	9019.27
310.666	9028.85
310.732	9038.43
310.797	9020.66
310.863	9014.16
310.928	9009.01
310.994	9008.63
311.059	9004.39
311.125	9000.78
311.191	9005.02
311.256	8999.87
311.322	9008.39
311.387	8988.12
311.453	9319.7
311.518	9293.56
311.584	9293.66
311.649	9296.45
311.715	9284.17
311.78	9290.82
311.846	9278.69
311.911	9285.04
311.976	9286.15
312.042	9266.07
312.107	9252.88
312.173	9251.92
312.238	9238.97
312.304	9235.84
312.369	9227.13
312.434	9217.12
312.5	9208.55
312.565	9179.42
312.631	9183.76
312.696	9175.81
312.761	9178.51
312.827	8829.22
312.892	8871.44
312.958	8869.9
313.023	8868.26
313.088	8866.72
313.154	8854.16
313.219	8851.46
313.284	8836.92
313.35	8839.47
313.415	8826.62
313.48	8823.45
313.546	8823.49
313.611	8836.73
313.676	8822.58
313.741	8815.02
313.807	8822.82
313.872	8831.15
313.937	8841.45
314.003	8848.57
314.068	8843.81
314.133	8852.9
314.198	8848.04
314.264	8823.44
314.329	8815.11
314.394	8809.24
314.459	8805.63
314.525	8819.2
314.59	8814.97
314.655	8807.99
314.72	8812.27
314.785	8819.59
314.851	8810.73
314.916	8794.61
314.981	8776.46
315.046	8766.55
315.111	8751.58
315.176	8737.43
315.242	8733.48
315.307	8727.27
315.372	8708.45
315.437	8704.79
315.502	8698.92
315.567	8708.6
315.632	8695.51
315.698	8682.85
315.763	8680.54
315.828	8671.59
315.893	8668.79
315.958	8659.02
316.023	8652.53
316.088	8636.6
316.153	8613.93
316.218	8602.62
316.283	8578.33
316.348	8561.34
316.413	8558.16
316.479	8546.33
316.544	8511.3
316.609	8484.64
316.674	8447.98
316.739	8414.01
316.804	8377.25
316.869	8341.4
316.934	8301.56
316.999	8272.74
317.064	8230.27
317.129	8184.8
317.194	8151.37
317.259	8100.17
317.324	8048.57
317.389	8000.23
317.454	7950.97
317.518	7915.43
317.583	7890.17
317.648	7875.02
317.713	7838.81
317.778	7778.12
317.843	7749.65
317.908	7715.99
317.973	7674.44
318.038	7649.34
318.103	7610.07
318.168	7580.21
318.233	7552.71
318.297	7505.93
318.362	7471.12
318.427	7433.34
318.492	7408.34
318.557	7366.43
318.622	7335.33
318.687	7315.82
318.751	7277.9
318.816	7248.15
318.881	7217.4
318.946	7167.27
319.011	7117.77
319.075	7078.52
319.14	7043.74
319.205	6998
319.27	6963.03
319.335	6921.66
319.399	6881.6
319.464	6854.7
319.529	6800.66
319.594	6756.75
319.658	6728.08
319.723	6682.36
319.788	6651.67
319.853	6596.64
319.917	6559.86
319.982	6510.25
320.047	6472.99
320.112	6445.39
320.176	6396.57
320.241	6357.53
320.306	6325.08
320.37	6285.3
320.435	6252.66
320.5	6227.99
320.564	6192.95
320.629	6150.39
320.694	6116.47
320.758	6076.78
320.823	6035.33
320.888	6009.18
320.952	5956.27
321.017	5915.39
321.082	5873.76
321.146	5842.63
321.211	5808.29
321.275	5765.85
321.34	5721.84
321.405	5675.38
321.469	5627.96
321.534	5588.5
321.598	5539.89
321.663	5515
321.727	5483.75
321.792	5436.54
321.857	5390.42
321.921	5345.95
321.986	5303.79
322.05	5246.83
322.115	5209.06
322.179	5162.31
322.244	5110.81
322.308	5084.32
322.373	5035.37
322.437	4996.53
322.502	4963.85
322.566	4921.66
322.631	4890.78
322.695	4853.82
322.76	4810.26
322.824	4774.84
322.889	4732.77
322.953	4686.93
323.018	4615.56
323.082	4548.63
323.146	4499.55
323.211	4446.88
323.275	4404.97
323.34	4361.4
323.404	4327.02
323.468	4278.13
323.533	4237.68
323.597	4188.16
323.662	4135.08
323.726	4098.88
323.79	4052.61
323.855	3993.27
323.919	3944.23
323.983	3897.33
324.048	3832.95
324.112	3967.11
324.177	3840.94
324.241	3640.53
324.305	3446.48
324.37	3255.83
324.434	3074.54
324.498	3031.89
324.562	2986.81
324.627	2927.92
324.691	2875.2
324.755	2813.38
324.82	2739.24
324.884	2662.53
324.948	2596.24
325.012	2503.11
325.077	2385.57
