Data from 20250702_urea_0.5M_MAYP1162681_12-15-00-086.txt Node
Date: Wed Jul 02 12:15:00 BST 2025
User: adleo
Spectrometer: MAYP116268
Trigger mode: 0
Integration Time (sec): 1.000000E0
Scans to average: 1
Electric dark correction enabled: true
Nonlinearity correction enabled: true
Boxcar width: 10
XAxis mode: Wavelengths
Number of Pixels in Spectrum: 2068
>>>>>Begin Spectral Data<<<<<
179.565	1054.69
179.642	1101.73
179.718	1138.01
179.795	1171.03
179.871	1200.91
179.948	1213.78
180.024	1230.89
180.101	1250.13
180.177	1263
180.254	1280.96
180.33	1299.4
180.407	1340.97
180.483	1426.25
180.56	1503.31
180.636	1574.89
180.712	1564.3
180.789	1570
180.865	1579.97
180.942	1588.28
181.018	1595.83
181.095	1607.95
181.171	1611.7
181.248	1610.75
181.324	1623.87
181.4	1628.9
181.477	1636.27
181.553	1650.13
181.63	1668.38
181.706	1682.68
181.782	1688.52
181.859	1688.29
181.935	1694.6
182.011	1691.9
182.088	1704.25
182.164	1722.69
182.24	1736.99
182.317	1745.02
182.393	1743.26
182.469	1754.62
182.546	1767.64
182.622	1773.82
182.698	1769.68
182.775	1781.51
182.851	1795.68
182.927	1791.02
183.003	1788.78
183.08	1785.46
183.156	1792.4
183.232	1790.31
183.308	1780.28
183.385	1788.17
183.461	1803.13
183.537	1801.14
183.613	1812.83
183.69	1805.89
183.766	1794.86
183.842	1800.38
183.918	1807.31
183.995	1819.1
184.071	1820.76
184.147	1817.15
184.223	1808.27
184.299	1815.97
184.375	1806.46
184.452	1813.83
184.528	1863.37
184.604	1871.73
184.68	1880.95
184.756	1888.37
184.832	1892.13
184.908	1896.07
184.985	1896.07
185.061	1884.23
185.137	1894.79
185.213	1882.38
185.289	1883.76
185.365	1877.68
185.441	1877.68
185.517	1890.19
185.593	1887.76
185.669	1886.05
185.745	1893.42
185.822	1906.11
185.898	1900.12
185.974	1910.81
186.05	1900.25
186.126	1863.17
186.202	1858.7
186.278	1857.09
186.354	1845.92
186.43	1850.81
186.506	1849.96
186.582	1849.06
186.658	1857.28
186.734	1839.03
186.81	1842.35
186.886	1844.92
186.962	1857.23
187.038	1853.33
187.114	1844.53
187.19	1852.14
187.266	1842.78
187.341	1844.39
187.417	1837.98
187.493	1838.45
187.569	1838.69
187.645	1837.84
187.721	1826.81
187.797	1831.8
187.873	1831.7
187.949	1828.52
188.025	1823.72
188.101	1823.1
188.176	1827.95
188.252	1822.58
188.328	1830.56
188.404	1830.89
188.48	1826.8
188.556	1818.91
188.632	1817.44
188.707	1818.87
188.783	1814.63
188.859	1812.21
188.935	1803.23
189.011	1811.21
189.086	1808.03
189.162	1799.04
189.238	1795.58
189.314	1796.15
189.39	1793.01
189.465	1789.06
189.541	1805.75
189.617	1794.48
189.693	1794.58
189.768	1793.87
189.844	1814.6
189.92	1807.57
189.996	1815.5
190.071	1823.54
190.147	1825.1
190.223	1833.38
190.298	1827.15
190.374	1818.31
190.45	1829.66
190.526	1836.22
190.601	1830.42
190.677	1829.57
190.753	1856.2
190.828	1860.14
190.904	1872.12
190.98	1884.96
191.055	1896.04
191.131	1886.15
191.207	1903.31
191.282	1910.91
191.358	1905.87
191.433	1893.65
191.509	1903.58
191.585	1903.44
191.66	1903.96
191.736	1910.19
191.811	1901.82
191.887	1914.09
191.963	1931.54
192.038	1937.19
192.114	1938.76
192.189	1944.09
192.265	1942.99
192.34	1923.78
192.416	1920.4
192.491	1916.08
192.567	1918.5
192.642	1918.88
192.718	1920.17
192.793	1907.66
192.869	1902.44
192.944	1904.29
193.02	1908.81
193.095	1913.46
193.171	1915.98
193.246	1916.89
193.322	1912.89
193.397	1912.42
193.473	1899.01
193.548	1883.32
193.624	1888.84
193.699	1885.27
193.775	1898.07
193.85	1899.68
193.925	1906.43
194.001	1908
194.076	1902.44
194.152	1894.35
194.227	1887.27
194.302	1878.15
194.378	1884.28
194.453	1883.09
194.529	1895.83
194.604	1884.14
194.679	1877.2
194.755	1861.23
194.83	1871.26
194.905	1870.88
194.981	1878.06
195.056	1871.45
195.131	1878.11
195.207	1875.64
195.282	1866.8
195.357	1849.11
195.433	1860.61
195.508	1849.15
195.583	1853.81
195.659	1865.17
195.734	1870.02
195.809	1871.55
195.884	1879.86
195.96	1878.15
196.035	1890.6
196.11	1886.9
196.185	1898.35
196.261	1905.1
196.336	1932.82
196.411	1922.12
196.486	1925.35
196.561	1923.4
196.637	1935.05
196.712	1950.6
196.787	1952.22
196.862	1966
196.937	1977.65
197.013	1983.74
197.088	1996.33
197.163	2019.31
197.238	2036.11
197.313	2037.34
197.388	2047.28
197.464	2073.97
197.539	2084.86
197.614	2079.49
197.689	2089.43
197.764	2103.46
197.839	2121.15
197.914	2115.35
197.989	2132.47
198.065	2148.41
198.14	2191.48
198.215	2213.03
198.29	2222.93
198.365	2233.11
198.44	2245.67
198.515	2266.75
198.59	2278.17
198.665	2299.35
198.74	2301.59
198.815	2299.02
198.89	2316.81
198.965	2346.33
199.04	2342.19
199.115	2356.47
199.19	2395.92
199.265	2397.49
199.34	2407.39
199.415	2433.92
199.49	2453
199.565	2463.67
199.64	2482.33
199.715	2480.8
199.79	2486.61
199.865	2489.99
199.94	2492.13
200.015	2520.19
200.09	2526.57
200.165	2535.8
200.24	2539.76
200.315	2577.02
200.39	2592.36
200.464	2599.74
200.539	2599.12
200.614	2614.07
200.689	2632.65
200.764	2637.41
200.839	2655.07
200.914	2658.93
200.989	2650.21
201.063	2660.83
201.138	2645.7
201.213	2647.7
201.288	2632.22
201.363	2637.41
201.438	2640.93
201.512	2654.6
201.587	2636.07
201.662	2640.02
201.737	2649.88
201.812	2661.12
201.886	2632.9
201.961	2642.2
202.036	2633.72
202.111	2632.72
202.186	2608.44
202.26	2596.01
202.335	2578.05
202.41	2570.91
202.485	2557.82
202.559	2541.2
202.634	2518.15
202.709	2525.62
202.784	2507.72
202.858	2506.53
202.933	2490.82
203.008	2485.2
203.082	2466.82
203.157	2467.25
203.232	2429.23
203.306	2411.75
203.381	2381.7
203.456	2359.57
203.53	2338.61
203.605	2319.24
203.68	2296.39
203.754	2289.11
203.829	2273.78
203.904	2254.99
203.978	2247.51
204.053	2249.7
204.127	2238.67
204.202	2239.28
204.277	2226.48
204.351	2219.78
204.426	2213.25
204.5	2207.45
204.575	2177.67
204.65	2189.38
204.724	2179.57
204.799	2187.09
204.873	2184.23
204.948	2182.28
205.022	2171.2
205.097	2164.68
205.171	2175.81
205.246	2185.66
205.32	2185.04
205.395	2186.52
205.469	2181.48
205.544	2186.14
205.618	2168.63
205.693	2177.1
205.767	2165.26
205.842	2182.48
205.916	2179.58
205.991	2170.73
206.065	2173.11
206.14	2187.23
206.214	2182.71
206.289	2180.33
206.363	2192.99
206.438	2194.7
206.512	2202.79
206.586	2225.34
206.661	2233.24
206.735	2216.55
206.81	2218.12
206.884	2232.82
206.958	2222.83
207.033	2236.67
207.107	2246.33
207.181	2280.41
207.256	2280.7
207.33	2303.87
207.405	2321.21
207.479	2341.96
207.553	2354.57
207.628	2350.05
207.702	2365.85
207.776	2365.19
207.851	2377.99
207.925	2399.71
207.999	2406.9
208.073	2416.99
208.148	2430.85
208.222	2437.56
208.296	2482.83
208.371	2513.32
208.445	2545.76
208.519	2593.19
208.593	2629.92
208.668	2651.31
208.742	2678.92
208.816	2714.36
208.89	2759.84
208.965	2790.03
209.039	2833.27
209.113	2890.24
209.187	2951.33
209.261	2993.8
209.336	3061.42
209.41	3130.93
209.484	3183.9
209.558	3262.63
209.632	3337.26
209.707	3414.39
209.781	3503
209.855	3588.31
209.929	3676.72
210.003	3757.84
210.077	3840.26
210.151	3971.21
210.226	4091.76
210.3	4215.36
210.374	4332.65
210.448	4443.14
210.522	4559.91
210.596	4679.17
210.67	4803.22
210.744	4957.65
210.818	5108.19
210.892	5254.76
210.966	5384.9
211.041	5536.79
211.115	5675.77
211.189	5835.3
211.263	5995.41
211.337	6149.08
211.411	6314.67
211.485	6468.59
211.559	6644.43
211.633	6810.77
211.707	6947.29
211.781	7119.15
211.855	7258.09
211.929	7425.69
212.003	7584.88
212.077	7772.89
212.151	7973.68
212.225	8169.35
212.299	8350.9
212.373	8529.77
212.447	8721.32
212.52	8939.45
212.594	9143.85
212.668	9352.11
212.742	9548.66
212.816	9745.85
212.89	9948.17
212.964	10155.88
213.038	10370.29
213.112	10583.32
213.186	10813.08
213.26	11008.15
213.333	11183.07
213.407	11400.96
213.481	11615.63
213.555	11842.89
213.629	12050.76
213.703	12241.87
213.777	12449.61
213.85	12646.85
213.924	12895.9
213.998	13106.88
214.072	13308.47
214.146	13499.7
214.219	13703.6
214.293	13907.74
214.367	14118.34
214.441	14340.27
214.515	14538.34
214.588	14718.43
214.662	14894.18
214.736	15068.57
214.81	15273.29
214.883	15480.03
214.957	15665.36
215.031	15847.08
215.105	16011.16
215.178	16187.23
215.252	16375.87
215.326	16539.7
215.4	16700.92
215.473	16839.28
215.547	17001.56
215.621	17169.75
215.694	17348.02
215.768	17502.68
215.842	17660.7
215.915	17808.7
215.989	17940.89
216.063	18089.95
216.136	18248.84
216.21	18406.42
216.284	18580.25
216.357	18730.51
216.431	18876
216.504	19038.93
216.578	19210.92
216.652	19360.36
216.725	19497.03
216.799	19647.39
216.873	19788.11
216.946	19941.98
217.02	20068.73
217.093	20194.17
217.167	20311.71
217.24	20433.6
217.314	20549.93
217.387	20664.25
217.461	20784.73
217.535	20914.33
217.608	21019.16
217.682	21135.65
217.755	21261.78
217.829	21359.63
217.902	21472.56
217.976	21579.66
218.049	21662.47
218.123	21747.11
218.196	21845.63
218.27	21947.58
218.343	22018.25
218.417	22112.59
218.49	22196.03
218.563	22298.96
218.637	22388.09
218.71	22492.04
218.784	22587.98
218.857	22686.19
218.931	22773.54
219.004	22860.18
219.077	22941.81
219.151	23022.43
219.224	23091.96
219.298	23165.93
219.371	23247.03
219.444	23299.93
219.518	23371.87
219.591	23453.61
219.665	23548.38
219.738	23627.46
219.811	23678.67
219.885	23764.03
219.958	23833.82
220.031	23892.22
220.105	23958.2
220.178	24024.13
220.251	24067.11
220.325	24120.8
220.398	24177.14
220.471	24237.86
220.544	24292.95
220.618	24339.21
220.691	24392.7
220.764	24441.32
220.838	24483.29
220.911	24517.06
220.984	24577.31
221.057	24627.19
221.131	24668.54
221.204	24671.67
221.277	24714.8
221.35	24785.92
221.424	24807.44
221.497	24836.19
221.57	24862.82
221.643	24897.32
221.716	24931.1
221.79	24948.27
221.863	24965.21
221.936	24986.2
222.009	24996.57
222.082	25015.15
222.155	25025.28
222.229	25056.21
222.302	25083.47
222.375	25087.81
222.448	25105.91
222.521	25127.77
222.594	25132.69
222.667	25132.25
222.74	25167.91
222.814	25185.14
222.887	25182.92
222.96	25204.4
223.033	25224.04
223.106	25255.11
223.179	25266.45
223.252	25269.88
223.325	25287.54
223.398	25300.38
223.471	25314.28
223.544	25339.66
223.617	25352.69
223.69	25364.17
223.763	25357.99
223.837	25361.42
223.91	25378.07
223.983	25373.24
224.056	25354.57
224.129	25357.17
224.202	25361.42
224.275	25345.16
224.348	25322.28
224.42	25302.4
224.493	25269.73
224.566	25260.08
224.639	25247.63
224.712	25238.03
224.785	25233.3
224.858	25217.62
224.931	25198.8
225.004	25170.57
225.077	25149.19
225.15	25110.06
225.223	25096.93
225.296	25099.92
225.369	25068.32
225.442	25048.68
225.514	25036.67
225.587	25043.71
225.66	25032.8
225.733	25026.73
225.806	25018.57
225.879	25008.15
225.952	24988.85
226.025	24990.06
226.097	24978.47
226.17	24957.78
226.243	24910.64
226.316	24882.84
226.389	24877.54
226.461	24855.15
226.534	24849.99
226.607	24834.26
226.68	24842.22
226.753	24830.3
226.825	24798.74
226.898	24800.58
226.971	24778.34
227.044	24764.44
227.117	24736.27
227.189	24726.62
227.262	24712.87
227.335	24697.76
227.407	24680.35
227.48	24670.07
227.553	24656.23
227.626	24638.42
227.698	24618.98
227.771	24603.69
227.844	24575.04
227.916	24544.69
227.989	24524.05
228.062	24493.51
228.134	24479.09
228.207	24452.36
228.28	24421.29
228.352	24397.22
228.425	24374.64
228.498	24359.06
228.57	24323.9
228.643	24303.93
228.716	24271.95
228.788	24236.49
228.861	24203.45
228.934	24187.05
229.006	24161.48
229.079	24134.86
229.151	24096.27
229.224	24057.88
229.296	24046.4
229.369	24054.64
229.442	24044.56
229.514	24005.69
229.587	23991.9
229.659	23955.29
229.732	23929.87
229.804	23909.9
229.877	23910.92
229.949	23893.94
230.022	23890.95
230.094	23874.94
230.167	23863.75
230.239	23825.84
230.312	23804.23
230.384	23795.6
230.457	23772.89
230.529	23745.88
230.602	23729.48
230.674	23715.3
230.747	23704.65
230.819	23684.54
230.892	23627.05
230.964	23613.54
231.037	23601.97
231.109	23578.39
231.181	23562.72
231.254	23527.47
231.326	23494.68
231.399	23446.55
231.471	23406.67
231.544	23349.95
231.616	23324.78
231.688	23290.21
231.761	23260.12
231.833	23227.67
231.905	23179.16
231.978	23146.56
232.05	23119.61
232.122	23092.22
232.195	23054.17
232.267	23029.87
232.339	22991.73
232.412	22973.6
232.484	22930.3
232.556	22900.27
232.629	22886.14
232.701	22858.46
232.773	22835.17
232.846	22802.25
232.918	22781.46
232.99	22760.83
233.062	22747.96
233.135	22722.93
233.207	22677.71
233.279	22649.41
233.351	22622.22
233.424	22590.79
233.496	22551.74
233.568	22538.05
233.64	22486.03
233.713	22456.91
233.785	22425.96
233.857	22400.99
233.929	22365.12
234.001	22346.08
234.074	22329.11
234.146	22273.57
234.218	22243.1
234.29	22207.29
234.362	22167.42
234.434	22117.77
234.507	22073.52
234.579	22020.73
234.651	21980.34
234.723	21950.55
234.795	21926.01
234.867	21890.58
234.939	21869.57
235.012	21841.17
235.084	21806.03
235.156	21777.93
235.228	21734.5
235.3	21698.93
235.372	21660.61
235.444	21626.1
235.516	21564.88
235.588	21524.78
235.66	21498.56
235.732	21451.03
235.804	21470.89
235.876	21450.89
235.948	21437.1
236.02	21399.99
236.092	21373
236.164	21342.3
236.236	21303.79
236.308	21265.57
236.38	21234.96
236.452	21192.11
236.524	21155.34
236.596	21131.39
236.668	21102.18
236.74	21078.61
236.812	21041.45
236.884	21018.22
236.956	20986.94
237.028	20947.09
237.1	20901.06
237.172	20879.52
237.244	20870.46
237.316	20797.43
237.388	20762.16
237.46	20699.21
237.532	20673.38
237.604	20623.02
237.675	20597.91
237.747	20570.39
237.819	20528.22
237.891	20488.85
237.963	20443.45
238.035	20401.38
238.107	20321.77
238.178	20292.32
238.25	20246.49
238.322	20230.59
238.394	20169.91
238.466	20128.13
238.538	20098.78
238.609	20070.16
238.681	20009.1
238.753	19947.56
238.825	19907.22
238.897	19867.22
238.968	19855.56
239.04	19811.46
239.112	19799.66
239.184	19751.56
239.255	19711.03
239.327	19673.93
239.399	19632.34
239.471	19603.23
239.542	19572.1
239.614	19558.66
239.686	19498.76
239.758	19472.93
239.829	19420.79
239.901	19402.91
239.973	19371.39
240.044	19344.21
240.116	19312.21
240.188	19277.13
240.259	19240.8
240.331	19195.88
240.403	19159.31
240.474	19103.07
240.546	19055.22
240.618	19001
240.689	18948.33
240.761	18906.55
240.833	18890.36
240.904	18854.55
240.976	18812.82
241.048	18780.54
241.119	18748.3
241.191	18721.07
241.262	18699.38
241.334	18660.11
241.405	18618.23
241.477	18567.05
241.549	18516.84
241.62	18475.06
241.692	18444.6
241.763	18410.34
241.835	18374.39
241.906	18342.58
241.978	18298.35
242.049	18270.88
242.121	18241.43
242.192	18215.17
242.264	18175.46
242.335	18111.85
242.407	18079.61
242.478	18039.99
242.55	18005.25
242.621	17954.74
242.693	17924
242.764	17869.01
242.836	17834.41
242.907	17798.51
242.979	17768.58
243.05	17735.62
243.122	17697.93
243.193	17656.3
243.264	17613.45
243.336	17571.53
243.407	17538.75
243.479	17521.12
243.55	17496.3
243.622	17467.14
243.693	17437.94
243.764	17414.03
243.836	17373.4
243.907	17343.67
243.978	17313.45
244.05	17274.08
244.121	17224.44
244.192	17188.39
244.264	17139.09
244.335	17102.7
244.407	17059.04
244.478	17033.83
244.549	16993.97
244.62	16949.64
244.692	16916.09
244.763	16890.02
244.834	16860.96
244.906	16819.56
244.977	16785
245.048	16752.81
245.119	16700.18
245.191	16656.8
245.262	16601.23
245.333	16596.41
245.405	16553.57
245.476	16515.2
245.547	16483.1
245.618	16462.09
245.689	16428.5
245.761	16404.01
245.832	16363.62
245.903	16332.54
245.974	16295.18
246.045	16257.97
246.117	16233.1
246.188	16182.69
246.259	16136.8
246.33	16093.47
246.401	16057.08
246.473	16010.19
246.544	15976.26
246.615	15962.9
246.686	15922.46
246.757	15898.61
246.828	15843.61
246.899	15827.37
246.97	15782.59
247.042	15739.11
247.113	15710.63
247.184	15695.54
247.255	15657.56
247.326	15623.43
247.397	15589.11
247.468	15553.88
247.539	15530.4
247.61	15491.84
247.681	15476.32
247.752	15456.27
247.823	15410.62
247.894	15383.49
247.965	15349.79
248.037	15312.34
248.108	15267.32
248.179	15245.53
248.25	15221.29
248.321	15199.64
248.392	15155.35
248.463	15150.96
248.534	15129.51
248.605	15109.41
248.675	15070.46
248.746	15054.07
248.817	15038.75
248.888	15020.62
248.959	14980.42
249.03	14959.88
249.101	14936.12
249.172	14903.92
249.243	14857.98
249.314	14849.69
249.385	14820.62
249.456	14796.14
249.527	14762.06
249.598	14734.24
249.669	14703.39
249.739	14679.34
249.81	14658.17
249.881	14618.5
249.952	14590.78
250.023	14551.93
250.094	14511.58
250.165	14477.36
250.235	14436.77
250.306	14410.79
250.377	14365.04
250.448	14344.36
250.519	14294.23
250.59	14282.46
250.66	14247.9
250.731	14233.15
250.802	14209.72
250.873	14186.2
250.944	14154.14
251.014	14117.89
251.085	14114.27
251.156	14087.66
251.227	14068.29
251.297	14054.55
251.368	14041.53
251.439	14021.04
251.51	14010.2
251.58	13979.35
251.651	13946.95
251.722	13937.45
251.792	13891.27
251.863	13870.59
251.934	13859.36
252.005	13860.28
252.075	13831.5
252.146	13819.88
252.217	13803.59
252.287	13779.96
252.358	13749.26
252.429	13747.18
252.499	13726.7
252.57	13701.73
252.641	13686.44
252.711	13658.44
252.782	13613.36
252.852	13604.54
252.923	13575.71
252.994	13560.05
253.064	13550.55
253.135	13522.98
253.205	13488.36
253.276	13480.94
253.347	13471.68
253.417	13445.7
253.488	13417.4
253.558	13387.47
253.629	13354.78
253.699	13330.29
253.77	13312.12
253.841	13292.64
253.911	13268.2
253.982	13241.98
254.052	13227.18
254.123	13206.4
254.193	13184.28
254.264	13199.22
254.334	13163.02
254.405	13128.89
254.475	13091.29
254.546	13061.45
254.616	13051.32
254.687	13029.68
254.757	13009.91
254.827	12987.79
254.898	12962.86
254.968	12943.58
255.039	12917.98
255.109	12905.64
255.18	12880.14
255.25	12842.25
255.321	12827.84
255.391	12793.42
255.461	12797.52
255.532	12746.32
255.602	12723.23
255.673	12684.86
255.743	12654.49
255.813	12617.38
255.884	12605.23
255.954	12592.5
256.024	12587.78
256.095	12563.92
256.165	12535.04
256.235	12516.68
256.306	12489.44
256.376	12481.29
256.446	12462.25
256.517	12441.09
256.587	12432.7
256.657	12417.81
256.728	12401.13
256.798	12370.14
256.868	12341.89
256.938	12306.94
257.009	12302.17
257.079	12293.97
257.149	12300.67
257.219	12258.93
257.29	12247.94
257.36	12214.87
257.43	12203.5
257.5	12170.91
257.571	12146.86
257.641	12143.05
257.711	12116.35
257.781	12096.78
257.852	12081.98
257.922	12045.3
257.992	12029.1
258.062	12001.43
258.132	11986.68
258.202	11964.51
258.273	11951.06
258.343	11957.86
258.413	11938
258.483	11911.44
258.553	11871.82
258.623	11841.31
258.693	11829.4
258.764	11818.17
258.834	11814.85
258.904	11795.81
258.974	11763.47
259.044	11744.67
259.114	11723.22
259.184	11706.06
259.254	11682.59
259.324	11642.15
259.394	11633.96
259.464	11629.91
259.535	11616.66
259.605	11594.34
259.675	11565.62
259.745	11550.96
259.815	11522.82
259.885	11498.81
259.955	11506.14
260.025	11484.55
260.095	11468.31
260.165	11451.58
260.235	11445.7
260.305	11419.15
260.375	11387.67
260.445	11394.61
260.515	11398.71
260.585	11393.99
260.655	11373.89
260.725	11368.3
260.795	11356.88
260.865	11349.5
260.934	11328.1
261.004	11313.79
261.074	11292.54
261.144	11294.51
261.214	11294.22
261.284	11274.46
261.354	11265.12
261.424	11232.58
261.494	11234.37
261.564	11217.02
261.634	11205.26
261.703	11173.88
261.773	11156.58
261.843	11150.99
261.913	11127.96
261.983	11084.15
262.053	11068.58
262.123	11053.07
262.192	11019.72
262.262	11006.08
262.332	10975.53
262.402	10956.88
262.472	10941.17
262.541	10910.86
262.611	10907.59
262.681	10883.2
262.751	10871.54
262.821	10850.24
262.89	10830.92
262.96	10814.58
263.03	10816.89
263.1	10803.45
263.169	10787.4
263.239	10781.04
263.309	10776.22
263.379	10763.79
263.448	10758.44
263.518	10745.87
263.588	10724.42
263.657	10738.35
263.727	10738.88
263.797	10727.85
263.867	10716.09
263.936	10687.76
264.006	10681.78
264.076	10659.86
264.145	10637.64
264.215	10614.81
264.285	10612.44
264.354	10587.87
264.424	10564.99
264.494	10533.81
264.563	10515.89
264.633	10520.99
264.702	10511.65
264.772	10482.21
264.842	10467.7
264.911	10455.56
264.981	10427.81
265.05	10418.99
265.12	10396.97
265.19	10378.86
265.259	10369.41
265.329	10359.53
265.398	10347.11
265.468	10356.31
265.537	10336.12
265.607	10325.72
265.676	10321.38
265.746	10312.13
265.815	10301.29
265.885	10290.69
265.955	10270.31
266.024	10255.76
266.094	10224.16
266.163	10222.91
266.232	10220.74
266.302	10200.89
266.371	10191.21
266.441	10176.23
266.51	10174.3
266.58	10153.83
266.649	10135.86
266.719	10140.67
266.788	10127.62
266.858	10133.01
266.927	10105.17
266.996	10093.37
267.066	10081.66
267.135	10057.29
267.205	10051.12
267.274	10042.88
267.343	10041.53
267.413	10028.82
267.482	10026.7
267.552	10022.89
267.621	9996.98
267.69	9975.54
267.76	9969.13
267.829	9959.84
267.898	9947.46
267.968	9926.31
268.037	9918.85
268.106	9917.06
268.176	9884.6
268.245	9868.75
268.314	9848.9
268.384	9843.22
268.453	9834.16
268.522	9828.77
268.592	9827.9
268.661	9808.49
268.73	9804.06
268.799	9785.18
268.869	9787.35
268.938	9757.39
269.007	9735.04
269.076	9724.64
269.146	9717.36
269.215	9707.25
269.284	9711.34
269.353	9696.03
269.422	9675.71
269.492	9661.26
269.561	9619.6
269.63	9613.48
269.699	9596.63
269.768	9586.18
269.838	9575
269.907	9572.88
269.976	9544.52
270.045	9514.04
270.114	9509.94
270.183	9491.45
270.253	9482.88
270.322	9455.24
270.391	9446.23
270.46	9457.36
270.529	9448.54
270.598	9445.99
270.667	9430.82
270.736	9405.15
270.806	9400.67
270.875	9408.52
270.944	9397.21
271.013	9414.54
271.082	9412.95
271.151	9409.68
271.22	9383.34
271.289	9365.04
271.358	9346.36
271.427	9342.46
271.496	9337.69
271.565	9316.79
271.634	9304.66
271.703	9323.97
271.772	9324.6
271.841	9313.53
271.91	9292.48
271.979	9287.62
272.048	9269.08
272.117	9272.06
272.186	9260.75
272.255	9262.39
272.324	9260.17
272.393	9262.05
272.462	9247.94
272.531	9236.19
272.6	9225.07
272.669	9229.11
272.738	9225.31
272.807	9224.34
272.876	9207.01
272.945	9230.61
273.013	9228.01
273.082	9228.1
273.151	9190.35
273.22	9193.05
273.289	9185.25
273.358	9186.16
273.427	9174.12
273.496	9170.18
273.564	9162.52
273.633	9158.81
273.702	9134.21
273.771	9118.9
273.84	9102.68
273.909	9102.39
273.977	9093.82
274.046	9085.01
274.115	9084.38
274.184	9075.43
274.253	9067.19
274.322	9074.7
274.39	9048.56
274.459	9036.52
274.528	9014.57
274.597	9003.6
274.665	8995.22
274.734	8996.18
274.803	8984.48
274.872	8973.17
274.94	8952.28
275.009	9004.39
275.078	8991.2
275.147	8994.18
275.215	8986.63
275.284	8997.65
275.353	8980.9
275.421	8965.54
275.49	8971.41
275.559	8966.36
275.627	8962.75
275.696	8951.44
275.765	8947.88
275.833	8937.05
275.902	8939.21
275.971	8954.57
276.039	8965.54
276.108	8969.06
276.177	8968.82
276.245	8966.65
276.314	8963.81
276.383	8972.62
276.451	8911.41
276.52	8913.14
276.588	8920.94
276.657	8929.27
276.725	8915.31
276.794	8918.92
276.863	8926.28
276.931	8907.12
277	8911.22
277.068	8914.1
277.137	8930.13
277.205	8932.4
277.274	8949.68
277.342	8955.79
277.411	8932.35
277.48	8925.66
277.548	8915.12
277.617	8916.51
277.685	8904.96
277.754	8907.03
277.822	8903.28
277.89	8917.53
277.959	8911.08
278.027	8892.74
278.096	8882.39
278.164	8906.8
278.233	8902.32
278.301	8889.71
278.37	8896.78
278.438	8882.78
278.507	8883.4
278.575	8860.06
278.643	8849.23
278.712	8830.02
278.78	8815.05
278.849	8829.05
278.917	8834.2
278.985	8827.32
279.054	8824.96
279.122	8837.14
279.191	8832.28
279.259	8826.7
279.327	8806.57
279.396	8817.26
279.464	8814.32
279.532	8818.75
279.601	8815.43
279.669	8804.55
279.737	8814.32
279.806	8812.44
279.874	8821.93
279.942	8816.05
280.011	8813.94
280.079	8826.79
280.147	8845.51
280.215	8851.29
280.284	8845.42
280.352	8828.67
280.42	8835.07
280.488	8829.29
280.557	8826.12
280.625	8831.89
280.693	8829.87
280.761	8831.8
280.83	8822.41
280.898	8835.79
280.966	8819.47
281.034	8787.89
281.102	8775.72
281.171	8772.11
281.239	8783.57
281.307	8777.6
281.375	8771.39
281.443	8798.25
281.512	8791.12
281.58	8789.97
281.648	8775.43
281.716	8774.18
281.784	8774.47
281.852	8769.13
281.92	8770.76
281.989	8774.08
282.057	8765.28
282.125	8797.87
282.193	8792.86
282.261	8793.92
282.329	8787.86
282.397	8788.77
282.465	8794.21
282.533	8807.63
282.601	8800.03
282.67	8776.49
282.738	8768.31
282.806	8776.83
282.874	8756.08
282.942	8759.11
283.01	8754.11
283.078	8762.72
283.146	8760.7
283.214	8767.15
283.282	8763.73
283.35	8773.94
283.418	8767.15
283.486	8764.22
283.554	8731.38
283.622	8730.52
283.69	8724.41
283.758	8718.97
283.826	8726.72
283.894	8738.94
283.962	8760.7
284.03	8773.94
284.098	8780.58
284.165	8775.67
284.233	8773.36
284.301	8768.55
284.369	8762.19
284.437	8753.24
284.505	8739.57
284.573	8749.05
284.641	8747.56
284.709	8755.98
284.777	8740.48
284.845	8747.08
284.912	8755.21
284.98	8757.62
285.048	8750.16
285.116	8759.21
285.184	8771.87
285.252	8766.72
285.319	8749.24
285.387	8733.84
285.455	8719.59
285.523	8725.03
285.591	8724.79
285.659	8726.24
285.726	8735.77
285.794	8722.1
285.862	8718.68
285.93	8725.9
285.997	8722.58
286.065	8712.18
286.133	8709.63
286.201	8702.51
286.269	8693.17
286.336	8682.44
286.404	8679.31
286.472	8691.2
286.539	8666.6
286.607	8656.06
286.675	8656.59
286.743	8664.15
286.81	8665.74
286.878	8671.56
286.946	8664.34
287.013	8664.25
287.081	8661.31
287.149	8646.77
287.216	8665.02
287.284	8658.66
287.352	8655.82
287.419	8656.83
287.487	8669.11
287.555	8669.06
287.622	8669.44
287.69	8672.04
287.758	8684.12
287.825	8677.1
287.893	8665.69
287.96	8674.3
288.028	8677
288.096	8683.11
288.163	8681.72
288.231	8670.16
288.298	8674.02
288.366	8682.63
288.433	8680.8
288.501	8680.99
288.569	8688.89
288.636	8678.64
288.704	8691.1
288.771	8697.79
288.839	8688.79
288.906	8680.27
288.974	8686.87
289.041	8683.26
289.109	8674.98
289.176	8678.44
289.244	8684.65
289.311	8701.88
289.379	8715.02
289.446	8722.87
289.514	8722.96
289.581	8723.93
289.649	8727.44
289.716	8733.31
289.783	8729.65
289.851	8742.99
289.918	8738.85
289.986	8752.66
290.053	8760.22
290.121	8762.24
290.188	8766.14
290.255	8794.39
290.323	8796.61
290.39	8791.41
290.458	8803.39
290.525	8819.76
290.592	8817.88
290.66	8825.15
290.727	8814.56
290.794	8817.98
290.862	8815.14
290.929	8808.16
290.996	8811.04
291.064	8821.68
291.131	8824.96
291.198	8835.02
291.266	8838.43
291.333	8841.42
291.4	8842.57
291.468	8862.41
291.535	8860.39
291.602	8863.8
291.669	8854.66
291.737	8855.14
291.804	8856.48
291.871	8872.8
291.938	8875.6
292.006	8901.59
292.073	8909.2
292.14	8916.08
292.207	8919.84
292.275	8926.34
292.342	8942.03
292.409	8965.62
292.476	8989.79
292.543	8993.83
292.611	8998.12
292.678	9013.62
292.745	9039.13
292.812	9049.29
292.879	9043.8
292.946	9048.52
293.014	9061.23
293.081	9070.81
293.148	9085.01
293.215	9099.88
293.282	9092.13
293.349	9103.4
293.416	9086.45
293.484	9103.74
293.551	9122.75
293.618	9135.17
293.685	9153.04
293.752	9152.22
293.819	9151.25
293.886	9136.76
293.953	9133.15
294.02	9141.09
294.087	9144.42
294.154	9133.68
294.221	9146.44
294.288	9152.31
294.356	9168.35
294.423	9179.66
294.49	9178.55
294.557	9196.56
294.624	9191.55
294.691	9217.6
294.758	9218.52
294.825	9228.34
294.892	9217.17
294.959	9217.5
295.026	9227.33
295.093	9217.5
295.16	9213.12
295.226	9214.95
295.293	9241.29
295.36	9252.08
295.427	9261.71
295.494	9276.3
295.561	9289.59
295.628	9311.55
295.695	9327.49
295.762	9329.17
295.829	9335.67
295.896	9352
295.963	9358.93
296.03	9367.12
296.096	9366.44
296.163	9378.48
296.23	9393.89
296.297	9408.62
296.364	9408.14
296.431	9409.49
296.498	9413.82
296.564	9447.19
296.631	9453.93
296.698	9440.88
296.765	9457.16
296.832	9450.95
296.899	9443.05
296.965	9456.34
297.032	9436.16
297.099	9447.53
297.166	9457.49
297.233	9454.56
297.299	9445.65
297.366	9447
297.433	9452.63
297.5	9461.06
297.566	9467.94
297.633	9467.51
297.7	9471.8
297.767	9474.3
297.833	9483.02
297.9	9486.87
297.967	9466.26
298.033	9471.99
298.1	9503.34
298.167	9495.74
298.234	9500.31
298.3	9505.32
298.367	9506.86
298.434	9515.58
298.5	9502.91
298.567	9504.69
298.634	9504.88
298.7	9517.5
298.767	9523.67
298.834	9535.75
298.9	9529.44
298.967	9516.54
299.033	9522.12
299.1	9536.62
299.167	9551.84
299.233	9550.49
299.3	9563.64
299.366	9584.82
299.433	9601.78
299.5	9570.71
299.566	9574.08
299.633	9590.31
299.699	9599.42
299.766	9594.07
299.832	9598.84
299.899	9617.86
299.965	9624.17
300.032	9624.08
300.099	9631.59
300.165	9630.63
300.232	9627.35
300.298	9631.83
300.365	9643.24
300.431	9648.54
300.498	9639.29
300.564	9639.78
300.631	9644.5
300.697	9655.81
300.763	9654.56
300.83	9649.46
300.896	9666.6
300.963	9683.31
301.029	9691.79
301.096	9693.33
301.162	9704.55
301.229	9699.25
301.295	9681
301.361	9689.38
301.428	9694.44
301.494	9682.06
301.561	9685.67
301.627	9691.6
301.693	9693.04
301.76	9697.95
301.826	9689.96
301.892	9707.73
301.959	9721.26
302.025	9722.52
302.092	9717.8
302.158	9724.92
302.224	9723.96
302.291	9714.04
302.357	9707.92
302.423	9697.47
302.49	9695.93
302.556	9707.63
302.622	9707.25
302.688	9719.48
302.755	9732.54
302.821	9736.97
302.887	9746.26
302.954	9747.51
303.02	9757.1
303.086	9761.63
303.152	9759.22
303.219	9758.93
303.285	9756.23
303.351	9759.7
303.417	9760.52
303.483	9752.52
303.55	9748.82
303.616	9756.86
303.682	9751.51
303.748	9745.4
303.815	9759.08
303.881	9769.1
303.947	9755.85
304.013	9758.45
304.079	9751.56
304.145	9731.04
304.212	9734.13
304.278	9721.94
304.344	9721.32
304.41	9704.6
304.476	9700.51
304.542	9700.08
304.608	9708.84
304.674	9694.15
304.741	9684.61
304.807	9689.53
304.873	9689.19
304.939	9697.62
305.005	9674.93
305.071	9678.35
305.137	9675.9
305.203	9651.53
305.269	9648.68
305.335	9661.3
305.401	9659.52
305.467	9656.63
305.533	9660.49
305.599	9661.59
305.666	9673.44
305.732	9667.61
305.798	9677.05
305.864	9696.85
305.93	9695.84
305.996	9692.85
306.062	9696.22
306.128	9697.43
306.194	9688.61
306.259	9694.39
306.325	9686.64
306.391	9691.93
306.457	9705.52
306.523	9712.45
306.589	9737.21
306.655	9726.03
306.721	9704.79
306.787	9695.11
306.853	9704.79
306.919	9690.01
306.985	9676.09
307.051	9669.3
307.117	9664.1
307.183	9661.35
307.248	9632.74
307.314	9642.14
307.38	9635.63
307.446	9638.28
307.512	9620.9
307.578	9616.32
307.644	9609.53
307.709	9609.19
307.775	9609.77
307.841	9603.75
307.907	9598.74
307.973	9581.55
308.039	9581.4
308.104	9589.78
308.17	9581.79
308.236	9569.51
308.302	9570.62
308.368	9567.29
308.433	9571.82
308.499	9567
308.565	9551.3
308.631	9556.22
308.696	9529.2
308.762	9519.04
308.828	9512.83
308.894	9495.2
308.959	9470.26
309.025	9458.41
309.091	9450.13
309.156	9439.87
309.222	9441.9
309.288	9432.07
309.354	9410.4
309.419	9406.65
309.485	9389.65
309.551	9396.73
309.616	9382.86
309.682	9386.61
309.748	9375.15
309.813	9362.68
309.879	9354.01
309.945	9345.59
310.01	9337.21
310.076	9340.68
310.141	9337.11
310.207	9329.36
310.273	9338.99
310.338	9342.7
310.404	9329.26
310.469	9317.99
310.535	9307.88
310.601	9279.42
310.666	9281.64
310.732	9287.71
310.797	9274.56
310.863	9264.98
310.928	9258.48
310.994	9266.18
311.059	9252.31
311.125	9256.17
311.191	9270.85
311.256	9255.78
311.322	9259.4
311.387	9238.26
311.453	9545.46
311.518	9518.5
311.584	9508.24
311.649	9505.69
311.715	9505.21
311.78	9508.1
311.846	9499.05
311.911	9504.92
311.976	9504.49
312.042	9490.47
312.107	9475.21
312.173	9470.49
312.238	9460.77
312.304	9457.93
312.369	9440.84
312.434	9433.71
312.5	9423.65
312.565	9389.32
312.631	9392.4
312.696	9384.16
312.761	9390.47
312.827	9071.48
312.892	9110.62
312.958	9105.9
313.023	9103.88
313.088	9093.87
313.154	9081.98
313.219	9073.21
313.284	9056.8
313.35	9057.18
313.415	9042.88
313.48	9044.09
313.546	9041.34
313.611	9052.46
313.676	9039.42
313.741	9034.94
313.807	9039.95
313.872	9039.95
313.937	9040.57
314.003	9052.9
314.068	9051.55
314.133	9050.39
314.198	9042.93
314.264	9021.55
314.329	9015.97
314.394	9008.02
314.459	9004.61
314.525	9017.46
314.59	9010.14
314.655	9005.04
314.72	9000.85
314.785	9005.38
314.851	8995.99
314.916	8985.21
314.981	8968.74
315.046	8962.92
315.111	8948.77
315.176	8941.35
315.242	8945.83
315.307	8945.68
315.372	8922.19
315.437	8912.28
315.502	8908.57
315.567	8913.19
315.632	8894.61
315.698	8891.19
315.763	8887.92
315.828	8879.45
315.893	8879.74
315.958	8882.33
316.023	8872.23
316.088	8857.83
316.153	8834.2
316.218	8821.11
316.283	8793.73
316.348	8775.39
316.413	8771.16
316.479	8762.69
316.544	8722.41
316.609	8689.63
316.674	8655.12
316.739	8624.14
316.804	8588.91
316.869	8550.17
316.934	8506.76
316.999	8477.17
317.064	8428.67
317.129	8384.68
317.194	8352.3
317.259	8303.02
317.324	8246.59
317.389	8200.51
317.454	8162.26
317.518	8129.45
317.583	8101.4
317.648	8079.18
317.713	8040.17
317.778	7975.81
317.843	7936.56
317.908	7898.33
317.973	7853.98
318.038	7823.01
318.103	7786.37
318.168	7753.91
318.233	7719.43
318.297	7672.84
318.362	7633.89
318.427	7592.36
318.492	7561.25
318.557	7510.87
318.622	7470.48
318.687	7442.75
318.751	7403.63
318.816	7362.19
318.881	7324.55
318.946	7270
319.011	7220.06
319.075	7174.75
319.14	7134.3
319.205	7088.74
319.27	7050.88
319.335	7006.01
319.399	6961.61
319.464	6930.72
319.529	6878.74
319.594	6837.18
319.658	6801.5
319.723	6754.47
319.788	6724.22
319.853	6672.91
319.917	6642.52
319.982	6591.04
320.047	6555.36
320.112	6522.76
320.176	6472.63
320.241	6431.77
320.306	6396.44
320.37	6352.57
320.435	6325.11
320.5	6300.34
320.564	6259.6
320.629	6219.43
320.694	6186.51
320.758	6140.54
320.823	6092.26
320.888	6061.27
320.952	6009.74
321.017	5966.09
321.082	5925.6
321.146	5887.37
321.211	5850.58
321.275	5810.86
321.34	5765.6
321.405	5716.3
321.469	5666.82
321.534	5623.96
321.598	5576.4
321.663	5549.07
321.727	5516.28
321.792	5464.89
321.857	5416.42
321.921	5376.02
321.986	5329.64
322.05	5272.14
322.115	5234.82
322.179	5193.42
322.244	5135.27
322.308	5106.63
322.373	5061.41
322.437	5023.48
322.502	4995.06
322.566	4946.21
322.631	4903.02
322.695	4862.04
322.76	4817.9
322.824	4782.62
322.889	4741.42
322.953	4695.34
323.018	4624.78
323.082	4562.01
323.146	4509.43
323.211	4459.15
323.275	4413.89
323.34	4365.88
323.404	4330.25
323.468	4283.76
323.533	4233.45
323.597	4191.78
323.662	4134.3
323.726	4098.44
323.79	4046.48
323.855	3980.53
323.919	3929.68
323.983	3882.94
324.048	3821.43
324.112	3918.32
324.177	3785.68
324.241	3584.85
324.305	3389.94
324.37	3199.09
324.434	3015.56
324.498	2971.91
324.562	2919.39
324.627	2856.51
324.691	2804.07
324.755	2736.16
324.82	2658.94
324.884	2583
324.948	2506.34
325.012	2410.55
325.077	2284.4
