Data from 20250702_urea_0.5M_MAYP1162681_08-05-00-315.txt Node
Date: Thu Jul 03 08:05:00 BST 2025
User: adleo
Spectrometer: MAYP116268
Trigger mode: 0
Integration Time (sec): 1.000000E0
Scans to average: 1
Electric dark correction enabled: true
Nonlinearity correction enabled: true
Boxcar width: 10
XAxis mode: Wavelengths
Number of Pixels in Spectrum: 2068
>>>>>Begin Spectral Data<<<<<
179.565	1176.48
179.642	1228.52
179.718	1270.64
179.795	1304.82
179.871	1336.43
179.948	1355.99
180.024	1376.06
180.101	1398.84
180.177	1412.76
180.254	1437.06
180.33	1458.72
180.407	1510.42
180.483	1601.49
180.56	1690.28
180.636	1771.32
180.712	1757.82
180.789	1765.09
180.865	1776.87
180.942	1784.38
181.018	1796.93
181.095	1810.53
181.171	1815.04
181.248	1817.56
181.324	1833.3
181.4	1842.71
181.477	1851.41
181.553	1860.67
181.63	1881.97
181.706	1896.24
181.782	1904.74
181.859	1901.32
181.935	1907.17
182.011	1903.55
182.088	1922.72
182.164	1939.03
182.24	1954.1
182.317	1964.22
182.393	1963.56
182.469	1977.87
182.546	1989.94
182.622	1995.22
182.698	1987.99
182.775	1998.6
182.851	2011.48
182.927	2004.06
183.003	1998.31
183.08	1993.46
183.156	2004.3
183.232	1998.74
183.308	1986.19
183.385	1992.51
183.461	2010.01
183.537	2008.3
183.613	2020.85
183.69	2012.15
183.766	2002.49
183.842	2010.39
183.918	2017.24
183.995	2028.98
184.071	2033.26
184.147	2029.65
184.223	2016.95
184.299	2031.18
184.375	2022.76
184.452	2028.75
184.528	2076.84
184.604	2088.25
184.68	2099.33
184.756	2104.8
184.832	2110.08
184.908	2119.07
184.985	2120.02
185.061	2103.18
185.137	2114.88
185.213	2106.04
185.289	2107.75
185.365	2100.67
185.441	2098.14
185.517	2109.52
185.593	2107.52
185.669	2103.95
185.745	2113.42
185.822	2129.49
185.898	2121.02
185.974	2130.62
186.05	2124.53
186.126	2092.19
186.202	2087.2
186.278	2087.15
186.354	2078.97
186.43	2085.01
186.506	2081.45
186.582	2079.88
186.658	2088.15
186.734	2067.56
186.81	2067.65
186.886	2068.84
186.962	2082.92
187.038	2079.21
187.114	2067.88
187.19	2074.88
187.266	2061.9
187.341	2061.94
187.417	2052.91
187.493	2051.86
187.569	2052.91
187.645	2046.49
187.721	2033.17
187.797	2041.59
187.873	2045.82
187.949	2042.4
188.025	2035.69
188.101	2037.83
188.176	2043.49
188.252	2038.88
188.328	2045.15
188.404	2044.77
188.48	2040.78
188.556	2032.12
188.632	2032.45
188.707	2036.07
188.783	2030.64
188.859	2030.12
188.935	2020.85
189.011	2031.59
189.086	2027.46
189.162	2020.75
189.238	2018.66
189.314	2018.47
189.39	2012.43
189.465	2003.15
189.541	2017.33
189.617	2002.87
189.693	1997.79
189.768	1999.83
189.844	2024.24
189.92	2017.91
189.996	2026
190.071	2039.65
190.147	2041.12
190.223	2048.45
190.298	2041.89
190.374	2032.09
190.45	2042.55
190.526	2050.87
190.601	2045.17
190.677	2046.21
190.753	2071.81
190.828	2074.95
190.904	2090.89
190.98	2102.59
191.055	2114.34
191.131	2105.78
191.207	2128.7
191.282	2139.35
191.358	2131.12
191.433	2116.47
191.509	2127.88
191.585	2125.55
191.66	2122.88
191.736	2128.73
191.811	2120.41
191.887	2137.92
191.963	2159.37
192.038	2163.18
192.114	2164.32
192.189	2169.79
192.265	2165.18
192.34	2145.09
192.416	2144.86
192.491	2138.38
192.567	2143.14
192.642	2144.95
192.718	2144.71
192.793	2132.68
192.869	2129.01
192.944	2132.01
193.02	2138.2
193.095	2144.85
193.171	2152.47
193.246	2153.61
193.322	2151.85
193.397	2153.56
193.473	2139.19
193.548	2121.44
193.624	2130.96
193.699	2127.87
193.775	2142.29
193.85	2145.19
193.925	2152.66
194.001	2150.09
194.076	2142.86
194.152	2131.15
194.227	2122.68
194.302	2114.6
194.378	2116.84
194.453	2114.41
194.529	2125.4
194.604	2114.46
194.679	2106.56
194.755	2087.73
194.83	2098.01
194.905	2094.21
194.981	2101.67
195.056	2092.21
195.131	2100.06
195.207	2095.06
195.282	2085.83
195.357	2064.04
195.433	2077.17
195.508	2063.99
195.583	2073.7
195.659	2088.35
195.734	2095.72
195.809	2095.91
195.884	2104.38
195.96	2107.18
196.035	2122.26
196.11	2120.5
196.185	2129.73
196.261	2135.25
196.336	2163.65
196.411	2153.84
196.486	2160.12
196.561	2155.37
196.637	2165.4
196.712	2180.96
196.787	2183.63
196.862	2198.94
196.937	2210.41
197.013	2215.07
197.088	2229.06
197.163	2248.1
197.238	2265.67
197.313	2265.19
197.388	2276.09
197.464	2305.41
197.539	2315.02
197.614	2307.31
197.689	2320.88
197.764	2338.83
197.839	2356.96
197.914	2352.44
197.989	2370.81
198.065	2385.57
198.14	2433.77
198.215	2459.62
198.29	2470.72
198.365	2484.62
198.44	2495.66
198.515	2524.05
198.59	2539.81
198.665	2563.09
198.74	2571.71
198.815	2571.09
198.89	2594.47
198.965	2627.11
199.04	2623.06
199.115	2637.1
199.19	2677.77
199.265	2675.49
199.34	2687.16
199.415	2717.9
199.49	2738.05
199.565	2744.81
199.64	2768.54
199.715	2766.25
199.79	2771.73
199.865	2780.97
199.94	2779.5
200.015	2811.33
200.09	2811.9
200.165	2820
200.24	2827.06
200.315	2869.8
200.39	2884.86
200.464	2891.25
200.539	2892.44
200.614	2911.64
200.689	2934.76
200.764	2944.2
200.839	2965.4
200.914	2969.26
200.989	2961.58
201.063	2976.27
201.138	2962.79
201.213	2962.26
201.288	2940.29
201.363	2946.15
201.438	2944.01
201.512	2961.3
201.587	2942.71
201.662	2951.05
201.737	2960.59
201.812	2969.31
201.886	2935.2
201.961	2945.83
202.036	2929.02
202.111	2923.92
202.186	2894.09
202.26	2877.22
202.335	2854
202.41	2844.71
202.485	2826.03
202.559	2806.25
202.634	2778.57
202.709	2789.09
202.784	2773.42
202.858	2776.56
202.933	2759.83
203.008	2755.55
203.082	2735.63
203.157	2735.25
203.232	2691.77
203.306	2674.23
203.381	2643.26
203.456	2617.06
203.53	2593.55
203.605	2576.94
203.68	2556.46
203.754	2548.08
203.829	2536.36
203.904	2519.6
203.978	2511.26
204.053	2512.5
204.127	2504.36
204.202	2503.45
204.277	2484.79
204.351	2476.5
204.426	2468.22
204.5	2458.31
204.575	2423.85
204.65	2431.94
204.724	2423.23
204.799	2432.55
204.873	2427.79
204.948	2423.79
205.022	2414.51
205.097	2404.74
205.171	2420.64
205.246	2429.12
205.32	2431.83
205.395	2428.88
205.469	2418.7
205.544	2420.98
205.618	2407.65
205.693	2415.41
205.767	2401.61
205.842	2419.47
205.916	2408.95
205.991	2399.85
206.065	2405.28
206.14	2416.32
206.214	2413.22
206.289	2407.22
206.363	2422.03
206.438	2425.32
206.512	2434.27
206.586	2453.16
206.661	2461.36
206.735	2440.51
206.81	2441.13
206.884	2451.32
206.958	2436.52
207.033	2456.08
207.107	2463.27
207.181	2495.04
207.256	2491.04
207.33	2512.89
207.405	2530.43
207.479	2554.33
207.553	2562.66
207.628	2551
207.702	2564.81
207.776	2559.47
207.851	2565.14
207.925	2576.53
207.999	2576.19
208.073	2576.05
208.148	2583.63
208.222	2577
208.296	2612.57
208.371	2632.16
208.445	2649.36
208.519	2687.6
208.593	2704.13
208.668	2707.94
208.742	2718.05
208.816	2726.34
208.89	2746.83
208.965	2750.22
209.039	2768.53
209.113	2795.78
209.187	2827.17
209.261	2836.08
209.336	2871.68
209.41	2904.38
209.484	2924.07
209.558	2965.18
209.632	2994.97
209.707	3023.19
209.781	3063.53
209.855	3097.97
209.929	3139.27
210.003	3167.6
210.077	3191.83
210.151	3263.6
210.226	3325.41
210.3	3376.71
210.374	3430.66
210.448	3467.51
210.522	3507.9
210.596	3545.95
210.67	3590.49
210.744	3670.3
210.818	3738.7
210.892	3791.58
210.966	3823.19
211.041	3877.94
211.115	3913.44
211.189	3978.32
211.263	4036.47
211.337	4087.41
211.411	4148.99
211.485	4188.65
211.559	4248.15
211.633	4295.85
211.707	4315.23
211.781	4375.01
211.855	4395.73
211.929	4437.38
212.003	4469.74
212.077	4539.62
212.151	4613.95
212.225	4679.28
212.299	4729.87
212.373	4779.45
212.447	4837.21
212.52	4927.36
212.594	4992.31
212.668	5071.19
212.742	5123.35
212.816	5181.03
212.89	5243.26
212.964	5308.02
213.038	5377.58
213.112	5466.27
213.186	5554.26
213.26	5603.48
213.333	5631.81
213.407	5706.97
213.481	5783.61
213.555	5869.93
213.629	5929.57
213.703	5986.04
213.777	6058.98
213.85	6108.31
213.924	6217.27
213.998	6295.56
214.072	6368.4
214.146	6431.77
214.219	6498.99
214.293	6570.47
214.367	6645.71
214.441	6725.76
214.515	6790.13
214.588	6841.04
214.662	6868.85
214.736	6921.45
214.81	6999.68
214.883	7078.45
214.957	7142.68
215.031	7203.73
215.105	7256
215.178	7321.22
215.252	7384.28
215.326	7435.43
215.4	7491.03
215.473	7515.17
215.547	7564.41
215.621	7623.96
215.694	7696.77
215.768	7747.65
215.842	7805.06
215.915	7869.32
215.989	7913.86
216.063	7968.31
216.136	8031.52
216.21	8106.16
216.284	8185.73
216.357	8258.71
216.431	8323.38
216.504	8395.88
216.578	8495.69
216.652	8572.23
216.725	8639.18
216.799	8716.63
216.873	8782.71
216.946	8861.69
217.02	8925.07
217.093	8991.6
217.167	9032.66
217.24	9080.52
217.314	9145.22
217.387	9205.92
217.461	9260.96
217.535	9347.05
217.608	9403.77
217.682	9476.34
217.755	9550.21
217.829	9606.17
217.902	9671.39
217.976	9736.5
218.049	9793.14
218.123	9831.53
218.196	9903.68
218.27	9960.76
218.343	10006.67
218.417	10067.61
218.49	10120.4
218.563	10197.77
218.637	10265.8
218.71	10352.81
218.784	10425.36
218.857	10496.28
218.931	10564.12
219.004	10628.25
219.077	10689.93
219.151	10765.14
219.224	10825.86
219.298	10888.79
219.371	10963
219.444	11013.12
219.518	11080.01
219.591	11152.87
219.665	11246.32
219.738	11305.64
219.811	11358.08
219.885	11430.32
219.958	11506.95
220.031	11576.88
220.105	11644.02
220.178	11705.76
220.251	11755.31
220.325	11830.17
220.398	11896.49
220.471	11965.8
220.544	12037.96
220.618	12091.46
220.691	12151.66
220.764	12211.34
220.838	12282.82
220.911	12333.29
220.984	12422.03
221.057	12485.47
221.131	12546.64
221.204	12572.29
221.277	12648.3
221.35	12742.11
221.424	12801.07
221.497	12860.7
221.57	12919.22
221.643	12983.67
221.716	13045.28
221.79	13104.09
221.863	13153.79
221.936	13212.5
222.009	13273
222.082	13339.86
222.155	13398.58
222.229	13472.48
222.302	13532.25
222.375	13581.23
222.448	13650.65
222.521	13697.84
222.594	13750.34
222.667	13791.75
222.74	13861.41
222.814	13920.03
222.887	13963.75
222.96	14034.37
223.033	14095.88
223.106	14157.59
223.179	14213.7
223.252	14271.98
223.325	14333.1
223.398	14387.24
223.471	14439.25
223.544	14484.42
223.617	14533.92
223.69	14581.74
223.763	14621.22
223.837	14682.15
223.91	14736.14
223.983	14760.1
224.056	14788.3
224.129	14838.29
224.202	14893.97
224.275	14933.97
224.348	14956.34
224.42	14985.7
224.493	15001.7
224.566	15035.01
224.639	15078.63
224.712	15113
224.785	15149.1
224.858	15185.69
224.931	15224.49
225.004	15251.53
225.077	15293.33
225.15	15302.1
225.223	15347.26
225.296	15409.59
225.369	15429.25
225.442	15467.28
225.514	15517.51
225.587	15566.43
225.66	15614.68
225.733	15665.53
225.806	15714.02
225.879	15766.61
225.952	15801.89
226.025	15863.49
226.097	15917.18
226.17	15958.25
226.243	15978.59
226.316	16013.24
226.389	16062.17
226.461	16110.6
226.534	16162.32
226.607	16207.58
226.68	16282.72
226.753	16318.87
226.825	16331.16
226.898	16388.56
226.971	16417.1
227.044	16464.72
227.117	16512.14
227.189	16539.9
227.262	16587.18
227.335	16627.91
227.407	16650.95
227.48	16696.01
227.553	16734.76
227.626	16766.52
227.698	16803.39
227.771	16844.4
227.844	16877.71
227.916	16904.17
227.989	16920.99
228.062	16945.81
228.134	16997.66
228.207	17019.54
228.28	17045.86
228.352	17081.14
228.425	17107.88
228.498	17152.8
228.57	17161.57
228.643	17202.49
228.716	17239.02
228.788	17251.74
228.861	17276.95
228.934	17323.12
229.006	17354.39
229.079	17376.75
229.151	17388.32
229.224	17395.65
229.296	17427.69
229.369	17482.1
229.442	17526.25
229.514	17541.43
229.587	17579.84
229.659	17583.79
229.732	17611.84
229.804	17650.1
229.877	17690.2
229.949	17735.88
230.022	17780.22
230.094	17813.28
230.167	17838
230.239	17857.42
230.312	17891.64
230.384	17935.35
230.457	17967.49
230.529	17991.59
230.602	18010.43
230.674	18045.03
230.747	18091.73
230.819	18130.47
230.892	18123.53
230.964	18145.27
231.037	18182.76
231.109	18206.04
231.181	18236.16
231.254	18244.49
231.326	18259.38
231.399	18279.29
231.471	18283.96
231.544	18276.78
231.616	18314.03
231.688	18338.51
231.761	18354.61
231.833	18355.67
231.905	18349.26
231.978	18363.04
232.05	18375.04
232.122	18401.98
232.195	18416.24
232.267	18442.07
232.339	18450.94
232.412	18482.02
232.484	18484.24
232.556	18492.48
232.629	18526.7
232.701	18545.97
232.773	18563.42
232.846	18577.34
232.918	18588.43
232.99	18597.63
233.062	18620.09
233.135	18632.57
233.207	18628.04
233.279	18641.48
233.351	18665.48
233.424	18665.34
233.496	18664.66
233.568	18691.7
233.64	18676.86
233.713	18683.41
233.785	18677.96
233.857	18690.69
233.929	18674.98
234.001	18704.66
234.074	18719.45
234.146	18693.19
234.218	18696.32
234.29	18706.64
234.362	18692.56
234.434	18676.81
234.507	18668.37
234.579	18654.21
234.651	18640.42
234.723	18639.46
234.795	18645.34
234.867	18645.77
234.939	18667.41
235.012	18672.81
235.084	18681.77
235.156	18698.73
235.228	18699.46
235.3	18694.06
235.372	18685.87
235.444	18701.72
235.516	18669.77
235.588	18668.08
235.66	18673.05
235.732	18660.95
235.804	18700.61
235.876	18714.01
235.948	18727.12
236.02	18727.45
236.092	18723.26
236.164	18716.95
236.236	18704.47
236.308	18693.24
236.38	18674.98
236.452	18647.27
236.524	18631.36
236.596	18640.13
236.668	18636.18
236.74	18620.33
236.812	18609.97
236.884	18616.95
236.956	18606.69
237.028	18591.85
237.1	18568.96
237.172	18577.68
237.244	18584.91
237.316	18540.96
237.388	18522.5
237.46	18499.13
237.532	18499.61
237.604	18477.59
237.675	18487.66
237.747	18482.75
237.819	18460.72
237.891	18454.75
237.963	18437.11
238.035	18420.19
238.107	18361.45
238.178	18355.76
238.25	18339.91
238.322	18356.78
238.394	18318.22
238.466	18295.29
238.538	18282.56
238.609	18279.29
238.681	18228.93
238.753	18200.64
238.825	18181.17
238.897	18174.86
238.968	18172.45
239.04	18142.09
239.112	18153.51
239.184	18116.31
239.255	18098.86
239.327	18079.15
239.399	18063.2
239.471	18060.45
239.542	18047.34
239.614	18041.8
239.686	17992.65
239.758	17982.91
239.829	17942.53
239.901	17932.89
239.973	17913.42
240.044	17898.29
240.116	17869.91
240.188	17856.7
240.259	17833.57
240.331	17804.41
240.403	17783.69
240.474	17751.4
240.546	17723.55
240.618	17678.87
240.689	17656.66
240.761	17631.16
240.833	17630.1
240.904	17596.27
240.976	17564.9
241.048	17543.5
241.119	17521.19
241.191	17504.51
241.262	17489.77
241.334	17461.67
241.405	17429.67
241.477	17400.71
241.549	17374.44
241.62	17356.56
241.692	17335.41
241.763	17316.8
241.835	17289.72
241.906	17262.39
241.978	17222.73
242.049	17210.92
242.121	17196.75
242.192	17177.33
242.264	17137.04
242.335	17088.99
242.407	17073.86
242.478	17048.7
242.55	17016.84
242.621	16984.6
242.693	16953.9
242.764	16927.25
242.836	16893.71
242.907	16876.6
242.979	16857.42
243.05	16830.33
243.122	16803.49
243.193	16769.89
243.264	16718.66
243.336	16691.19
243.407	16666.66
243.479	16655
243.55	16624.25
243.622	16594.03
243.693	16561.59
243.764	16553.69
243.836	16522.99
243.907	16479.42
243.978	16445.05
244.05	16428.28
244.121	16380.56
244.192	16360.18
244.264	16307.64
244.335	16281.71
244.407	16232.79
244.478	16201.41
244.549	16172.11
244.62	16128.92
244.692	16103.19
244.763	16087.28
244.834	16054.46
244.906	16017.97
244.977	15990.93
245.048	15977.15
245.119	15942.3
245.191	15907.5
245.262	15847.35
245.333	15830.04
245.405	15807.73
245.476	15791.72
245.547	15763
245.618	15752.15
245.689	15724.77
245.761	15704.34
245.832	15672.57
245.903	15645.73
245.974	15620.18
246.045	15584.08
246.117	15573.57
246.188	15536.16
246.259	15497.8
246.33	15466.08
246.401	15438.03
246.473	15395.27
246.544	15358.74
246.615	15344.08
246.686	15306.29
246.757	15299.54
246.828	15256.16
246.899	15243.77
246.97	15193.31
247.042	15157.92
247.113	15128.57
247.184	15120.18
247.255	15091.94
247.326	15060.03
247.397	15034.38
247.468	15002.52
247.539	14978.03
247.61	14938.17
247.681	14918.64
247.752	14901.15
247.823	14860.61
247.894	14831.3
247.965	14798.33
248.037	14757.31
248.108	14708.96
248.179	14690.78
248.25	14659.93
248.321	14645.71
248.392	14603.39
248.463	14597.75
248.534	14562.42
248.605	14534.89
248.675	14503.17
248.746	14469.57
248.817	14454.63
248.888	14426.04
248.959	14383.77
249.03	14364.82
249.101	14334.94
249.172	14295.99
249.243	14247.06
249.314	14244.26
249.385	14216.74
249.456	14189.16
249.527	14165.3
249.598	14141.63
249.669	14114.2
249.739	14092.51
249.81	14068.5
249.881	14031
249.952	14003.67
250.023	13973.83
250.094	13938.06
250.165	13893.23
250.235	13867.43
250.306	13833.64
250.377	13803.18
250.448	13789.15
250.519	13740.94
250.59	13726.24
250.66	13700.21
250.731	13694.81
250.802	13659.91
250.873	13643.66
250.944	13619.32
251.014	13588.95
251.085	13591.5
251.156	13563.69
251.227	13543.34
251.297	13534.33
251.368	13523.53
251.439	13505.31
251.51	13498.8
251.58	13466.89
251.651	13438.54
251.722	13427.84
251.792	13390.43
251.863	13364.83
251.934	13359.39
252.005	13363.05
252.075	13336.44
252.146	13326.46
252.217	13316
252.287	13303.18
252.358	13276.76
252.429	13274.3
252.499	13246.1
252.57	13220.5
252.641	13209.22
252.711	13191.72
252.782	13152.44
252.852	13147.23
252.923	13125.54
252.994	13102.69
253.064	13088.66
253.135	13063.01
253.205	13031
253.276	13030.38
253.347	13026.71
253.417	12985.45
253.488	12957.35
253.558	12934.01
253.629	12916.18
253.699	12888.94
253.77	12873.32
253.841	12846.23
253.911	12827.09
253.982	12807.52
254.052	12792.67
254.123	12775.08
254.193	12752.08
254.264	12760.47
254.334	12726.78
254.405	12686.62
254.475	12647.82
254.546	12634.37
254.616	12625.64
254.687	12609.64
254.757	12587.08
254.827	12558.93
254.898	12544.8
254.968	12523.11
255.039	12498.67
255.109	12481.7
255.18	12451.72
255.25	12410.03
255.321	12396.34
255.391	12359.8
255.461	12358.69
255.532	12313.38
255.602	12286.96
255.673	12247.39
255.743	12217.55
255.813	12175.61
255.884	12168.77
255.954	12164.43
256.024	12161.01
256.095	12146.4
256.165	12114.78
256.235	12105
256.306	12080.85
256.376	12073.95
256.446	12060.65
256.517	12043.92
256.587	12026.57
256.657	12013.7
256.728	11995.05
256.798	11971.09
256.868	11953.21
256.938	11922.65
257.009	11909.44
257.079	11900.14
257.149	11910.84
257.219	11870.3
257.29	11860.04
257.36	11820.95
257.43	11808.95
257.5	11763.35
257.571	11735.78
257.641	11727.59
257.711	11693.61
257.781	11681.7
257.852	11665.02
257.922	11626.66
257.992	11605.69
258.062	11588.48
258.132	11575.9
258.202	11557.59
258.273	11544.91
258.343	11540.19
258.413	11520.24
258.483	11506.74
258.553	11472.23
258.623	11437.92
258.693	11427.89
258.764	11421.53
258.834	11427.6
258.904	11406.11
258.974	11383.75
259.044	11363.21
259.114	11351.17
259.184	11334.49
259.254	11317.57
259.324	11275.69
259.394	11267.02
259.464	11268.32
259.535	11249.86
259.605	11225.96
259.675	11199.79
259.745	11183.5
259.815	11156.17
259.885	11125.86
259.955	11130.83
260.025	11109.91
260.095	11099.5
260.165	11083.21
260.235	11084.18
260.305	11055.84
260.375	11030.93
260.445	11032.57
260.515	11027.17
260.585	11015.02
260.655	10998.11
260.725	10990.88
260.795	10991.03
260.865	10994.78
260.934	10969.15
261.004	10961
261.074	10941.73
261.144	10942.88
261.214	10938.88
261.284	10918.98
261.354	10922.5
261.424	10894.64
261.494	10898.55
261.564	10873.68
261.634	10872.96
261.703	10835.85
261.773	10821.83
261.843	10811.76
261.913	10787.33
261.983	10760.73
262.053	10754.08
262.123	10736.83
262.192	10711.54
262.262	10698.04
262.332	10666.82
262.402	10657.86
262.472	10638.97
262.541	10604.28
262.611	10596.47
262.681	10570.31
262.751	10566.5
262.821	10547.86
262.89	10526.41
262.96	10510.32
263.03	10517.07
263.1	10494.27
263.169	10475.05
263.239	10472.16
263.309	10472.02
263.379	10472.31
263.448	10457.9
263.518	10440.26
263.588	10430.48
263.657	10426.53
263.727	10426.05
263.797	10406.54
263.867	10381.58
263.936	10350.85
264.006	10354.36
264.076	10336.25
264.145	10317.56
264.215	10292.46
264.285	10289.81
264.354	10255.36
264.424	10230.26
264.494	10202.66
264.563	10185.79
264.633	10193.4
264.702	10175.53
264.772	10138.92
264.842	10116.61
264.911	10108.18
264.981	10082.94
265.05	10066.08
265.12	10046.47
265.19	10028.55
265.259	10022.48
265.329	10014.43
265.398	10006.39
265.468	10017.66
265.537	9998.64
265.607	9990.74
265.676	9989.97
265.746	9976.14
265.815	9971.28
265.885	9959.28
265.955	9931.64
266.024	9915.21
266.094	9880.14
266.163	9883.23
266.232	9891.85
266.302	9875.23
266.371	9864.25
266.441	9853.99
266.51	9855.24
266.58	9839.35
266.649	9814.35
266.719	9815.55
266.788	9815.94
266.858	9817.67
266.927	9780.92
266.996	9768.69
267.066	9760.02
267.135	9731.6
267.205	9724.04
267.274	9709.78
267.343	9715.13
267.413	9704.87
267.482	9702.8
267.552	9708.49
267.621	9674.19
267.69	9643.13
267.76	9634.17
267.829	9624.68
267.898	9610.57
267.968	9583.17
268.037	9579.41
268.106	9583.36
268.176	9556.2
268.245	9537.08
268.314	9520.56
268.384	9522
268.453	9519.07
268.522	9511.12
268.592	9513.53
268.661	9492.29
268.73	9488.58
268.799	9465.51
268.869	9475.14
268.938	9442.78
269.007	9425.5
269.076	9417.55
269.146	9412.78
269.215	9402.96
269.284	9406.14
269.353	9387.99
269.422	9371.47
269.492	9353.03
269.561	9306.71
269.63	9304.59
269.699	9284.22
269.768	9275.02
269.838	9263.71
269.907	9261.98
269.976	9238.77
270.045	9205.59
270.114	9196.21
270.183	9178.87
270.253	9169.87
270.322	9140.26
270.391	9135.49
270.46	9140.26
270.529	9146.95
270.598	9148.49
270.667	9145.32
270.736	9125.91
270.806	9123.5
270.875	9135.39
270.944	9123.17
271.013	9146.03
271.082	9132.79
271.151	9134.29
271.22	9105.88
271.289	9091.49
271.358	9074.3
271.427	9068.86
271.496	9063.23
271.565	9054.85
271.634	9051.77
271.703	9074.35
271.772	9075.56
271.841	9065.98
271.91	9039.69
271.979	9027.08
272.048	9009.12
272.117	9006.08
272.186	8990.82
272.255	8992.22
272.324	8979.22
272.393	8971.9
272.462	8957.51
272.531	8954.33
272.6	8942.63
272.669	8944.99
272.738	8936.9
272.807	8931.27
272.876	8910
272.945	8936.76
273.013	8937.1
273.082	8937.73
273.151	8896.56
273.22	8895.7
273.289	8892.23
273.358	8899.59
273.427	8885.87
273.496	8877.5
273.564	8874.61
273.633	8872.73
273.702	8850.98
273.771	8843.8
273.84	8839.18
273.909	8831.63
273.977	8828.64
274.046	8817.57
274.115	8821.37
274.184	8805.44
274.253	8797.79
274.322	8810.69
274.39	8776.75
274.459	8761.59
274.528	8739.11
274.597	8729.39
274.665	8724.77
274.734	8728.43
274.803	8712.93
274.872	8703.26
274.94	8691.95
275.009	8736.92
275.078	8729.22
275.147	8726.82
275.215	8722.05
275.284	8731.29
275.353	8722.15
275.421	8696.69
275.49	8710.55
275.559	8702.56
275.627	8695.68
275.696	8686.54
275.765	8678.35
275.833	8667.29
275.902	8668.44
275.971	8672.87
276.039	8684.23
276.108	8685.91
276.177	8683.31
276.245	8677.15
276.314	8674.51
276.383	8680.33
276.451	8618.26
276.52	8616.58
276.588	8632.94
276.657	8639.01
276.725	8629.19
276.794	8633.86
276.863	8648.54
276.931	8628.22
277	8634.87
277.068	8642.23
277.137	8659.51
277.205	8655.13
277.274	8682.8
277.342	8686.51
277.411	8669.52
277.48	8656.29
277.548	8640.07
277.617	8638
277.685	8632.85
277.754	8637.28
277.822	8626.5
277.89	8636.27
277.959	8627.99
278.027	8597.62
278.096	8584.82
278.164	8608.31
278.233	8593.2
278.301	8578.81
278.37	8582.61
278.438	8567.11
278.507	8570.63
278.575	8541.13
278.643	8539.3
278.712	8513.89
278.78	8504.69
278.849	8518.99
278.917	8530.15
278.985	8528.08
279.054	8527.89
279.122	8537.03
279.191	8534.14
279.259	8528.32
279.327	8511.91
279.396	8524.33
279.464	8529.33
279.532	8537.27
279.601	8530.15
279.669	8530.63
279.737	8541.6
279.806	8545.31
279.874	8557
279.942	8556.52
280.011	8558.92
280.079	8566
280.147	8589
280.215	8591.41
280.284	8583.37
280.352	8568.89
280.42	8574.52
280.488	8569.13
280.557	8560.51
280.625	8561.62
280.693	8563.93
280.761	8565.23
280.83	8552.04
280.898	8563.59
280.966	8541.6
281.034	8511.91
281.102	8496.41
281.171	8493.14
281.239	8498.1
281.307	8484.24
281.375	8467.54
281.443	8491.03
281.512	8488.09
281.58	8487.03
281.648	8472.45
281.716	8473.9
281.784	8479.48
281.852	8475
281.92	8468.17
281.989	8481.4
282.057	8469.57
282.125	8521.26
282.193	8519.15
282.261	8518.81
282.329	8512.7
282.397	8518.18
282.465	8520.88
282.533	8540.75
282.601	8533.53
282.67	8515.63
282.738	8514.18
282.806	8529.15
282.874	8515.86
282.942	8523.52
283.01	8516.44
283.078	8523.66
283.146	8525.78
283.214	8532.75
283.282	8533.76
283.35	8552.2
283.418	8543.78
283.486	8544.74
283.554	8493.14
283.622	8492.75
283.69	8491.4
283.758	8484.86
283.826	8488.9
283.894	8497.95
283.962	8514.99
284.03	8523.46
284.098	8517.87
284.165	8505.65
284.233	8504.88
284.301	8497.18
284.369	8482.79
284.437	8478.32
284.505	8472.4
284.573	8484.53
284.641	8473.07
284.709	8485.59
284.777	8461.33
284.845	8468.07
284.912	8470.67
284.98	8482.65
285.048	8477.55
285.116	8487.32
285.184	8505.17
285.252	8508.54
285.319	8495.98
285.387	8485.2
285.455	8466.58
285.523	8478.75
285.591	8483.76
285.659	8483.37
285.726	8488.86
285.794	8476.73
285.862	8473.22
285.93	8473.41
285.997	8465.23
286.065	8460.56
286.133	8448.63
286.201	8445.84
286.269	8431.45
286.336	8426.69
286.404	8411.38
286.472	8417.78
286.539	8392.86
286.607	8373.66
286.675	8373.32
286.743	8385.5
286.81	8378.42
286.878	8396.61
286.946	8384.92
287.013	8378.71
287.081	8377.89
287.149	8367.45
287.216	8388.96
287.284	8386.07
287.352	8385.21
287.419	8386.46
287.487	8401.86
287.555	8406.57
287.622	8414.27
287.69	8423.56
287.758	8432.22
287.825	8430.15
287.893	8421.63
287.96	8427.31
288.028	8436.02
288.096	8434.82
288.163	8435.44
288.231	8427.17
288.298	8425.19
288.366	8436.02
288.433	8434.91
288.501	8431.69
288.569	8438.18
288.636	8432.22
288.704	8443.33
288.771	8449.69
288.839	8437.22
288.906	8421.01
288.974	8425.77
289.041	8420.96
289.109	8409.31
289.176	8419.32
289.244	8426.73
289.311	8441.03
289.379	8454.16
289.446	8457.63
289.514	8458.59
289.581	8457.48
289.649	8462.73
289.716	8459.07
289.783	8453.25
289.851	8476.97
289.918	8473.55
289.986	8484.67
290.053	8486.93
290.121	8486.98
290.188	8492.42
290.255	8521.92
290.323	8523.99
290.39	8519.65
290.458	8520.57
290.525	8540.25
290.592	8530.77
290.66	8530.62
290.727	8523.21
290.794	8533.18
290.862	8535.92
290.929	8535.92
290.996	8526.49
291.064	8535.34
291.131	8554.06
291.198	8568.36
291.266	8564.27
291.333	8567.54
291.4	8572.21
291.468	8587.32
291.535	8577.17
291.602	8581.06
291.669	8572.4
291.737	8581.06
291.804	8583.66
291.871	8608.78
291.938	8604.83
292.006	8637.52
292.073	8651.43
292.14	8665.72
292.207	8661.39
292.275	8658.74
292.342	8669.71
292.409	8699.55
292.476	8723.53
292.543	8711.21
292.611	8719.58
292.678	8737.92
292.745	8762.61
292.812	8772.23
292.879	8770.69
292.946	8786.09
293.014	8800.44
293.081	8808
293.148	8822.1
293.215	8831.1
293.282	8821.52
293.349	8829.51
293.416	8810.73
293.484	8824.79
293.551	8832.54
293.618	8849.82
293.685	8872.2
293.752	8866.23
293.819	8861.08
293.886	8849
293.953	8858.96
294.02	8860.94
294.087	8867.77
294.154	8859.54
294.221	8874.22
294.288	8873.26
294.356	8885.97
294.423	8894.68
294.49	8889.87
294.557	8901.18
294.624	8900.12
294.691	8921.59
294.758	8926.45
294.825	8930.88
294.892	8922.6
294.959	8922.99
295.026	8926.26
295.093	8926.21
295.16	8929.54
295.226	8940.61
295.293	8958.57
295.36	8963.76
295.427	8974.4
295.494	8984.71
295.561	8996.74
295.628	9015.91
295.695	9032.08
295.762	9036.51
295.829	9045.76
295.896	9059.09
295.963	9068.43
296.03	9079.45
296.096	9077.67
296.163	9095.73
296.23	9105.98
296.297	9116.91
296.364	9122.3
296.431	9134.63
296.498	9132.46
296.564	9158.21
296.631	9147.82
296.698	9138.86
296.765	9159.75
296.832	9153.69
296.899	9140.02
296.965	9152.49
297.032	9128.17
297.099	9143.62
297.166	9148.97
297.233	9139.77
297.299	9134.48
297.366	9135.58
297.433	9131.44
297.5	9144.49
297.566	9142.37
297.633	9148.44
297.7	9153.78
297.767	9146.66
297.833	9148.3
297.9	9149.6
297.967	9132.26
298.033	9153.06
298.1	9181.14
298.167	9171.31
298.234	9177.14
298.3	9189.85
298.367	9193.8
298.434	9208
298.5	9198.27
298.567	9195.1
298.634	9191.53
298.7	9209.06
298.767	9208.14
298.834	9228.51
298.9	9219.89
298.967	9210.07
299.033	9218.93
299.1	9229.43
299.167	9244.4
299.233	9241.8
299.3	9248.35
299.366	9270.2
299.433	9283.16
299.5	9260.48
299.566	9263.03
299.633	9278.15
299.699	9286.48
299.766	9284.22
299.832	9284.94
299.899	9298.32
299.965	9310.51
300.032	9309.74
300.099	9315.27
300.165	9327.65
300.232	9322.88
300.298	9330.83
300.365	9349.46
300.431	9352.78
300.498	9354.04
300.564	9366.99
300.631	9379.8
300.697	9398.63
300.763	9397.42
300.83	9394
300.896	9406.14
300.963	9415.86
301.029	9421.4
301.096	9426.7
301.162	9433.73
301.229	9427.18
301.295	9412.59
301.361	9420.2
301.428	9425.4
301.494	9413.84
301.561	9406.91
301.627	9409.41
301.693	9410.61
301.76	9413.36
301.826	9405.85
301.892	9411.29
301.959	9416.06
302.025	9410.37
302.092	9403.87
302.158	9406.62
302.224	9412.59
302.291	9403.63
302.357	9397.76
302.423	9390.58
302.49	9379.6
302.556	9394.2
302.622	9395.4
302.688	9411.63
302.755	9420.63
302.821	9425.79
302.887	9437.34
302.954	9443.02
303.02	9452.56
303.086	9457.76
303.152	9450.25
303.219	9449.04
303.285	9453.86
303.351	9460.27
303.417	9462.05
303.483	9454.78
303.55	9449.91
303.616	9448.47
303.682	9446.11
303.748	9448.76
303.815	9464.22
303.881	9475.05
303.947	9462.14
304.013	9459.35
304.079	9446.64
304.145	9423.33
304.212	9418.95
304.278	9406.91
304.344	9401.71
304.41	9386.88
304.476	9379.32
304.542	9377.49
304.608	9381.87
304.674	9365.21
304.741	9354.76
304.807	9358.32
304.873	9362.9
304.939	9378.69
305.005	9355
305.071	9351.92
305.137	9345.76
305.203	9320.38
305.269	9319.32
305.335	9323.89
305.401	9325.82
305.467	9326.64
305.533	9343.64
305.599	9360.01
305.666	9371.61
305.732	9370.99
305.798	9381.15
305.864	9407.01
305.93	9411.39
305.996	9409.13
306.062	9409.9
306.128	9406.72
306.194	9394.05
306.259	9397.38
306.325	9387.22
306.391	9398.29
306.457	9412.64
306.523	9418.32
306.589	9445.29
306.655	9436.96
306.721	9427.04
306.787	9415
306.853	9433.83
306.919	9415.1
306.985	9403.35
307.051	9398.15
307.117	9394.39
307.183	9393.28
307.248	9362.03
307.314	9365.93
307.38	9368.15
307.446	9376.09
307.512	9366.17
307.578	9370.75
307.644	9358.9
307.709	9360.25
307.775	9359.43
307.841	9351.73
307.907	9351.1
307.973	9326.68
308.039	9327.84
308.104	9328.47
308.17	9335.45
308.236	9316.18
308.302	9313.73
308.368	9307.95
308.433	9303.91
308.499	9294.66
308.565	9281.23
308.631	9287.82
308.696	9265
308.762	9248.92
308.828	9247.96
308.894	9233.61
308.959	9208.96
309.025	9202.65
309.091	9198.32
309.156	9190.57
309.222	9196.06
309.288	9185.42
309.354	9163.61
309.419	9163.51
309.485	9149.4
309.551	9153.45
309.616	9136.65
309.682	9137.51
309.748	9128.99
309.813	9122.39
309.879	9117.77
309.945	9101.55
310.01	9091.92
310.076	9093.36
310.141	9095.19
310.207	9075.45
310.273	9077.96
310.338	9084.79
310.404	9072.52
310.469	9060.96
310.535	9049.07
310.601	9020.14
310.666	9026.3
310.732	9043.44
310.797	9025.62
310.863	9016.14
310.928	9003.04
310.994	9009.88
311.059	9001.02
311.125	9002.9
311.191	9014.5
311.256	9003.33
311.322	9013.87
311.387	8993.03
311.453	9340.89
311.518	9310.76
311.584	9309.51
311.649	9313.7
311.715	9300.51
311.78	9304.65
311.846	9289.44
311.911	9294.64
311.976	9302.48
312.042	9282.41
312.107	9262.91
312.173	9255.45
312.238	9244.72
312.304	9240.19
312.369	9231.48
312.434	9220.79
312.5	9205.05
312.565	9172.7
312.631	9181.37
312.696	9174.29
312.761	9182.62
312.827	8824.4
312.892	8861.71
312.958	8860.75
313.023	8860.27
313.088	8863.97
313.154	8846.6
313.219	8838.94
313.284	8827.78
313.35	8820.03
313.415	8814.25
313.48	8807.99
313.546	8813.39
313.611	8827.68
313.676	8818.05
313.741	8803.18
313.807	8810.93
313.872	8813.77
313.937	8823.3
314.003	8826.72
314.068	8827.54
314.133	8828.6
314.198	8818.2
314.264	8798.89
314.329	8789.07
314.394	8784.26
314.459	8778.39
314.525	8797.3
314.59	8796
314.655	8788.74
314.72	8794.22
314.785	8797.79
314.851	8790.66
314.916	8774.39
314.981	8758.94
315.046	8746.82
315.111	8746.19
315.176	8733.34
315.242	8737.72
315.307	8734.4
315.372	8713.46
315.437	8703.93
315.502	8699.45
315.567	8711.68
315.632	8695.89
315.698	8697.43
315.763	8684.39
315.828	8675.77
315.893	8671.73
315.958	8670.38
316.023	8663.88
316.088	8649.25
316.153	8629.71
316.218	8622.79
316.283	8602.14
316.348	8585.01
316.413	8588.33
316.479	8571.16
316.544	8539.59
316.609	8504.99
316.674	8468.47
316.739	8437.15
316.804	8403.18
316.869	8362.14
316.934	8326.87
316.999	8298.63
317.064	8247.53
317.129	8205.73
317.194	8172.1
317.259	8122.93
317.324	8069.35
317.389	8024.18
317.454	7984.97
317.518	7947.6
317.583	7926.92
317.648	7906.52
317.713	7872.09
317.778	7811.15
317.843	7777.68
317.908	7741.38
317.973	7711.42
318.038	7685.55
318.103	7649.49
318.168	7616.41
318.233	7590.49
318.297	7542.94
318.362	7505.3
318.427	7464.88
318.492	7445.02
318.557	7398.88
318.622	7371.91
318.687	7355.14
318.751	7312.9
318.816	7277.86
318.881	7249.46
318.946	7191.02
319.011	7145.26
319.075	7105.57
319.14	7071.66
319.205	7028.7
319.27	6997.09
319.335	6953.66
319.399	6911.28
319.464	6883.9
319.529	6832.65
319.594	6795.13
319.658	6758.15
319.723	6720.45
319.788	6698.31
319.853	6643.17
319.917	6614.17
319.982	6561.1
320.047	6516.21
320.112	6492.49
320.176	6441.55
320.241	6404.29
320.306	6375.49
320.37	6333.34
320.435	6301.28
320.5	6271.23
320.564	6232.79
320.629	6189.51
320.694	6154.47
320.758	6112.68
320.823	6065.99
320.888	6037.16
320.952	5983.57
321.017	5945.91
321.082	5904.66
321.146	5867.43
321.211	5832.27
321.275	5792.8
321.34	5748.55
321.405	5708.7
321.469	5660.89
321.534	5619.14
321.598	5566.93
321.663	5537.34
321.727	5504.45
321.792	5455.41
321.857	5411.5
321.921	5374.84
321.986	5332.87
322.05	5275.71
322.115	5243.74
322.179	5202.69
322.244	5150.91
322.308	5121.25
322.373	5076.8
322.437	5035.32
322.502	5010.21
322.566	4970.17
322.631	4936.93
322.695	4899.3
322.76	4854.45
322.824	4823.75
322.889	4786.71
322.953	4744.31
323.018	4678.54
323.082	4617.82
323.146	4568.83
323.211	4520.89
323.275	4477.39
323.34	4432.91
323.404	4402.73
323.468	4355.03
323.533	4308.26
323.597	4265.82
323.662	4216.6
323.726	4185.09
323.79	4141.92
323.855	4074.52
323.919	4026.76
323.983	3980.1
324.048	3917.38
324.112	4065.83
324.177	3937.9
324.241	3732.53
324.305	3533.56
324.37	3340.27
324.434	3153.49
324.498	3113.06
324.562	3065.48
324.627	3006.03
324.691	2956.41
324.755	2891.11
324.82	2817.45
324.884	2749.17
324.948	2680.81
325.012	2586.58
325.077	2461.92
