Data from 20250702_urea_0.5M_MAYP1162681_07-14-59-534.txt Node
Date: Thu Jul 03 07:14:59 BST 2025
User: adleo
Spectrometer: MAYP116268
Trigger mode: 0
Integration Time (sec): 1.000000E0
Scans to average: 1
Electric dark correction enabled: true
Nonlinearity correction enabled: true
Boxcar width: 10
XAxis mode: Wavelengths
Number of Pixels in Spectrum: 2068
>>>>>Begin Spectral Data<<<<<
179.565	1188.6
179.642	1243.57
179.718	1284.63
179.795	1321.18
179.871	1353.72
179.948	1370.54
180.024	1388.83
180.101	1408.92
180.177	1422.17
180.254	1446.42
180.33	1468.79
180.407	1522.72
180.483	1616.08
180.56	1703.45
180.636	1788.29
180.712	1776.4
180.789	1785.05
180.865	1796.88
180.942	1804.3
181.018	1815.23
181.095	1828.54
181.171	1834.2
181.248	1836.15
181.324	1852.17
181.4	1863.82
181.477	1874.75
181.553	1885.97
181.63	1908.12
181.706	1926
181.782	1934.5
181.859	1934.83
181.935	1938.54
182.011	1933.84
182.088	1953.09
182.164	1972.69
182.24	1984.86
182.317	1997.46
182.393	1996.7
182.469	2010.15
182.546	2024.37
182.622	2026.56
182.698	2022.56
182.775	2032.46
182.851	2045.11
182.927	2037.26
183.003	2030.36
183.08	2025.51
183.156	2036.55
183.232	2033.55
183.308	2023.09
183.385	2031.26
183.461	2044.72
183.537	2049.72
183.613	2063.08
183.69	2053.14
183.766	2041.15
183.842	2048.52
183.918	2051.05
183.995	2063.79
184.071	2065.41
184.147	2059.6
184.223	2047.48
184.299	2059.95
184.375	2052.29
184.452	2059.24
184.528	2116.91
184.604	2127.37
184.68	2137.12
184.756	2143.49
184.832	2146.3
184.908	2152.67
184.985	2151.67
185.061	2137.98
185.137	2143.49
185.213	2132.7
185.289	2133.55
185.365	2126.28
185.441	2124.09
185.517	2138.84
185.593	2135.7
185.669	2136.99
185.745	2147.12
185.822	2165.38
185.898	2157.62
185.974	2162.95
186.05	2154.57
186.126	2110.98
186.202	2103.32
186.278	2100.57
186.354	2094.43
186.43	2101.61
186.506	2098.43
186.582	2097.05
186.658	2103.04
186.734	2083.07
186.81	2082.64
186.886	2085.54
186.962	2102
187.038	2097.76
187.114	2089.2
187.19	2096.81
187.266	2082.97
187.341	2082.97
187.417	2077.45
187.493	2079.45
187.569	2083.82
187.645	2079.26
187.721	2069.98
187.797	2077.92
187.873	2080.78
187.949	2072.79
188.025	2065.7
188.101	2069.03
188.176	2076.97
188.252	2070.22
188.328	2080.58
188.404	2082.34
188.48	2075.45
188.556	2065.55
188.632	2065.74
188.707	2064.41
188.783	2061.08
188.859	2055.99
188.935	2043.01
189.011	2048.76
189.086	2039.16
189.162	2029.93
189.238	2026.36
189.314	2022.51
189.39	2015.43
189.465	2007.72
189.541	2023.23
189.617	2009.01
189.693	2000.88
189.768	2006.4
189.844	2028.71
189.92	2018.39
189.996	2027.81
190.071	2038.7
190.147	2038.41
190.223	2048.07
190.298	2044.03
190.374	2031.14
190.45	2045.07
190.526	2053.25
190.601	2048.92
190.677	2051.25
190.753	2079.47
190.828	2084.46
190.904	2100.16
190.98	2119.14
191.055	2131.18
191.131	2124.9
191.207	2147.16
191.282	2157.71
191.358	2144.59
191.433	2134.74
191.509	2149.95
191.585	2147.05
191.66	2149.48
191.736	2157.89
191.811	2146.29
191.887	2160.52
191.963	2184.11
192.038	2187.58
192.114	2191.29
192.189	2193.58
192.265	2190.44
192.34	2167.45
192.416	2162.46
192.491	2158.37
192.567	2156.79
192.642	2158.94
192.718	2158.41
192.793	2145.23
192.869	2141.24
192.944	2146.71
193.02	2154.46
193.095	2155.08
193.171	2157.18
193.246	2156.27
193.322	2152.94
193.397	2155.32
193.473	2140.57
193.548	2122.44
193.624	2129.67
193.699	2128.58
193.775	2146.19
193.85	2148.71
193.925	2158.89
194.001	2160.89
194.076	2152.75
194.152	2142.43
194.227	2134.1
194.302	2123.78
194.378	2127.21
194.453	2124.59
194.529	2133.63
194.604	2118.17
194.679	2113.22
194.755	2097.81
194.83	2111.24
194.905	2109.86
194.981	2120.32
195.056	2113.09
195.131	2118.8
195.207	2119.37
195.282	2110.24
195.357	2089.54
195.433	2106.57
195.508	2093.2
195.583	2100.24
195.659	2114.66
195.734	2123.46
195.809	2122.08
195.884	2131.55
195.96	2135.92
196.035	2152.48
196.11	2150
196.185	2163.13
196.261	2169.79
196.336	2200.19
196.411	2186.34
196.486	2193.62
196.561	2186.43
196.637	2198.23
196.712	2217.74
196.787	2217.41
196.862	2228.64
196.937	2240.29
197.013	2241.05
197.088	2254.14
197.163	2276.46
197.238	2293.79
197.313	2294.03
197.388	2310.69
197.464	2340.44
197.539	2350.1
197.614	2341.97
197.689	2352.63
197.764	2365.05
197.839	2380.57
197.914	2372.28
197.989	2393.42
198.065	2405.08
198.14	2455.29
198.215	2481.38
198.29	2490.34
198.365	2504.29
198.44	2516.14
198.515	2545.1
198.59	2560.38
198.665	2584.43
198.74	2591.91
198.815	2593.77
198.89	2615.01
198.965	2644.07
199.04	2643.88
199.115	2657.12
199.19	2700.75
199.265	2702.18
199.34	2712.75
199.415	2748.93
199.49	2773.12
199.565	2783.75
199.64	2808
199.715	2803.61
199.79	2808.09
199.865	2815.14
199.94	2813.95
200.015	2848.56
200.09	2849.56
200.165	2856.75
200.24	2862.52
200.315	2904.64
200.39	2920.56
200.464	2926.95
200.539	2927.33
200.614	2939.48
200.689	2964.08
200.764	2972.19
200.839	2991.25
200.914	2999.2
200.989	2989.67
201.063	3003.68
201.138	2984.68
201.213	2986.3
201.288	2966.47
201.363	2973.43
201.438	2974.62
201.512	2987.1
201.587	2966.89
201.662	2973.51
201.737	2990.39
201.812	3000.64
201.886	2967.77
201.961	2975.54
202.036	2963.96
202.111	2963.48
202.186	2935.81
202.26	2916.97
202.335	2893.47
202.41	2890.32
202.485	2873.74
202.559	2851.53
202.634	2822.84
202.709	2833.99
202.784	2811.88
202.858	2811.07
202.933	2791.15
203.008	2782.52
203.082	2766.66
203.157	2767.71
203.232	2724.65
203.306	2697.2
203.381	2662.89
203.456	2637.83
203.53	2614.32
203.605	2593
203.68	2569.17
203.754	2559.65
203.829	2543.12
203.904	2523.93
203.978	2512.21
204.053	2514.02
204.127	2503.5
204.202	2502.74
204.277	2485.45
204.351	2481.17
204.426	2475.98
204.5	2465.26
204.575	2432.37
204.65	2440.8
204.724	2431.7
204.799	2439.08
204.873	2439.46
204.948	2441.17
205.022	2430.37
205.097	2424.03
205.171	2438.5
205.246	2445.31
205.32	2447.17
205.395	2450.36
205.469	2440.56
205.544	2446.18
205.618	2429.37
205.693	2441.51
205.767	2430.04
205.842	2450.52
205.916	2443.38
205.991	2433.9
206.065	2442.47
206.14	2455.13
206.214	2450.6
206.289	2443.6
206.363	2454.93
206.438	2458.12
206.512	2464.55
206.586	2484.12
206.661	2491.03
206.735	2470.8
206.81	2471.13
206.884	2487.37
206.958	2474.42
207.033	2495.41
207.107	2500.08
207.181	2531.13
207.256	2526.84
207.33	2549.51
207.405	2562.24
207.479	2583.57
207.553	2591.76
207.628	2575.53
207.702	2589.81
207.776	2585.29
207.851	2593
207.925	2614.06
207.999	2612.21
208.073	2612.21
208.148	2617.21
208.222	2609.87
208.296	2645.2
208.371	2667.65
208.445	2680.8
208.519	2716.43
208.593	2728.82
208.668	2733.2
208.742	2743.83
208.816	2752.64
208.89	2773.1
208.965	2779.92
209.039	2797.32
209.113	2829.54
209.187	2866.87
209.261	2875.97
209.336	2911.24
209.41	2943.81
209.484	2959.93
209.558	2999.46
209.632	3032.16
209.707	3061.49
209.781	3105.26
209.855	3143.76
209.929	3180.04
210.003	3212.86
210.077	3236.53
210.151	3312.3
210.226	3370.83
210.3	3426.13
210.374	3479.62
210.448	3517.34
210.522	3557.87
210.596	3599.08
210.67	3640.38
210.744	3723.41
210.818	3796.55
210.892	3855.08
210.966	3891.86
211.041	3946.28
211.115	3985.65
211.189	4053.41
211.263	4118.32
211.337	4169.8
211.411	4232.59
211.485	4278.65
211.559	4340.42
211.633	4392.38
211.707	4413.05
211.781	4479.16
211.855	4501.94
211.929	4548.67
212.003	4584.49
212.077	4654.66
212.151	4730.59
212.225	4800.43
212.299	4847.91
212.373	4897.84
212.447	4955.13
212.52	5048.62
212.594	5119.77
212.668	5191.23
212.742	5244.75
212.816	5302.54
212.89	5366.22
212.964	5432.29
213.038	5511.27
213.112	5591.39
213.186	5680.55
213.26	5732.16
213.333	5759.64
213.407	5837.6
213.481	5917.53
213.555	6006.71
213.629	6074.51
213.703	6135.13
213.777	6209.33
213.85	6265.83
213.924	6376.92
213.998	6455.61
214.072	6523.62
214.146	6586.96
214.219	6663.89
214.293	6738.89
214.367	6824.05
214.441	6909.36
214.515	6979.94
214.588	7032.7
214.662	7077.96
214.736	7134.56
214.81	7222.27
214.883	7308.11
214.957	7377.31
215.031	7441.32
215.105	7493.74
215.178	7547.97
215.252	7617.15
215.326	7662.1
215.4	7718.06
215.473	7745.48
215.547	7801.03
215.621	7868.33
215.694	7947.6
215.768	8005.37
215.842	8067.95
215.915	8124.14
215.989	8168.07
216.063	8226.19
216.136	8289.61
216.21	8358.98
216.284	8436.16
216.357	8503.87
216.431	8569.22
216.504	8643.14
216.578	8734.21
216.652	8817.46
216.725	8890.52
216.799	8962.74
216.873	9043.56
216.946	9119.9
217.02	9183.25
217.093	9251.38
217.167	9290.96
217.24	9340.03
217.314	9400.07
217.387	9459.29
217.461	9519.54
217.535	9599.29
217.608	9659.82
217.682	9733.85
217.755	9818.24
217.829	9877.72
217.902	9953.3
217.976	10019.43
218.049	10081.09
218.123	10135.29
218.196	10201.48
218.27	10267
218.343	10322.41
218.417	10390.87
218.49	10451.53
218.563	10532.76
218.637	10603.59
218.71	10689.74
218.784	10769.78
218.857	10848.8
218.931	10918.57
219.004	10986.66
219.077	11061.6
219.151	11119.28
219.224	11179.37
219.298	11234.41
219.371	11308.24
219.444	11354.85
219.518	11425.07
219.591	11494.85
219.665	11584.36
219.738	11657.67
219.811	11707.55
219.885	11785.78
219.958	11855.71
220.031	11924.35
220.105	11993.32
220.178	12051.41
220.251	12110.07
220.325	12170.13
220.398	12230.24
220.471	12299.17
220.544	12368.39
220.618	12422.28
220.691	12494.82
220.764	12558.74
220.838	12625.74
220.911	12680.84
220.984	12768.09
221.057	12836.4
221.131	12895.84
221.204	12929.73
221.277	12998.81
221.35	13089.58
221.424	13138.17
221.497	13200.64
221.57	13259.5
221.643	13323.62
221.716	13399.06
221.79	13449.05
221.863	13512.15
221.936	13576.85
222.009	13632.19
222.082	13697.17
222.155	13751.21
222.229	13829.16
222.302	13887.97
222.375	13945.24
222.448	14012.24
222.521	14060.55
222.594	14105.04
222.667	14146.74
222.74	14215.05
222.814	14263.93
222.887	14324.38
222.96	14387.04
223.033	14446.29
223.106	14502.88
223.179	14558.46
223.252	14611.68
223.325	14672.03
223.398	14714.31
223.471	14771.28
223.544	14820.36
223.617	14868.9
223.69	14925.29
223.763	14958.89
223.837	15012.06
223.91	15067.25
223.983	15098.34
224.056	15133.24
224.129	15188.29
224.202	15251.2
224.275	15277.8
224.348	15313.33
224.42	15333.53
224.493	15359.75
224.566	15389.92
224.639	15441.35
224.712	15482.08
224.785	15517.46
224.858	15550.14
224.931	15589.47
225.004	15614.92
225.077	15664.14
225.15	15671.75
225.223	15716.24
225.296	15774.13
225.369	15797.02
225.442	15818.14
225.514	15859.54
225.587	15902.87
225.66	15947.74
225.733	15986.74
225.806	16037.78
225.879	16071.95
225.952	16104.97
226.025	16156.83
226.097	16207.73
226.17	16242.77
226.243	16258.72
226.316	16300.89
226.389	16352.66
226.461	16397.29
226.534	16438.25
226.607	16466.5
226.68	16539.66
226.753	16571.47
226.825	16586.6
226.898	16637.26
226.971	16686.56
227.044	16733.46
227.117	16768.5
227.189	16807.73
227.262	16856.6
227.335	16897.66
227.407	16934.58
227.48	16973.61
227.553	17011.45
227.626	17043.25
227.698	17079.3
227.771	17123.35
227.844	17141.96
227.916	17173.19
227.989	17190.78
228.062	17222.25
228.134	17283.74
228.207	17307.79
228.28	17326.83
228.352	17355.26
228.425	17386.39
228.498	17419.89
228.57	17439.55
228.643	17487.45
228.716	17499.79
228.788	17513.91
228.861	17534.1
228.934	17571.74
229.006	17597.28
229.079	17620.08
229.151	17635.26
229.224	17647.69
229.296	17668.8
229.369	17718.44
229.442	17748.56
229.514	17772.51
229.587	17810
229.659	17810.2
229.732	17836.46
229.804	17876.12
229.877	17925.37
229.949	17966.19
230.022	18007.15
230.094	18029.03
230.167	18059.25
230.239	18077.22
230.312	18107.58
230.384	18160.78
230.457	18182.57
230.529	18215.29
230.602	18243.67
230.674	18278.42
230.747	18316.87
230.819	18354.99
230.892	18354.03
230.964	18378.65
231.037	18411.42
231.109	18430.75
231.181	18459.04
231.254	18474.36
231.326	18485.4
231.399	18503.27
231.471	18509.78
231.544	18506.17
231.616	18539.66
231.688	18555.32
231.761	18571.08
231.833	18580.19
231.905	18550.69
231.978	18576.52
232.05	18587.7
232.122	18603.94
232.195	18612.43
232.267	18627.94
232.339	18633.24
232.412	18664.37
232.484	18675.26
232.556	18677.58
232.629	18702.49
232.701	18717.86
232.773	18729.19
232.846	18742.97
232.918	18738.2
232.99	18754.49
233.062	18773.33
233.135	18779.4
233.207	18765.33
233.279	18783.6
233.351	18785.67
233.424	18809.38
233.496	18806.44
233.568	18835.21
233.64	18827.5
233.713	18830.73
233.785	18833.71
233.857	18837.81
233.929	18823.54
234.001	18839.4
234.074	18857.9
234.146	18840.41
234.218	18844.99
234.29	18840.32
234.362	18831.3
234.434	18827.4
234.507	18805.04
234.579	18793.86
234.651	18783.4
234.723	18796.51
234.795	18806.2
234.867	18818.97
234.939	18827.64
235.012	18828.03
235.084	18832.6
235.156	18842.15
235.228	18836.6
235.3	18824.75
235.372	18830
235.444	18839.01
235.516	18819.93
235.588	18815.35
235.66	18818.87
235.732	18799.98
235.804	18856.51
235.876	18868.8
235.948	18878.29
236.02	18878.67
236.092	18865.9
236.164	18857.37
236.236	18835.26
236.308	18811.93
236.38	18806.92
236.452	18780.27
236.524	18765.52
236.596	18767.31
236.668	18764.61
236.74	18743.6
236.812	18748.61
236.884	18738.2
236.956	18723.6
237.028	18697.34
237.1	18680.32
237.172	18678.3
237.244	18688.08
237.316	18635.75
237.388	18604.57
237.46	18577.25
237.532	18577.49
237.604	18558.4
237.675	18571.13
237.747	18576.52
237.819	18563.85
237.891	18542.4
237.963	18529.68
238.035	18512.82
238.107	18452.05
238.178	18441.49
238.25	18423.66
238.322	18430.65
238.394	18396.15
238.466	18375.57
238.538	18364.97
238.609	18346.61
238.681	18316.39
238.753	18288.92
238.825	18277.79
238.897	18275.77
238.968	18282.66
239.04	18255.29
239.112	18262.32
239.184	18221.65
239.255	18193.75
239.327	18177.36
239.399	18153.99
239.471	18143.2
239.542	18132.88
239.614	18135.97
239.686	18087.44
239.758	18085.56
239.829	18039.06
239.901	18031.49
239.973	18007.92
240.044	17991.83
240.116	17968.21
240.188	17933.32
240.259	17907.54
240.331	17872.31
240.403	17844.6
240.474	17799.35
240.546	17770.63
240.618	17730.97
240.689	17705.38
240.761	17682.1
240.833	17670.97
240.904	17650.01
240.976	17615.98
241.048	17583.93
241.119	17562.39
241.191	17549.43
241.262	17546.68
241.334	17522.83
241.405	17487.21
241.477	17461.24
241.549	17430.68
241.62	17414.25
241.692	17402.39
241.763	17385.09
241.835	17348.66
241.906	17322.78
241.978	17284.85
242.049	17275.45
242.121	17258.3
242.192	17247.64
242.264	17210.97
242.335	17158.29
242.407	17131.26
242.478	17110.29
242.55	17088.51
242.621	17046.53
242.693	17013.76
242.764	16970.67
242.836	16934.58
242.907	16923.97
242.979	16904.12
243.05	16884.98
243.122	16861.56
243.193	16829.8
243.264	16786.81
243.336	16767.49
243.407	16747.39
243.479	16735.82
243.55	16706.66
243.622	16683.48
243.693	16649.84
243.764	16635
243.836	16606.13
243.907	16577.54
243.978	16545.06
244.05	16518.74
244.121	16473.1
244.192	16451.46
244.264	16409
244.335	16382.2
244.407	16330.53
244.478	16300.46
244.549	16269.28
244.62	16218.81
244.692	16187.44
244.763	16159.14
244.834	16116.1
244.906	16070.89
244.977	16043.95
245.048	16021.44
245.119	15977.92
245.191	15936.32
245.262	15883.98
245.333	15870.82
245.405	15840.74
245.476	15814.76
245.547	15797.8
245.618	15782.76
245.689	15753.69
245.761	15719.23
245.832	15694.55
245.903	15673.59
245.974	15644.14
246.045	15606.73
246.117	15599.21
246.188	15550.34
246.259	15512.83
246.33	15488.01
246.401	15464.78
246.473	15424.67
246.544	15386.16
246.615	15369.2
246.686	15341.67
246.757	15329.96
246.828	15291.01
246.899	15279.06
246.97	15229.65
247.042	15180.53
247.113	15155.37
247.184	15142.07
247.255	15115.22
247.326	15081.04
247.397	15049.47
247.468	15014.09
247.539	14988.44
247.61	14944
247.681	14932.19
247.752	14916.33
247.823	14880.03
247.894	14854.44
247.965	14817.71
248.037	14788.88
248.108	14749.79
248.179	14717.68
248.25	14685.82
248.321	14657.96
248.392	14610.62
248.463	14610.62
248.534	14586.28
248.605	14571.19
248.675	14543.57
248.746	14527.42
248.817	14510.45
248.888	14493
248.959	14461.14
249.03	14441.66
249.101	14420.26
249.172	14390.32
249.243	14341.06
249.314	14327.85
249.385	14303.46
249.456	14285.04
249.527	14252.22
249.598	14223.63
249.669	14197.07
249.739	14175.66
249.81	14157.92
249.881	14122.01
249.952	14099.4
250.023	14065.32
250.094	14016.68
250.165	13981.59
250.235	13947.26
250.306	13921.52
250.377	13882.62
250.448	13863.87
250.519	13819.42
250.59	13806.12
250.66	13781.53
250.731	13773.09
250.802	13748.85
250.873	13725.03
250.944	13696.64
251.014	13668.63
251.085	13672.83
251.156	13664.29
251.227	13657.64
251.297	13646.5
251.368	13637.78
251.439	13614.16
251.51	13601.87
251.58	13578.53
251.651	13545.9
251.722	13536.45
251.792	13490.36
251.863	13463.8
251.934	13448.66
252.005	13455.51
252.075	13424.75
252.146	13407.69
252.217	13392.55
252.287	13375.82
252.358	13353.31
252.429	13349.31
252.499	13321.11
252.57	13292.72
252.641	13272.08
252.711	13239.59
252.782	13200.11
252.852	13198.42
252.923	13172.34
252.994	13150.07
253.064	13138.89
253.135	13106.4
253.205	13073.71
253.276	13075.02
253.347	13076.85
253.417	13040.31
253.488	13006.42
253.558	12986.03
253.629	12955.95
253.699	12934.06
253.77	12925.72
253.841	12896.99
253.911	12879.49
253.982	12857.17
254.052	12838.08
254.123	12812.49
254.193	12793.88
254.264	12806.41
254.334	12769.82
254.405	12734.88
254.475	12704.51
254.546	12675.83
254.616	12680.26
254.687	12662.09
254.757	12641.21
254.827	12604.58
254.898	12594.94
254.968	12574.45
255.039	12538.78
255.109	12531.4
255.18	12507.59
255.25	12459.97
255.321	12451.87
255.391	12417.5
255.461	12416.73
255.532	12375.99
255.602	12353.82
255.673	12304.8
255.743	12273.42
255.813	12230.52
255.884	12233.84
255.954	12221.98
256.024	12217.5
256.095	12186.84
256.165	12154.6
256.235	12141.24
256.306	12119.6
256.376	12105.09
256.446	12089.43
256.517	12079.79
256.587	12073.09
256.657	12057.71
256.728	12037.03
256.798	12017.17
256.868	11996.45
256.938	11969.98
257.009	11955.33
257.079	11940.15
257.149	11950.99
257.219	11913.15
257.29	11909.15
257.36	11861.48
257.43	11852.76
257.5	11814.49
257.571	11790.82
257.641	11779.64
257.711	11741.61
257.781	11734.14
257.852	11720.11
257.922	11683.92
257.992	11665.99
258.062	11639.77
258.132	11626.03
258.202	11608.34
258.273	11590.56
258.343	11589.59
258.413	11563.37
258.483	11551.42
258.553	11521.63
258.623	11493.87
258.693	11480.76
258.764	11467.51
258.834	11466.16
258.904	11450.49
258.974	11422.01
259.044	11399.27
259.114	11381.77
259.184	11369.92
259.254	11342.01
259.324	11307.26
259.394	11306.73
259.464	11306.15
259.535	11285.04
259.605	11261.14
259.675	11234.49
259.745	11216.85
259.815	11185.04
259.885	11158.73
259.955	11161.19
260.025	11139.21
260.095	11124.27
260.165	11112.61
260.235	11110.78
260.305	11082.06
260.375	11055.36
260.445	11067.6
260.515	11069.72
260.585	11064.42
260.655	11045.77
260.725	11044.08
260.795	11033.82
260.865	11025.19
260.934	10997.67
261.004	10991.27
261.074	10971.75
261.144	10970.79
261.214	10968.57
261.284	10950.11
261.354	10946.06
261.424	10922.3
261.494	10922.16
261.564	10902.79
261.634	10892.77
261.703	10857.44
261.773	10851.18
261.843	10837.88
261.913	10810.17
261.983	10770.8
262.053	10764.35
262.123	10743.15
262.192	10707.3
262.262	10697.56
262.332	10662.82
262.402	10650.87
262.472	10629.09
262.541	10603.12
262.611	10601.34
262.681	10566.65
262.751	10559.56
262.821	10543.66
262.89	10519.28
262.96	10512.58
263.03	10514.42
263.1	10499.43
263.169	10482.52
263.239	10475.97
263.309	10481.94
263.379	10479.39
263.448	10472.88
263.518	10460.79
263.588	10454
263.657	10462.33
263.727	10458.09
263.797	10446.91
263.867	10431.16
263.936	10404.9
264.006	10401.19
264.076	10381.39
264.145	10371.51
264.215	10352.2
264.285	10343.62
264.354	10306.14
264.424	10281.91
264.494	10251.99
264.563	10227.61
264.633	10231.85
264.702	10218.07
264.772	10178.42
264.842	10159.05
264.911	10148.99
264.981	10118.83
265.05	10105.05
265.12	10085.3
265.19	10067.91
265.259	10062.75
265.329	10056.73
265.398	10048.88
265.468	10057.64
265.537	10039.34
265.607	10033.66
265.676	10029.08
265.746	10022.53
265.815	10026.33
265.885	10010.39
265.955	9987.08
266.024	9970.36
266.094	9939.05
266.163	9936.07
266.232	9940.11
266.302	9921.38
266.371	9906.64
266.441	9889.97
266.51	9881.45
266.58	9864.88
266.649	9847.87
266.719	9847.78
266.788	9836.17
266.858	9838.53
266.927	9800.43
266.996	9789.01
267.066	9777.02
267.135	9748.55
267.205	9741.18
267.274	9731.46
267.343	9730.44
267.413	9725.44
267.482	9737
267.552	9738.34
267.621	9712.53
267.69	9682.67
267.76	9680.93
267.829	9675.78
267.898	9664.99
267.968	9643.95
268.037	9641.2
268.106	9639.8
268.176	9614.81
268.245	9599.25
268.314	9583.31
268.384	9591.25
268.453	9578.2
268.522	9569.44
268.592	9575.41
268.661	9559.95
268.73	9546.22
268.799	9527.59
268.869	9536.74
268.938	9505.87
269.007	9483.33
269.076	9471.63
269.146	9469.94
269.215	9457.33
269.284	9465.56
269.353	9454.01
269.422	9445.82
269.492	9424.3
269.561	9383.03
269.63	9378.41
269.699	9358.28
269.768	9345.95
269.838	9333.58
269.907	9332.56
269.976	9302.52
270.045	9265.93
270.114	9254.37
270.183	9241.56
270.253	9236.7
270.322	9201.84
270.391	9188.5
270.46	9190.09
270.529	9187.2
270.598	9183.49
270.667	9169.96
270.736	9143.82
270.806	9135.83
270.875	9135.49
270.944	9128.03
271.013	9152.48
271.082	9142.81
271.151	9144.2
271.22	9121.24
271.289	9107.52
271.358	9093.41
271.427	9093.26
271.496	9085.42
271.565	9076.85
271.634	9069.15
271.703	9088.46
271.772	9090.82
271.841	9078.54
271.91	9061.98
271.979	9053.6
272.048	9039.45
272.117	9039.69
272.186	9030.49
272.255	9035.88
272.324	9036.8
272.393	9029.77
272.462	9006.95
272.531	9001.85
272.6	8986.34
272.669	8982.69
272.738	8970.12
272.807	8970.27
272.876	8951.49
272.945	8982.16
273.013	8978.36
273.082	8984.42
273.151	8943.83
273.22	8942.53
273.289	8939.5
273.358	8945.47
273.427	8936.52
273.496	8930.55
273.564	8928.77
273.633	8927.52
273.702	8903.45
273.771	8884.96
273.84	8878.03
273.909	8879.33
273.977	8873.55
274.046	8864.31
274.115	8875.19
274.184	8869.66
274.253	8861.86
274.322	8866.09
274.39	8831.87
274.459	8820.12
274.528	8789.32
274.597	8778.54
274.665	8767.85
274.734	8765.73
274.803	8751.58
274.872	8738.92
274.94	8719.67
275.009	8769.32
275.078	8755.75
275.147	8759.98
275.215	8761.86
275.284	8769.22
275.353	8755.84
275.421	8729.47
275.49	8747.62
275.559	8734.38
275.627	8718.98
275.696	8703.53
275.765	8700.4
275.833	8694.19
275.902	8693.57
275.971	8707.91
276.039	8731.25
276.108	8737.94
276.177	8742.85
276.245	8737.27
276.314	8738.33
276.383	8749.64
276.451	8687.95
276.52	8686.46
276.588	8693.49
276.657	8693.44
276.725	8680.49
276.794	8684.25
276.863	8695.36
276.931	8668.07
277	8675.63
277.068	8684.24
277.137	8703.35
277.205	8705.42
277.274	8724.58
277.342	8735.17
277.411	8714.18
277.48	8690.07
277.548	8674.43
277.617	8672.65
277.685	8665.04
277.754	8667.02
277.822	8653.25
277.89	8661.49
277.959	8659.42
278.027	8637.76
278.096	8628.18
278.164	8661.49
278.233	8651.58
278.301	8636.85
278.37	8642.48
278.438	8630.83
278.507	8631.99
278.575	8604.27
278.643	8602.2
278.712	8583.04
278.78	8565.96
278.849	8575.53
278.917	8587.04
278.985	8588.33
279.054	8594.59
279.122	8605.76
279.191	8599.45
279.259	8596.61
279.327	8577.31
279.396	8591.85
279.464	8590.4
279.532	8593.87
279.601	8586.79
279.669	8578.52
279.737	8595.12
279.806	8597.86
279.874	8603.06
279.942	8603.35
280.011	8604.16
280.079	8608.59
280.147	8629.62
280.215	8635.26
280.284	8627.85
280.352	8617.69
280.42	8622.36
280.488	8611.43
280.557	8599.06
280.625	8600.85
280.693	8603.88
280.761	8608.83
280.83	8594.11
280.898	8608.16
280.966	8589.68
281.034	8557
281.102	8544.01
281.171	8538.28
281.239	8545.5
281.307	8541.41
281.375	8526.25
281.443	8548.53
281.512	8545.02
281.58	8547.24
281.648	8530.34
281.716	8532.8
281.784	8531.31
281.852	8526.16
281.92	8523.46
281.989	8533.95
282.057	8518.6
282.125	8562.99
282.193	8553.65
282.261	8549.56
282.329	8542.2
282.397	8550.13
282.465	8552.88
282.533	8568.66
282.601	8552.78
282.67	8529.58
282.738	8514.91
282.806	8528.33
282.874	8511.49
282.942	8517.02
283.01	8504.27
283.078	8515.72
283.146	8515.43
283.214	8525.97
283.282	8526.16
283.35	8542.34
283.418	8540.65
283.486	8547.43
283.554	8507.19
283.622	8513.98
283.69	8512.92
283.758	8510.03
283.826	8514.51
283.894	8523.26
283.962	8545.6
284.03	8569.27
284.098	8576.59
284.165	8573.31
284.233	8572.21
284.301	8567.44
284.369	8556.57
284.437	8552.28
284.505	8546.6
284.573	8557.62
284.641	8540.64
284.709	8549.3
284.777	8524.66
284.845	8525.43
284.912	8528.94
284.98	8525.14
285.048	8520.33
285.116	8523.36
285.184	8533.03
285.252	8532.65
285.319	8517.1
285.387	8503.58
285.455	8484.86
285.523	8494.72
285.591	8494.53
285.659	8495.35
285.726	8508.49
285.794	8494.68
285.862	8488.95
285.93	8483.18
285.997	8478.08
286.065	8479.28
286.133	8467.3
286.201	8471.77
286.269	8458.1
286.336	8450.21
286.404	8446.08
286.472	8452.91
286.539	8426.21
286.607	8406.67
286.675	8405.23
286.743	8413.74
286.81	8411.72
286.878	8417.3
286.946	8401.76
287.013	8405.42
287.081	8400.37
287.149	8381.55
287.216	8398.73
287.284	8397.86
287.352	8402.58
287.419	8400.89
287.487	8411.77
287.555	8415.04
287.622	8412.54
287.69	8428.03
287.758	8437.99
287.825	8437.18
287.893	8424.47
287.96	8435.15
288.028	8451.27
288.096	8453.29
288.163	8452.76
288.231	8441.7
288.298	8445.26
288.366	8457.62
288.433	8459.26
288.501	8452.47
288.569	8460.03
288.636	8456.08
288.704	8468.74
288.771	8473.45
288.839	8464.02
288.906	8462.15
288.974	8478.94
289.041	8471.92
289.109	8458.49
289.176	8469.37
289.244	8475.67
289.311	8488.23
289.379	8502.62
289.446	8501.99
289.514	8501.18
289.581	8501.56
289.649	8503.34
289.716	8508.2
289.783	8505.84
289.851	8517.39
289.918	8525.43
289.986	8529.37
290.053	8532.55
290.121	8528.07
290.188	8532.12
290.255	8560.32
290.323	8549.25
290.39	8532.12
290.458	8540.3
290.525	8554.01
290.592	8546.41
290.66	8550.83
290.727	8549.87
290.794	8559.16
290.862	8563.35
290.929	8570.56
290.996	8568.16
291.064	8579.66
291.131	8584.91
291.198	8591.4
291.266	8589.29
291.333	8587.17
291.4	8602.71
291.468	8621.34
291.535	8621.2
291.602	8622.5
291.669	8614.36
291.737	8622.88
291.804	8628.32
291.871	8646.03
291.938	8653.97
292.006	8682.42
292.073	8690.26
292.14	8697.92
292.207	8696.71
292.275	8696.09
292.342	8703.6
292.409	8735.56
292.476	8759.29
292.543	8754.62
292.611	8756.45
292.678	8771.9
292.745	8802.12
292.812	8807.32
292.879	8791.58
292.946	8794.86
293.014	8809.92
293.081	8822.2
293.148	8832.64
293.215	8851.32
293.282	8842.08
293.349	8846.26
293.416	8826.09
293.484	8838.66
293.551	8854.83
293.618	8877.89
293.685	8903.83
293.752	8896.57
293.819	8889.54
293.886	8876.3
293.953	8886.02
294.02	8897.33
294.087	8908.5
294.154	8900.51
294.221	8914.42
294.288	8924.44
294.356	8941.52
294.423	8947.11
294.49	8935.89
294.557	8950.57
294.624	8935.17
294.691	8959.14
294.758	8961.36
294.825	8963.62
294.892	8953.56
294.959	8949.42
295.026	8951.3
295.093	8941.23
295.16	8941.52
295.226	8943.93
295.293	8968.24
295.36	8971.61
295.427	8989.57
295.494	9002.76
295.561	9011.77
295.628	9035.36
295.695	9053.75
295.762	9055.05
295.829	9059.96
295.896	9086.58
295.963	9096.31
296.03	9108.1
296.096	9108.44
296.163	9118.84
296.23	9140.74
296.297	9162.75
296.364	9161.69
296.431	9162.07
296.498	9160.72
296.564	9187.15
296.631	9188.5
296.698	9172.18
296.765	9190.67
296.832	9179.25
296.899	9160.48
296.965	9177.09
297.032	9153.39
297.099	9167.89
297.166	9174.48
297.233	9175.45
297.299	9166.93
297.366	9173.04
297.433	9177.47
297.5	9193.94
297.566	9196.73
297.633	9194.76
297.7	9190.18
297.767	9189.12
297.833	9193.65
297.9	9196.97
297.967	9176.65
298.033	9190.81
298.1	9217.25
298.167	9210.7
298.234	9209.88
298.3	9225.05
298.367	9213.97
298.434	9221.29
298.5	9214.4
298.567	9212.72
298.634	9216.43
298.7	9226.39
298.767	9225.62
298.834	9238.04
298.9	9228.75
298.967	9219.55
299.033	9225.77
299.1	9240.55
299.167	9252.63
299.233	9247.58
299.3	9265.34
299.366	9290.43
299.433	9301.84
299.5	9284.46
299.566	9285.95
299.633	9303.62
299.699	9311.56
299.766	9311.18
299.832	9314.98
299.899	9319.9
299.965	9336.32
300.032	9328.32
300.099	9338.48
300.165	9342.24
300.232	9340.6
300.298	9343.49
300.365	9365.06
300.431	9373.49
300.498	9370.31
300.564	9384.18
300.631	9399.83
300.697	9413.41
300.763	9413.27
300.83	9412.4
300.896	9421.45
300.963	9433.58
301.029	9437.24
301.096	9441.39
301.162	9452.41
301.229	9448.75
301.295	9442.49
301.361	9439.65
301.428	9441.34
301.494	9425.21
301.561	9428.82
301.627	9433.92
301.693	9437.97
301.76	9439.36
301.826	9433.1
301.892	9441.53
301.959	9447.65
302.025	9445.33
302.092	9435.17
302.158	9437.87
302.224	9441.77
302.291	9439.51
302.357	9442.73
302.423	9441.82
302.49	9430.89
302.556	9445.67
302.622	9446.59
302.688	9456.41
302.755	9471.97
302.821	9483.19
302.887	9496.14
302.954	9490.17
303.02	9494.5
303.086	9495.71
303.152	9488.48
303.219	9480.83
303.285	9488.87
303.351	9490.79
303.417	9495.13
303.483	9489.45
303.55	9482.42
303.616	9479.33
303.682	9476.3
303.748	9468.93
303.815	9484.73
303.881	9500.48
303.947	9486.75
304.013	9488.05
304.079	9478.42
304.145	9457.95
304.212	9454.25
304.278	9446.93
304.344	9442.83
304.41	9430.31
304.476	9421.17
304.542	9417.7
304.608	9420.97
304.674	9402.72
304.741	9400.41
304.807	9400.12
304.873	9407.15
304.939	9427.04
305.005	9407.68
305.071	9404.5
305.137	9400.94
305.203	9371.95
305.269	9366.41
305.335	9377
305.401	9374.45
305.467	9372.53
305.533	9387.6
305.599	9397.38
305.666	9403.54
305.732	9413.84
305.798	9430.99
305.864	9461.76
305.93	9475.1
305.996	9479.77
306.062	9483.29
306.128	9477.7
306.194	9466.09
306.259	9458.44
306.325	9443.7
306.391	9454.25
306.457	9462.38
306.523	9467.97
306.589	9493.4
306.655	9484.44
306.721	9466.57
306.787	9455.35
306.853	9470.86
306.919	9450.06
306.985	9444.71
307.051	9440.76
307.117	9430.41
307.183	9422.32
307.248	9386.25
307.314	9385.91
307.38	9385.09
307.446	9384.47
307.512	9374.93
307.578	9375.75
307.644	9373.87
307.709	9378.69
307.775	9376.67
307.841	9375.56
307.907	9374.89
307.973	9354.18
308.039	9355.09
308.104	9360.53
308.17	9366.65
308.236	9348.49
308.302	9354.27
308.368	9340.45
308.433	9337.76
308.499	9332.08
308.565	9320.66
308.631	9327.79
308.696	9297.98
308.762	9288.69
308.828	9287.05
308.894	9272.23
308.959	9255.66
309.025	9247.33
309.091	9240.45
309.156	9232.41
309.222	9230.53
309.288	9217.87
309.354	9195.43
309.419	9189.8
309.485	9170.2
309.551	9173.81
309.616	9164.18
309.682	9156.91
309.748	9149.31
309.813	9135.63
309.879	9126.48
309.945	9110.41
310.01	9105.3
310.076	9113.68
310.141	9110.21
310.207	9095.33
310.273	9095.33
310.338	9098.66
310.404	9084.41
310.469	9074.25
310.535	9062.98
310.601	9041.8
310.666	9047.38
310.732	9059.27
310.797	9041.99
310.863	9035.06
310.928	9021.38
310.994	9019.17
311.059	9016.91
311.125	9013.3
311.191	9032.99
311.256	9019.94
311.322	9034.05
311.387	9010.27
311.453	9328.64
311.518	9301.97
311.584	9297.11
311.649	9304.43
311.715	9297.25
311.78	9300.91
311.846	9289.31
311.911	9296.19
311.976	9294.8
312.042	9278.57
312.107	9265.34
312.173	9262.93
312.238	9258.4
312.304	9255.8
312.369	9247.86
312.434	9237.17
312.5	9233.42
312.565	9197.89
312.631	9207.95
312.696	9197.07
312.761	9207.76
312.827	8878.56
312.892	8920.82
312.958	8918.08
313.023	8910.04
313.088	8906.33
313.154	8893.34
313.219	8884.1
313.284	8874.18
313.35	8872.69
313.415	8860.7
313.48	8850.64
313.546	8854.35
313.611	8862.82
313.676	8859.98
313.741	8852.04
313.807	8859.4
313.872	8860.75
313.937	8868.69
314.003	8873.99
314.068	8875
314.133	8879.04
314.198	8867.11
314.264	8838.94
314.329	8833.93
314.394	8828.83
314.459	8821.85
314.525	8841.25
314.59	8842.31
314.655	8832.88
314.72	8841.83
314.785	8851.46
314.851	8848.62
314.916	8831.24
314.981	8820.7
315.046	8801.4
315.111	8790.67
315.176	8775.36
315.242	8779.4
315.307	8780.65
315.372	8759.76
315.437	8749.17
315.502	8735.89
315.567	8745.61
315.632	8730.45
315.698	8731.27
315.763	8729.3
315.828	8722.85
315.893	8711.05
315.958	8704.99
316.023	8693.92
316.088	8668.03
316.153	8644.25
316.218	8635.97
316.283	8617.98
316.348	8592.81
316.413	8592.91
316.479	8579.97
316.544	8550.08
316.609	8522.56
316.674	8485.84
316.739	8451.44
316.804	8419.93
316.869	8384.99
316.934	8348.47
316.999	8321.72
317.064	8274.57
317.129	8230.01
317.194	8194.66
317.259	8148.71
317.324	8098.3
317.389	8056.98
317.454	8018.69
317.518	7983.87
317.583	7963.04
317.648	7943.84
317.713	7915.18
317.778	7857.61
317.843	7832.84
317.908	7792.69
317.973	7748.93
318.038	7715.94
318.103	7687.52
318.168	7650.93
318.233	7622.52
318.297	7572.47
318.362	7535.59
318.427	7490.27
318.492	7464.4
318.557	7419.65
318.622	7389.51
318.687	7366.92
318.751	7327.56
318.816	7300.98
318.881	7266.38
318.946	7213.5
319.011	7165.3
319.075	7125.7
319.14	7091.83
319.205	7044.69
319.27	7017.35
319.335	6969.7
319.399	6934.67
319.464	6906.38
319.529	6857
319.594	6816.69
319.658	6792.87
319.723	6753.82
319.788	6728.13
319.853	6676.11
319.917	6647.59
319.982	6593.14
320.047	6555.58
320.112	6526.92
320.176	6477.7
320.241	6447.26
320.306	6416.63
320.37	6374.05
320.435	6347.41
320.5	6317.26
320.564	6276.04
320.629	6228.29
320.694	6201.85
320.758	6155.3
320.823	6110.66
320.888	6087.35
320.952	6036.21
321.017	5986.41
321.082	5942.37
321.146	5908.79
321.211	5871.61
321.275	5832.81
321.34	5794.26
321.405	5751
321.469	5703.48
321.534	5656.74
321.598	5603.75
321.663	5567.83
321.727	5538.44
321.792	5482.78
321.857	5442.99
321.921	5406.61
321.986	5363.59
322.05	5305.95
322.115	5273.36
322.179	5229.99
322.244	5171.7
322.308	5143.24
322.373	5102.86
322.437	5062.2
322.502	5035.12
322.566	4991.35
322.631	4950.69
322.695	4911.52
322.76	4868.43
322.824	4835.4
322.889	4794.71
322.953	4753.74
323.018	4689.84
323.082	4626.15
323.146	4577.59
323.211	4525.14
323.275	4478.39
323.34	4439.55
323.404	4406.98
323.468	4356.65
323.533	4310.26
323.597	4267.15
323.662	4211.53
323.726	4176.14
323.79	4134.78
323.855	4067.97
323.919	4021.27
323.983	3978.91
324.048	3917.1
324.112	4059.65
324.177	3932.5
324.241	3729.61
324.305	3526.43
324.37	3331.05
324.434	3144.17
324.498	3102.51
324.562	3052.13
324.627	2996.1
324.691	2939.27
324.755	2875.71
324.82	2805.34
324.884	2729.65
324.948	2661.38
325.012	2574.79
325.077	2453.4
