Data from 20250702_urea_0.5M_MAYP1162681_20-04-59-781.txt Node
Date: Wed Jul 02 20:04:59 BST 2025
User: adleo
Spectrometer: MAYP116268
Trigger mode: 0
Integration Time (sec): 1.000000E0
Scans to average: 1
Electric dark correction enabled: true
Nonlinearity correction enabled: true
Boxcar width: 10
XAxis mode: Wavelengths
Number of Pixels in Spectrum: 2068
>>>>>Begin Spectral Data<<<<<
179.565	1187.27
179.642	1245.9
179.718	1290.37
179.795	1331.12
179.871	1365.44
179.948	1381.81
180.024	1401.3
180.101	1422.18
180.177	1435.6
180.254	1458.77
180.33	1480.77
180.407	1534.94
180.483	1629.77
180.56	1716.95
180.636	1801.17
180.712	1791.09
180.789	1805.92
180.865	1819.79
180.942	1825.35
181.018	1836.95
181.095	1850.5
181.171	1858.25
181.248	1856.21
181.324	1869.85
181.4	1875.03
181.477	1885.07
181.553	1897.71
181.63	1920.15
181.706	1937.74
181.782	1946.72
181.859	1946.01
181.935	1952.81
182.011	1945.82
182.088	1960.27
182.164	1981.53
182.24	1995.08
182.317	2004.83
182.393	1997.51
182.469	2009.49
182.546	2020.62
182.622	2025.7
182.698	2019.05
182.775	2030.75
182.851	2046.82
182.927	2043.11
183.003	2039.92
183.08	2032.7
183.156	2044.06
183.232	2038.35
183.308	2026.08
183.385	2031.88
183.461	2047.34
183.537	2045.58
183.613	2057.9
183.69	2050.81
183.766	2041.11
183.842	2050.1
183.918	2051.81
183.995	2068.36
184.071	2072.21
184.147	2069.17
184.223	2057.47
184.299	2069.6
184.375	2057.57
184.452	2063.23
184.528	2116.19
184.604	2124.94
184.68	2137.59
184.756	2145.01
184.832	2152.67
184.908	2158.33
184.985	2158.19
185.061	2144.16
185.137	2155.67
185.213	2145.97
185.289	2146.49
185.365	2138.6
185.441	2137.69
185.517	2153.35
185.593	2148.88
185.669	2144.17
185.745	2155.68
185.822	2171.8
185.898	2165.66
185.974	2174.51
186.05	2165.56
186.126	2125.78
186.202	2120.78
186.278	2116.79
186.354	2106.75
186.43	2111.13
186.506	2108.61
186.582	2110.51
186.658	2116.6
186.734	2093.34
186.81	2096.1
186.886	2099.29
186.962	2112.84
187.038	2104.94
187.114	2097.19
187.19	2102.47
187.266	2095.81
187.341	2096.38
187.417	2089.67
187.493	2089.06
187.569	2092.96
187.645	2089.58
187.721	2078.45
187.797	2082.78
187.873	2085.11
187.949	2078.26
188.025	2072.17
188.101	2074.83
188.176	2081.35
188.252	2076.59
188.328	2088.05
188.404	2088.14
188.48	2083.63
188.556	2075.82
188.632	2077.87
188.707	2077.77
188.783	2075.73
188.859	2070.59
188.935	2059.41
189.011	2068.12
189.086	2062.27
189.162	2050.47
189.238	2044.72
189.314	2040.35
189.39	2037.11
189.465	2030.64
189.541	2048.62
189.617	2033.45
189.693	2028.18
189.768	2031.03
189.844	2055.68
189.92	2046.17
189.996	2056.92
190.071	2067.1
190.147	2064.29
190.223	2072
190.298	2065.2
190.374	2052.74
190.45	2064.34
190.526	2072.28
190.601	2066.05
190.677	2066.9
190.753	2096.07
190.828	2102.97
190.904	2120.71
190.98	2136.37
191.055	2146.93
191.131	2136.03
191.207	2155.58
191.282	2165.57
191.358	2155.2
191.433	2143.25
191.509	2156.7
191.585	2151.47
191.66	2153.76
191.736	2162.7
191.811	2154.94
191.887	2169.84
191.963	2192.29
192.038	2201.33
192.114	2199.66
192.189	2203.04
192.265	2201.81
192.34	2180.77
192.416	2178.53
192.491	2173.68
192.567	2175.25
192.642	2178.01
192.718	2179.48
192.793	2168.35
192.869	2166.59
192.944	2168.07
193.02	2173.73
193.095	2176.63
193.171	2184
193.246	2181.58
193.322	2179.06
193.397	2178.06
193.473	2163.93
193.548	2146.7
193.624	2149.99
193.699	2152.32
193.775	2167.5
193.85	2167.88
193.925	2177.06
194.001	2176.54
194.076	2168.55
194.152	2156.55
194.227	2150.04
194.302	2139.48
194.378	2144.62
194.453	2139.67
194.529	2154.9
194.604	2139.2
194.679	2136.06
194.755	2116.13
194.83	2131.79
194.905	2128.94
194.981	2139.97
195.056	2134.12
195.131	2138.5
195.207	2134.88
195.282	2123.85
195.357	2102.43
195.433	2121.7
195.508	2106.1
195.583	2114.9
195.659	2127.03
195.734	2134.6
195.809	2135.02
195.884	2144.53
195.96	2145.3
196.035	2159.85
196.11	2151.19
196.185	2162.46
196.261	2163.89
196.336	2196.34
196.411	2178.78
196.486	2184.91
196.561	2175.11
196.637	2182.96
196.712	2199.71
196.787	2202.38
196.862	2218.46
196.937	2231.39
197.013	2231.68
197.088	2246.71
197.163	2265.52
197.238	2281.52
197.313	2282.47
197.388	2296.13
197.464	2328.12
197.539	2339.97
197.614	2333.93
197.689	2350.06
197.764	2367.72
197.839	2387
197.914	2379
197.989	2404.66
198.065	2420.32
198.14	2471.57
198.215	2498.42
198.29	2511.76
198.365	2526.19
198.44	2537.14
198.515	2564.71
198.59	2580.67
198.665	2604.48
198.74	2614.34
198.815	2618.15
198.89	2640.2
198.965	2673.32
199.04	2667.12
199.115	2680.36
199.19	2724.28
199.265	2723.76
199.34	2732.52
199.415	2770.04
199.49	2792.19
199.565	2801.34
199.64	2823.44
199.715	2819.63
199.79	2828.02
199.865	2835.4
199.94	2835.78
200.015	2867.48
200.09	2871.63
200.165	2879.54
200.24	2887.45
200.315	2925.04
200.39	2940.87
200.464	2948.49
200.539	2944.01
200.614	2961.93
200.689	2987.72
200.764	2994.02
200.839	3017.27
200.914	3024.18
200.989	3010.01
201.063	3023.93
201.138	3004.55
201.213	3004.69
201.288	2987.96
201.363	2992.1
201.438	2989.63
201.512	3005.64
201.587	2987.66
201.662	2993.62
201.737	3006.02
201.812	3011.55
201.886	2978.54
201.961	2985.88
202.036	2974.87
202.111	2972.2
202.186	2942.09
202.26	2920.73
202.335	2899.9
202.41	2888.55
202.485	2870.88
202.559	2852
202.634	2823.69
202.709	2834.41
202.784	2816.3
202.858	2815.92
202.933	2796.53
203.008	2792.05
203.082	2772.46
203.157	2770.99
203.232	2729.02
203.306	2704.67
203.381	2674.55
203.456	2653.16
203.53	2631.56
203.605	2608.76
203.68	2586.65
203.754	2583.46
203.829	2572.6
203.904	2550.79
203.978	2540.5
204.053	2542.21
204.127	2528.02
204.202	2527.83
204.277	2511.26
204.351	2503.74
204.426	2495.97
204.5	2487.83
204.575	2453.22
204.65	2461.61
204.724	2454.46
204.799	2460.17
204.873	2456.26
204.948	2455.6
205.022	2444.51
205.097	2435.03
205.171	2452.35
205.246	2461.26
205.32	2458.21
205.395	2455.6
205.469	2448.36
205.544	2454.56
205.618	2438.04
205.693	2452.56
205.767	2444.51
205.842	2465.42
205.916	2458.66
205.991	2448.8
206.065	2457.23
206.14	2471.65
206.214	2465.55
206.289	2460.45
206.363	2474.31
206.438	2478.78
206.512	2485.4
206.586	2504.87
206.661	2515.98
206.735	2493.89
206.81	2495.89
206.884	2511.41
206.958	2499.46
207.033	2517.26
207.107	2527.84
207.181	2560.95
207.256	2557.61
207.33	2574.85
207.405	2587.29
207.479	2608.82
207.553	2619.82
207.628	2605.49
207.702	2624.15
207.776	2624.82
207.851	2631.54
207.925	2652.31
207.999	2656.65
208.073	2662.94
208.148	2671.18
208.222	2664.99
208.296	2704.7
208.371	2726.63
208.445	2749.22
208.519	2789.71
208.593	2815.69
208.668	2825.51
208.742	2845.3
208.816	2861.6
208.89	2895.6
208.965	2915.83
209.039	2947.64
209.113	2990.27
209.187	3036.82
209.261	3055.03
209.336	3103.25
209.41	3152.43
209.484	3184.21
209.558	3239.66
209.632	3291.47
209.707	3341.76
209.781	3402.84
209.855	3460.7
209.929	3522.81
210.003	3577.63
210.077	3630.59
210.151	3726.29
210.226	3813.03
210.3	3897.57
210.374	3980.87
210.448	4043.68
210.522	4116.41
210.596	4194.02
210.67	4271.16
210.744	4388.98
210.818	4498.53
210.892	4597.74
210.966	4674.58
211.041	4775.29
211.115	4861.03
211.189	4969.53
211.263	5074.83
211.337	5181.84
211.411	5289.26
211.485	5384.27
211.559	5491.46
211.633	5594.43
211.707	5674.54
211.781	5788.01
211.855	5862.75
211.929	5969.4
212.003	6068.72
212.077	6198.17
212.151	6323.83
212.225	6449.02
212.299	6557.29
212.373	6670.32
212.447	6784.31
212.52	6940.81
212.594	7067.33
212.668	7208.64
212.742	7328.65
212.816	7460.45
212.89	7577.16
212.964	7707.66
213.038	7843.71
213.112	7992.71
213.186	8146.71
213.26	8267.1
213.333	8363.51
213.407	8511.59
213.481	8652.75
213.555	8809.07
213.629	8936.11
213.703	9068.45
213.777	9209.95
213.85	9334.89
213.924	9509.55
213.998	9656.96
214.072	9793.27
214.146	9919.07
214.219	10059.35
214.293	10195.08
214.367	10335.51
214.441	10494.77
214.515	10623.94
214.588	10741.6
214.662	10852.47
214.736	10974.77
214.81	11111.61
214.883	11256.26
214.957	11385.31
215.031	11509.79
215.105	11618.07
215.178	11739.38
215.252	11862.53
215.326	11971.17
215.4	12084.34
215.473	12163.39
215.547	12267.6
215.621	12374.52
215.694	12510.11
215.768	12607.44
215.842	12720.77
215.915	12825.76
215.989	12918.6
216.063	13035.02
216.136	13150.47
216.21	13269.49
216.284	13389.37
216.357	13508.3
216.431	13615.41
216.504	13732.98
216.578	13867.86
216.652	13984.76
216.725	14093.27
216.799	14208.92
216.873	14325.33
216.946	14443.87
217.02	14554.6
217.093	14656.5
217.167	14744.42
217.24	14831.67
217.314	14929.43
217.387	15015.91
217.461	15116.32
217.535	15229.49
217.608	15314.23
217.682	15415.84
217.755	15521.45
217.829	15611.97
217.902	15708.04
217.976	15796.82
218.049	15875.77
218.123	15945.9
218.196	16047.26
218.27	16134.17
218.343	16208.68
218.417	16297.94
218.49	16382.53
218.563	16486.87
218.637	16583.31
218.71	16683.37
218.784	16776.53
218.857	16872.78
218.931	16964.3
219.004	17043.49
219.077	17126.14
219.151	17208.41
219.224	17290.14
219.298	17366.77
219.371	17447.01
219.444	17502.92
219.518	17589.95
219.591	17665.71
219.665	17772.46
219.738	17846.91
219.811	17906.33
219.885	17981.22
219.958	18046.91
220.031	18110.57
220.105	18175.87
220.178	18242.66
220.251	18303.04
220.325	18368.63
220.398	18440.09
220.471	18507.85
220.544	18577.05
220.618	18627.51
220.691	18696.27
220.764	18755.07
220.838	18807.21
220.911	18860.6
220.984	18944.93
221.057	19004.98
221.131	19062.32
221.204	19082.13
221.277	19153.55
221.35	19242.7
221.424	19291.76
221.497	19357.83
221.57	19409.97
221.643	19459.6
221.716	19514.59
221.79	19561.86
221.863	19610.63
221.936	19646.05
222.009	19689.52
222.082	19741.56
222.155	19785.08
222.229	19838.57
222.302	19887.53
222.375	19931.24
222.448	19982.37
222.521	20022.76
222.594	20056.88
222.667	20087.57
222.74	20135.48
222.814	20166.51
222.887	20196.59
222.96	20250.85
223.033	20287.04
223.106	20333.64
223.179	20377.45
223.252	20413.36
223.325	20451.52
223.398	20486.17
223.471	20523.81
223.544	20558.17
223.617	20585.79
223.69	20617.07
223.763	20641.07
223.837	20675.43
223.91	20717.65
223.983	20728.54
224.056	20745.55
224.129	20779.48
224.202	20824.06
224.275	20838.32
224.348	20846.37
224.42	20840.83
224.493	20847.14
224.566	20866.57
224.639	20891.63
224.712	20903.58
224.785	20916.64
224.858	20929.7
224.931	20936.6
225.004	20954.52
225.077	20979.78
225.15	20982.96
225.223	21005.8
225.296	21044.51
225.369	21036.94
225.442	21037.28
225.514	21060.17
225.587	21077.28
225.66	21095.45
225.733	21116.37
225.806	21145.24
225.879	21165.34
225.952	21187.12
226.025	21212.66
226.097	21228.38
226.17	21231.99
226.243	21222.74
226.316	21239.37
226.389	21255.22
226.461	21270.45
226.534	21284.77
226.607	21295.61
226.68	21318.41
226.753	21331.67
226.825	21313.35
226.898	21345.55
226.971	21361.11
227.044	21369.55
227.117	21377.84
227.189	21387.91
227.262	21396.25
227.335	21404.16
227.407	21405.7
227.48	21416.49
227.553	21422.62
227.626	21436.64
227.698	21437.8
227.771	21452.84
227.844	21442.52
227.916	21447.63
227.989	21452.98
228.062	21450.14
228.134	21466.48
228.207	21472.74
228.28	21459.3
228.352	21466.38
228.425	21466.38
228.498	21474.09
228.57	21463.78
228.643	21484.79
228.716	21482
228.788	21472.17
228.861	21467.39
228.934	21480.17
229.006	21475.64
229.079	21472.07
229.151	21460.64
229.224	21451.29
229.296	21455.05
229.369	21487.54
229.442	21501.23
229.514	21495.06
229.587	21503.3
229.659	21481.13
229.732	21487.01
229.804	21508.12
229.877	21530.2
229.949	21537.14
230.022	21547.99
230.094	21554.83
230.167	21544.51
230.239	21539.21
230.312	21542.3
230.384	21574.35
230.457	21572.86
230.529	21575.75
230.602	21578.59
230.674	21582.83
230.747	21594.74
230.819	21596.52
230.892	21554.16
230.964	21554.93
231.037	21548.42
231.109	21534.25
231.181	21537.57
231.254	21515.79
231.326	21501.38
231.399	21486.63
231.471	21469.23
231.544	21441.13
231.616	21445.66
231.688	21446.33
231.761	21428.74
231.833	21410.71
231.905	21368.1
231.978	21356.68
232.05	21345.11
232.122	21331.95
232.195	21305.54
232.267	21293.44
232.339	21279.95
232.412	21290.7
232.484	21266.79
232.556	21254.6
232.629	21273.68
232.701	21279.32
232.773	21267.75
232.846	21253.05
232.918	21244.04
232.99	21230.35
233.062	21231.08
233.135	21221.53
233.207	21190.73
233.279	21186.01
233.351	21181.1
233.424	21163.31
233.496	21144.37
233.568	21152.71
233.64	21125
233.713	21114.83
233.785	21106.49
233.857	21102.63
233.929	21076.22
234.001	21085.09
234.074	21079.11
234.146	21032.65
234.218	21002.58
234.29	20991.3
234.362	20959.1
234.434	20920.31
234.507	20893.56
234.579	20855.97
234.651	20823.72
234.723	20811.82
234.795	20799.39
234.867	20775.87
234.939	20767.63
235.012	20739.38
235.084	20720.78
235.156	20715.38
235.228	20686.8
235.3	20659.57
235.372	20632.54
235.444	20618.61
235.516	20564.2
235.588	20543.47
235.66	20529.02
235.732	20494.32
235.804	20523.04
235.876	20524.2
235.948	20514.22
236.02	20491.72
236.092	20467.09
236.164	20443.91
236.236	20406.42
236.308	20369.45
236.38	20349.26
236.452	20319.04
236.524	20298.03
236.596	20290.51
236.668	20258.18
236.74	20239.04
236.812	20221.17
236.884	20202.23
236.956	20166.03
237.028	20132.78
237.1	20097.7
237.172	20087.92
237.244	20084.45
237.316	20020.2
237.388	19974.81
237.46	19943.05
237.532	19930.47
237.604	19893.7
237.675	19883.1
237.747	19868.69
237.819	19833.18
237.891	19802.57
237.963	19760.07
238.035	19722.82
238.107	19650.34
238.178	19645.42
238.25	19609.14
238.322	19601.81
238.394	19555.74
238.466	19530.92
238.538	19505.38
238.609	19472.76
238.681	19417.87
238.753	19370.98
238.825	19334.12
238.897	19312.96
238.968	19293.64
239.04	19249.21
239.112	19248.29
239.184	19209.88
239.255	19173.11
239.327	19152.05
239.399	19121.55
239.471	19100.3
239.542	19087
239.614	19070.66
239.686	19010.91
239.758	18990.72
239.829	18946.86
239.901	18929.23
239.973	18898.43
240.044	18879.49
240.116	18857.28
240.188	18825.71
240.259	18788.94
240.331	18750.92
240.403	18727.5
240.474	18675.6
240.546	18644.28
240.618	18594.88
240.689	18550.65
240.761	18521.1
240.833	18504.77
240.904	18466.22
240.976	18432.63
241.048	18396.29
241.119	18368.92
241.191	18344.2
241.262	18327.43
241.334	18285.36
241.405	18237.94
241.477	18205.75
241.549	18165.17
241.62	18132.16
241.692	18105.85
241.763	18088.98
241.835	18059.73
241.906	18024.02
241.978	17986.48
242.049	17956.41
242.121	17931.73
242.192	17912.31
242.264	17867.98
242.335	17810
242.407	17789.86
242.478	17753.33
242.55	17720.8
242.621	17683.5
242.693	17635.07
242.764	17583.36
242.836	17544.51
242.907	17521.77
242.979	17487.69
243.05	17463.65
243.122	17433.53
243.193	17388.32
243.264	17336.56
243.336	17294.2
243.407	17264.46
243.479	17243.02
243.55	17211.74
243.622	17177.62
243.693	17144.99
243.764	17132.9
243.836	17091.16
243.907	17054.87
243.978	17024.31
244.05	17000.51
244.121	16950.05
244.192	16931.25
244.264	16886.19
244.335	16855.2
244.407	16804.06
244.478	16781.22
244.549	16739.96
244.62	16692.11
244.692	16665.02
244.763	16647.91
244.834	16611.28
244.906	16568.63
244.977	16549.25
245.048	16540.63
245.119	16507.18
245.191	16462.45
245.262	16395.31
245.333	16394.16
245.405	16362.54
245.476	16336.37
245.547	16301.04
245.618	16273.71
245.689	16248.7
245.761	16225.61
245.832	16193.27
245.903	16167.48
245.974	16132.92
246.045	16095.23
246.117	16084.29
246.188	16040.77
246.259	15985.19
246.33	15956.47
246.401	15919.16
246.473	15869.47
246.544	15817.41
246.615	15792.64
246.686	15759.19
246.757	15749.93
246.828	15696.96
246.899	15674.89
246.97	15625.09
247.042	15581.95
247.113	15553.85
247.184	15542
247.255	15504.06
247.326	15478.52
247.397	15444.53
247.468	15415.37
247.539	15391.42
247.61	15346.97
247.681	15325.38
247.752	15318
247.823	15279.06
247.894	15255.92
247.965	15210.9
248.037	15183.81
248.108	15128.81
248.179	15094.92
248.25	15064.22
248.321	15039.01
248.392	14989.94
248.463	14982.42
248.534	14951.52
248.605	14937.88
248.675	14898.98
248.746	14879.41
248.817	14852.7
248.888	14832.6
248.959	14781.79
249.03	14758.32
249.101	14727.85
249.172	14696.47
249.243	14640.07
249.314	14633.47
249.385	14611.25
249.456	14593.36
249.527	14554.9
249.598	14543.28
249.669	14512.14
249.739	14485.72
249.81	14462.97
249.881	14429.9
249.952	14399.82
250.023	14374.9
250.094	14326.84
250.165	14287.69
250.235	14258.24
250.306	14234.23
250.377	14199.48
250.448	14179.47
250.519	14130.21
250.59	14122.11
250.66	14090.24
250.731	14089.71
250.802	14060.89
250.873	14036.74
250.944	14012.29
251.014	13984.53
251.085	13978.16
251.156	13962.69
251.227	13945.24
251.297	13938.44
251.368	13923.74
251.439	13908.6
251.51	13897.08
251.58	13866.42
251.651	13833.5
251.722	13818.31
251.792	13771.6
251.863	13744.94
251.934	13739.69
252.005	13745.18
252.075	13715.34
252.146	13704.11
252.217	13689.36
252.287	13668.82
252.358	13634.16
252.429	13627.08
252.499	13598.35
252.57	13579.16
252.641	13562.38
252.711	13543.05
252.782	13500.53
252.852	13501.02
252.923	13469.44
252.994	13442.98
253.064	13435.6
253.135	13409.38
253.205	13380.02
253.276	13378.81
253.347	13376.88
253.417	13343.38
253.488	13308.82
253.558	13285.68
253.629	13258.01
253.699	13238.15
253.77	13222.38
253.841	13201.61
253.911	13184.49
253.982	13168.58
254.052	13144.58
254.123	13133.3
254.193	13110.3
254.264	13125.49
254.334	13080.99
254.405	13053.28
254.475	13018.71
254.546	12993.6
254.616	12985.26
254.687	12974.84
254.757	12946.79
254.827	12910.34
254.898	12890.82
254.968	12870.67
255.039	12842.86
255.109	12834.57
255.18	12801.98
255.25	12757.48
255.321	12740.52
255.391	12706.48
255.461	12704.84
255.532	12663.34
255.602	12630.13
255.673	12586.69
255.743	12554.15
255.813	12513.66
255.884	12505.28
255.954	12503.2
256.024	12504.02
256.095	12484.26
256.165	12442.95
256.235	12439.04
256.306	12426.27
256.376	12415.23
256.446	12404.77
256.517	12394.12
256.587	12378.55
256.657	12356.13
256.728	12334.01
256.798	12316.9
256.868	12291.2
256.938	12260.59
257.009	12242.28
257.079	12230.27
257.149	12235.53
257.219	12194.51
257.29	12187.13
257.36	12137.92
257.43	12120.57
257.5	12069.33
257.571	12042.77
257.641	12035.78
257.711	11999.43
257.781	11983.34
257.852	11964.25
257.922	11925.2
257.992	11896.14
258.062	11883.99
258.132	11874.79
258.202	11857.72
258.273	11838.25
258.343	11842.25
258.413	11813.96
258.483	11797.14
258.553	11765.33
258.623	11738.62
258.693	11729.51
258.764	11728.16
258.834	11737.03
258.904	11717.65
258.974	11697.75
259.044	11680.59
259.114	11660.97
259.184	11641.6
259.254	11616.58
259.324	11579.76
259.394	11570.89
259.464	11570.17
259.535	11540.77
259.605	11514.98
259.675	11495.08
259.745	11485.39
259.815	11447.36
259.885	11420.52
259.955	11430.59
260.025	11402.4
260.095	11386.69
260.165	11370.88
260.235	11365.67
260.305	11341.53
260.375	11302.73
260.445	11303.94
260.515	11295.99
260.585	11285.67
260.655	11270.01
260.725	11266.01
260.795	11255.12
260.865	11255.79
260.934	11227.98
261.004	11214.44
261.074	11203.21
261.144	11200.03
261.214	11189.04
261.284	11173.57
261.354	11171.98
261.424	11153.23
261.494	11161.14
261.564	11143.55
261.634	11127.79
261.703	11088.99
261.773	11077.09
261.843	11076.66
261.913	11059.6
261.983	11027.36
262.053	11020.42
262.123	11005.77
262.192	10972.47
262.262	10972.95
262.332	10940.23
262.402	10931.03
262.472	10915.8
262.541	10871.04
262.611	10862.36
262.681	10833.98
262.751	10826.85
262.821	10806.13
262.89	10763.96
262.96	10752.78
263.03	10752.78
263.1	10744.3
263.169	10741.65
263.239	10733.03
263.309	10739.82
263.379	10734.33
263.448	10725.32
263.518	10714.76
263.588	10696.89
263.657	10702.43
263.727	10693.8
263.797	10677.42
263.867	10664.36
263.936	10636.95
264.006	10650.49
264.076	10635.07
264.145	10624.27
264.215	10599.85
264.285	10598.83
264.354	10572.19
264.424	10547.62
264.494	10518.9
264.563	10492.59
264.633	10488.16
264.702	10473.8
264.772	10434.29
264.842	10409.05
264.911	10393.87
264.981	10361.54
265.05	10345.21
265.12	10324.88
265.19	10311.72
265.259	10306.61
265.329	10288.84
265.398	10283.59
265.468	10286.91
265.537	10268.94
265.607	10260.51
265.676	10251.11
265.746	10236.76
265.815	10234.4
265.885	10217.63
265.955	10194.17
266.024	10178.85
266.094	10135.98
266.163	10130.29
266.232	10134.39
266.302	10124.08
266.371	10114.54
266.441	10102.98
266.51	10099.46
266.58	10079.23
266.649	10056.83
266.719	10054.47
266.788	10046.81
266.858	10036.84
266.927	10003.74
266.996	9992.13
267.066	9979.17
267.135	9960.87
267.205	9959.86
267.274	9951.67
267.343	9955.72
267.413	9948.78
267.482	9944.93
267.552	9957.31
267.621	9936.98
267.69	9901.67
267.76	9886.84
267.829	9878.31
267.898	9866.99
267.968	9845.51
268.037	9842.67
268.106	9836.07
268.176	9811.46
268.245	9801.48
268.314	9792.62
268.384	9788.09
268.453	9777.45
268.522	9766.56
268.592	9769.79
268.661	9738.2
268.73	9728.85
268.799	9708.62
268.869	9713.25
268.938	9688.25
269.007	9664.41
269.076	9650.44
269.146	9649.82
269.215	9643.17
269.284	9644.04
269.353	9627.95
269.422	9614.9
269.492	9599.01
269.561	9565.01
269.63	9558.46
269.699	9538.62
269.768	9524.84
269.838	9513.96
269.907	9510.16
269.976	9480.64
270.045	9441.15
270.114	9449
270.183	9436.96
270.253	9425.98
270.322	9394.2
270.391	9384.33
270.46	9385.63
270.529	9381.54
270.598	9382.02
270.667	9369.02
270.736	9350.57
270.806	9345.13
270.875	9352.55
270.944	9344.65
271.013	9359
271.082	9348.93
271.151	9346.05
271.22	9319.42
271.289	9310.22
271.358	9298.23
271.427	9300.93
271.496	9298.52
271.565	9274.88
271.634	9266.45
271.703	9272.71
271.772	9271.22
271.841	9265.73
271.91	9247.63
271.979	9241.51
272.048	9220.37
272.117	9221.67
272.186	9205.78
272.255	9204.19
272.324	9194.85
272.393	9183.2
272.462	9175.4
272.531	9170.63
272.6	9159.51
272.669	9165
272.738	9156.09
272.807	9150.31
272.876	9131.83
272.945	9156.77
273.013	9163.7
273.082	9170.06
273.151	9143.72
273.22	9149.69
273.289	9142.66
273.358	9149.55
273.427	9135.58
273.496	9136.5
273.564	9134.77
273.633	9138.04
273.702	9118.64
273.771	9105.64
273.84	9101.16
273.909	9095.96
273.977	9092.3
274.046	9081.13
274.115	9081.86
274.184	9062.55
274.253	9053.84
274.322	9060.87
274.39	9031.74
274.459	9012.58
274.528	8977.77
274.597	8965.79
274.665	8956.35
274.734	8956.79
274.803	8939.98
274.872	8935.07
274.94	8914.52
275.009	8965.24
275.078	8949.21
275.147	8946.03
275.215	8943.91
275.284	8948.87
275.353	8932.55
275.421	8906.84
275.49	8920.13
275.559	8913.82
275.627	8909.16
275.696	8903.48
275.765	8901.84
275.833	8896.4
275.902	8896.74
275.971	8913.25
276.039	8932.93
276.108	8936.79
276.177	8941.55
276.245	8933.08
276.314	8927.21
276.383	8936.06
276.451	8868.45
276.52	8874.85
276.588	8885.83
276.657	8888.76
276.725	8874.42
276.794	8875.77
276.863	8887.17
276.931	8864.64
277	8869.36
277.068	8876.77
277.137	8889.1
277.205	8886.35
277.274	8906.14
277.342	8917.11
277.411	8899.06
277.48	8884.67
277.548	8870.23
277.617	8867.25
277.685	8860.84
277.754	8867.78
277.822	8852.95
277.89	8868.21
277.959	8851.8
278.027	8832.69
278.096	8819.07
278.164	8848
278.233	8841.36
278.301	8832.26
278.37	8836.59
278.438	8824.08
278.507	8826.97
278.575	8798.28
278.643	8792.36
278.712	8768
278.78	8749.08
278.849	8752.45
278.917	8762.75
278.985	8757.65
279.054	8757.99
279.122	8769.4
279.191	8764.87
279.259	8765.11
279.327	8742.25
279.396	8761.64
279.464	8761.26
279.532	8773.77
279.601	8767.8
279.669	8759.19
279.737	8771.41
279.806	8771.56
279.874	8779.35
279.942	8773.96
280.011	8770.6
280.079	8777.91
280.147	8793.75
280.215	8805.44
280.284	8804
280.352	8793.99
280.42	8804.24
280.488	8791.68
280.557	8788.55
280.625	8789.37
280.693	8790.47
280.761	8791.39
280.83	8770.84
280.898	8775.89
280.966	8753.41
281.034	8717.5
281.102	8706.39
281.171	8697.39
281.239	8705.86
281.307	8695.7
281.375	8689.93
281.443	8712.26
281.512	8712.26
281.58	8717.41
281.648	8695.85
281.716	8693.49
281.784	8689.54
281.852	8678.62
281.92	8679.24
281.989	8684.35
282.057	8664.18
282.125	8712.42
282.193	8717.04
282.261	8724.79
282.329	8726.57
282.397	8729.07
282.465	8737.3
282.533	8752.27
282.601	8743.12
282.67	8724.54
282.738	8722.14
282.806	8727.1
282.874	8717.18
282.942	8712.99
283.01	8705.1
283.078	8710.97
283.146	8703.89
283.214	8711.88
283.282	8715.06
283.35	8727.48
283.418	8720.6
283.486	8730.51
283.554	8681.26
283.622	8680.87
283.69	8676.93
283.758	8671.63
283.826	8680.54
283.894	8689.3
283.962	8709.61
284.03	8722.8
284.098	8717.17
284.165	8714.33
284.233	8715.43
284.301	8707.01
284.369	8702.25
284.437	8690.79
284.505	8684.25
284.573	8704.94
284.641	8692.43
284.709	8699.17
284.777	8679.62
284.845	8691.08
284.912	8690.41
284.98	8692.24
285.048	8680.4
285.116	8679.29
285.184	8691.03
285.252	8689.01
285.319	8671.4
285.387	8659.27
285.455	8638.09
285.523	8648.2
285.591	8645.79
285.659	8645.79
285.726	8655.85
285.794	8643.48
285.862	8639.2
285.93	8637.18
285.997	8633.52
286.065	8628.56
286.133	8617.35
286.201	8612.92
286.269	8595.74
286.336	8587.36
286.404	8586.21
286.472	8593.76
286.539	8578.37
286.607	8562.15
286.675	8560.51
286.743	8573.36
286.81	8569.08
286.878	8589.1
286.946	8582.79
287.013	8578.89
287.081	8578.7
287.149	8572.25
287.216	8587.56
287.284	8587.36
287.352	8592.9
287.419	8589.82
287.487	8603.82
287.555	8608.78
287.622	8608.92
287.69	8610.8
287.758	8624.66
287.825	8616.1
287.893	8602.28
287.96	8609.74
288.028	8617.63
288.096	8623.07
288.163	8625.91
288.231	8618.45
288.298	8619.99
288.366	8632.94
288.433	8627.74
288.501	8618.41
288.569	8619.08
288.636	8611.91
288.704	8626.3
288.771	8634.1
288.839	8625.05
288.906	8621.15
288.974	8629.81
289.041	8631.21
289.109	8627.12
289.176	8635.16
289.244	8642.86
289.311	8659.17
289.379	8667.3
289.446	8666
289.514	8663.93
289.581	8658.98
289.649	8660.23
289.716	8657.87
289.783	8650.07
289.851	8674.28
289.918	8678.13
289.986	8679.86
290.053	8685.83
290.121	8683.23
290.188	8686.5
290.255	8712.16
290.323	8707.92
290.39	8700.8
290.458	8707.01
290.525	8717.35
290.592	8714.51
290.66	8711.82
290.727	8709.27
290.794	8718.89
290.862	8724.91
290.929	8727.37
290.996	8729.48
291.064	8734.3
291.131	8742
291.198	8751.29
291.266	8749.99
291.333	8751
291.4	8761.64
291.468	8783.68
291.535	8774.88
291.602	8780.8
291.669	8774.73
291.737	8778.15
291.804	8784.02
291.871	8795.67
291.938	8801.16
292.006	8829.8
292.073	8845.73
292.14	8853.05
292.207	8850.98
292.275	8853.58
292.342	8865.28
292.409	8892.09
292.476	8918.57
292.543	8912.12
292.611	8918.09
292.678	8934.02
292.745	8958.04
292.812	8969.06
292.879	8957.61
292.946	8969.64
293.014	8979.99
293.081	8987.11
293.148	8996.02
293.215	9005.5
293.282	9003.29
293.349	9014.07
293.416	8990.58
293.484	9003.24
293.551	9018.84
293.618	9034.91
293.685	9056.67
293.752	9045.41
293.819	9043.97
293.886	9026.78
293.953	9037.47
294.02	9043.72
294.087	9046.13
294.154	9036.5
294.221	9046.28
294.288	9050.08
294.356	9064.71
294.423	9066.74
294.49	9062.6
294.557	9076.41
294.624	9072.18
294.691	9093.84
294.758	9093.99
294.825	9104.91
294.892	9096.44
294.959	9092.59
295.026	9102.17
295.093	9094.37
295.16	9094.9
295.226	9090.04
295.293	9119.02
295.36	9126.34
295.427	9133.32
295.494	9152.1
295.561	9161.2
295.628	9186.72
295.695	9205.65
295.762	9210.61
295.829	9217.93
295.896	9236.7
295.963	9248.02
296.03	9257.65
296.096	9258.8
296.163	9264.48
296.23	9273.87
296.297	9289.38
296.364	9288.99
296.431	9291.25
296.498	9288.85
296.564	9316.43
296.631	9323.22
296.698	9307.28
296.765	9321.58
296.832	9322.98
296.899	9305.07
296.965	9325
297.032	9304.68
297.099	9320.04
297.166	9330.78
297.233	9325.82
297.299	9307.96
297.366	9309.55
297.433	9310.08
297.5	9315.71
297.566	9316.72
297.633	9319.66
297.7	9327.41
297.767	9324.67
297.833	9333.57
297.9	9338
297.967	9323.66
298.033	9331.65
298.1	9367.09
298.167	9359.82
298.234	9356.74
298.3	9365.26
298.367	9365.7
298.434	9371.14
298.5	9355.58
298.567	9349.23
298.634	9354.62
298.7	9379.42
298.767	9377.06
298.834	9388.61
298.9	9391.5
298.967	9389.05
299.033	9401.47
299.1	9411.44
299.167	9426.99
299.233	9424.06
299.3	9435.85
299.366	9456.32
299.433	9474.23
299.5	9439.12
299.566	9447.12
299.633	9465.18
299.699	9478.18
299.766	9471.63
299.832	9476.83
299.899	9485.88
299.965	9490.75
300.032	9483.81
300.099	9486.66
300.165	9496
300.232	9492.53
300.298	9485.16
300.365	9504.04
300.431	9495.32
300.498	9491.08
300.564	9498.74
300.631	9508.08
300.697	9519.31
300.763	9520.75
300.83	9515.16
300.896	9527.01
300.963	9535.68
301.029	9542.66
301.096	9544.44
301.162	9553.98
301.229	9548.49
301.295	9535.24
301.361	9546.95
301.428	9556.24
301.494	9547.24
301.561	9549.5
301.627	9557.59
301.693	9569.1
301.76	9568.71
301.826	9570.54
301.892	9578.25
301.959	9589.95
302.025	9584.94
302.092	9581.62
302.158	9583.93
302.224	9589.23
302.291	9590.67
302.357	9584.32
302.423	9573.48
302.49	9564.76
302.556	9577.91
302.622	9573.96
302.688	9586.44
302.755	9596.02
302.821	9600.64
302.887	9609.75
302.954	9602.67
303.02	9608.98
303.086	9606.9
303.152	9605.03
303.219	9606.18
303.285	9610.37
303.351	9610.47
303.417	9619.96
303.483	9615.72
303.55	9611.58
303.616	9612.54
303.682	9608.78
303.748	9608.35
303.815	9626.27
303.881	9638.45
303.947	9621.45
304.013	9626.27
304.079	9627.66
304.145	9611.19
304.212	9607.19
304.278	9599.73
304.344	9601.08
304.41	9584.42
304.476	9581.86
304.542	9573.68
304.608	9572.28
304.674	9553.74
304.741	9550.95
304.807	9540.49
304.873	9542.47
304.939	9557.64
305.005	9537.85
305.071	9535.25
305.137	9531.87
305.203	9511.21
305.269	9501.53
305.335	9513.48
305.401	9510.06
305.467	9501.63
305.533	9505.29
305.599	9515.88
305.666	9523.01
305.732	9523.59
305.798	9541.02
305.864	9565.83
305.93	9574.21
305.996	9573.53
306.062	9572.66
306.128	9569.58
306.194	9562.41
306.259	9556.68
306.325	9543
306.391	9549.6
306.457	9556.1
306.523	9558.5
306.589	9585.96
306.655	9583.36
306.721	9563.23
306.787	9548.44
306.853	9563.86
306.919	9552.11
306.985	9545.65
307.051	9536.5
307.117	9527.59
307.183	9522.1
307.248	9489.35
307.314	9491.14
307.38	9497.88
307.446	9509.58
307.512	9496.72
307.578	9501.92
307.644	9502.5
307.709	9505.05
307.775	9505.05
307.841	9505.2
307.907	9505.25
307.973	9473.31
308.039	9471.29
308.104	9479.57
308.17	9484.58
308.236	9465.9
308.302	9464.79
308.368	9452.85
308.433	9459.3
308.499	9459.73
308.565	9444.95
308.631	9454.87
308.696	9439.56
308.762	9418.9
308.828	9415.48
308.894	9398.38
308.959	9376.14
309.025	9367.33
309.091	9363.38
309.156	9353.36
309.222	9347.63
309.288	9333.91
309.354	9319.22
309.419	9319.94
309.485	9306.99
309.551	9310.65
309.616	9304.29
309.682	9304.29
309.748	9296.78
309.813	9289.08
309.879	9277.86
309.945	9273.24
310.01	9263.03
310.076	9260.29
310.141	9259.03
310.207	9241.79
310.273	9241.94
310.338	9241.7
310.404	9228.55
310.469	9216.23
310.535	9205.01
310.601	9186.62
310.666	9193.12
310.732	9204.05
310.797	9188.78
310.863	9180.36
310.928	9176.79
310.994	9177.71
311.059	9172.36
311.125	9168.75
311.191	9172.32
311.256	9161.97
311.322	9158.31
311.387	9137.61
311.453	9498.78
311.518	9474.23
311.584	9474.76
311.649	9483.57
311.715	9473.31
311.78	9474.33
311.846	9462.72
311.911	9474.62
311.976	9477.22
312.042	9462.87
312.107	9441.64
312.173	9434.7
312.238	9424.83
312.304	9419.97
312.369	9403.65
312.434	9394.41
312.5	9392.96
312.565	9363.4
312.631	9362.34
312.696	9354.79
312.761	9358.4
312.827	8984.37
312.892	9018.4
312.958	9010.27
313.023	8999.43
313.088	9001.75
313.154	8981.53
313.219	8969.45
313.284	8953.65
313.35	8951.68
313.415	8937.82
313.48	8936.28
313.546	8938.25
313.611	8951.1
313.676	8938.39
313.741	8933.29
313.807	8937.77
313.872	8940.42
313.937	8945.95
314.003	8965.74
314.068	8965.69
314.133	8971.81
314.198	8964.49
314.264	8949.13
314.329	8942
314.394	8942.1
314.459	8943.26
314.525	8965.4
314.59	8960.34
314.655	8948.79
314.72	8951.97
314.785	8959.62
314.851	8954.9
314.916	8943.83
314.981	8929.78
315.046	8919.72
315.111	8914.04
315.176	8899.84
315.242	8901.47
315.307	8897
315.372	8865.61
315.437	8856.94
315.502	8846.79
315.567	8850.93
315.632	8831.91
315.698	8833.55
315.763	8828.3
315.828	8813.38
315.893	8803.9
315.958	8801.15
316.023	8794.9
316.088	8776.85
316.153	8752.73
316.218	8744.07
316.283	8720.88
316.348	8697.78
316.413	8696.24
316.479	8679.06
316.544	8648.31
316.609	8617.17
316.674	8582.33
316.739	8556.73
316.804	8527.95
316.869	8494.56
316.934	8459.19
316.999	8426.85
317.064	8372.53
317.129	8328.17
317.194	8294.39
317.259	8249.21
317.324	8193.66
317.389	8146.27
317.454	8106.49
317.518	8068.44
317.583	8041.64
317.648	8022.25
317.713	7985.65
317.778	7923.6
317.843	7890.66
317.908	7849.2
317.973	7807.22
318.038	7780.24
318.103	7741.15
318.168	7710.42
318.233	7674.35
318.297	7627.04
318.362	7590.06
318.427	7550.6
318.492	7526.41
318.557	7479.4
318.622	7452.29
318.687	7438.69
318.751	7402.69
318.816	7363.41
318.881	7328.67
318.946	7274.69
319.011	7222.78
319.075	7178.95
319.14	7145.99
319.205	7101.64
319.27	7072.72
319.335	7030.53
319.399	6986.37
319.464	6955.58
319.529	6898.8
319.594	6860.94
319.658	6829.67
319.723	6787.11
319.788	6763.62
319.853	6704.69
319.917	6678.13
319.982	6619.83
320.047	6579.78
320.112	6551.92
320.176	6503.62
320.241	6471.93
320.306	6444.85
320.37	6404.67
320.435	6380
320.5	6354.27
320.564	6313.04
320.629	6274.21
320.694	6240.95
320.758	6201.4
320.823	6160.08
320.888	6133.12
320.952	6085.86
321.017	6043.92
321.082	6004.58
321.146	5965.67
321.211	5936.46
321.275	5892.28
321.34	5851.43
321.405	5808.5
321.469	5758.44
321.534	5724.01
321.598	5671.22
321.663	5637.97
321.727	5607.96
321.792	5555.13
321.857	5508.33
321.921	5473.1
321.986	5426.37
322.05	5369.73
322.115	5337.95
322.179	5293.15
322.244	5236.33
322.308	5201.31
322.373	5159.43
322.437	5121.49
322.502	5092.89
322.566	5044.94
322.631	5010.6
322.695	4974.49
322.76	4931.45
322.824	4901.56
322.889	4856.95
322.953	4814.69
323.018	4748.71
323.082	4687.3
323.146	4638.64
323.211	4586.86
323.275	4543.79
323.34	4499.83
323.404	4463.43
323.468	4413.62
323.533	4373.25
323.597	4328.45
323.662	4277.23
323.726	4238.06
323.79	4192.01
323.855	4131.26
323.919	4084.03
323.983	4037.56
324.048	3973.64
324.112	4119.76
324.177	3987.05
324.241	3779.71
324.305	3578.73
324.37	3380.09
324.434	3187.19
324.498	3146.39
324.562	3097.5
324.627	3036.31
324.691	2980.92
324.755	2918.47
324.82	2843.95
324.884	2763.45
324.948	2697.5
325.012	2606.42
325.077	2485.29
