Data from 20250702_urea_0.5M_MAYP1162681_20-14-59-732.txt Node
Date: Wed Jul 02 20:14:59 BST 2025
User: adleo
Spectrometer: MAYP116268
Trigger mode: 0
Integration Time (sec): 1.000000E0
Scans to average: 1
Electric dark correction enabled: true
Nonlinearity correction enabled: true
Boxcar width: 10
XAxis mode: Wavelengths
Number of Pixels in Spectrum: 2068
>>>>>Begin Spectral Data<<<<<
179.565	1200.54
179.642	1255.39
179.718	1299.57
179.795	1338.23
179.871	1370.27
179.948	1386.58
180.024	1404.96
180.101	1426.95
180.177	1441.59
180.254	1463.09
180.33	1485.02
180.407	1536.06
180.483	1630.83
180.56	1720.49
180.636	1804.71
180.712	1788.97
180.789	1799.9
180.865	1813.4
180.942	1823
181.018	1831.6
181.095	1844.91
181.171	1850.05
181.248	1852.14
181.324	1866.07
181.4	1872.39
181.477	1883.23
181.553	1898.01
181.63	1919.74
181.706	1934.43
181.782	1942.8
181.859	1945.36
181.935	1950.36
182.011	1946.93
182.088	1960.58
182.164	1978.65
182.24	1991.16
182.317	2002.66
182.393	1999.33
182.469	2012.36
182.546	2024.35
182.622	2028.34
182.698	2022.11
182.775	2033.14
182.851	2043.79
182.927	2037.42
183.003	2032.95
183.08	2025.96
183.156	2034.81
183.232	2032.71
183.308	2025.44
183.385	2034.85
183.461	2052.55
183.537	2056.26
183.613	2072.67
183.69	2069.48
183.766	2057.82
183.842	2064.15
183.918	2072.76
183.995	2085.6
184.071	2087.98
184.147	2082.84
184.223	2075
184.299	2088.89
184.375	2080.76
184.452	2087.65
184.528	2142.42
184.604	2155.12
184.68	2168.72
184.756	2175
184.832	2178.43
184.908	2183.75
184.985	2182.56
185.061	2165.68
185.137	2174.38
185.213	2158.78
185.289	2156.88
185.365	2152.55
185.441	2154.31
185.517	2163.88
185.593	2163.12
185.669	2160.55
185.745	2170.73
185.822	2185.19
185.898	2175.43
185.974	2185.28
186.05	2178.09
186.126	2136.83
186.202	2130.37
186.278	2127.51
186.354	2120.71
186.43	2127.89
186.506	2123.23
186.582	2121.81
186.658	2127.37
186.734	2104.64
186.81	2110.2
186.886	2114.24
186.962	2125.66
187.038	2121.28
187.114	2113.57
187.19	2119.61
187.266	2110.24
187.341	2109.91
187.417	2103.63
187.493	2103.97
187.569	2106.11
187.645	2100.78
187.721	2090.36
187.797	2098.69
187.873	2102.4
187.949	2094.41
188.025	2084.89
188.101	2087.27
188.176	2092.4
188.252	2090.55
188.328	2099.53
188.404	2099.63
188.48	2095.06
188.556	2088.02
188.632	2086.07
188.707	2087.64
188.783	2082.55
188.859	2078.89
188.935	2069.47
189.011	2077.94
189.086	2072.71
189.162	2062.86
189.238	2059.87
189.314	2058.49
189.39	2051.16
189.465	2042.7
189.541	2059.25
189.617	2045.7
189.693	2041.04
189.768	2042.61
189.844	2062.83
189.92	2056.22
189.996	2066.07
190.071	2077.29
190.147	2076.82
190.223	2085
190.298	2073.49
190.374	2064.59
190.45	2075.82
190.526	2085.47
190.601	2078.77
190.677	2080.95
190.753	2106.75
190.828	2111.26
190.904	2125.73
190.98	2140.14
191.055	2153.51
191.131	2142.95
191.207	2162.35
191.282	2171.96
191.358	2166.25
191.433	2153.73
191.509	2165.38
191.585	2161.43
191.66	2159.53
191.736	2166.86
191.811	2158.39
191.887	2176.09
191.963	2198.55
192.038	2204.64
192.114	2201.31
192.189	2204.25
192.265	2196.98
192.34	2179.84
192.416	2181.51
192.491	2178.08
192.567	2178.94
192.642	2178.75
192.718	2180.37
192.793	2171.37
192.869	2169.61
192.944	2169.23
193.02	2176.09
193.095	2180.65
193.171	2183.17
193.246	2183.46
193.322	2181.75
193.397	2184.13
193.473	2172.66
193.548	2153.62
193.624	2158.14
193.699	2159.67
193.775	2178.04
193.85	2181.74
193.925	2187.93
194.001	2184.13
194.076	2175.28
194.152	2165.47
194.227	2156.1
194.302	2145.4
194.378	2148.87
194.453	2145.59
194.529	2160.39
194.604	2143.12
194.679	2135.7
194.755	2120.63
194.83	2136.62
194.905	2132.29
194.981	2140.52
195.056	2135
195.131	2142.23
195.207	2142.95
195.282	2133.96
195.357	2111.31
195.433	2129.43
195.508	2120.68
195.583	2129.95
195.659	2146.08
195.734	2153.6
195.809	2154.03
195.884	2165.39
195.96	2165.3
196.035	2179.95
196.11	2174.86
196.185	2193.27
196.261	2194.7
196.336	2223
196.411	2206.01
196.486	2213.15
196.561	2208.82
196.637	2214.38
196.712	2228.19
196.787	2228.52
196.862	2242.17
196.937	2253.21
197.013	2254.64
197.088	2263.25
197.163	2285.34
197.238	2300.48
197.313	2300.86
197.388	2316.95
197.464	2344.37
197.539	2354.17
197.614	2345.94
197.689	2360.03
197.764	2372.08
197.839	2396.3
197.914	2392.88
197.989	2416.63
198.065	2431.72
198.14	2479.12
198.215	2508.4
198.29	2518.31
198.365	2531.4
198.44	2542.83
198.515	2573.93
198.59	2590.55
198.665	2617.17
198.74	2623.32
198.815	2624.23
198.89	2646.8
198.965	2678.44
199.04	2674.2
199.115	2694.35
199.19	2740.93
199.265	2742.93
199.34	2750.6
199.415	2786.36
199.49	2808.32
199.565	2815.75
199.64	2838.81
199.715	2837.86
199.79	2844.77
199.865	2852.82
199.94	2851.4
200.015	2882.85
200.09	2887.76
200.165	2896.06
200.24	2903.87
200.315	2945.19
200.39	2961.54
200.464	2969.45
200.539	2968.73
200.614	2985.56
200.689	3007.77
200.764	3009.82
200.839	3027.6
200.914	3034.13
200.989	3022.82
201.063	3035.79
201.138	3017.59
201.213	3015.73
201.288	2993.09
201.363	2994.62
201.438	2994.47
201.512	3010.34
201.587	2992.13
201.662	2995.7
201.737	3007.39
201.812	3015.49
201.886	2981.19
201.961	2992.11
202.036	2976.81
202.111	2973.38
202.186	2946.04
202.26	2926.87
202.335	2908.13
202.41	2897.79
202.485	2882.3
202.559	2859.71
202.634	2831.12
202.709	2845.07
202.784	2829.06
202.858	2833.2
202.933	2818.05
203.008	2813.24
203.082	2793.56
203.157	2792.7
203.232	2746.55
203.306	2724.1
203.381	2687.02
203.456	2665.58
203.53	2640.02
203.605	2623.31
203.68	2598.01
203.754	2593.3
203.829	2577.67
203.904	2558.57
203.978	2547.95
204.053	2549.86
204.127	2536.72
204.202	2534.91
204.277	2518
204.351	2509.71
204.426	2501.85
204.5	2491.99
204.575	2457.34
204.65	2468.2
204.724	2459.67
204.799	2469.76
204.873	2467
204.948	2469.52
205.022	2458
205.097	2449.52
205.171	2462.56
205.246	2471.37
205.32	2468.57
205.395	2472.66
205.469	2461.53
205.544	2469.72
205.618	2454.82
205.693	2468.39
205.767	2458.49
205.842	2475.06
205.916	2471.63
205.991	2462.3
206.065	2468.2
206.14	2483.29
206.214	2478.14
206.289	2475.28
206.363	2488.38
206.438	2491.28
206.512	2496.04
206.586	2515.13
206.661	2524.52
206.735	2505.01
206.81	2508.05
206.884	2524.57
206.958	2510.81
207.033	2532.57
207.107	2541.29
207.181	2573.06
207.256	2565.73
207.33	2586.11
207.405	2603.74
207.479	2625.18
207.553	2633.51
207.628	2622.56
207.702	2639.28
207.776	2639.51
207.851	2645.28
207.925	2666.68
207.999	2667.53
208.073	2673.92
208.148	2686.35
208.222	2681.87
208.296	2724.17
208.371	2750.63
208.445	2772.17
208.519	2814.24
208.593	2836.55
208.668	2847.94
208.742	2867.79
208.816	2889.37
208.89	2919.93
208.965	2938.3
209.039	2962.72
209.113	3006.93
209.187	3051.48
209.261	3072.26
209.336	3119.53
209.41	3169.52
209.484	3200.45
209.558	3261.05
209.632	3309.71
209.707	3354.47
209.781	3419.76
209.855	3471.23
209.929	3528.33
210.003	3578.17
210.077	3626.45
210.151	3725.6
210.226	3810.04
210.3	3897.27
210.374	3980.63
210.448	4047.83
210.522	4118.12
210.596	4199.31
210.67	4276.54
210.744	4396.24
210.818	4504.36
210.892	4601.7
210.966	4678.45
211.041	4778.3
211.115	4855.8
211.189	4967.26
211.263	5076.97
211.337	5172.19
211.411	5285.99
211.485	5384.5
211.559	5496.42
211.633	5601.31
211.707	5671.92
211.781	5787.74
211.855	5858.5
211.929	5958.14
212.003	6054.05
212.077	6177.87
212.151	6304.93
212.225	6430.51
212.299	6539.55
212.373	6649.02
212.447	6769.21
212.52	6919.23
212.594	7045.26
212.668	7181.74
212.742	7300.55
212.816	7428.27
212.89	7554.53
212.964	7687.5
213.038	7823.37
213.112	7972.7
213.186	8121.02
213.26	8240.53
213.333	8334.44
213.407	8477.16
213.481	8617.92
213.555	8769.62
213.629	8896.11
213.703	9023.35
213.777	9164.08
213.85	9289.36
213.924	9460.93
213.998	9602.9
214.072	9744.75
214.146	9874.02
214.219	10012.93
214.293	10151.99
214.367	10287.4
214.441	10443.78
214.515	10568.95
214.588	10681.45
214.662	10787.84
214.736	10904.93
214.81	11047.4
214.883	11192.63
214.957	11321.14
215.031	11443.74
215.105	11555.25
215.178	11678.39
215.252	11804.9
215.326	11907.9
215.4	12015.53
215.473	12103.21
215.547	12212.97
215.621	12315.5
215.694	12450.71
215.768	12551.69
215.842	12658.7
215.915	12770.59
215.989	12859
216.063	12969.96
216.136	13087.73
216.21	13203.86
216.284	13332.61
216.357	13447.2
216.431	13555.52
216.504	13666.53
216.578	13804.64
216.652	13922.5
216.725	14035.45
216.799	14152.4
216.873	14261.1
216.946	14378.48
217.02	14476.82
217.093	14571.78
217.167	14660.77
217.24	14737.75
217.314	14838.69
217.387	14929.36
217.461	15015.45
217.535	15127.91
217.608	15213.13
217.682	15310.45
217.755	15421.75
217.829	15503.16
217.902	15604.38
217.976	15700.59
218.049	15790.43
218.123	15856.56
218.196	15961.45
218.27	16046.52
218.343	16111.54
218.417	16208.27
218.49	16278.69
218.563	16381.25
218.637	16467.38
218.71	16567.29
218.784	16665.8
218.857	16760.94
218.931	16863.74
219.004	16950.59
219.077	17040.47
219.151	17127.61
219.224	17199.42
219.298	17269.4
219.371	17361.93
219.444	17416.39
219.518	17492.24
219.591	17562.27
219.665	17670.7
219.738	17734.6
219.811	17791.61
219.885	17870.79
219.958	17941.68
220.031	18014.4
220.105	18080.38
220.178	18152.37
220.251	18217.67
220.325	18289.48
220.398	18355.88
220.471	18414
220.544	18485.03
220.618	18531.73
220.691	18594.42
220.764	18662.95
220.838	18730.51
220.911	18776.73
220.984	18856.34
221.057	18920.43
221.131	18984.86
221.204	19007.65
221.277	19079.26
221.35	19156.51
221.424	19212.7
221.497	19278.63
221.57	19344.31
221.643	19408.74
221.716	19473.55
221.79	19508.44
221.863	19546.51
221.936	19594.46
222.009	19631.71
222.082	19679.66
222.155	19726.36
222.229	19782.41
222.302	19834.79
222.375	19871.37
222.448	19923.94
222.521	19962.11
222.594	19998.54
222.667	20032.28
222.74	20083.74
222.814	20121.86
222.887	20159.02
222.96	20204.22
223.033	20235.16
223.106	20267.5
223.179	20299.31
223.252	20330.2
223.325	20366.53
223.398	20407.16
223.471	20432.61
223.544	20479.69
223.617	20506.82
223.69	20530.92
223.763	20546.05
223.837	20567.45
223.91	20597.43
223.983	20609.47
224.056	20629.38
224.129	20654.63
224.202	20688.13
224.275	20708.85
224.348	20718.68
224.42	20727.64
224.493	20736.42
224.566	20739.89
224.639	20762.15
224.712	20791.36
224.785	20806.69
224.858	20828.76
224.931	20833.67
225.004	20856.42
225.077	20870.3
225.15	20876.23
225.223	20905.73
225.296	20950.74
225.369	20953.1
225.442	20965.68
225.514	20981.3
225.587	21001.06
225.66	21013.06
225.733	21024.34
225.806	21040.14
225.879	21049.01
225.952	21061.21
226.025	21084.53
226.097	21125.4
226.17	21133.65
226.243	21117.02
226.316	21134.56
226.389	21148.92
226.461	21168.4
226.534	21177.31
226.607	21183.67
226.68	21219.73
226.753	21222.67
226.825	21207.87
226.898	21234.28
226.971	21242.47
227.044	21259.87
227.117	21278.53
227.189	21296.12
227.262	21319.93
227.335	21333.95
227.407	21346.2
227.48	21367.93
227.553	21378.92
227.626	21377.77
227.698	21389.43
227.771	21405.67
227.844	21396.27
227.916	21420.66
227.989	21422.78
228.062	21431.46
228.134	21455.61
228.207	21449.24
228.28	21452.04
228.352	21461.2
228.425	21464.96
228.498	21481.1
228.57	21464.43
228.643	21472.53
228.716	21475.51
228.788	21465.1
228.861	21463.56
228.934	21471.85
229.006	21463.32
229.079	21458.45
229.151	21448.67
229.224	21430.45
229.296	21434.26
229.369	21461.59
229.442	21457.83
229.514	21442.02
229.587	21443.56
229.659	21421.82
229.732	21431.8
229.804	21445.54
229.877	21462.55
229.949	21471.95
230.022	21485.11
230.094	21493.25
230.167	21489.78
230.239	21481.3
230.312	21485.98
230.384	21504.82
230.457	21504.24
230.529	21503.33
230.602	21502.03
230.674	21507.86
230.747	21523.38
230.819	21523.76
230.892	21489.88
230.964	21480.1
231.037	21494.65
231.109	21493.16
231.181	21500.58
231.254	21475.95
231.326	21461.06
231.399	21447.46
231.471	21435.56
231.544	21399.41
231.616	21409.19
231.688	21401.09
231.761	21381.62
231.833	21362.3
231.905	21331.69
231.978	21323.74
232.05	21311.69
232.122	21307.93
232.195	21283.35
232.267	21283.01
232.339	21268.21
232.412	21273.56
232.484	21263.63
232.556	21241.61
232.629	21243.92
232.701	21240.35
232.773	21236.93
232.846	21229.65
232.918	21221.94
232.99	21208.83
233.062	21207.96
233.135	21201.75
233.207	21186.42
233.279	21182.42
233.351	21176.83
233.424	21161.31
233.496	21138.08
233.568	21147.77
233.64	21113.02
233.713	21109.55
233.785	21092.25
233.857	21075.76
233.929	21044.53
234.001	21052.39
234.074	21064.53
234.146	21030.55
234.218	21004.29
234.29	20982.6
234.362	20950.89
234.434	20910.02
234.507	20878.84
234.579	20846.4
234.651	20808.52
234.723	20788.32
234.795	20765.77
234.867	20742.44
234.939	20728.71
235.012	20710.93
235.084	20693
235.156	20687.5
235.228	20649.53
235.3	20619.07
235.372	20609.81
235.444	20600.75
235.516	20543.16
235.588	20508.65
235.66	20492.8
235.732	20475.21
235.804	20510.68
235.876	20492.7
235.948	20486.73
236.02	20473.28
236.092	20453.91
236.164	20435.31
236.236	20401.43
236.308	20386.15
236.38	20368.08
236.452	20345.24
236.524	20319.5
236.596	20304.46
236.668	20283.65
236.74	20270.73
236.812	20250.39
236.884	20224.42
236.956	20195.7
237.028	20170.97
237.1	20127.22
237.172	20114.64
237.244	20091.94
237.316	20018.68
237.388	19987.6
237.46	19945.15
237.532	19919.99
237.604	19886.21
237.675	19878.06
237.747	19863.65
237.819	19825.73
237.891	19797.59
237.963	19749.25
238.035	19718.75
238.107	19657.64
238.178	19642.75
238.25	19621.69
238.322	19620.68
238.394	19575.09
238.466	19538.32
238.538	19515.43
238.609	19496.64
238.681	19441.46
238.753	19407.48
238.825	19381.03
238.897	19359.15
238.968	19348.93
239.04	19311.11
239.112	19303.59
239.184	19255.64
239.255	19215.16
239.327	19186.63
239.399	19155.26
239.471	19145.14
239.542	19117.48
239.614	19107.5
239.686	19051.46
239.758	19022.83
239.829	18970.93
239.901	18947.95
239.973	18924.67
240.044	18894.7
240.116	18868.19
240.188	18839.57
240.259	18803.38
240.331	18766.08
240.403	18736.49
240.474	18692.3
240.546	18651.1
240.618	18602.43
240.689	18566.23
240.761	18531.49
240.833	18512.84
240.904	18473.42
240.976	18427.88
241.048	18400.85
241.119	18366.05
241.191	18327.98
241.262	18296.27
241.334	18262.93
241.405	18228.04
241.477	18188.42
241.549	18150.74
241.62	18120.14
241.692	18091.8
241.763	18063.8
241.835	18023.71
241.906	17984.67
241.978	17935.42
242.049	17922.07
242.121	17895.57
242.192	17872.19
242.264	17831.86
242.335	17787.14
242.407	17767.86
242.478	17726.03
242.55	17696.78
242.621	17654.13
242.693	17624.97
242.764	17588.73
242.836	17551.77
242.907	17522.03
242.979	17491.33
243.05	17465.5
243.122	17428.06
243.193	17398.42
243.264	17348.25
243.336	17325.69
243.407	17307.48
243.479	17295.14
243.55	17263.24
243.622	17229.74
243.693	17189.64
243.764	17173.69
243.836	17124
243.907	17082.85
243.978	17053.25
244.05	17021.4
244.121	16971.47
244.192	16949.06
244.264	16902.65
244.335	16866.16
244.407	16814.5
244.478	16783.41
244.549	16748.52
244.62	16704.61
244.692	16666.92
244.763	16644.41
244.834	16600.12
244.906	16555.93
244.977	16530.48
245.048	16505.85
245.119	16470.96
245.191	16433.08
245.262	16376.68
245.333	16369.5
245.405	16340.39
245.476	16323.96
245.547	16297.26
245.618	16280.05
245.689	16246.65
245.761	16224.38
245.832	16191.27
245.903	16172.47
245.974	16146.4
246.045	16101.72
246.117	16082.92
246.188	16040.65
246.259	15999.2
246.33	15971.72
246.401	15939.62
246.473	15882.17
246.544	15840.91
246.615	15815.51
246.686	15775.74
246.757	15759.69
246.828	15710.91
246.899	15686.72
246.97	15635.14
247.042	15584.34
247.113	15560.63
247.184	15548.91
247.255	15509.49
247.326	15484.28
247.397	15436.6
247.468	15398.57
247.539	15384.5
247.61	15344.83
247.681	15321.55
247.752	15306.27
247.823	15255.51
247.894	15220.71
247.965	15189.57
248.037	15156.84
248.108	15115.19
248.179	15092.59
248.25	15066.03
248.321	15045.54
248.392	15006.16
248.463	14995.75
248.534	14968.32
248.605	14941.52
248.675	14907.34
248.746	14880.54
248.817	14857.89
248.888	14849.45
248.959	14817.25
249.03	14780.61
249.101	14751.93
249.172	14719.01
249.243	14664.73
249.314	14663.24
249.385	14642.12
249.456	14620.77
249.527	14589.19
249.598	14567.69
249.669	14537.04
249.739	14510.52
249.81	14486.61
249.881	14443.95
249.952	14423.22
250.023	14396.61
250.094	14350.29
250.165	14305.41
250.235	14278.37
250.306	14250.99
250.377	14210.59
250.448	14182.2
250.519	14140.35
250.59	14138.18
250.66	14109.02
250.731	14096.05
250.802	14063.9
250.873	14038.25
250.944	14012.22
251.014	13980.65
251.085	13980.79
251.156	13962.33
251.227	13952.93
251.297	13935.77
251.368	13924.54
251.439	13903.95
251.51	13893.1
251.58	13861.72
251.651	13841.14
251.722	13822.53
251.792	13777.99
251.863	13754.08
251.934	13745.26
252.005	13742.99
252.075	13701.1
252.146	13682.15
252.217	13680.42
252.287	13662.48
252.358	13637.71
252.429	13633.75
252.499	13605.17
252.57	13575.66
252.641	13564.53
252.711	13537.87
252.782	13503.21
252.852	13495.79
252.923	13467.39
252.994	13445.12
253.064	13437.46
253.135	13406.51
253.205	13383.22
253.276	13375.08
253.347	13367.65
253.417	13332.27
253.488	13308.36
253.558	13284.45
253.629	13258.66
253.699	13234.46
253.77	13218.21
253.841	13192.66
253.911	13172.18
253.982	13151.5
254.052	13133.47
254.123	13106.13
254.193	13074.41
254.264	13085.31
254.334	13056.48
254.405	13017.77
254.475	12979.16
254.546	12952.6
254.616	12934.71
254.687	12914.95
254.757	12898.56
254.827	12876.96
254.898	12865.83
254.968	12846.21
255.039	12823.26
255.109	12814.15
255.18	12777.22
255.25	12735.09
255.321	12725.79
255.391	12689.39
255.461	12688.62
255.532	12642.06
255.602	12620.94
255.673	12586.48
255.743	12555.87
255.813	12513.16
255.884	12512.82
255.954	12507.13
256.024	12505.11
256.095	12493.68
256.165	12463.31
256.235	12444.42
256.306	12411.45
256.376	12401.08
256.446	12385.03
256.517	12364.64
256.587	12359.72
256.657	12343
256.728	12326.66
256.798	12303.23
256.868	12282.16
256.938	12256.76
257.009	12245.82
257.079	12227.07
257.149	12231.12
257.219	12188.7
257.29	12176.55
257.36	12133.32
257.43	12122.18
257.5	12080.92
257.571	12056.96
257.641	12041.25
257.711	12011.75
257.781	12002.25
257.852	11985.29
257.922	11948.99
257.992	11930.63
258.062	11902.81
258.132	11893.8
258.202	11875.58
258.273	11853.31
258.343	11844.01
258.413	11816.87
258.483	11797.55
258.553	11775.57
258.623	11748.38
258.693	11737.73
258.764	11727.99
258.834	11730.26
258.904	11706.83
258.974	11674.16
259.044	11646.97
259.114	11633.91
259.184	11619.89
259.254	11599.16
259.324	11553.95
259.394	11540.79
259.464	11544.12
259.535	11524.36
259.605	11504.93
259.675	11478.33
259.745	11472.02
259.815	11450.09
259.885	11428.26
259.955	11442.81
260.025	11410.04
260.095	11386.86
260.165	11382.23
260.235	11384.26
260.305	11354.57
260.375	11324.4
260.445	11332.64
260.515	11331.96
260.585	11328.01
260.655	11308.01
260.725	11299.77
260.795	11299
260.865	11307.63
260.934	11279.91
261.004	11268.11
261.074	11249.31
261.144	11252.59
261.214	11239.29
261.284	11210.37
261.354	11205.36
261.424	11172.39
261.494	11179.19
261.564	11170.27
261.634	11152.63
261.703	11113.45
261.773	11103.04
261.843	11098.66
261.913	11079.04
261.983	11045.41
262.053	11031
262.123	11017.22
262.192	10988.3
262.262	10979.72
262.332	10945.51
262.402	10936.02
262.472	10919.39
262.541	10880.17
262.611	10873.32
262.681	10844.84
262.751	10847.93
262.821	10826.05
262.89	10796.08
262.96	10784.27
263.03	10786.15
263.1	10767.45
263.169	10755.17
263.239	10748.37
263.309	10748.28
263.379	10738.93
263.448	10726.69
263.518	10717.34
263.588	10701.87
263.657	10702.55
263.727	10697.06
263.797	10681.97
263.867	10662.7
263.936	10638.42
264.006	10636.83
264.076	10616.4
264.145	10594.52
264.215	10572.89
264.285	10564.5
264.354	10530.78
264.424	10506.3
264.494	10468.62
264.563	10456.24
264.633	10452.68
264.702	10437.5
264.772	10405.21
264.842	10392.3
264.911	10383.1
264.981	10351.78
265.05	10335.79
265.12	10312.95
265.19	10294.45
265.259	10293.2
265.329	10283.8
265.398	10265.59
265.468	10285.59
265.537	10265.45
265.607	10265.45
265.676	10259.91
265.746	10253.4
265.815	10252.01
265.885	10240.16
265.955	10222.91
266.024	10198.34
266.094	10170.59
266.163	10165.92
266.232	10162.31
266.302	10144.53
266.371	10130.51
266.441	10117.36
266.51	10109.36
266.58	10093.61
266.649	10073.28
266.719	10064.47
266.788	10048.14
266.858	10057.38
266.927	10015.28
266.996	10003.48
267.066	9998.13
267.135	9971.49
267.205	9965.52
267.274	9957.86
267.343	9946.88
267.413	9934.89
267.482	9935.46
267.552	9938.98
267.621	9916.48
267.69	9891.15
267.76	9880.65
267.829	9873.42
267.898	9867.98
267.968	9851.36
268.037	9852.28
268.106	9848.76
268.176	9827.61
268.245	9821.45
268.314	9804.35
268.384	9802.37
268.453	9792.64
268.522	9783.11
268.592	9786.05
268.661	9766.44
268.73	9763.7
268.799	9745.54
268.869	9753.87
268.938	9724.25
269.007	9705.23
269.076	9688.71
269.146	9683.03
269.215	9670.84
269.284	9684.91
269.353	9661.21
269.422	9643.35
269.492	9621.63
269.561	9580.41
269.63	9568.94
269.699	9550.98
269.768	9540.33
269.838	9530.99
269.907	9525.26
269.976	9499.49
270.045	9472.58
270.114	9463.47
270.183	9446.43
270.253	9446.67
270.322	9417.44
270.391	9412.33
270.46	9406.17
270.529	9402.03
270.598	9399.18
270.667	9389.12
270.736	9355.84
270.806	9351.46
270.875	9362.63
270.944	9354.11
271.013	9377.32
271.082	9369.23
271.151	9365.95
271.22	9331
271.289	9314.43
271.358	9300.85
271.427	9291.22
271.496	9278.71
271.565	9269.41
271.634	9257.28
271.703	9285.02
271.772	9284.49
271.841	9277.27
271.91	9259.89
271.979	9259.5
272.048	9236.58
272.117	9233.6
272.186	9217.47
272.255	9218.62
272.324	9212.12
272.393	9212.51
272.462	9194.93
272.531	9189.16
272.6	9168.55
272.669	9181.98
272.738	9173.31
272.807	9171
272.876	9147.27
272.945	9175.29
273.013	9175.68
273.082	9180.59
273.151	9129.5
273.22	9125.6
273.289	9111.73
273.358	9122.08
273.427	9104.85
273.496	9101.24
273.564	9099.12
273.633	9102.01
273.702	9085.35
273.771	9074.71
273.84	9071.87
273.909	9067.97
273.977	9066.28
274.046	9066.81
274.115	9069.22
274.184	9053.34
274.253	9042.31
274.322	9057.04
274.39	9022.52
274.459	9008.46
274.528	8981.55
274.597	8977.6
274.665	8979.43
274.734	8989.93
274.803	8969.66
274.872	8963.26
274.94	8957.1
275.009	9016.77
275.078	9005.89
275.147	8998
275.215	8991.69
275.284	8990.1
275.353	8978.26
275.421	8946.3
275.49	8954.43
275.559	8946.92
275.627	8941.87
275.696	8931.52
275.765	8928.97
275.833	8925.31
275.902	8923.39
275.971	8934.21
276.039	8942.21
276.108	8940.38
276.177	8943.22
276.245	8939.51
276.314	8941.34
276.383	8940.09
276.451	8869.25
276.52	8869.15
276.588	8880.8
276.657	8881.18
276.725	8871.17
276.794	8874.11
276.863	8887.53
276.931	8863.32
277	8863.32
277.068	8873.04
277.137	8893.65
277.205	8893.17
277.274	8906.16
277.342	8908.14
277.411	8890.62
277.48	8879.74
277.548	8871.41
277.617	8862.89
277.685	8858.27
277.754	8855.67
277.822	8845.71
277.89	8862.89
277.959	8855.58
278.027	8836.08
278.096	8822.6
278.164	8850.91
278.233	8837.87
278.301	8829.26
278.37	8838.88
278.438	8825.45
278.507	8829.98
278.575	8800.32
278.643	8794.84
278.712	8778.33
278.78	8765.48
278.849	8774.62
278.917	8784.1
278.985	8774.14
279.054	8772.5
279.122	8785.06
279.191	8785.06
279.259	8786.51
279.327	8761.23
279.396	8777.89
279.464	8772.4
279.532	8784.92
279.601	8772.98
279.669	8769.8
279.737	8782.75
279.806	8779.72
279.874	8790.02
279.942	8783.9
280.011	8778.61
280.079	8783.09
280.147	8796.95
280.215	8801.86
280.284	8797.29
280.352	8781.11
280.42	8788.96
280.488	8782.22
280.557	8774.95
280.625	8775.63
280.693	8773.46
280.761	8780.54
280.83	8759.5
280.898	8775.96
280.966	8752.62
281.034	8721.23
281.102	8711.18
281.171	8703.28
281.239	8715.51
281.307	8705.98
281.375	8697.32
281.443	8725.76
281.512	8724.32
281.58	8728.22
281.648	8715.75
281.716	8706.61
281.784	8702.28
281.852	8687.84
281.92	8686.68
281.989	8692.22
282.057	8676.62
282.125	8728.62
282.193	8721.74
282.261	8720.87
282.329	8711.73
282.397	8720.53
282.465	8727.51
282.533	8740.94
282.601	8729.72
282.67	8706.86
282.738	8697.28
282.806	8708.69
282.874	8698.05
282.942	8702.14
283.01	8697.13
283.078	8703.58
283.146	8709.84
283.214	8723.75
283.282	8731.35
283.35	8742.38
283.418	8738.81
283.486	8745.31
283.554	8696.39
283.622	8696.25
283.69	8696.49
283.758	8698.13
283.826	8704.91
283.894	8707.9
283.962	8726.72
284.03	8742.26
284.098	8740.29
284.165	8737.31
284.233	8734.23
284.301	8724.17
284.369	8715.12
284.437	8706.36
284.505	8698.42
284.573	8708.96
284.641	8698.37
284.709	8700.2
284.777	8682.44
284.845	8687.83
284.912	8687.64
284.98	8687.16
285.048	8683.55
285.116	8693.36
285.184	8703.23
285.252	8702.99
285.319	8685.67
285.387	8674.79
285.455	8655.15
285.523	8666.75
285.591	8663.96
285.659	8663.86
285.726	8678.69
285.794	8656.26
285.862	8654.48
285.93	8657.9
285.997	8653.13
286.065	8650.68
286.133	8648.85
286.201	8647.41
286.269	8631.04
286.336	8624.54
286.404	8617.95
286.472	8630.03
286.539	8609.15
286.607	8587.25
286.675	8577.82
286.743	8588.4
286.81	8584.36
286.878	8601.35
286.946	8588.79
287.013	8586.09
287.081	8583.83
287.149	8567.08
287.216	8591.43
287.284	8585.27
287.352	8583.83
287.419	8577.14
287.487	8589.22
287.555	8587.29
287.622	8587.87
287.69	8603.42
287.758	8618.48
287.825	8616.46
287.893	8598.84
287.96	8606.2
288.028	8619.68
288.096	8630.99
288.163	8632.53
288.231	8624.01
288.298	8619.05
288.366	8634.84
288.433	8632.43
288.501	8626.03
288.569	8627.53
288.636	8619.87
288.704	8629.74
288.771	8634.79
288.839	8630.37
288.906	8621.94
288.974	8631.43
289.041	8626.32
289.109	8611.31
289.176	8614.97
289.244	8625.6
289.311	8639.9
289.379	8644.95
289.446	8651.88
289.514	8650.34
289.581	8653.08
289.649	8659.1
289.716	8661.65
289.783	8653.9
289.851	8676.13
289.918	8674.35
289.986	8690.62
290.053	8698.95
290.121	8703.66
290.188	8708.14
290.255	8736.49
290.323	8732.25
290.39	8732.01
290.458	8744.19
290.525	8756.7
290.592	8752.23
290.66	8748.95
290.727	8742.12
290.794	8757.14
290.862	8751.5
290.929	8747.7
290.996	8746.69
291.064	8756.22
291.131	8767.77
291.198	8784.96
291.266	8785.54
291.333	8791.74
291.4	8793.81
291.468	8808.69
291.535	8801.33
291.602	8803.88
291.669	8797.86
291.737	8804.64
291.804	8795.88
291.871	8809.65
291.938	8819.04
292.006	8847.83
292.073	8857.79
292.14	8872.33
292.207	8867.47
292.275	8869.73
292.342	8881.28
292.409	8911.9
292.476	8931.3
292.543	8925.23
292.611	8914.88
292.678	8927.5
292.745	8952.96
292.812	8959.8
292.879	8953.54
292.946	8960.66
293.014	8970.58
293.081	8981.22
293.148	8996.19
293.215	9016.7
293.282	9010.53
293.349	9017.47
293.416	8993.59
293.484	9010.92
293.551	9013.52
293.618	9031.95
293.685	9055.64
293.752	9051.69
293.819	9042.98
293.886	9029.55
293.953	9030.03
294.02	9047.69
294.087	9055.64
294.154	9047.21
294.221	9061.75
294.288	9070.32
294.356	9087.17
294.423	9102
294.49	9094.35
294.557	9105.95
294.624	9097.86
294.691	9117.79
294.758	9120.73
294.825	9129.59
294.892	9111.87
294.959	9116.16
295.026	9119.87
295.093	9116.06
295.16	9116.69
295.226	9115.1
295.293	9138.89
295.36	9144.47
295.427	9152.13
295.494	9165.03
295.561	9177.5
295.628	9204.37
295.695	9220.22
295.762	9228.35
295.829	9231.68
295.896	9249.25
295.963	9259.84
296.03	9273.71
296.096	9274.91
296.163	9286.95
296.23	9306.93
296.297	9336.2
296.364	9334.57
296.431	9342.18
296.498	9340.73
296.564	9367.12
296.631	9376.94
296.698	9360.71
296.765	9386.42
296.832	9378.48
296.899	9362.68
296.965	9378.43
297.032	9348.38
297.099	9361.38
297.166	9366.53
297.233	9364.7
297.299	9356.81
297.366	9357.67
297.433	9359.7
297.5	9370.63
297.566	9365.71
297.633	9361.43
297.7	9358.35
297.767	9360.42
297.833	9361.96
297.9	9364.08
297.967	9347.37
298.033	9358.78
298.1	9388.3
298.167	9379.54
298.234	9384.83
298.3	9394.42
298.367	9381.99
298.434	9392.73
298.5	9381.12
298.567	9374.19
298.634	9372.79
298.7	9389.41
298.767	9392.58
298.834	9408.23
298.9	9403.37
298.967	9393.6
299.033	9400.77
299.1	9412.04
299.167	9428.31
299.233	9427.06
299.3	9446.18
299.366	9468.23
299.433	9483.21
299.5	9463.85
299.566	9466.74
299.633	9480.9
299.699	9493.95
299.766	9500.93
299.832	9507.72
299.899	9518.56
299.965	9531.75
300.032	9528.38
300.099	9533.54
300.165	9534.64
300.232	9529.35
300.298	9529.54
300.365	9553.57
300.431	9551.83
300.498	9548.46
300.564	9553.47
300.631	9566.23
300.697	9571.05
300.763	9567.01
300.83	9563.06
300.896	9574.9
300.963	9590.02
301.029	9600.28
301.096	9605.05
301.162	9611.07
301.229	9606.64
301.295	9600.38
301.361	9599.42
301.428	9599.85
301.494	9593.83
301.561	9598.45
301.627	9602.69
301.693	9605.77
301.76	9604.23
301.826	9608.13
301.892	9613.81
301.959	9620.85
302.025	9615.21
302.092	9609
302.158	9618.1
302.224	9619.02
302.291	9606.5
302.357	9600.43
302.423	9586.84
302.49	9573.5
302.556	9587.91
302.622	9584.2
302.688	9591.81
302.755	9603.66
302.821	9619.88
302.887	9624.03
302.954	9619.98
303.02	9622.05
303.086	9628.55
303.152	9622.58
303.219	9610.54
303.285	9616.75
303.351	9618.1
303.417	9623.26
303.483	9615.21
303.55	9609
303.616	9603.65
303.682	9604.86
303.748	9598.5
303.815	9617.77
303.881	9635.92
303.947	9621.96
304.013	9621.09
304.079	9615.94
304.145	9601.49
304.212	9599.37
304.278	9589.83
304.344	9587.81
304.41	9579.29
304.476	9570.71
304.542	9570.67
304.608	9576.83
304.674	9562.91
304.741	9559.3
304.807	9556.17
304.873	9567.15
304.939	9580.15
305.005	9569.41
305.071	9567.39
305.137	9573.31
305.203	9552.03
305.269	9543.55
305.335	9549.57
305.401	9551.3
305.467	9544.56
305.533	9550.2
305.599	9555.97
305.666	9562.67
305.732	9565.41
305.798	9571.29
305.864	9600.81
305.93	9604.14
305.996	9611.94
306.062	9610.78
306.128	9612.18
306.194	9601.54
306.259	9598.7
306.325	9586.9
306.391	9588.29
306.457	9600.23
306.523	9597.97
306.589	9616.47
306.655	9610.01
306.721	9592.48
306.787	9583.67
306.853	9596.58
306.919	9580.06
306.985	9572.31
307.051	9566.77
307.117	9555.26
307.183	9553.62
307.248	9521.54
307.314	9519.57
307.38	9514.27
307.446	9519.52
307.512	9499.73
307.578	9503.44
307.644	9497.22
307.709	9499.63
307.775	9499.92
307.841	9491.78
307.907	9488.03
307.973	9464.23
308.039	9461.63
308.104	9471.79
308.17	9471.02
308.236	9457.44
308.302	9464.47
308.368	9455.95
308.433	9454.36
308.499	9455.32
308.565	9441.74
308.631	9447.14
308.696	9427.64
308.762	9416.9
308.828	9413.14
308.894	9401.87
308.959	9384.44
309.025	9376.02
309.091	9367.69
309.156	9359.74
309.222	9361.81
309.288	9350.64
309.354	9332.44
309.419	9331.86
309.485	9315.01
309.551	9313.47
309.616	9297.77
309.682	9291.27
309.748	9278.65
309.813	9277.02
309.879	9268.45
309.945	9256.51
310.01	9242.35
310.076	9246.2
310.141	9247.16
310.207	9235.95
310.273	9238.06
310.338	9240.37
310.404	9222.99
310.469	9213.75
310.535	9205.8
310.601	9183.22
310.666	9194.15
310.732	9206.62
310.797	9191.41
310.863	9181.44
310.928	9179.37
310.994	9183.99
311.059	9182.64
311.125	9182.55
311.191	9191.84
311.256	9177.21
311.322	9187.32
311.387	9166.81
311.453	9516.56
311.518	9486.86
311.584	9484.88
311.649	9488.4
311.715	9472.51
311.78	9477.28
311.846	9464.13
311.911	9467.26
311.976	9468.32
312.042	9447.81
312.107	9430.91
312.173	9424.12
312.238	9413.77
312.304	9406.7
312.369	9393.84
312.434	9381.9
312.5	9373.96
312.565	9342.18
312.631	9348.78
312.696	9334.43
312.761	9340.83
312.827	8979.53
312.892	9015.06
312.958	9006.73
313.023	9005.91
313.088	9009.09
313.154	8994.5
313.219	8988.29
313.284	8978.04
313.35	8969.37
313.415	8959.21
313.48	8953.2
313.546	8958.54
313.611	8970.09
313.676	8959.65
313.741	8952.62
313.807	8957.96
313.872	8959.84
313.937	8960.9
314.003	8973.75
314.068	8976.93
314.133	8982.13
314.198	8971.44
314.264	8948.09
314.329	8940.73
314.394	8933.65
314.459	8933.31
314.525	8950.59
314.59	8950.21
314.655	8934.9
314.72	8944.14
314.785	8946.46
314.851	8942.65
314.916	8920.03
314.981	8904.72
315.046	8895.33
315.111	8888.69
315.176	8875.41
315.242	8874.06
315.307	8873.53
315.372	8849.51
315.437	8840.99
315.502	8833.33
315.567	8846.67
315.632	8829.58
315.698	8835.11
315.763	8831.74
315.828	8828.23
315.893	8820
315.958	8812.01
316.023	8808.78
316.088	8790.44
316.153	8769.08
316.218	8759.84
316.283	8750.55
316.348	8736.11
316.413	8736.3
316.479	8715.13
316.544	8684.04
316.609	8656.66
316.674	8620.23
316.739	8585.83
316.804	8556.95
316.869	8522.55
316.934	8480.72
316.999	8458.3
317.064	8404.6
317.129	8357.35
317.194	8312.46
317.259	8264.01
317.324	8215.42
317.389	8170.15
317.454	8128.34
317.518	8094.82
317.583	8071.24
317.648	8040.65
317.713	8008.37
317.778	7944.78
317.843	7916.11
317.908	7878.27
317.973	7841.38
318.038	7809.93
318.103	7773.38
318.168	7736.45
318.233	7700.53
318.297	7648.99
318.362	7610.37
318.427	7578.02
318.492	7552.44
318.557	7507.16
318.622	7484.51
318.687	7461.54
318.751	7425.06
318.816	7397.61
318.881	7363.72
318.946	7307.96
319.011	7262.73
319.075	7216.55
319.14	7184.26
319.205	7144.28
319.27	7109.87
319.335	7062.98
319.399	7025.88
319.464	6998.02
319.529	6947.19
319.594	6906.45
319.658	6880.47
319.723	6838.82
319.788	6802.03
319.853	6748.13
319.917	6715.1
319.982	6655.83
320.047	6614.53
320.112	6585.09
320.176	6528.62
320.241	6490.54
320.306	6460.87
320.37	6419.63
320.435	6389.96
320.5	6360.06
320.564	6315.89
320.629	6271.93
320.694	6242.51
320.758	6203.68
320.823	6156.32
320.888	6128.1
320.952	6083.24
321.017	6040.54
321.082	6000.09
321.146	5965.88
321.211	5932.45
321.275	5892.11
321.34	5852.12
321.405	5808.57
321.469	5762.82
321.534	5723.45
321.598	5678.76
321.663	5646.96
321.727	5613.4
321.792	5562.77
321.857	5516.07
321.921	5482.9
321.986	5443.26
322.05	5382.26
322.115	5342.24
322.179	5300.84
322.244	5246.37
322.308	5214.74
322.373	5170.72
322.437	5129.33
322.502	5101.72
322.566	5055.4
322.631	5021.97
322.695	4980.84
322.76	4939.32
322.824	4901.11
322.889	4861.19
322.953	4811.12
323.018	4746.63
323.082	4688.81
323.146	4639.91
323.211	4593.59
323.275	4546.49
323.34	4499.75
323.404	4470.53
323.468	4420.91
323.533	4379.44
323.597	4334.4
323.662	4280.41
323.726	4248.02
323.79	4200.97
323.855	4133.29
323.919	4083.96
323.983	4037.87
324.048	3975.15
324.112	4123.91
324.177	3996.99
324.241	3790.37
324.305	3590.87
324.37	3390.51
324.434	3196.7
324.498	3153.98
324.562	3102.16
324.627	3041.75
324.691	2987.92
324.755	2919.4
324.82	2848.97
324.884	2768.98
324.948	2699.76
325.012	2609.81
325.077	2480.52
