Data from 20250702_urea_0.5M_MAYP1162681_00-44-59-445.txt Node
Date: Thu Jul 03 00:44:59 BST 2025
User: adleo
Spectrometer: MAYP116268
Trigger mode: 0
Integration Time (sec): 1.000000E0
Scans to average: 1
Electric dark correction enabled: true
Nonlinearity correction enabled: true
Boxcar width: 10
XAxis mode: Wavelengths
Number of Pixels in Spectrum: 2068
>>>>>Begin Spectral Data<<<<<
179.565	1219.58
179.642	1275.76
179.718	1321.83
179.795	1358.61
179.871	1392.88
179.948	1407.34
180.024	1429.02
180.101	1453.73
180.177	1465.69
180.254	1489.19
180.33	1510.3
180.407	1565.33
180.483	1662.54
180.56	1753.09
180.636	1837.84
180.712	1826.9
180.789	1835.5
180.865	1845.25
180.942	1853.66
181.018	1866.06
181.095	1874.29
181.171	1880.28
181.248	1881.56
181.324	1893.93
181.4	1902.91
181.477	1913.14
181.553	1929.96
181.63	1950.69
181.706	1966.62
181.782	1974.51
181.859	1977.27
181.935	1985.59
182.011	1981.93
182.088	1997.91
182.164	2016.41
182.24	2030.06
182.317	2041.09
182.393	2042.04
182.469	2057.64
182.546	2073.47
182.622	2076.52
182.698	2075.23
182.775	2087.41
182.851	2099.78
182.927	2094.54
183.003	2087.84
183.08	2083.99
183.156	2091.45
183.232	2087.51
183.308	2075.19
183.385	2087.84
183.461	2100.63
183.537	2101.34
183.613	2112.52
183.69	2102.01
183.766	2093.21
183.842	2098.06
183.918	2100.44
183.995	2113.04
184.071	2117.28
184.147	2109.48
184.223	2099.35
184.299	2111.67
184.375	2098.35
184.452	2106.11
184.528	2159.79
184.604	2171.48
184.68	2183.38
184.756	2190.13
184.832	2195.56
184.908	2197.89
184.985	2196.94
185.061	2183.24
185.137	2191.09
185.213	2181.86
185.289	2183.43
185.365	2176.48
185.441	2177.86
185.517	2193.38
185.593	2186.05
185.669	2182.91
185.745	2198.14
185.822	2213.78
185.898	2205.41
185.974	2215.11
186.05	2207.31
186.126	2168.19
186.202	2163.67
186.278	2156.34
186.354	2147.06
186.43	2152.11
186.506	2152.39
186.582	2150.11
186.658	2155.49
186.734	2134.46
186.81	2135.27
186.886	2138.79
186.962	2151.06
187.038	2146.02
187.114	2138.12
187.19	2147.87
187.266	2139.17
187.341	2135.6
187.417	2128.7
187.493	2129.65
187.569	2132.65
187.645	2125.56
187.721	2114
187.797	2120.23
187.873	2127.08
187.949	2123.94
188.025	2118.85
188.101	2121.75
188.176	2128.13
188.252	2123.23
188.328	2131.74
188.404	2133.88
188.48	2128.27
188.556	2122.84
188.632	2122.94
188.707	2121.75
188.783	2117.04
188.859	2111.33
188.935	2101.34
189.011	2108.24
189.086	2100.2
189.162	2091.73
189.238	2092.11
189.314	2089.59
189.39	2081.56
189.465	2072.76
189.541	2087.79
189.617	2071.52
189.693	2070.67
189.768	2071.05
189.844	2096.6
189.92	2087.14
189.996	2095.37
190.071	2105.69
190.147	2105.07
190.223	2115.64
190.298	2106.98
190.374	2096.7
190.45	2109.16
190.526	2118.34
190.601	2112.54
190.677	2114.3
190.753	2141.67
190.828	2142.62
190.904	2159.51
190.98	2175.59
191.055	2183.01
191.131	2175.73
191.207	2198.28
191.282	2205.55
191.358	2197.14
191.433	2182.67
191.509	2196.17
191.585	2191.74
191.66	2193.55
191.736	2199.26
191.811	2189.56
191.887	2208.45
191.963	2230.14
192.038	2236.24
192.114	2235.52
192.189	2240.85
192.265	2239.37
192.34	2218.71
192.416	2217.67
192.491	2211.67
192.567	2215.24
192.642	2220.95
192.718	2220.67
192.793	2207.49
192.869	2202.63
192.944	2207.25
193.02	2217.19
193.095	2223.9
193.171	2231.18
193.246	2231.52
193.322	2227.66
193.397	2228.33
193.473	2211.29
193.548	2194.16
193.624	2199.39
193.699	2198.44
193.775	2215.86
193.85	2217.01
193.925	2226.86
194.001	2227.33
194.076	2219.67
194.152	2208.35
194.227	2198.83
194.302	2188.37
194.378	2191.31
194.453	2184.09
194.529	2193.98
194.604	2176.42
194.679	2167.86
194.755	2148.64
194.83	2162.12
194.905	2161.78
194.981	2168.92
195.056	2163.83
195.131	2171.73
195.207	2169.92
195.282	2162.26
195.357	2141.89
195.433	2156.02
195.508	2143.12
195.583	2151.88
195.659	2167.34
195.734	2178.86
195.809	2180.19
195.884	2190.99
195.96	2194.6
196.035	2212.2
196.11	2211.06
196.185	2224.15
196.261	2228.19
196.336	2258.16
196.411	2242.36
196.486	2247.98
196.561	2243.5
196.637	2251.54
196.712	2264.11
196.787	2267.01
196.862	2278.57
196.937	2288.09
197.013	2296.18
197.088	2308.08
197.163	2330.46
197.238	2346.13
197.313	2340.89
197.388	2354.69
197.464	2384.07
197.539	2394.97
197.614	2389.45
197.689	2400.64
197.764	2414.64
197.839	2435.06
197.914	2429.2
197.989	2451.43
198.065	2464.43
198.14	2516.36
198.215	2542.45
198.29	2556.41
198.365	2569.32
198.44	2581.93
198.515	2610.42
198.59	2623.66
198.665	2647.71
198.74	2654.67
198.815	2658.34
198.89	2685.01
198.965	2719.37
199.04	2717.27
199.115	2731.99
199.19	2774.48
199.265	2777.82
199.34	2789.3
199.415	2824.15
199.49	2850.26
199.565	2863.31
199.64	2886.19
199.715	2880.08
199.79	2888.47
199.865	2895.28
199.94	2893.57
200.015	2926.46
200.09	2932.23
200.165	2938.09
200.24	2945.96
200.315	2983.93
200.39	2995.66
200.464	2999.09
200.539	2995.99
200.614	3010.05
200.689	3034.18
200.764	3042.29
200.839	3062.21
200.914	3068.22
200.989	3058.77
201.063	3071.84
201.138	3051.11
201.213	3053.73
201.288	3035.38
201.363	3040.53
201.438	3039.39
201.512	3053.06
201.587	3036.32
201.662	3040.28
201.737	3050.01
201.812	3057.69
201.886	3027.2
201.961	3039.07
202.036	3026.78
202.111	3023.44
202.186	2994.42
202.26	2976.01
202.335	2953.89
202.41	2943.45
202.485	2929.72
202.559	2908.42
202.634	2879.77
202.709	2890.77
202.784	2871.47
202.858	2872.94
202.933	2856.17
203.008	2850.88
203.082	2832.58
203.157	2831.39
203.232	2785.18
203.306	2770.12
203.381	2738.38
203.456	2715.27
203.53	2690.57
203.605	2672.99
203.68	2650.17
203.754	2641.89
203.829	2629.59
203.904	2607.35
203.978	2595.49
204.053	2595.2
204.127	2580.63
204.202	2578.54
204.277	2561.96
204.351	2554.15
204.426	2547.34
204.5	2538.67
204.575	2504.25
204.65	2517.4
204.724	2511.25
204.799	2524.24
204.873	2516.05
204.948	2517.33
205.022	2503.1
205.097	2495.1
205.171	2506.62
205.246	2514.86
205.32	2515.71
205.395	2511.62
205.469	2503.34
205.544	2510.29
205.618	2492.86
205.693	2506.48
205.767	2492.11
205.842	2513.97
205.916	2508.54
205.991	2496.54
206.065	2499.02
206.14	2512.67
206.214	2506.81
206.289	2498.95
206.363	2510.38
206.438	2516.91
206.512	2522.58
206.586	2545.05
206.661	2553.72
206.735	2533.02
206.81	2533.35
206.884	2548.97
206.958	2535.49
207.033	2559.87
207.107	2567.11
207.181	2603.7
207.256	2598.37
207.33	2619.13
207.405	2630.19
207.479	2651.29
207.553	2661.24
207.628	2649.43
207.702	2663.43
207.776	2660.39
207.851	2666.2
207.925	2684.55
207.999	2685.55
208.073	2689.07
208.148	2694.55
208.222	2690.84
208.296	2730.69
208.371	2756.82
208.445	2778.41
208.519	2821.96
208.593	2840.12
208.668	2848.84
208.742	2860.15
208.816	2876.11
208.89	2904.1
208.965	2918.74
209.039	2944.59
209.113	2978.2
209.187	3018.46
209.261	3037.48
209.336	3078.01
209.41	3120.56
209.484	3146.18
209.558	3192.27
209.632	3229.71
209.707	3268.73
209.781	3317.68
209.855	3365.56
209.929	3411.94
210.003	3444.58
210.077	3481.01
210.151	3567.56
210.226	3641.07
210.3	3709.76
210.374	3779.9
210.448	3831.6
210.522	3890.57
210.596	3950.07
210.67	4011.57
210.744	4109.72
210.818	4196.84
210.892	4275.23
210.966	4324.27
211.041	4402.77
211.115	4458
211.189	4545.59
211.263	4632.91
211.337	4708.9
211.411	4794.89
211.485	4861.12
211.559	4956.75
211.633	5027.35
211.707	5070.43
211.781	5160.36
211.855	5205.01
211.929	5275.57
212.003	5340.76
212.077	5433.57
212.151	5531.09
212.225	5632.98
212.299	5712.62
212.373	5790.02
212.447	5875.61
212.52	6001.95
212.594	6100.44
212.668	6216.74
212.742	6302.41
212.816	6395.16
212.89	6490.2
212.964	6590.83
213.038	6698.51
213.112	6813.8
213.186	6934.29
213.26	7024.43
213.333	7083.96
213.407	7198.58
213.481	7307.68
213.555	7427.06
213.629	7526.3
213.703	7624.05
213.777	7728.21
213.85	7824.05
213.924	7969.26
213.998	8078.88
214.072	8182.76
214.146	8276.77
214.219	8376.65
214.293	8481.19
214.367	8590.57
214.441	8705.78
214.515	8805.18
214.588	8888.35
214.662	8959.64
214.736	9047.73
214.81	9152.03
214.883	9276.08
214.957	9368.99
215.031	9467.79
215.105	9544.81
215.178	9630.87
215.252	9721.7
215.326	9797.51
215.4	9873.27
215.473	9930.07
215.547	10019.81
215.621	10108.8
215.694	10210.98
215.768	10283.53
215.842	10369.67
215.915	10453.84
215.989	10530.21
216.063	10605.43
216.136	10712.74
216.21	10806.89
216.284	10915.6
216.357	11018.96
216.431	11091.2
216.504	11187.19
216.578	11304.64
216.652	11412.49
216.725	11507.09
216.799	11601.08
216.873	11696.7
216.946	11800.51
217.02	11888.33
217.093	11966.99
217.167	12031.1
217.24	12102.29
217.314	12189.53
217.387	12268.92
217.461	12342.57
217.535	12444.72
217.608	12518.42
217.682	12600.32
217.755	12693.64
217.829	12761.13
217.902	12843.22
217.976	12929.94
218.049	13006.11
218.123	13065.16
218.196	13148.65
218.27	13217.64
218.343	13287.78
218.417	13371.46
218.49	13439.53
218.563	13530.88
218.637	13614.95
218.71	13714.16
218.784	13805.22
218.857	13893.25
218.931	13970.71
219.004	14048.81
219.077	14115.48
219.151	14190.58
219.224	14247.27
219.298	14315
219.371	14404.08
219.444	14462.27
219.518	14536.84
219.591	14606.01
219.665	14701.79
219.738	14766.87
219.811	14831.61
219.885	14909.99
219.958	14981.95
220.031	15055.03
220.105	15123.86
220.178	15192.12
220.251	15248.8
220.325	15310.98
220.398	15386.03
220.471	15462.91
220.544	15546.88
220.618	15608.48
220.691	15688.88
220.764	15760.07
220.838	15832.71
220.911	15888.48
220.984	15976.73
221.057	16042.28
221.131	16102.92
221.204	16124.22
221.277	16208.08
221.35	16303.03
221.424	16352.15
221.497	16414.13
221.57	16475.44
221.643	16533.51
221.716	16601.95
221.79	16654.29
221.863	16711.93
221.936	16755.12
222.009	16809.39
222.082	16857.82
222.155	16908.67
222.229	16972.38
222.302	17031.66
222.375	17078.07
222.448	17142.07
222.521	17188.63
222.594	17234.46
222.667	17281.31
222.74	17346.66
222.814	17381.98
222.887	17418.32
222.96	17482.32
223.033	17533.74
223.106	17578.08
223.179	17627.47
223.252	17663.86
223.325	17714.12
223.398	17758.6
223.471	17808.63
223.544	17848.43
223.617	17894.46
223.69	17940.91
223.763	17970.26
223.837	18005.78
223.91	18054.02
223.983	18066.31
224.056	18087.41
224.129	18131.99
224.202	18177.58
224.275	18214.74
224.348	18247.94
224.42	18275.99
224.493	18289.82
224.566	18310.06
224.639	18352.7
224.712	18376.32
224.785	18410.97
224.858	18436.56
224.931	18462.82
225.004	18488.26
225.077	18520.79
225.15	18522.38
225.223	18544.26
225.296	18600.79
225.369	18621.41
225.442	18637.51
225.514	18668.21
225.587	18703.14
225.66	18729.21
225.733	18769.02
225.806	18796.05
225.879	18829.54
225.952	18848.05
226.025	18894.46
226.097	18943.18
226.17	18968.91
226.243	18977.87
226.316	18996.91
226.389	19029.63
226.461	19061.14
226.534	19090.15
226.607	19113.67
226.68	19166.92
226.753	19195.35
226.825	19197.38
226.898	19241.37
226.971	19271.83
227.044	19304.26
227.117	19328.4
227.189	19355.97
227.262	19386.33
227.335	19415.87
227.407	19426.91
227.48	19451.92
227.553	19463.67
227.626	19479.05
227.698	19495.38
227.771	19529.55
227.844	19541.74
227.916	19560.39
227.989	19559.91
228.062	19567.38
228.134	19606.99
228.207	19613.01
228.28	19624.15
228.352	19629.21
228.425	19631.57
228.498	19654.51
228.57	19657.59
228.643	19691.76
228.716	19700.67
228.788	19694.46
228.861	19692.63
228.934	19719.81
229.006	19732
229.079	19749.15
229.151	19749.49
229.224	19740.82
229.296	19754.5
229.369	19795.85
229.442	19821.39
229.514	19837.54
229.587	19862.59
229.659	19854.59
229.732	19877.82
229.804	19906.93
229.877	19950.3
229.949	19980.66
230.022	20006.78
230.094	20022.59
230.167	20027.31
230.239	20029.29
230.312	20045.19
230.384	20092.61
230.457	20112.27
230.529	20128.37
230.602	20144.13
230.674	20153.91
230.747	20181.09
230.819	20204.32
230.892	20176.32
230.964	20189.91
231.037	20202.58
231.109	20218.78
231.181	20232.8
231.254	20230.49
231.326	20233.38
231.399	20238.25
231.471	20231.69
231.544	20220.13
231.616	20234
231.688	20241.47
231.761	20254.05
231.833	20262.97
231.905	20233.81
231.978	20223.26
232.05	20223.88
232.122	20222.63
232.195	20224.51
232.267	20244.65
232.339	20234.63
232.412	20253.71
232.484	20245.04
232.556	20235.4
232.629	20246.53
232.701	20248.65
232.773	20243.93
232.846	20242.82
232.918	20233.18
232.99	20238.68
233.062	20244.7
233.135	20248.03
233.207	20227.45
233.279	20222.78
233.351	20222.05
233.424	20224.12
233.496	20214.1
233.568	20228.8
233.64	20206.44
233.713	20204.46
233.785	20190.82
233.857	20183.07
233.929	20166.73
234.001	20168.75
234.074	20179.55
234.146	20150.15
234.218	20150.63
234.29	20140.13
234.362	20115.79
234.434	20088.66
234.507	20066.06
234.579	20038.35
234.651	20030.25
234.723	20034.54
234.795	20034.68
234.867	20021.33
234.939	20013.24
235.012	20008.66
235.084	19993.38
235.156	19998.64
235.228	19977.43
235.3	19968.71
235.372	19970.4
235.444	19967.12
235.516	19939.12
235.588	19928.33
235.66	19918.3
235.732	19887.41
235.804	19938.25
235.876	19936.47
235.948	19934.69
236.02	19912.09
236.092	19890.26
236.164	19865.34
236.236	19845.92
236.308	19814.69
236.38	19799.71
236.452	19778.99
236.524	19769.3
236.596	19763.95
236.668	19746.7
236.74	19730.31
236.812	19708.29
236.884	19685.54
236.956	19666.8
237.028	19633.64
237.1	19598.03
237.172	19588.39
237.244	19592.05
237.316	19528.97
237.388	19497.17
237.46	19467.82
237.532	19470.52
237.604	19442.76
237.675	19439.96
237.747	19421.03
237.819	19405.41
237.891	19383.73
237.963	19346.72
238.035	19320.36
238.107	19259.93
238.178	19248.31
238.25	19217.86
238.322	19218.1
238.394	19168.37
238.466	19137.77
238.538	19120.23
238.609	19098.73
238.681	19060.33
238.753	19021.39
238.825	18993.49
238.897	18976.23
238.968	18966.21
239.04	18922.89
239.112	18923.76
239.184	18879.61
239.255	18844.39
239.327	18813.45
239.399	18787.14
239.471	18775.62
239.542	18751.62
239.614	18748.59
239.686	18693.36
239.758	18685.02
239.829	18635.05
239.901	18631.82
239.973	18604.4
240.044	18584.21
240.116	18564.4
240.188	18533.66
240.259	18509.23
240.331	18484.36
240.403	18458.92
240.474	18421.09
240.546	18392.51
240.618	18336.75
240.689	18304.56
240.761	18284.47
240.833	18277.14
240.904	18240.95
240.976	18207.7
241.048	18181.19
241.119	18150.88
241.191	18136.09
241.262	18121.25
241.334	18088.91
241.405	18049.49
241.477	18011.32
241.549	17981.44
241.62	17957.25
241.692	17932.72
241.763	17901.64
241.835	17862.94
241.906	17838.7
241.978	17793.64
242.049	17765.88
242.121	17757.11
242.192	17738.03
242.264	17686.8
242.335	17636.15
242.407	17612.01
242.478	17582.95
242.55	17547.57
242.621	17507.38
242.693	17467.96
242.764	17422.47
242.836	17393.12
242.907	17375.82
242.979	17354.71
243.05	17321.36
243.122	17289.65
243.193	17260.34
243.264	17213.21
243.336	17181.36
243.407	17156.01
243.479	17146.61
243.55	17124.34
243.622	17102.61
243.693	17071.86
243.764	17061.79
243.836	17011.76
243.907	16980.77
243.978	16949.01
244.05	16919.42
244.121	16872.81
244.192	16850.07
244.264	16812.52
244.335	16777.72
244.407	16720.08
244.478	16691.74
244.549	16657.62
244.62	16607.16
244.692	16566.72
244.763	16546.53
244.834	16506.14
244.906	16460.21
244.977	16428.06
245.048	16415.96
245.119	16366.37
245.191	16327.72
245.262	16264.96
245.333	16264.82
245.405	16224.48
245.476	16201
245.547	16175.75
245.618	16153.24
245.689	16124.42
245.761	16086.44
245.832	16058.82
245.903	16043.06
245.974	16022.57
246.045	15992.5
246.117	15984.98
246.188	15948.78
246.259	15899.81
246.33	15877.4
246.401	15842.74
246.473	15788.95
246.544	15744.66
246.615	15727.35
246.686	15686.77
246.757	15677.51
246.828	15625.36
246.899	15613.55
246.97	15558.5
247.042	15513.24
247.113	15494.54
247.184	15479.36
247.255	15454.49
247.326	15429.28
247.397	15397.27
247.468	15362.9
247.539	15331.19
247.61	15286.75
247.681	15267.22
247.752	15251.94
247.823	15205.14
247.894	15182.72
247.965	15144.35
248.037	15106.08
248.108	15055.85
248.179	15021.29
248.25	14986.49
248.321	14966.97
248.392	14919.54
248.463	14917.03
248.534	14890.57
248.605	14869.21
248.675	14842.51
248.746	14810.89
248.817	14783.31
248.888	14761.86
248.959	14707.83
249.03	14680.78
249.101	14650.37
249.172	14622.21
249.243	14576.37
249.314	14563.79
249.385	14536.6
249.456	14529.71
249.527	14499.97
249.598	14483.38
249.669	14468.2
249.739	14448.82
249.81	14426.45
249.881	14384.18
249.952	14353.76
250.023	14320.98
250.094	14269.83
250.165	14224.57
250.235	14199.94
250.306	14176.99
250.377	14133.36
250.448	14122.57
250.519	14089.3
250.59	14080.96
250.66	14053.2
250.731	14045.73
250.802	14018.97
250.873	13998.19
250.944	13964.79
251.014	13934.03
251.085	13934.85
251.156	13908.87
251.227	13897.54
251.297	13885.15
251.368	13884.52
251.439	13873.39
251.51	13855.17
251.58	13829.38
251.651	13797.61
251.722	13781.51
251.792	13730.65
251.863	13711.41
251.934	13700.42
252.005	13696.23
252.075	13666.68
252.146	13643.83
252.217	13634.52
252.287	13622.18
252.358	13590.95
252.429	13588.78
252.499	13560.33
252.57	13536.14
252.641	13532.71
252.711	13505.43
252.782	13465.08
252.852	13446.71
252.923	13422.51
252.994	13410.85
253.064	13408.68
253.135	13386.36
253.205	13366.06
253.276	13370.02
253.347	13365.1
253.417	13328.75
253.488	13305.03
253.558	13282.57
253.629	13263.24
253.699	13233.88
253.77	13215.51
253.841	13194.98
253.911	13179.26
253.982	13158.63
254.052	13142.72
254.123	13120.11
254.193	13098.37
254.264	13114.67
254.334	13088.59
254.405	13043.08
254.475	13006.54
254.546	12978.77
254.616	12963.01
254.687	12941.99
254.757	12912.15
254.827	12884.19
254.898	12873.93
254.968	12851.08
255.039	12818.2
255.109	12802.53
255.18	12770.72
255.25	12725.07
255.321	12712.44
255.391	12670.21
255.461	12667.46
255.532	12622.82
255.602	12592.89
255.673	12551.05
255.743	12518.07
255.813	12480.09
255.884	12479.41
255.954	12466.06
256.024	12465
256.095	12453.09
256.165	12415.78
256.235	12400.17
256.306	12373.99
256.376	12362.28
256.446	12347.77
256.517	12339.67
256.587	12338.61
256.657	12322.32
256.728	12308.63
256.798	12282.5
256.868	12259.56
256.938	12234.68
257.009	12221.72
257.079	12210.63
257.149	12222.83
257.219	12183.4
257.29	12172.89
257.36	12133.41
257.43	12123
257.5	12073.79
257.571	12048.96
257.641	12040.09
257.711	12010.93
257.781	11991.75
257.852	11974.64
257.922	11935.88
257.992	11907.73
258.062	11877.75
258.132	11880.59
258.202	11861.41
258.273	11843.53
258.343	11845.7
258.413	11819.57
258.483	11794.7
258.553	11761.25
258.623	11730.5
258.693	11715.56
258.764	11710.06
258.834	11705.29
258.904	11687.41
258.974	11660.42
259.044	11636.37
259.114	11620.8
259.184	11607.11
259.254	11591.26
259.324	11553.04
259.394	11547.59
259.464	11552.12
259.535	11522.77
259.605	11488.69
259.675	11459.92
259.745	11448.59
259.815	11415.58
259.885	11394.23
259.955	11396.74
260.025	11362.47
260.095	11342.23
260.165	11326.9
260.235	11324.69
260.305	11297.41
260.375	11269.55
260.445	11283.86
260.515	11283.62
260.585	11275.19
260.655	11257.6
260.725	11250.37
260.795	11240.3
260.865	11240.97
260.934	11212.01
261.004	11206.56
261.074	11194.46
261.144	11199.86
261.214	11194.66
261.284	11177.93
261.354	11174.13
261.424	11153.55
261.494	11167.91
261.564	11149.74
261.634	11139.76
261.703	11098.51
261.773	11083.91
261.843	11078.56
261.913	11053.84
261.983	11017.12
262.053	11013.26
262.123	10999.14
262.192	10968.21
262.262	10963.58
262.332	10927.54
262.402	10920.11
262.472	10906.04
262.541	10865.42
262.611	10850.68
262.681	10820.17
262.751	10812.42
262.821	10794.2
262.89	10766.06
262.96	10749.43
263.03	10757.43
263.1	10747.22
263.169	10737.15
263.239	10734.83
263.309	10725.97
263.379	10718.93
263.448	10707.75
263.518	10692.33
263.588	10682.17
263.657	10685.83
263.727	10675.61
263.797	10660.1
263.867	10639.81
263.936	10612.78
264.006	10612.88
264.076	10599.14
264.145	10580.84
264.215	10561.47
264.285	10554.38
264.354	10523.84
264.424	10496.71
264.494	10466.12
264.563	10442.56
264.633	10453.88
264.702	10441.16
264.772	10415.28
264.842	10396.4
264.911	10389.8
264.981	10354.62
265.05	10331.26
265.12	10312.32
265.19	10298.78
265.259	10295.8
265.329	10289.49
265.398	10276.82
265.468	10285.44
265.537	10264.58
265.607	10261.45
265.676	10258.32
265.746	10241.12
265.815	10237.07
265.885	10225.7
265.955	10191.65
266.024	10178.21
266.094	10134.22
266.163	10136.87
266.232	10136.1
266.302	10118.42
266.371	10111.05
266.441	10096.84
266.51	10092.41
266.58	10073.57
266.649	10057.05
266.719	10049.68
266.788	10039.13
266.858	10041.39
266.927	10007
266.996	10004.49
267.066	9990.43
267.135	9957.19
267.205	9959.74
267.274	9947.8
267.343	9950.3
267.413	9946.4
267.482	9945.87
267.552	9946.35
267.621	9910.37
267.69	9877.71
267.76	9862.15
267.829	9848.09
267.898	9842.94
267.968	9824.1
268.037	9822.42
268.106	9814.81
268.176	9791.06
268.245	9773.48
268.314	9751.66
268.384	9757.05
268.453	9738.94
268.522	9733.74
268.592	9739.14
268.661	9714.47
268.73	9708.89
268.799	9681.92
268.869	9684.42
268.938	9647.58
269.007	9628.31
269.076	9623.02
269.146	9631.88
269.215	9627.54
269.284	9634.96
269.353	9618.11
269.422	9609.05
269.492	9588.68
269.561	9542.21
269.63	9536.43
269.699	9521.07
269.768	9520.78
269.838	9506.57
269.907	9506.91
269.976	9481.92
270.045	9447.49
270.114	9443.64
270.183	9431.84
270.253	9432.32
270.322	9414.07
270.391	9410.46
270.46	9409.06
270.529	9404.63
270.598	9391.72
270.667	9382.48
270.736	9351.61
270.806	9345.4
270.875	9341.01
270.944	9328.4
271.013	9355.36
271.082	9348.67
271.151	9343.71
271.22	9309.04
271.289	9298.93
271.358	9279.14
271.427	9276.06
271.496	9269.41
271.565	9250.97
271.634	9242.55
271.703	9258.68
271.772	9253.14
271.841	9241.54
271.91	9227.86
271.979	9224.73
272.048	9203.93
272.117	9201.82
272.186	9188.91
272.255	9188.86
272.324	9189.92
272.393	9187.9
272.462	9169.46
272.531	9161.61
272.6	9154.15
272.669	9167.96
272.738	9150.34
272.807	9146.4
272.876	9130.17
272.945	9162.14
273.013	9164.26
273.082	9168.74
273.151	9126.65
273.22	9128.77
273.289	9125.5
273.358	9131.66
273.427	9119.43
273.496	9119.87
273.564	9114.95
273.633	9121.89
273.702	9105.13
273.771	9089.05
273.84	9083.66
273.909	9084.24
273.977	9074.71
274.046	9059.25
274.115	9055.74
274.184	9045.58
274.253	9041.3
274.322	9047.17
274.39	9010
274.459	8995.9
274.528	8972.84
274.597	8968.79
274.665	8953.87
274.734	8960.42
274.803	8949.44
274.872	8935.77
274.94	8923.3
275.009	8953.83
275.078	8938.23
275.147	8934.24
275.215	8932.89
275.284	8938.09
275.353	8926.58
275.421	8912.62
275.49	8932.94
275.559	8925.05
275.627	8916.91
275.696	8905.17
275.765	8896.12
275.833	8892.8
275.902	8892.41
275.971	8900.4
276.039	8920.67
276.108	8925.19
276.177	8925.1
276.245	8910.95
276.314	8909.02
276.383	8913.4
276.451	8872.86
276.52	8869.53
276.588	8879.45
276.657	8882.63
276.725	8869.25
276.794	8866.98
276.863	8873.24
276.931	8842.58
277	8846.52
277.068	8858.22
277.137	8876.66
277.205	8882.96
277.274	8894.47
277.342	8903.66
277.411	8879.84
277.48	8861.93
277.548	8853.17
277.617	8851.05
277.685	8847.63
277.754	8850.28
277.822	8842.24
277.89	8857.65
277.959	8848.89
278.027	8831.9
278.096	8821.69
278.164	8846.24
278.233	8837.48
278.301	8823.48
278.37	8830.98
278.438	8818.04
278.507	8815.48
278.575	8792.62
278.643	8786.31
278.712	8771.06
278.78	8755.85
278.849	8765.13
278.917	8773.65
278.985	8769.61
279.054	8766.24
279.122	8779.81
279.191	8777.94
279.259	8770.77
279.327	8745.49
279.396	8763.88
279.464	8757.81
279.532	8763.78
279.601	8755.79
279.669	8755.17
279.737	8769.65
279.806	8770.04
279.874	8777.84
279.942	8780.15
280.011	8773.31
280.079	8781.3
280.147	8796.32
280.215	8801.71
280.284	8797.23
280.352	8782.6
280.42	8788.47
280.488	8779.38
280.557	8767.68
280.625	8764.36
280.693	8766.81
280.761	8771.19
280.83	8759.16
280.898	8769.89
280.966	8751.07
281.034	8723.2
281.102	8709.49
281.171	8703.76
281.239	8714.88
281.307	8705.98
281.375	8692.21
281.443	8718.06
281.512	8712.09
281.58	8716.37
281.648	8702.32
281.716	8705.83
281.784	8703.72
281.852	8699
281.92	8698.66
281.989	8706.07
282.057	8697.75
282.125	8741.8
282.193	8738.62
282.261	8732.41
282.329	8726.21
282.397	8731.5
282.465	8736.12
282.533	8752.87
282.601	8742.23
282.67	8724.28
282.738	8711.71
282.806	8722.01
282.874	8708.68
282.942	8709.35
283.01	8706.08
283.078	8710.12
283.146	8701.03
283.214	8711.95
283.282	8711.91
283.35	8725.77
283.418	8723.7
283.486	8725.14
283.554	8682.39
283.622	8678.83
283.69	8679.74
283.758	8679.45
283.826	8683.74
283.894	8691.68
283.962	8708.62
284.03	8723.06
284.098	8715.31
284.165	8714.93
284.233	8715.07
284.301	8706.84
284.369	8696.06
284.437	8681.43
284.505	8674.79
284.573	8697.84
284.641	8684.99
284.709	8691.73
284.777	8671.42
284.845	8675.9
284.912	8681.82
284.98	8680.76
285.048	8678.93
285.116	8688.46
285.184	8699.72
285.252	8697.27
285.319	8682.73
285.387	8668.63
285.455	8653.27
285.523	8660.93
285.591	8657.12
285.659	8659.43
285.726	8670.26
285.794	8659.15
285.862	8660.78
285.93	8662.71
285.997	8651.25
286.065	8647.21
286.133	8637.92
286.201	8640.33
286.269	8625.41
286.336	8617.47
286.404	8616.41
286.472	8625.07
286.539	8599.71
286.607	8583.06
286.675	8584.07
286.743	8592.73
286.81	8588.88
286.878	8601.73
286.946	8591.43
287.013	8597.35
287.081	8601.34
287.149	8583.83
287.216	8600.72
287.284	8597.35
287.352	8599.42
287.419	8596.48
287.487	8611.98
287.555	8615.3
287.622	8613.62
287.69	8618.38
287.758	8628.68
287.825	8621.56
287.893	8607.79
287.96	8616.74
288.028	8626.27
288.096	8626.61
288.163	8626.9
288.231	8609.43
288.298	8607.07
288.366	8629.21
288.433	8620.02
288.501	8606.11
288.569	8617.56
288.636	8615.64
288.704	8631.81
288.771	8642.21
288.839	8634.12
288.906	8624.69
288.974	8642.11
289.041	8635.38
289.109	8628.98
289.176	8636.34
289.244	8645.73
289.311	8664.88
289.379	8674.79
289.446	8674.65
289.514	8676.19
289.581	8675.85
289.649	8691.01
289.716	8693.61
289.783	8679.46
289.851	8703.91
289.918	8702.03
289.986	8707.04
290.053	8709.44
290.121	8706.36
290.188	8708.62
290.255	8734.66
290.323	8723.55
290.39	8705.74
290.458	8715.07
290.525	8730.86
290.592	8727.49
290.66	8727.58
290.727	8715.79
290.794	8727.01
290.862	8730.52
290.929	8728.93
290.996	8726.72
291.064	8731.63
291.131	8737.98
291.198	8750.98
291.266	8743.9
291.333	8747.75
291.4	8752.08
291.468	8769.89
291.535	8761.28
291.602	8754.83
291.669	8750.79
291.737	8762.77
291.804	8761.66
291.871	8777.06
291.938	8779.95
292.006	8806.91
292.073	8818.8
292.14	8824.82
292.207	8817.6
292.275	8819.28
292.342	8833.19
292.409	8862.7
292.476	8894.19
292.543	8896.16
292.611	8897.89
292.678	8923.26
292.745	8944.88
292.812	8959.94
292.879	8955.28
292.946	8964.32
293.014	8982.86
293.081	8998.07
293.148	9014.05
293.215	9038.89
293.282	9035.67
293.349	9047.99
293.416	9026.23
293.484	9046.4
293.551	9066.48
293.618	9082.75
293.685	9101.71
293.752	9091.32
293.819	9091.08
293.886	9070.95
293.953	9076.78
294.02	9089.87
294.087	9089.97
294.154	9084.96
294.221	9097.82
294.288	9099.98
294.356	9122.32
294.423	9128.15
294.49	9112.89
294.557	9126.13
294.624	9109.61
294.691	9130.22
294.758	9130.51
294.825	9138.21
294.892	9123.81
294.959	9117.12
295.026	9125.55
295.093	9120.4
295.16	9123.96
295.226	9123.62
295.293	9148.9
295.36	9148.85
295.427	9160.12
295.494	9169.22
295.561	9180.58
295.628	9200.33
295.695	9211.35
295.762	9210.92
295.829	9218.09
295.896	9237.69
295.963	9249.58
296.03	9265.08
296.096	9270.62
296.163	9284.92
296.23	9302.79
296.297	9313.14
296.364	9317.18
296.431	9324.69
296.498	9328.93
296.564	9358.49
296.631	9363.12
296.698	9347.9
296.765	9367.98
296.832	9358.83
296.899	9349.73
296.965	9364.32
297.032	9343.7
297.099	9363.64
297.166	9371.11
297.233	9367.83
297.299	9356.08
297.366	9353.68
297.433	9355.65
297.5	9363.31
297.566	9357.86
297.633	9353.24
297.7	9354.16
297.767	9353.24
297.833	9361.62
297.9	9359.5
297.967	9338.41
298.033	9351.66
298.1	9387.01
298.167	9377.04
298.234	9382.48
298.3	9398.22
298.367	9395.72
298.434	9397.02
298.5	9389.99
298.567	9380.41
298.634	9383.54
298.7	9401.98
298.767	9405.88
298.834	9421.53
298.9	9416.62
298.967	9418.45
299.033	9431.83
299.1	9456.11
299.167	9473.15
299.233	9466.89
299.3	9483.21
299.366	9507.29
299.433	9521.98
299.5	9492.7
299.566	9503.63
299.633	9519.38
299.699	9526.79
299.766	9524.1
299.832	9535.27
299.899	9547.21
299.965	9564.5
300.032	9559.78
300.099	9571.73
300.165	9569.94
300.232	9558.53
300.298	9558.63
300.365	9569.08
300.431	9573.61
300.498	9565.51
300.564	9569.94
300.631	9578.66
300.697	9590.89
300.763	9587.67
300.83	9580.44
300.896	9594.55
300.963	9599.75
301.029	9599.47
301.096	9602.26
301.162	9612.61
301.229	9603.9
301.295	9585.11
301.361	9579.38
301.428	9586.99
301.494	9570.13
301.561	9579.09
301.627	9592.67
301.693	9594.36
301.76	9594.26
301.826	9589.83
301.892	9597.78
301.959	9605
302.025	9601.49
302.092	9592.34
302.158	9601.15
302.224	9603.27
302.291	9592.05
302.357	9585.74
302.423	9584.44
302.49	9572.93
302.556	9587.91
302.622	9591.95
302.688	9605.15
302.755	9627.83
302.821	9634.43
302.887	9650.08
302.954	9645.94
303.02	9645.36
303.086	9656.73
303.152	9655.72
303.219	9651.14
303.285	9656.68
303.351	9666.02
303.417	9666.79
303.483	9667.85
303.55	9662.6
303.616	9656.39
303.682	9652.78
303.748	9644.69
303.815	9656.39
303.881	9670.46
303.947	9654.37
304.013	9650.95
304.079	9645.03
304.145	9622.82
304.212	9621.23
304.278	9610.06
304.344	9603.03
304.41	9595.42
304.476	9582.9
304.542	9577.46
304.608	9577.6
304.674	9550.06
304.741	9547.36
304.807	9554.2
304.873	9556.17
304.939	9562.53
305.005	9547.17
305.071	9553.76
305.137	9563.49
305.203	9533.73
305.269	9527.52
305.335	9533.97
305.401	9535.75
305.467	9530.12
305.533	9539.22
305.599	9547.5
305.666	9554.24
305.732	9555.16
305.798	9566.19
305.864	9597.93
305.93	9602.36
305.996	9602.07
306.062	9614.16
306.128	9601.59
306.194	9582.95
306.259	9577.84
306.325	9570.57
306.391	9582.37
306.457	9589.45
306.523	9591.57
306.589	9620.18
306.655	9616.76
306.721	9602.21
306.787	9593.83
306.853	9609.15
306.919	9590.7
306.985	9577.89
307.051	9567.97
307.117	9565.85
307.183	9564.22
307.248	9533.92
307.314	9541.82
307.38	9546.59
307.446	9547.55
307.512	9541.63
307.578	9549.57
307.644	9543.31
307.709	9547.31
307.775	9541.63
307.841	9532.48
307.907	9529.35
307.973	9504.78
308.039	9498.62
308.104	9509.6
308.17	9508.49
308.236	9491.11
308.302	9494.48
308.368	9485.38
308.433	9486.1
308.499	9482.29
308.565	9465.05
308.631	9461.15
308.696	9437.22
308.762	9426.05
308.828	9428.98
308.894	9411.55
308.959	9388.1
309.025	9386.37
309.091	9380.64
309.156	9377.7
309.222	9379.63
309.288	9368.51
309.354	9351.56
309.419	9348.81
309.485	9326.13
309.551	9327.72
309.616	9317.47
309.682	9311.3
309.748	9307.55
309.813	9301.77
309.879	9291.37
309.945	9284.96
310.01	9275.62
310.076	9274.42
310.141	9263.01
310.207	9247.02
310.273	9243.6
310.338	9252.41
310.404	9232.24
310.469	9223.19
310.535	9213.75
310.601	9195.69
310.666	9196.85
310.732	9214.47
310.797	9201.28
310.863	9200.22
310.928	9192.08
310.994	9198.05
311.059	9198.43
311.125	9191.41
311.191	9203.64
311.256	9192.52
311.322	9191.79
311.387	9177.45
311.453	9526.43
311.518	9506.4
311.584	9502.88
311.649	9514.63
311.715	9500.96
311.78	9501.68
311.846	9490.56
311.911	9495.04
311.976	9494.51
312.042	9479.39
312.107	9461
312.173	9454.07
312.238	9441.89
312.304	9439.86
312.369	9429.46
312.434	9416.8
312.5	9410.16
312.565	9377.61
312.631	9381.17
312.696	9373.47
312.761	9378.09
312.827	9021.55
312.892	9059.2
312.958	9056.75
313.023	9049.77
313.088	9048.66
313.154	9034.6
313.219	9023.92
313.284	9008.27
313.35	9002.88
313.415	8997.25
313.48	8991.09
313.546	8994.94
313.611	9004.47
313.676	8995.9
313.741	8985.02
313.807	8988.44
313.872	8995.71
313.937	9002.4
314.003	9019.2
314.068	9019.25
314.133	9021.03
314.198	9011.11
314.264	8983.81
314.329	8968.02
314.394	8960.37
314.459	8961.71
314.525	8986.84
314.59	8981.07
314.655	8971.58
314.72	8978.47
314.785	8980.25
314.851	8973.41
314.916	8953.77
314.981	8939.14
315.046	8928.07
315.111	8912.38
315.176	8906.31
315.242	8906.46
315.307	8904.48
315.372	8881.52
315.437	8870.88
315.502	8859.52
315.567	8865.92
315.632	8854.61
315.698	8857.4
315.763	8851.19
315.828	8843.3
315.893	8835.98
315.958	8830.3
316.023	8823.18
316.088	8801.52
316.153	8774.71
316.218	8766
316.283	8747.67
316.348	8726.15
316.413	8726.64
316.479	8720.38
316.544	8686.36
316.609	8650.55
316.674	8609.02
316.739	8569.27
316.804	8537.61
316.869	8507.53
316.934	8474.9
316.999	8440.65
317.064	8392.24
317.129	8348.36
317.194	8308.09
317.259	8258.04
317.324	8213.06
317.389	8169.43
317.454	8130.03
317.518	8103.43
317.583	8078.31
317.648	8061.62
317.713	8030.84
317.778	7970.56
317.843	7936.84
317.908	7898.17
317.973	7864.75
318.038	7844.6
318.103	7809.59
318.168	7781.99
318.233	7748.95
318.297	7693.84
318.362	7661.92
318.427	7621.58
318.492	7597.97
318.557	7549.71
318.622	7522.11
318.687	7497.41
318.751	7456.99
318.816	7424.15
318.881	7386.42
318.946	7333.98
319.011	7283.12
319.075	7240.83
319.14	7202.48
319.205	7160.05
319.27	7127.61
319.335	7082.16
319.399	7039.44
319.464	7012.48
319.529	6960.84
319.594	6918.41
319.658	6890.98
319.723	6849.57
319.788	6820.51
319.853	6766.18
319.917	6738.24
319.982	6683.14
320.047	6647.84
320.112	6621.05
320.176	6573.56
320.241	6540.76
320.306	6510.07
320.37	6471.23
320.435	6438.93
320.5	6412.33
320.564	6373.4
320.629	6334.57
320.694	6303.75
320.758	6258.35
320.823	6211.89
320.888	6179.88
320.952	6129.89
321.017	6085.26
321.082	6044.91
321.146	6010.56
321.211	5978.7
321.275	5937.16
321.34	5891.12
321.405	5843.97
321.469	5796.78
321.534	5753.91
321.598	5701.45
321.663	5667.15
321.727	5639.05
321.792	5592.02
321.857	5543.16
321.921	5502.17
321.986	5453
322.05	5393.91
322.115	5353.79
322.179	5311.43
322.244	5259.36
322.308	5231.47
322.373	5188.02
322.437	5146.48
322.502	5123.23
322.566	5074.42
322.631	5037.63
322.695	5002.06
322.76	4961.16
322.824	4928.5
322.889	4888.14
322.953	4845.97
323.018	4779.62
323.082	4712.74
323.146	4661.45
323.211	4611.58
323.275	4567.12
323.34	4525.17
323.404	4490.3
323.468	4445.99
323.533	4403.76
323.597	4361.87
323.662	4309.25
323.726	4273.23
323.79	4230.86
323.855	4164.36
323.919	4120.76
323.983	4076.77
324.048	4010.74
324.112	4158.03
324.177	4027.23
324.241	3818.5
324.305	3613.6
324.37	3416.35
324.434	3223.45
324.498	3182.82
324.562	3134.05
324.627	3075.24
324.691	3021.62
324.755	2960.28
324.82	2889.23
324.884	2812.19
324.948	2737.04
325.012	2643.08
325.077	2522.2
