Data from 20250702_urea_0.5M_MAYP1162681_15-15-00-184.txt Node
Date: Wed Jul 02 15:15:00 BST 2025
User: adleo
Spectrometer: MAYP116268
Trigger mode: 0
Integration Time (sec): 1.000000E0
Scans to average: 1
Electric dark correction enabled: true
Nonlinearity correction enabled: true
Boxcar width: 10
XAxis mode: Wavelengths
Number of Pixels in Spectrum: 2068
>>>>>Begin Spectral Data<<<<<
179.565	1113.28
179.642	1165.32
179.718	1204.53
179.795	1237.56
179.871	1267.58
179.948	1283.94
180.024	1302.3
180.101	1321.79
180.177	1337.22
180.254	1357.6
180.33	1376.85
180.407	1423.41
180.483	1510.78
180.56	1592.59
180.636	1670.4
180.712	1655.43
180.789	1665.02
180.865	1674.52
180.942	1681.17
181.018	1689.82
181.095	1702.27
181.171	1709.54
181.248	1708.07
181.324	1723.23
181.4	1734.16
181.477	1745.05
181.553	1754.97
181.63	1774.22
181.706	1790.29
181.782	1794.56
181.859	1793.23
181.935	1800.74
182.011	1795.56
182.088	1812.05
182.164	1829.5
182.24	1841
182.317	1848.75
182.393	1845.99
182.469	1856.02
182.546	1870.18
182.622	1877.12
182.698	1874.41
182.775	1884.25
182.851	1898.23
182.927	1891.81
183.003	1882.54
183.08	1877.08
183.156	1888.53
183.232	1886.3
183.308	1874.27
183.385	1883.06
183.461	1900.51
183.537	1901.56
183.613	1914.77
183.69	1904.93
183.766	1895.51
183.842	1903.41
183.918	1911.82
183.995	1926.37
184.071	1932.69
184.147	1925.94
184.223	1911.78
184.299	1922.48
184.375	1913.59
184.452	1921.82
184.528	1973.61
184.604	1987.25
184.68	1996.62
184.756	2005.8
184.832	2009.6
184.908	2013.55
184.985	2012.45
185.061	1997.43
185.137	2004.61
185.213	1992.34
185.289	1995.34
185.365	1990.63
185.441	1987.54
185.517	1999.77
185.593	1996.77
185.669	1995.15
185.745	2005.85
185.822	2025.48
185.898	2019.49
185.974	2025.19
186.05	2016.3
186.126	1978.53
186.202	1967.84
186.278	1966.6
186.354	1956.47
186.43	1962.04
186.506	1963.37
186.582	1963.7
186.658	1970.83
186.734	1951.86
186.81	1955.71
186.886	1956.09
186.962	1966.88
187.038	1964.98
187.114	1957.18
187.19	1963.51
187.266	1953.43
187.341	1953.57
187.417	1947.53
187.493	1944.92
187.569	1951
187.645	1944.54
187.721	1930.18
187.797	1939.44
187.873	1943.96
187.949	1936.78
188.025	1932.08
188.101	1930.32
188.176	1937.45
188.252	1932.55
188.328	1940.49
188.404	1940.49
188.48	1937.3
188.556	1931.17
188.632	1931.55
188.707	1933.36
188.783	1928.7
188.859	1923.52
188.935	1915.1
189.011	1920.33
189.086	1916.53
189.162	1907.97
189.238	1906.26
189.314	1905.26
189.39	1899.41
189.465	1890
189.541	1905.64
189.617	1888.86
189.693	1889.24
189.768	1889.58
189.844	1912.4
189.92	1903.75
189.996	1908.89
190.071	1918.59
190.147	1916.07
190.223	1923.06
190.298	1914.07
190.374	1902.57
190.45	1915.35
190.526	1921.63
190.601	1914.92
190.677	1916.07
190.753	1942.13
190.828	1946.65
190.904	1962.29
190.98	1978.27
191.055	1987.64
191.131	1978.74
191.207	1997.71
191.282	2008.12
191.358	1998.66
191.433	1983.77
191.509	1995.27
191.585	1996.27
191.66	1996.89
191.736	2001.88
191.811	1992.66
191.887	2008.45
191.963	2030.85
192.038	2036.6
192.114	2038.31
192.189	2042.59
192.265	2037.7
192.34	2015.19
192.416	2013.96
192.491	2009.49
192.567	2011.01
192.642	2013.96
192.718	2014.29
192.793	2005.49
192.869	1997.93
192.944	1999.74
193.02	2011.44
193.095	2015.53
193.171	2018.1
193.246	2020
193.322	2020.71
193.397	2023.47
193.473	2008.96
193.548	1992.84
193.624	1996.55
193.699	1993.75
193.775	2010.3
193.85	2011.3
193.925	2021.86
194.001	2021.43
194.076	2013.25
194.152	1999.98
194.227	1994.37
194.302	1984.1
194.378	1987.14
194.453	1985.86
194.529	1997.56
194.604	1982.01
194.679	1977.73
194.755	1963.04
194.83	1973.12
194.905	1969.46
194.981	1975.84
195.056	1969.37
195.131	1975.88
195.207	1972.03
195.282	1964.42
195.357	1944.97
195.433	1961.52
195.508	1952
195.583	1959.94
195.659	1976.12
195.734	1985.58
195.809	1983.49
195.884	1993.37
195.96	1993.75
196.035	2005.36
196.11	2000.65
196.185	2011.06
196.261	2014.48
196.336	2041.69
196.411	2029.22
196.486	2034.78
196.561	2030.5
196.637	2038.68
196.712	2053.29
196.787	2058.38
196.862	2073.4
196.937	2083.68
197.013	2088.81
197.088	2097.38
197.163	2117.41
197.238	2132.64
197.313	2131.79
197.388	2144.34
197.464	2171.51
197.539	2184.12
197.614	2179.36
197.689	2194.16
197.764	2206.2
197.839	2223.23
197.914	2215.76
197.989	2233.22
198.065	2248.78
198.14	2295.87
198.215	2322.04
198.29	2330.23
198.365	2343.75
198.44	2354.6
198.515	2381.68
198.59	2396.63
198.665	2421.81
198.74	2427.81
198.815	2427.77
198.89	2448.33
198.965	2479.19
199.04	2476.33
199.115	2488.28
199.19	2529.17
199.265	2531.41
199.34	2542.17
199.415	2575.95
199.49	2600.75
199.565	2612.7
199.64	2631.61
199.715	2628.61
199.79	2635.42
199.865	2643.42
199.94	2640.94
200.015	2669.05
200.09	2672.77
200.165	2678.39
200.24	2683.2
200.315	2723.63
200.39	2739.07
200.464	2748.36
200.539	2749.36
200.614	2765.08
200.689	2787.9
200.764	2795.72
200.839	2812.48
200.914	2818.39
200.989	2808.05
201.063	2818.67
201.138	2802.91
201.213	2805.87
201.288	2787.62
201.363	2792.48
201.438	2790.76
201.512	2806.01
201.587	2791.71
201.662	2797.66
201.737	2808.86
201.812	2818.25
201.886	2783.58
201.961	2791.78
202.036	2778.73
202.111	2775.3
202.186	2751.16
202.26	2734.62
202.335	2710.51
202.41	2702.79
202.485	2686.65
202.559	2667.64
202.634	2643.54
202.709	2653.68
202.784	2637.2
202.858	2638.91
202.933	2623.1
203.008	2620.81
203.082	2604.72
203.157	2603.14
203.232	2559.96
203.306	2538.33
203.381	2508.23
203.456	2491.42
203.53	2469.21
203.605	2451.17
203.68	2427.64
203.754	2419.46
203.829	2404.37
203.904	2388.28
203.978	2379.47
204.053	2387.38
204.127	2379.28
204.202	2378.28
204.277	2361.96
204.351	2353.25
204.426	2344.72
204.5	2335.82
204.575	2301.04
204.65	2306.56
204.724	2299.04
204.799	2306.22
204.873	2304.84
204.948	2302.89
205.022	2288.66
205.097	2281.85
205.171	2294.6
205.246	2304.98
205.32	2305.13
205.395	2306.98
205.469	2299.8
205.544	2308.08
205.618	2289.81
205.693	2300.04
205.767	2289.43
205.842	2307.42
205.916	2302.95
205.991	2296.67
206.065	2302.23
206.14	2318.78
206.214	2317.88
206.289	2312.83
206.363	2327.16
206.438	2330.21
206.512	2340.92
206.586	2360.33
206.661	2369.81
206.735	2351.21
206.81	2352.87
206.884	2368.2
206.958	2358.49
207.033	2373.81
207.107	2378.91
207.181	2409.76
207.256	2408.05
207.33	2426.99
207.405	2442.62
207.479	2464.18
207.553	2473.23
207.628	2464.99
207.702	2479.32
207.776	2477.99
207.851	2488.8
207.925	2509.47
207.999	2517.86
208.073	2522.62
208.148	2536.24
208.222	2536.53
208.296	2581.18
208.371	2607.87
208.445	2635.51
208.519	2681.47
208.593	2715.68
208.668	2734.79
208.742	2758.11
208.816	2782.7
208.89	2826.46
208.965	2855.85
209.039	2894.76
209.113	2943.77
209.187	2997.33
209.261	3035.13
209.336	3094.98
209.41	3154.8
209.484	3206.83
209.558	3275.12
209.632	3338.15
209.707	3406.93
209.781	3487.56
209.855	3563.49
209.929	3647.51
210.003	3718.92
210.077	3784.85
210.151	3903.44
210.226	4013.51
210.3	4124.59
210.374	4231.28
210.448	4317.37
210.522	4417.37
210.596	4522.3
210.67	4626.65
210.744	4771.66
210.818	4908.55
210.892	5036.62
210.966	5138.95
211.041	5264.14
211.115	5379.48
211.189	5528.01
211.263	5666.04
211.337	5800.11
211.411	5945.27
211.485	6071.39
211.559	6222.61
211.633	6369.7
211.707	6477.94
211.781	6630.12
211.855	6746.41
211.929	6894.52
212.003	7037.97
212.077	7209.69
212.151	7381.48
212.225	7553.79
212.299	7707.35
212.373	7866.47
212.447	8032.03
212.52	8234.81
212.594	8412.3
212.668	8599.12
212.742	8759.33
212.816	8935.4
212.89	9113.4
212.964	9290.06
213.038	9479.48
213.112	9672.11
213.186	9870.6
213.26	10042.13
213.333	10187.6
213.407	10384.56
213.481	10567.7
213.555	10765.64
213.629	10936.26
213.703	11102.12
213.777	11294.39
213.85	11467.16
213.924	11683.6
213.998	11875.57
214.072	12056.65
214.146	12229.54
214.219	12408.27
214.293	12591.43
214.367	12774.93
214.441	12962.39
214.515	13142.48
214.588	13293.75
214.662	13444.48
214.736	13597.25
214.81	13786.45
214.883	13971.55
214.957	14128.7
215.031	14291
215.105	14439.77
215.178	14593.87
215.252	14760.76
215.326	14899.34
215.4	15049.59
215.473	15172.41
215.547	15317.83
215.621	15460.12
215.694	15619.47
215.768	15757.37
215.842	15894.98
215.915	16037.17
215.989	16168.75
216.063	16305.48
216.136	16450.51
216.21	16591.63
216.284	16744.99
216.357	16876.04
216.431	17006.11
216.504	17148.19
216.578	17309.31
216.652	17457.31
216.725	17593.84
216.799	17744.54
216.873	17873.45
216.946	18001.31
217.02	18119.62
217.093	18234.94
217.167	18334.5
217.24	18444.28
217.314	18555.75
217.387	18672.03
217.461	18767.98
217.535	18887.01
217.608	18978.33
217.682	19088.83
217.755	19206.32
217.829	19316.14
217.902	19423.46
217.976	19525.43
218.049	19619.41
218.123	19702.05
218.196	19801.09
218.27	19899.69
218.343	19966.58
218.417	20061.61
218.49	20153.27
218.563	20246.91
218.637	20339.25
218.71	20445.8
218.784	20536.21
218.857	20634.53
218.931	20728.07
219.004	20820.75
219.077	20909.67
219.151	20989.87
219.224	21064.67
219.298	21139.28
219.371	21216.3
219.444	21280.98
219.518	21350.72
219.591	21422.97
219.665	21519.85
219.738	21592.15
219.811	21649.99
219.885	21727.07
219.958	21805.78
220.031	21875.91
220.105	21950.53
220.178	22013.78
220.251	22075.67
220.325	22137.91
220.398	22197.88
220.471	22255.24
220.544	22316.51
220.618	22357.64
220.691	22419.15
220.764	22474.73
220.838	22524.91
220.911	22565.56
220.984	22623.02
221.057	22675.04
221.131	22725.37
221.204	22729.66
221.277	22782.02
221.35	22841.18
221.424	22879.75
221.497	22915.62
221.57	22950.58
221.643	22988.33
221.716	23029.08
221.79	23059.41
221.863	23088.77
221.936	23117.99
222.009	23138.05
222.082	23172.77
222.155	23203.14
222.229	23244.42
222.302	23277.69
222.375	23303.2
222.448	23336.81
222.521	23363.81
222.594	23393.18
222.667	23407.79
222.74	23444.63
222.814	23465.51
222.887	23478.05
222.96	23502.55
223.033	23528.88
223.106	23545.42
223.179	23576.57
223.252	23585.01
223.325	23598.42
223.398	23618.67
223.471	23630.83
223.544	23649.83
223.617	23661.11
223.69	23677.36
223.763	23681.61
223.837	23700.22
223.91	23717.87
223.983	23713.53
224.056	23709.15
224.129	23720.82
224.202	23741.22
224.275	23745.03
224.348	23738.71
224.42	23737.98
224.493	23728.92
224.566	23717.78
224.639	23725.83
224.712	23708.03
224.785	23713.58
224.858	23714.98
224.931	23705.96
225.004	23697.67
225.077	23693.18
225.15	23662.75
225.223	23659.04
225.296	23671.58
225.369	23641.68
225.442	23626.1
225.514	23628.51
225.587	23637
225.66	23626.82
225.733	23625.95
225.806	23634.44
225.879	23628.99
225.952	23612.31
226.025	23618.14
226.097	23635.51
226.17	23625.09
226.243	23596.59
226.316	23589.6
226.389	23578.17
226.461	23571.71
226.534	23569.63
226.607	23564.13
226.68	23588.29
226.753	23573.3
226.825	23542.58
226.898	23547.11
226.971	23542.33
227.044	23526.9
227.117	23523.72
227.189	23526.37
227.262	23519.09
227.335	23502.02
227.407	23485.28
227.48	23482.15
227.553	23471.2
227.626	23449.55
227.698	23440.72
227.771	23432.82
227.844	23403.3
227.916	23398.29
227.989	23383.49
228.062	23366.9
228.134	23365.02
228.207	23333.96
228.28	23315.25
228.352	23310.38
228.425	23306.48
228.498	23296.3
228.57	23273.25
228.643	23266.31
228.716	23246.83
228.788	23217.17
228.861	23188.43
228.934	23184.14
229.006	23169
229.079	23148.75
229.151	23116.68
229.224	23093.68
229.296	23087.42
229.369	23099.23
229.442	23100.58
229.514	23077.48
229.587	23073.14
229.659	23044.65
229.732	23044.31
229.804	23043.01
229.877	23045.71
229.949	23035.39
230.022	23031.44
230.094	23015.96
230.167	22989.2
230.239	22959.45
230.312	22950.43
230.384	22958.39
230.457	22939.78
230.529	22930.67
230.602	22908.58
230.674	22896.43
230.747	22887.47
230.819	22884.67
230.892	22834.62
230.964	22810.18
231.037	22794.61
231.109	22763.22
231.181	22744.8
231.254	22710.33
231.326	22677.4
231.399	22647.8
231.471	22616.6
231.544	22574.76
231.616	22569.65
231.688	22552.43
231.761	22527.03
231.833	22494.87
231.905	22457.89
231.978	22442.08
232.05	22408.38
232.122	22382.78
232.195	22352.8
232.267	22338.34
232.339	22311.15
232.412	22311.05
232.484	22274.02
232.556	22245.01
232.629	22242.21
232.701	22231.46
232.773	22216.32
232.846	22187.06
232.918	22161.27
232.99	22135.24
233.062	22122.42
233.135	22086.99
233.207	22046.88
233.279	22031.12
233.351	22011.26
233.424	21979.35
233.496	21937.07
233.568	21931.53
233.64	21889.74
233.713	21867.81
233.785	21839.7
233.857	21797.81
233.929	21746.34
234.001	21736.74
234.074	21725.42
234.146	21681.99
234.218	21641.59
234.29	21602.79
234.362	21566.26
234.434	21526.49
234.507	21497.62
234.579	21449.27
234.651	21416.93
234.723	21398.14
234.795	21372.4
234.867	21339.33
234.939	21319.86
235.012	21297.35
235.084	21267.95
235.156	21253.59
235.228	21209.01
235.3	21162.45
235.372	21145.72
235.444	21122.73
235.516	21069.71
235.588	21035.16
235.66	21003.06
235.732	20974.62
235.804	20988.99
235.876	20972.65
235.948	20948.21
236.02	20914.91
236.092	20877.27
236.164	20856.45
236.236	20817.46
236.308	20783.19
236.38	20750.18
236.452	20705.75
236.524	20665.31
236.596	20645.65
236.668	20620.44
236.74	20596.88
236.812	20568.63
236.884	20540.25
236.956	20517.26
237.028	20478.42
237.1	20434.85
237.172	20417.31
237.244	20399.38
237.316	20341.11
237.388	20299.62
237.46	20254.13
237.532	20227.57
237.604	20199.43
237.675	20177.6
237.747	20151.81
237.819	20098.76
237.891	20064.2
237.963	20023.34
238.035	19983.05
238.107	19909.46
238.178	19886.47
238.25	19846.81
238.322	19823.63
238.394	19766.53
238.466	19725.04
238.538	19692.84
238.609	19659.88
238.681	19610.54
238.753	19558.59
238.825	19514.64
238.897	19475.02
238.968	19462.11
239.04	19418.4
239.112	19409.29
239.184	19357.49
239.255	19317.78
239.327	19287.23
239.399	19253.88
239.471	19226.65
239.542	19205.4
239.614	19190.46
239.686	19119.72
239.758	19097.21
239.829	19057.02
239.901	19040.59
239.973	19004.59
240.044	18965.8
240.116	18932.36
240.188	18883.54
240.259	18848.36
240.331	18803.45
240.403	18788.37
240.474	18735.6
240.546	18681.1
240.618	18616.47
240.689	18575.7
240.761	18543.61
240.833	18524.72
240.904	18490.84
240.976	18450.65
241.048	18411.13
241.119	18375.52
241.191	18359.81
241.262	18342.42
241.334	18301.21
241.405	18257.99
241.477	18225.41
241.549	18192.83
241.62	18156.21
241.692	18144.4
241.763	18121.75
241.835	18089.17
241.906	18049.71
241.978	17993.37
242.049	17974.24
242.121	17963.35
242.192	17936.75
242.264	17875.88
242.335	17817.76
242.407	17787.54
242.478	17750.19
242.55	17716.46
242.621	17673.14
242.693	17627.35
242.764	17583.6
242.836	17548.27
242.907	17512.27
242.979	17481.67
243.05	17448.13
243.122	17420.9
243.193	17372.61
243.264	17308.61
243.336	17274.49
243.407	17238.49
243.479	17226.92
243.55	17194.73
243.622	17153.38
243.693	17119.02
243.764	17105.76
243.836	17066.72
243.907	17021.95
243.978	16985.18
244.05	16954.67
244.121	16907.01
244.192	16889.99
244.264	16832.79
244.335	16790.86
244.407	16741.6
244.478	16706.9
244.549	16670.37
244.62	16619.23
244.692	16586.27
244.763	16568.05
244.834	16527.61
244.906	16494.12
244.977	16464.52
245.048	16452.76
245.119	16412.28
245.191	16363.79
245.262	16306.53
245.333	16290.29
245.405	16256.5
245.476	16231.2
245.547	16202.23
245.618	16175.29
245.689	16132.49
245.761	16104.2
245.832	16073.16
245.903	16049.35
245.974	16014.26
246.045	15984.38
246.117	15967.7
246.188	15918.78
246.259	15875.4
246.33	15843.58
246.401	15802.9
246.473	15754.85
246.544	15700.53
246.615	15670.5
246.686	15643.6
246.757	15629.53
246.828	15583.35
246.899	15563.01
246.97	15517.8
247.042	15475.77
247.113	15450.42
247.184	15441.16
247.255	15405.64
247.326	15374.26
247.397	15342.25
247.468	15301.57
247.539	15261.99
247.61	15221.31
247.681	15199.81
247.752	15178.12
247.823	15142.26
247.894	15114.35
247.965	15070.2
248.037	15032.45
248.108	14988.2
248.179	14950.17
248.25	14918.98
248.321	14899.22
248.392	14861.14
248.463	14844.89
248.534	14810.96
248.605	14785.22
248.675	14746.22
248.746	14721.25
248.817	14699.17
248.888	14677.82
248.959	14639.98
249.03	14626.91
249.101	14599.05
249.172	14567.09
249.243	14518.94
249.314	14509.39
249.385	14482.3
249.456	14463.79
249.527	14442.19
249.598	14413.27
249.669	14387.38
249.739	14360.48
249.81	14338.6
249.881	14295.55
249.952	14265.66
250.023	14235.34
250.094	14194.9
250.165	14161.06
250.235	14133.29
250.306	14112.42
250.377	14075.25
250.448	14055.25
250.519	14004
250.59	13984
250.66	13960.09
250.731	13947.99
250.802	13910
250.873	13888.69
250.944	13865.07
251.014	13830.51
251.085	13833.21
251.156	13812.62
251.227	13795.13
251.297	13785.92
251.368	13774.49
251.439	13759.6
251.51	13744.17
251.58	13711.2
251.651	13680.92
251.722	13671.76
251.792	13624.72
251.863	13592.85
251.934	13583.16
252.005	13585.62
252.075	13565.9
252.146	13549.66
252.217	13534.95
252.287	13518.95
252.358	13489.35
252.429	13483.52
252.499	13456.67
252.57	13438.59
252.641	13419.84
252.711	13396.36
252.782	13345.41
252.852	13336.05
252.923	13309.15
252.994	13288.28
253.064	13279.36
253.135	13247.11
253.205	13211.58
253.276	13206.28
253.347	13197.61
253.417	13165.21
253.488	13136.14
253.558	13101.53
253.629	13070.63
253.699	13050.29
253.77	13032.79
253.841	13008.73
253.911	12985.88
253.982	12963.66
254.052	12948.81
254.123	12934.3
254.193	12915.31
254.264	12931.36
254.334	12899.02
254.405	12867.97
254.475	12841.36
254.546	12815.33
254.616	12807.76
254.687	12792.53
254.757	12774.84
254.827	12750.93
254.898	12738.97
254.968	12715.59
255.039	12688.5
255.109	12676.79
255.18	12646.32
255.25	12602.55
255.321	12584.91
255.391	12550.97
255.461	12556.71
255.532	12502.67
255.602	12476.21
255.673	12433.65
255.743	12404.19
255.813	12363.12
255.884	12354.64
255.954	12342.2
256.024	12336.8
256.095	12319.06
256.165	12288.21
256.235	12273.32
256.306	12250.13
256.376	12230.61
256.446	12216.97
256.517	12206.7
256.587	12202.89
256.657	12182.5
256.728	12166.6
256.798	12149.63
256.868	12124.28
256.938	12090.49
257.009	12082
257.079	12064.6
257.149	12074.58
257.219	12031.68
257.29	12019.82
257.36	11981.55
257.43	11964.78
257.5	11925.78
257.571	11893.92
257.641	11881.68
257.711	11851.31
257.781	11835.79
257.852	11824.71
257.922	11792.51
257.992	11767.45
258.062	11739.44
258.132	11732.16
258.202	11714.38
258.273	11693.46
258.343	11690.52
258.413	11662.37
258.483	11642.47
258.553	11614.13
258.623	11580.43
258.693	11570.07
258.764	11571.08
258.834	11566.84
258.904	11553.25
258.974	11529.83
259.044	11513.2
259.114	11493.73
259.184	11469.15
259.254	11454.98
259.324	11411.75
259.394	11403.02
259.464	11407.36
259.535	11387.31
259.605	11368.9
259.675	11347.07
259.745	11336.23
259.815	11312.61
259.885	11295.02
259.955	11297.43
260.025	11270.39
260.095	11251.45
260.165	11239.69
260.235	11234.25
260.305	11206.68
260.375	11172.9
260.445	11174.44
260.515	11171.84
260.585	11168.9
260.655	11160.32
260.725	11145.91
260.795	11139.36
260.865	11136.22
260.934	11104.61
261.004	11089.72
261.074	11066.25
261.144	11060.95
261.214	11057
261.284	11037.58
261.354	11030.49
261.424	11012.23
261.494	11021.14
261.564	11001.53
261.634	10987.02
261.703	10947.75
261.773	10943.22
261.843	10932.91
261.913	10914.45
261.983	10885.63
262.053	10880.72
262.123	10864.29
262.192	10837.59
262.262	10827.66
262.332	10793.16
262.402	10787.48
262.472	10765.89
262.541	10735.87
262.611	10728.74
262.681	10697.61
262.751	10688.79
262.821	10667.54
262.89	10631.69
262.96	10616.13
263.03	10620.03
263.1	10609.62
263.169	10591.46
263.239	10578.11
263.309	10580.86
263.379	10571.61
263.448	10557.68
263.518	10538.46
263.588	10523.09
263.657	10524.53
263.727	10516.44
263.797	10501.6
263.867	10477.17
263.936	10456.89
264.006	10450.96
264.076	10432.41
264.145	10421.38
264.215	10401.63
264.285	10394.45
264.354	10365.59
264.424	10352.87
264.494	10327.87
264.563	10308.74
264.633	10317.8
264.702	10305.85
264.772	10274.39
264.842	10255.69
264.911	10240.42
264.981	10212.28
265.05	10195.52
265.12	10175.77
265.19	10164.3
265.259	10160.74
265.329	10158.37
265.398	10144.45
265.468	10160.98
265.537	10140.31
265.607	10123.74
265.676	10120.99
265.746	10114.64
265.815	10121.81
265.885	10099.46
265.955	10072.05
266.024	10053.17
266.094	10014.49
266.163	10010.39
266.232	10005.53
266.302	9993.53
266.371	9987.61
266.441	9971.86
266.51	9968.87
266.58	9959.57
266.649	9939.2
266.719	9939.58
266.788	9927.01
266.858	9932.12
266.927	9895.17
266.996	9887.13
267.066	9882.02
267.135	9854.32
267.205	9847.43
267.274	9833.32
267.343	9826.72
267.413	9821.19
267.482	9819.88
267.552	9822.97
267.621	9795.42
267.69	9774.8
267.76	9760.02
267.829	9745.04
267.898	9738.58
267.968	9713.59
268.037	9700.73
268.106	9699.81
268.176	9673.61
268.245	9655.55
268.314	9637.01
268.384	9632.14
268.453	9619.57
268.522	9607
268.592	9605.56
268.661	9583.02
268.73	9569.97
268.799	9551.04
268.869	9555.13
268.938	9525.32
269.007	9509.09
269.076	9504.23
269.146	9501.29
269.215	9493.64
269.284	9502.45
269.353	9478.76
269.422	9470.62
269.492	9455.11
269.561	9414.28
269.63	9412.4
269.699	9404.5
269.768	9395.45
269.838	9388.47
269.907	9382.64
269.976	9359.67
270.045	9332.03
270.114	9334.15
270.183	9326.83
270.253	9321.44
270.322	9296.4
270.391	9290.72
270.46	9294.04
270.529	9291.83
270.598	9282.92
270.667	9273.82
270.736	9250.56
270.806	9246.08
270.875	9245.94
270.944	9234.09
271.013	9257.06
271.082	9247.29
271.151	9238.71
271.22	9216.62
271.289	9206.31
271.358	9192.4
271.427	9190.13
271.496	9180.75
271.565	9157.54
271.634	9145.5
271.703	9171.17
271.772	9173.1
271.841	9158.03
271.91	9134.58
271.979	9123.89
272.048	9102.76
272.117	9098.57
272.186	9084.08
272.255	9085.33
272.324	9085.67
272.393	9076.86
272.462	9059.43
272.531	9048.74
272.6	9036.89
272.669	9034.87
272.738	9024.38
272.807	9021.15
272.876	9001.08
272.945	9023.03
273.013	9029.58
273.082	9028.9
273.151	8983.89
273.22	8980.37
273.289	8976.42
273.358	8983.5
273.427	8974.5
273.496	8975.56
273.564	8970.6
273.633	8966.51
273.702	8943.98
273.771	8924.67
273.84	8920.87
273.909	8915
273.977	8904.17
274.046	8894.15
274.115	8889.49
274.184	8871.87
274.253	8864.6
274.322	8871.39
274.39	8841.59
274.459	8824.84
274.528	8793.79
274.597	8788.45
274.665	8783.69
274.734	8789.51
274.803	8783.3
274.872	8772.47
274.94	8757.5
275.009	8808.88
275.078	8799.35
275.147	8801.09
275.215	8795.36
275.284	8800.08
275.353	8792.76
275.421	8776.78
275.49	8785.49
275.559	8780.87
275.627	8770.09
275.696	8759.99
275.765	8753.06
275.833	8744.87
275.902	8743.72
275.971	8760.76
276.039	8770.33
276.108	8767.83
276.177	8762.68
276.245	8748.82
276.314	8742.37
276.383	8744.73
276.451	8683.52
276.52	8689.2
276.588	8699.94
276.657	8703.74
276.725	8693.92
276.794	8692.86
276.863	8700.99
276.931	8685.06
277	8690.89
277.068	8699.4
277.137	8718.13
277.205	8715.05
277.274	8729.53
277.342	8735.21
277.411	8712.88
277.48	8702.05
277.548	8699.21
277.617	8700.42
277.685	8698.35
277.754	8702.87
277.822	8698.06
277.89	8705.09
277.959	8697.29
278.027	8674.33
278.096	8661.67
278.164	8687.38
278.233	8677.18
278.301	8668.8
278.37	8671.69
278.438	8663.32
278.507	8665.43
278.575	8636.84
278.643	8636.12
278.712	8619.86
278.78	8606.96
278.849	8623.7
278.917	8630.78
278.985	8619.52
279.054	8622.45
279.122	8623.8
279.191	8618.75
279.259	8613.79
279.327	8597.09
279.396	8608.45
279.464	8610.95
279.532	8619.71
279.601	8613.74
279.669	8612.68
279.737	8628.61
279.806	8628.47
279.874	8638.77
279.942	8644.35
280.011	8642.52
280.079	8649.59
280.147	8665.52
280.215	8668.6
280.284	8660.66
280.352	8648.25
280.42	8657.82
280.488	8647.62
280.557	8650.12
280.625	8656.62
280.693	8658.4
280.761	8663.31
280.83	8647.72
280.898	8657.92
280.966	8641.85
281.034	8609.45
281.102	8597.28
281.171	8583.95
281.239	8592.9
281.307	8582.84
281.375	8567.88
281.443	8590.25
281.512	8592.95
281.58	8604.6
281.648	8588.96
281.716	8588.14
281.784	8589.73
281.852	8572.26
281.92	8570.53
281.989	8576.3
282.057	8560.28
282.125	8601.96
282.193	8598.83
282.261	8599.12
282.329	8589.5
282.397	8591.52
282.465	8599.89
282.533	8613.13
282.601	8605.38
282.67	8581.22
282.738	8572.89
282.806	8585.36
282.874	8579.92
282.942	8578.96
283.01	8564.18
283.078	8573.37
283.146	8569.38
283.214	8576.16
283.282	8585.21
283.35	8596.9
283.418	8587.23
283.486	8588
283.554	8542.51
283.622	8539.91
283.69	8536.3
283.758	8535.1
283.826	8540.3
283.894	8546.55
283.962	8566.14
284.03	8582.79
284.098	8590.11
284.165	8582.6
284.233	8578.7
284.301	8567.44
284.369	8554.55
284.437	8550.74
284.505	8543.81
284.573	8558.3
284.641	8545.21
284.709	8551.66
284.777	8533.37
284.845	8538.23
284.912	8545.55
284.98	8549.35
285.048	8541.55
285.116	8542.95
285.184	8558.97
285.252	8559.45
285.319	8545.88
285.387	8531.64
285.455	8509.6
285.523	8510.75
285.591	8512.72
285.659	8513.83
285.726	8521.67
285.794	8514.41
285.862	8511.28
285.93	8513.11
285.997	8506.9
286.065	8506.9
286.133	8498
286.201	8496.94
286.269	8485.58
286.336	8477.26
286.404	8473.74
286.472	8482.55
286.539	8466.14
286.607	8446.75
286.675	8447.18
286.743	8454.35
286.81	8450.45
286.878	8467.05
286.946	8461.86
287.013	8459.5
287.081	8457.14
287.149	8448.62
287.216	8466.14
287.284	8463.21
287.352	8466.91
287.419	8464.36
287.487	8483.42
287.555	8481.93
287.622	8479.76
287.69	8486.45
287.758	8501.56
287.825	8494.15
287.893	8483.9
287.96	8494.29
288.028	8506.18
288.096	8505.84
288.163	8504.35
288.231	8494.44
288.298	8488.42
288.366	8503.2
288.433	8503.82
288.501	8498.72
288.569	8500.02
288.636	8496.03
288.704	8505.22
288.771	8508.49
288.839	8503.63
288.906	8489.58
288.974	8506.47
289.041	8504.69
289.109	8499.16
289.176	8502.24
289.244	8511.47
289.311	8524.23
289.379	8532.6
289.446	8530.91
289.514	8533.32
289.581	8536.93
289.649	8538.04
289.716	8543.23
289.783	8533.56
289.851	8548.38
289.918	8543.76
289.986	8552.18
290.053	8549.87
290.121	8550.31
290.188	8549.25
290.255	8577.64
290.323	8577.11
290.39	8564.26
290.458	8571.53
290.525	8577.26
290.592	8567.82
290.66	8577.06
290.727	8567.25
290.794	8583.66
290.862	8586.02
290.929	8585.1
290.996	8585.53
291.064	8590.92
291.131	8599.49
291.198	8612.44
291.266	8609.93
291.333	8614.12
291.4	8619.32
291.468	8641.41
291.535	8638.04
291.602	8644.88
291.669	8632.84
291.737	8629.38
291.804	8630.53
291.871	8650.89
291.938	8661.82
292.006	8692.05
292.073	8695.66
292.14	8713.75
292.207	8700.04
292.275	8703.16
292.342	8719.77
292.409	8742.06
292.476	8768.29
292.543	8761.21
292.611	8762.27
292.678	8778.97
292.745	8808.38
292.812	8817.43
292.879	8808.19
292.946	8812.42
293.014	8824.07
293.081	8832.83
293.148	8855.41
293.215	8871.19
293.282	8864.45
293.349	8873.07
293.416	8850.45
293.484	8862.96
293.551	8872.2
293.618	8890.25
293.685	8913.84
293.752	8903.06
293.819	8899.69
293.886	8888.42
293.953	8897.09
294.02	8909.22
294.087	8919.71
294.154	8907.92
294.221	8919.91
294.288	8922.12
294.356	8940.56
294.423	8950.91
294.49	8944.6
294.557	8948.65
294.624	8941.96
294.691	8962.17
294.758	8962.9
294.825	8975.07
294.892	8972.43
294.959	8969.3
295.026	8981
295.093	8977.39
295.16	8980.51
295.226	8986.68
295.293	9008.82
295.36	9016.33
295.427	9020.52
295.494	9031.26
295.561	9043.15
295.628	9061.74
295.695	9077.04
295.762	9080.66
295.829	9079.45
295.896	9099.29
295.963	9112.43
296.03	9121.24
296.096	9122.35
296.163	9135.49
296.23	9153.64
296.297	9168.57
296.364	9167.36
296.431	9169.87
296.498	9163.9
296.564	9186.81
296.631	9184.98
296.698	9167.99
296.765	9185.03
296.832	9175.79
296.899	9163.56
296.965	9180.94
297.032	9166.44
297.099	9176.94
297.166	9183.59
297.233	9185.7
297.299	9172.42
297.366	9167.94
297.433	9169.58
297.5	9176.08
297.566	9174.73
297.633	9166.01
297.7	9164.42
297.767	9167.36
297.833	9165.72
297.9	9170.92
297.967	9159.22
298.033	9171.4
298.1	9206.27
298.167	9195.87
298.234	9207.28
298.3	9219.02
298.367	9209.63
298.434	9215.89
298.5	9208.91
298.567	9208.29
298.634	9206.36
298.7	9226.34
298.767	9232.5
298.834	9248.01
298.9	9245.12
298.967	9243.72
299.033	9256.1
299.1	9269.63
299.167	9282.48
299.233	9285.47
299.3	9294.33
299.366	9307.57
299.433	9329.24
299.5	9303.48
299.566	9312.19
299.633	9333.96
299.699	9337.18
299.766	9340.55
299.832	9343.59
299.899	9354.95
299.965	9363.43
300.032	9362.22
300.099	9370.55
300.165	9375.8
300.232	9372.34
300.298	9372.24
300.365	9385.67
300.431	9392.51
300.498	9391.6
300.564	9405.42
300.631	9421.12
300.697	9431.85
300.763	9432.38
300.83	9422.41
300.896	9437.53
300.963	9449.33
301.029	9445.43
301.096	9452.32
301.162	9458
301.229	9456.55
301.295	9444.08
301.361	9446.68
301.428	9450.63
301.494	9438.3
301.561	9437.1
301.627	9438.64
301.693	9446.2
301.76	9442.78
301.826	9433.05
301.892	9439.6
301.959	9442.83
302.025	9433.58
302.092	9425.06
302.158	9431.9
302.224	9431.8
302.291	9421.4
302.357	9411.91
302.423	9405.22
302.49	9397.37
302.556	9408.64
302.622	9406.09
302.688	9420.05
302.755	9430.26
302.821	9435.85
302.887	9445.24
302.954	9447.31
303.02	9457.95
303.086	9460.02
303.152	9457.28
303.219	9455.64
303.285	9461.56
303.351	9462.57
303.417	9464.02
303.483	9457.09
303.55	9446.49
303.616	9442.16
303.682	9444.76
303.748	9440.95
303.815	9459.35
303.881	9466.72
303.947	9462.91
304.013	9463.06
304.079	9453.09
304.145	9429.83
304.212	9429.21
304.278	9423.04
304.344	9418.32
304.41	9403.2
304.476	9392.27
304.542	9391.79
304.608	9396.7
304.674	9373.83
304.741	9373.01
304.807	9375.22
304.873	9386.68
304.939	9407.87
305.005	9394.29
305.071	9389.86
305.137	9391.55
305.203	9363.57
305.269	9359.76
305.335	9364.39
305.401	9361.16
305.467	9352.93
305.533	9361.6
305.599	9370.84
305.666	9370.46
305.732	9365.64
305.798	9382.21
305.864	9404.55
305.93	9402.29
305.996	9398.63
306.062	9405.9
306.128	9400.31
306.194	9384.61
306.259	9384.04
306.325	9372.82
306.391	9379.89
306.457	9387.41
306.523	9388.42
306.589	9415
306.655	9408.55
306.721	9390.25
306.787	9384.42
306.853	9405.99
306.919	9396.12
306.985	9384.13
307.051	9375.76
307.117	9378.12
307.183	9365.26
307.248	9341.37
307.314	9346.81
307.38	9350.33
307.446	9356.25
307.512	9344.55
307.578	9352.78
307.644	9345.9
307.709	9347.49
307.775	9350.81
307.841	9344.98
307.907	9343.64
307.973	9314.31
308.039	9315.61
308.104	9321.77
308.17	9323.17
308.236	9303.04
308.302	9303.71
308.368	9299
308.433	9304.05
308.499	9295.63
308.565	9283.68
308.631	9283.88
308.696	9264.52
308.762	9251.81
308.828	9247.91
308.894	9235.92
308.959	9220.22
309.025	9215.99
309.091	9207.22
309.156	9194.17
309.222	9197.3
309.288	9182.86
309.354	9165.58
309.419	9163.03
309.485	9150.17
309.551	9150.36
309.616	9143.43
309.682	9140.06
309.748	9134.57
309.813	9127.3
309.879	9116.52
309.945	9107.56
310.01	9096.25
310.076	9096.68
310.141	9089.46
310.207	9071.93
310.273	9067.55
310.338	9066.21
310.404	9044.01
310.469	9032.07
310.535	9017.97
310.601	8999.96
310.666	9004.87
310.732	9018.3
310.797	9003.47
310.863	8987.4
310.928	8980.51
310.994	8979.6
311.059	8974.88
311.125	8967.9
311.191	8979.94
311.256	8975.51
311.322	8985.86
311.387	8970.65
311.453	9265.1
311.518	9245.37
311.584	9243.49
311.649	9250.9
311.715	9241.28
311.78	9246.28
311.846	9237.47
311.911	9248.74
311.976	9246.52
312.042	9234.2
312.107	9216
312.173	9211.14
312.238	9209.84
312.304	9204.26
312.369	9195.88
312.434	9188.9
312.5	9181.49
312.565	9150.68
312.631	9151.69
312.696	9140.67
312.761	9146.83
312.827	8835.71
312.892	8871.72
312.958	8865.13
313.023	8863.44
313.088	8863.06
313.154	8851.51
313.219	8842.12
313.284	8833.31
313.35	8824.41
313.415	8813
313.48	8808.96
313.546	8810.21
313.611	8815.02
313.676	8807.9
313.741	8796.92
313.807	8800.73
313.872	8805.97
313.937	8814.11
314.003	8821.33
314.068	8818.68
314.133	8822.53
314.198	8819.4
314.264	8792.2
314.329	8784.07
314.394	8773.28
314.459	8766.31
314.525	8784.26
314.59	8783.06
314.655	8766.59
314.72	8777.52
314.785	8782.19
314.851	8774.15
314.916	8754.18
314.981	8738.15
315.046	8725.49
315.111	8718.56
315.176	8707.16
315.242	8709.56
315.307	8701.62
315.372	8683.04
315.437	8675.63
315.502	8665.67
315.567	8675.97
315.632	8666.05
315.698	8664.08
315.763	8664.95
315.828	8660.85
315.893	8650.46
315.958	8640.59
316.023	8630.68
316.088	8608.59
316.153	8590.01
316.218	8587.51
316.283	8569.18
316.348	8549.41
316.413	8548.97
316.479	8532.61
316.544	8501.19
316.609	8467.94
316.674	8434.45
316.739	8401.06
316.804	8364.55
316.869	8328.41
316.934	8289.63
316.999	8258.89
317.064	8206.6
317.129	8161.75
317.194	8119.9
317.259	8070.73
317.324	8025.33
317.389	7990.22
317.454	7955.11
317.518	7921.15
317.583	7892.19
317.648	7868.1
317.713	7835.54
317.778	7778.69
317.843	7752.67
317.908	7715.12
317.973	7675.25
318.038	7641.69
318.103	7603.52
318.168	7577.08
318.233	7547.03
318.297	7498.19
318.362	7463.09
318.427	7430.46
318.492	7405.94
318.557	7367.59
318.622	7340.04
318.687	7317.84
318.751	7273.77
318.816	7236.19
318.881	7197.31
318.946	7141.23
319.011	7098.36
319.075	7062.67
319.14	7023.61
319.205	6973.93
319.27	6937.13
319.335	6891.88
319.399	6854.79
319.464	6827.22
319.529	6776.55
319.594	6737.45
319.658	6705.22
319.723	6662
319.788	6627.81
319.853	6570.8
319.917	6539.93
319.982	6487.01
320.047	6447.83
320.112	6415.43
320.176	6364.74
320.241	6327.2
320.306	6301.85
320.37	6264.17
320.435	6229.86
320.5	6200.34
320.564	6160.61
320.629	6115.17
320.694	6083.51
320.758	6040.76
320.823	5994.75
320.888	5964.43
320.952	5914.25
321.017	5870.7
321.082	5828.35
321.146	5796.88
321.211	5763.6
321.275	5718.33
321.34	5674.51
321.405	5626.61
321.469	5583.46
321.534	5541
321.598	5492.54
321.663	5458.3
321.727	5420.29
321.792	5371.69
321.857	5328.21
321.921	5291.26
321.986	5255.14
322.05	5200.53
322.115	5164.5
322.179	5121.63
322.244	5065.21
322.308	5032.88
322.373	4990.5
322.437	4951.46
322.502	4924.06
322.566	4879.09
322.631	4844.14
322.695	4806.47
322.76	4765.54
322.824	4731.03
322.889	4691.98
322.953	4649.5
323.018	4584.36
323.082	4525.18
323.146	4476.62
323.211	4421.66
323.275	4377.74
323.34	4333.17
323.404	4296.21
323.468	4249.05
323.533	4210.13
323.597	4167.07
323.662	4116.58
323.726	4079.43
323.79	4035.45
323.855	3969.6
323.919	3918.99
323.983	3874.26
324.048	3809.17
324.112	3921.09
324.177	3793.59
324.241	3594.96
324.305	3400.34
324.37	3210.06
324.434	3026.24
324.498	2982.84
324.562	2936.81
324.627	2877.31
324.691	2820.32
324.755	2758.71
324.82	2685.8
324.884	2605.28
324.948	2532.81
325.012	2439.25
325.077	2318.91
