Data from 20250702_urea_0.5M_MAYP1162681_06-54-59-635.txt Node
Date: Thu Jul 03 06:54:59 BST 2025
User: adleo
Spectrometer: MAYP116268
Trigger mode: 0
Integration Time (sec): 1.000000E0
Scans to average: 1
Electric dark correction enabled: true
Nonlinearity correction enabled: true
Boxcar width: 10
XAxis mode: Wavelengths
Number of Pixels in Spectrum: 2068
>>>>>Begin Spectral Data<<<<<
179.565	1200.66
179.642	1253.21
179.718	1295.3
179.795	1333.65
179.871	1366.83
179.948	1383.07
180.024	1403.63
180.101	1426.11
180.177	1440.55
180.254	1460.89
180.33	1483.23
180.407	1534.93
180.483	1629.95
180.56	1716.89
180.636	1801.93
180.712	1789.61
180.789	1799.59
180.865	1810.76
180.942	1818.74
181.018	1827.2
181.095	1841.13
181.171	1843.84
181.248	1847.22
181.324	1862.29
181.4	1868.85
181.477	1876.6
181.553	1889.48
181.63	1909.92
181.706	1922.95
181.782	1928.03
181.859	1929.65
181.935	1932.69
182.011	1929.79
182.088	1943.54
182.164	1963.42
182.24	1974.3
182.317	1983.1
182.393	1980.62
182.469	1995.03
182.546	2005.4
182.622	2009.15
182.698	2002.35
182.775	2017.05
182.851	2030.03
182.927	2022.09
183.003	2017.1
183.08	2014.67
183.156	2025.42
183.232	2022.99
183.308	2013.91
183.385	2025.56
183.461	2043.25
183.537	2046.06
183.613	2058.85
183.69	2049.81
183.766	2040.54
183.842	2049.72
183.918	2057.99
183.995	2071.21
184.071	2075.54
184.147	2072.45
184.223	2063.04
184.299	2075.64
184.375	2064.47
184.452	2071.7
184.528	2131.04
184.604	2142.07
184.68	2152.49
184.756	2158.44
184.832	2160.91
184.908	2162.05
184.985	2160.67
185.061	2145.93
185.137	2155.82
185.213	2142.51
185.289	2146.74
185.365	2140.75
185.441	2139.32
185.517	2149.17
185.593	2147.98
185.669	2144.27
185.745	2155.78
185.822	2173.14
185.898	2165
185.974	2175.32
186.05	2165.57
186.126	2124.45
186.202	2118.36
186.278	2114.74
186.354	2106.85
186.43	2114.55
186.506	2121.35
186.582	2120.4
186.658	2127.39
186.734	2106.18
186.81	2109.94
186.886	2113.32
186.962	2128.16
187.038	2125.06
187.114	2117.93
187.19	2125.21
187.266	2114.6
187.341	2113.08
187.417	2104.61
187.493	2103.61
187.569	2107.37
187.645	2100.86
187.721	2088.53
187.797	2094.48
187.873	2097.85
187.949	2090.67
188.025	2085.39
188.101	2083.01
188.176	2089.05
188.252	2081.83
188.328	2089.72
188.404	2089.62
188.48	2082.92
188.556	2072.36
188.632	2070.83
188.707	2070.98
188.783	2064.89
188.859	2061.37
188.935	2053
189.011	2063.75
189.086	2057.61
189.162	2048.19
189.238	2046.77
189.314	2044.01
189.39	2039.16
189.465	2033.07
189.541	2050.15
189.617	2032.83
189.693	2027.99
189.768	2032.17
189.844	2057.58
189.92	2049.83
189.996	2057.77
190.071	2068.57
190.147	2067.48
190.223	2074.14
190.298	2063.62
190.374	2053.4
190.45	2061.76
190.526	2069
190.601	2059.67
190.677	2063.19
190.753	2087.75
190.828	2090.79
190.904	2104.21
190.98	2119.95
191.055	2129.51
191.131	2122.47
191.207	2144.83
191.282	2152.72
191.358	2140.83
191.433	2125.17
191.509	2137.15
191.585	2135.77
191.66	2139.72
191.736	2149.14
191.811	2141.24
191.887	2162.18
191.963	2183.35
192.038	2191.44
192.114	2190.63
192.189	2195.95
192.265	2191.87
192.34	2173.4
192.416	2171.54
192.491	2164.88
192.567	2166.69
192.642	2167.07
192.718	2166.02
192.793	2154.99
192.869	2152.75
192.944	2156.94
193.02	2162.88
193.095	2165.59
193.171	2168.59
193.246	2164.93
193.322	2163.02
193.397	2164.74
193.473	2149.98
193.548	2130.43
193.624	2136.09
193.699	2136.05
193.775	2150.8
193.85	2150.13
193.925	2156.84
194.001	2157.41
194.076	2153.7
194.152	2144.04
194.227	2138.43
194.302	2129.58
194.378	2131.72
194.453	2130.44
194.529	2141.38
194.604	2128.92
194.679	2125.59
194.755	2110.32
194.83	2123.51
194.905	2117.61
194.981	2126.22
195.056	2116.9
195.131	2124.98
195.207	2121.75
195.282	2111.57
195.357	2092.87
195.433	2110.56
195.508	2099.19
195.583	2108.13
195.659	2120.98
195.734	2127.12
195.809	2126.02
195.884	2133.44
195.96	2133.16
196.035	2146.48
196.11	2142.86
196.185	2155.37
196.261	2158.42
196.336	2188.91
196.411	2174.4
196.486	2182.06
196.561	2175.44
196.637	2187.05
196.712	2203.99
196.787	2205.85
196.862	2223.4
196.937	2235.63
197.013	2239.05
197.088	2249.52
197.163	2267.28
197.238	2284.18
197.313	2285.28
197.388	2300.93
197.464	2332.02
197.539	2343.06
197.614	2335.87
197.689	2348.53
197.764	2363.58
197.839	2384.28
197.914	2375.38
197.989	2397.04
198.065	2411.84
198.14	2461.29
198.215	2485.19
198.29	2495.67
198.365	2510.85
198.44	2519.19
198.515	2544.57
198.59	2560.28
198.665	2587.19
198.74	2598.39
198.815	2596.81
198.89	2618.63
198.965	2648.17
199.04	2643.07
199.115	2657.54
199.19	2702.27
199.265	2706.03
199.34	2713.27
199.415	2744.87
199.49	2769.21
199.565	2779.83
199.64	2799.8
199.715	2798.03
199.79	2805.37
199.865	2814.95
199.94	2815.67
200.015	2845.36
200.09	2850.89
200.165	2862.04
200.24	2864.56
200.315	2906.16
200.39	2924.61
200.464	2929.8
200.539	2932.57
200.614	2948.72
200.689	2974.28
200.764	2981.19
200.839	2998.11
200.914	3006.92
200.989	2995.81
201.063	3008.64
201.138	2991.44
201.213	2993.87
201.288	2972.66
201.363	2979.52
201.438	2976.04
201.512	2991.86
201.587	2974.75
201.662	2979.61
201.737	2990.29
201.812	3003.55
201.886	2968.38
201.961	2974.73
202.036	2962.29
202.111	2956.47
202.186	2925.84
202.26	2910.06
202.335	2887.51
202.41	2884.51
202.485	2868.54
202.559	2849.72
202.634	2822.84
202.709	2831.27
202.784	2810.45
202.858	2811.21
202.933	2789.77
203.008	2783.57
203.082	2762.47
203.157	2763.51
203.232	2720.17
203.306	2698.39
203.381	2666.03
203.456	2642.88
203.53	2622.52
203.605	2606.23
203.68	2584.03
203.754	2579.94
203.829	2562.45
203.904	2542.64
203.978	2528.45
204.053	2531.92
204.127	2520.35
204.202	2519.83
204.277	2503.07
204.351	2498.64
204.426	2490.78
204.5	2485.26
204.575	2452.6
204.65	2462.37
204.724	2455.89
204.799	2464.6
204.873	2457.78
204.948	2451.6
205.022	2439.79
205.097	2432.93
205.171	2445.93
205.246	2452.45
205.32	2451.69
205.395	2450.36
205.469	2441.22
205.544	2444.8
205.618	2425.89
205.693	2438.42
205.767	2426.99
205.842	2450.14
205.916	2443.52
205.991	2435.71
206.065	2439.85
206.14	2453.03
206.214	2449.32
206.289	2442.08
206.363	2453.41
206.438	2459.12
206.512	2469.74
206.586	2492.02
206.661	2498.93
206.735	2476.23
206.81	2477.7
206.884	2492.22
206.958	2482.94
207.033	2499.98
207.107	2508.55
207.181	2544.18
207.256	2538.8
207.33	2556.18
207.405	2567.14
207.479	2586.05
207.553	2595.33
207.628	2582.48
207.702	2597.15
207.776	2592.81
207.851	2599
207.925	2619.45
207.999	2618.88
208.073	2620.02
208.148	2626.45
208.222	2621.16
208.296	2661.16
208.371	2681.56
208.445	2698.62
208.519	2730.77
208.593	2751.11
208.668	2755.35
208.742	2760.5
208.816	2772.65
208.89	2794.96
208.965	2807.02
209.039	2826.33
209.113	2855.64
209.187	2886.6
209.261	2896.56
209.336	2928.54
209.41	2963.11
209.484	2973.5
209.558	3010.08
209.632	3041.59
209.707	3070.63
209.781	3113.6
209.855	3145.09
209.929	3186.1
210.003	3214.29
210.077	3240.96
210.151	3309.72
210.226	3371.07
210.3	3428.19
210.374	3480.39
210.448	3518.58
210.522	3557.03
210.596	3601.58
210.67	3646.08
210.744	3732.97
210.818	3800.82
210.892	3861.68
210.966	3896.69
211.041	3959.14
211.115	4000.27
211.189	4071.39
211.263	4131.04
211.337	4178.74
211.411	4244.64
211.485	4286.78
211.559	4352.09
211.633	4405
211.707	4429.46
211.781	4489.2
211.855	4512.07
211.929	4559.9
212.003	4599.46
212.077	4670.84
212.151	4746.96
212.225	4813.89
212.299	4862.95
212.373	4917.87
212.447	4980.81
212.52	5077.72
212.594	5146.76
212.668	5225.75
212.742	5279.61
212.816	5346.13
212.89	5413.73
212.964	5482.45
213.038	5558.68
213.112	5643.8
213.186	5735.7
213.26	5797.54
213.333	5832.46
213.407	5916.27
213.481	5999.09
213.555	6094.37
213.629	6158.39
213.703	6219.93
213.777	6299.71
213.85	6358.56
213.924	6474.18
213.998	6551.78
214.072	6618.84
214.146	6685.16
214.219	6759.6
214.293	6836.87
214.367	6919.06
214.441	7010.86
214.515	7082.94
214.588	7142.57
214.662	7189.28
214.736	7243.39
214.81	7325.16
214.883	7413.62
214.957	7474.31
215.031	7538.18
215.105	7588.12
215.178	7651
215.252	7718.56
215.326	7771.36
215.4	7828.76
215.473	7854.74
215.547	7910.49
215.621	7976.83
215.694	8055.87
215.768	8110.52
215.842	8170.46
215.915	8228.48
215.989	8271.74
216.063	8335.75
216.136	8405.42
216.21	8474.51
216.284	8561.96
216.357	8630.15
216.431	8695.65
216.504	8777.62
216.578	8873.17
216.652	8950.75
216.725	9024.06
216.799	9102.3
216.873	9168.4
216.946	9245.52
217.02	9308.05
217.093	9380.76
217.167	9427.23
217.24	9479.15
217.314	9544.83
217.387	9603.14
217.461	9664.83
217.535	9751.96
217.608	9799.26
217.682	9867.7
217.755	9950.45
217.829	10008.36
217.902	10075.12
217.976	10135.53
218.049	10192.04
218.123	10244.07
218.196	10317.63
218.27	10384.51
218.343	10433.46
218.417	10506.26
218.49	10570
218.563	10650.85
218.637	10714.6
218.71	10802.49
218.784	10873.72
218.857	10945.08
218.931	11022.8
219.004	11093.74
219.077	11159.62
219.151	11231.71
219.224	11288.72
219.298	11345.06
219.371	11414.03
219.444	11470.85
219.518	11541.12
219.591	11609.32
219.665	11700.27
219.738	11768.13
219.811	11816.19
219.885	11891.62
219.958	11966.43
220.031	12033.38
220.105	12100.76
220.178	12166.7
220.251	12215.63
220.325	12284.37
220.398	12355.47
220.471	12420.93
220.544	12482.34
220.618	12534.25
220.691	12605.26
220.764	12674.34
220.838	12741.77
220.911	12794.7
220.984	12878.24
221.057	12946.31
221.131	13012.64
221.204	13039.64
221.277	13117.2
221.35	13213.51
221.424	13267.55
221.497	13323.33
221.57	13388.99
221.643	13458.02
221.716	13525.02
221.79	13574
221.863	13632.14
221.936	13687.72
222.009	13740.51
222.082	13806.89
222.155	13859.72
222.229	13928.32
222.302	13989.4
222.375	14047.58
222.448	14111.6
222.521	14161.3
222.594	14216.54
222.667	14258.87
222.74	14332.33
222.814	14375.72
222.887	14417.99
222.96	14489.67
223.033	14558.8
223.106	14619.87
223.179	14673.14
223.252	14726.02
223.325	14798.9
223.398	14847.44
223.471	14892.42
223.544	14948.29
223.617	14997.74
223.69	15055.44
223.763	15089.91
223.837	15149.87
223.91	15197.5
223.983	15236.64
224.056	15277.56
224.129	15322.87
224.202	15384.48
224.275	15417.98
224.348	15455.81
224.42	15485.22
224.493	15503.63
224.566	15534.04
224.639	15572.85
224.712	15604.08
224.785	15636.04
224.858	15665.44
224.931	15706.79
225.004	15742.17
225.077	15781.84
225.15	15796.69
225.223	15837.66
225.296	15907.74
225.369	15919.93
225.442	15950.73
225.514	15990.69
225.587	16031.47
225.66	16076.77
225.733	16115.86
225.806	16160.06
225.879	16197.17
225.952	16235.78
226.025	16296.51
226.097	16343.84
226.17	16383.12
226.243	16404.95
226.316	16445.53
226.389	16488.67
226.461	16532.81
226.534	16578.79
226.607	16617.64
226.68	16677.55
226.753	16714.85
226.825	16722.71
226.898	16774.81
226.971	16811.25
227.044	16851.97
227.117	16890.62
227.189	16929.47
227.262	16974.63
227.335	17011.4
227.407	17039.98
227.48	17077.47
227.553	17108.75
227.626	17137.96
227.698	17165.23
227.771	17206.78
227.844	17239.07
227.916	17275.74
227.989	17294.68
228.062	17325.28
228.134	17370.39
228.207	17402.59
228.28	17423.31
228.352	17455.74
228.425	17483.36
228.498	17525.24
228.57	17542.3
228.643	17583.89
228.716	17607.55
228.788	17631.21
228.861	17656.42
228.934	17704.22
229.006	17733.19
229.079	17759.4
229.151	17776.85
229.224	17789.47
229.296	17820.89
229.369	17859.59
229.442	17890.43
229.514	17900.99
229.587	17927.45
229.659	17931.3
229.732	17965.03
229.804	18013.61
229.877	18062.33
229.949	18098.91
230.022	18147.24
230.094	18171.1
230.167	18191.72
230.239	18203.34
230.312	18219.53
230.384	18263.43
230.457	18290.18
230.529	18309.65
230.602	18318.85
230.674	18349.64
230.747	18380.77
230.819	18423.95
230.892	18418.46
230.964	18456.29
231.037	18485.97
231.109	18513.59
231.181	18551.13
231.254	18547.66
231.326	18550.36
231.399	18558.74
231.471	18575.8
231.544	18562.26
231.616	18599.17
231.688	18615.22
231.761	18631.27
231.833	18647.27
231.905	18637.72
231.978	18640.18
232.05	18651.51
232.122	18681.53
232.195	18690.4
232.267	18727.17
232.339	18728.03
232.412	18762.63
232.484	18756.08
232.556	18764.18
232.629	18791.93
232.701	18803.16
232.773	18822.44
232.846	18828.07
232.918	18841.28
232.99	18841.62
233.062	18851.83
233.135	18865.47
233.207	18859.21
233.279	18875.69
233.351	18890.14
233.424	18898.09
233.496	18898.62
233.568	18925.9
233.64	18908.65
233.713	18909.52
233.785	18905.03
233.857	18907.44
233.929	18894.29
234.001	18909.66
234.074	18935.01
234.146	18919.01
234.218	18919.68
234.29	18916.5
234.362	18917.08
234.434	18891.11
234.507	18882.05
234.579	18871.83
234.651	18855.93
234.723	18869.66
234.795	18868.7
234.867	18860.65
234.939	18869.95
235.012	18872.22
235.084	18873.57
235.156	18887.73
235.228	18879.73
235.3	18868.7
235.372	18867.98
235.444	18879.88
235.516	18856.36
235.588	18855.78
235.66	18849.33
235.732	18834.1
235.804	18883.93
235.876	18893.47
235.948	18918.86
236.02	18919.83
236.092	18920.65
236.164	18914.67
236.236	18898.67
236.308	18888.02
236.38	18881.52
236.452	18862.92
236.524	18855.64
236.596	18860.65
236.668	18854.58
236.74	18851.01
236.812	18843.78
236.884	18839.79
236.956	18823.4
237.028	18799.35
237.1	18776.03
237.172	18780.99
237.244	18789.62
237.316	18737.67
237.388	18710.68
237.46	18680.47
237.532	18679.75
237.604	18661.24
237.675	18662.11
237.747	18658.93
237.819	18639.56
237.891	18625.2
237.963	18601.39
238.035	18580.62
238.107	18530.45
238.178	18525.1
238.25	18505.83
238.322	18512.48
238.394	18473.35
238.466	18451.13
238.538	18450.51
238.609	18436.92
238.681	18397.55
238.753	18365.5
238.825	18352.1
238.897	18332.2
238.968	18326.61
239.04	18300.59
239.112	18296.59
239.184	18269.02
239.255	18234.47
239.327	18223.43
239.399	18208.11
239.471	18189.75
239.542	18178.81
239.614	18175.77
239.686	18129.08
239.758	18118.57
239.829	18073.56
239.901	18065.95
239.973	18050.81
240.044	18033.56
240.116	18002.33
240.188	17982.91
240.259	17963.4
240.331	17933.28
240.403	17921.86
240.474	17888.46
240.546	17845.42
240.618	17803.06
240.689	17775.4
240.761	17755.45
240.833	17741.14
240.904	17706.97
240.976	17691.21
241.048	17664.95
241.119	17644.99
241.191	17624.42
241.262	17605.24
241.334	17583.16
241.405	17553.67
241.477	17518.73
241.549	17488.66
241.62	17477.96
241.692	17463.84
241.763	17448.23
241.835	17416.9
241.906	17389.57
241.978	17345.96
242.049	17338.3
242.121	17330.78
242.192	17309.43
242.264	17271.02
242.335	17229.86
242.407	17212.37
242.478	17175.26
242.55	17147.02
242.621	17102.77
242.693	17070.68
242.764	17035.06
242.836	17001.47
242.907	16979.35
242.979	16950.48
243.05	16925.9
243.122	16892.41
243.193	16852.36
243.264	16802.23
243.336	16776.21
243.407	16750.42
243.479	16743.29
243.55	16719.87
243.622	16692.88
243.693	16665.84
243.764	16653.79
243.836	16612.34
243.907	16569.83
243.978	16541.25
244.05	16511.66
244.121	16462.93
244.192	16452.43
244.264	16414.06
244.335	16383.5
244.407	16331.06
244.478	16312.17
244.549	16279.11
244.62	16233.27
244.692	16202.09
244.763	16182.33
244.834	16150.03
244.906	16118.61
244.977	16092.05
245.048	16076.68
245.119	16031.23
245.191	15988.76
245.262	15940.42
245.333	15927.84
245.405	15907.88
245.476	15888.07
245.547	15866.48
245.618	15850.86
245.689	15817.32
245.761	15789.31
245.832	15756.73
245.903	15740.44
245.974	15716.44
246.045	15671.22
246.117	15668.43
246.188	15635.84
246.259	15589.14
246.33	15555.93
246.401	15517.65
246.473	15475.48
246.544	15436.53
246.615	15418.99
246.686	15382.16
246.757	15366.83
246.828	15326.2
246.899	15305.91
246.97	15255.49
247.042	15218.71
247.113	15200.78
247.184	15192.58
247.255	15165.93
247.326	15153.54
247.397	15125.1
247.468	15093
247.539	15079.16
247.61	15026.77
247.681	15004.35
247.752	14994.28
247.823	14956.05
247.894	14930.26
247.965	14884.8
248.037	14845.81
248.108	14800.74
248.179	14776.97
248.25	14736.63
248.321	14712.04
248.392	14671.45
248.463	14666.92
248.534	14632.7
248.605	14615.25
248.675	14576.49
248.746	14549.98
248.817	14520.77
248.888	14497.1
248.959	14452.03
249.03	14422.96
249.101	14403.82
249.172	14371.81
249.243	14323.37
249.314	14313.24
249.385	14283.89
249.456	14268.99
249.527	14245.66
249.598	14231.39
249.669	14203.53
249.739	14189.84
249.81	14169.54
249.881	14140.43
249.952	14111.94
250.023	14085.57
250.094	14040.06
250.165	14007.28
250.235	13984
250.306	13953.39
250.377	13920.08
250.448	13898.34
250.519	13851.14
250.59	13833.4
250.66	13800.57
250.731	13788.95
250.802	13759.26
250.873	13739.78
250.944	13720.16
251.014	13685.41
251.085	13684.54
251.156	13667.47
251.227	13655.9
251.297	13646.41
251.368	13631.22
251.439	13613.63
251.51	13607.84
251.58	13576.6
251.651	13538.96
251.722	13518.42
251.792	13481.69
251.863	13459.66
251.934	13457.78
252.005	13466.4
252.075	13442.74
252.146	13432.27
252.217	13416.03
252.287	13408.7
252.358	13377.61
252.429	13365.03
252.499	13336.83
252.57	13301.01
252.641	13284.76
252.711	13255.65
252.782	13210.38
252.852	13201.8
252.923	13175.96
252.994	13155.67
253.064	13138.89
253.135	13113.1
253.205	13083.55
253.276	13075.16
253.347	13060.99
253.417	13022.76
253.488	12996.58
253.558	12977.11
253.629	12958.69
253.699	12943.7
253.77	12919.36
253.841	12904.13
253.911	12880.84
253.982	12863.54
254.052	12853.65
254.123	12840.64
254.193	12823.91
254.264	12843.53
254.334	12808.77
254.405	12773.15
254.475	12737.04
254.546	12716.41
254.616	12708.51
254.687	12699.35
254.757	12691.2
254.827	12666.38
254.898	12654.71
254.968	12628.15
255.039	12590.55
255.109	12577.68
255.18	12547.6
255.25	12508.02
255.321	12485.61
255.391	12452.59
255.461	12451
255.532	12401.78
255.602	12370.35
255.673	12329.19
255.743	12292.65
255.813	12248.54
255.884	12245.41
255.954	12229.89
256.024	12225.07
256.095	12203.28
256.165	12167.8
256.235	12146.83
256.306	12124.47
256.376	12112.85
256.446	12105.91
256.517	12097.81
256.587	12080.56
256.657	12057.66
256.728	12042
256.798	12024.26
256.868	12006.66
256.938	11975.81
257.009	11974.18
257.079	11964.87
257.149	11969.5
257.219	11931.81
257.29	11924.43
257.36	11884.43
257.43	11873.44
257.5	11835.6
257.571	11812.13
257.641	11798.44
257.711	11764.7
257.781	11752.79
257.852	11732.84
257.922	11694.57
257.992	11676.06
258.062	11653.94
258.132	11649.98
258.202	11627.43
258.273	11610.99
258.343	11603.33
258.413	11579.66
258.483	11550.7
258.553	11520.19
258.623	11489.34
258.693	11476.95
258.764	11475.12
258.834	11475.41
258.904	11456.33
258.974	11430.06
259.044	11412.95
259.114	11394.01
259.184	11377.96
259.254	11352.56
259.324	11315.07
259.394	11300.85
259.464	11294.3
259.535	11271.79
259.605	11252.17
259.675	11230.29
259.745	11223.26
259.815	11192.13
259.885	11166.87
259.955	11178.39
260.025	11147.89
260.095	11128.13
260.165	11111.7
260.235	11108.32
260.305	11076.9
260.375	11050.01
260.445	11056.28
260.515	11051.46
260.585	11045.82
260.655	11030.88
260.725	11026.11
260.795	11014.21
260.865	11018.98
260.934	10994.35
261.004	10984.95
261.074	10960.28
261.144	10960.04
261.214	10951.22
261.284	10937.68
261.354	10937.68
261.424	10909.05
261.494	10912.33
261.564	10893.54
261.634	10889.39
261.703	10849.49
261.773	10842.41
261.843	10832.48
261.913	10810.27
261.983	10777.65
262.053	10776.01
262.123	10758.13
262.192	10729.61
262.262	10726.47
262.332	10694.53
262.402	10684.74
262.472	10673.9
262.541	10638.68
262.611	10630.93
262.681	10601.87
262.751	10602.54
262.821	10581.1
262.89	10554.75
262.96	10542.51
263.03	10558.94
263.1	10540.05
263.169	10527.67
263.239	10524.58
263.309	10534.03
263.379	10534.65
263.448	10526.08
263.518	10510.56
263.588	10491.68
263.657	10499.96
263.727	10495.72
263.797	10482.52
263.867	10464.5
263.936	10435.6
264.006	10440.65
264.076	10424.66
264.145	10411.99
264.215	10384.96
264.285	10380.86
264.354	10349.41
264.424	10337.84
264.494	10302.14
264.563	10283.45
264.633	10289.28
264.702	10271.55
264.772	10233.63
264.842	10207.04
264.911	10196.68
264.981	10163.2
265.05	10152.45
265.12	10124.7
265.19	10109.43
265.259	10103.41
265.329	10095.22
265.398	10080.77
265.468	10089.73
265.537	10064.2
265.607	10053.31
265.676	10051.1
265.746	10043.39
265.815	10046.42
265.885	10027.11
265.955	10000.04
266.024	9987.95
266.094	9947.77
266.163	9951.39
266.232	9950.71
266.302	9930.39
266.371	9920.66
266.441	9909.53
266.51	9900.86
266.58	9884.68
266.649	9856.11
266.719	9847.92
266.788	9837.08
266.858	9844.89
266.927	9805.49
266.996	9797.68
267.066	9788
267.135	9761.75
267.205	9758.09
267.274	9745.67
267.343	9746.24
267.413	9738.78
267.482	9743.02
267.552	9748.8
267.621	9717.97
267.69	9685.75
267.76	9687.39
267.829	9670.53
267.898	9664.03
267.968	9648.67
268.037	9647.75
268.106	9648.38
268.176	9625.55
268.245	9610.67
268.314	9586.01
268.384	9589.14
268.453	9575.32
268.522	9564.62
268.592	9567.51
268.661	9537.51
268.73	9530.67
268.799	9506.3
268.869	9513.72
268.938	9478.37
269.007	9462.33
269.076	9451.02
269.146	9457.61
269.215	9446.44
269.284	9457.76
269.353	9438.59
269.422	9431.42
269.492	9413.46
269.561	9377.34
269.63	9371.95
269.699	9356.83
269.768	9347.25
269.838	9344.94
269.907	9350.23
269.976	9326.64
270.045	9292.6
270.114	9292.6
270.183	9280.03
270.253	9275.65
270.322	9243.82
270.391	9236.99
270.46	9237.42
270.529	9232.7
270.598	9219.46
270.667	9204.53
270.736	9184.26
270.806	9177.38
270.875	9175.98
270.944	9158.07
271.013	9178.05
271.082	9174.44
271.151	9172.8
271.22	9142.67
271.289	9119.65
271.358	9105.83
271.427	9102.56
271.496	9097.55
271.565	9083.88
271.634	9076.42
271.703	9100.88
271.772	9102.66
271.841	9089.91
271.91	9067.28
271.979	9063.91
272.048	9042.53
272.117	9043.59
272.186	9026.93
272.255	9026.36
272.324	9016.97
272.393	9014.66
272.462	9001.8
272.531	8987.12
272.6	8974.5
272.669	8989.47
272.738	8983.17
272.807	8971.37
272.876	8953.47
272.945	8979.08
273.013	8978.36
273.082	8972.48
273.151	8925.54
273.22	8923.71
273.289	8916.39
273.358	8921.4
273.427	8906.67
273.496	8912.83
273.564	8912.35
273.633	8912.49
273.702	8895.84
273.771	8887.37
273.84	8883.13
273.909	8875.04
273.977	8876.49
274.046	8868.16
274.115	8872.06
274.184	8856.22
274.253	8846.26
274.322	8848.91
274.39	8817.81
274.459	8805.25
274.528	8782.24
274.597	8774.78
274.665	8774.16
274.734	8783.4
274.803	8773.53
274.872	8770.69
274.94	8751.58
275.009	8796.95
275.078	8780
275.147	8772.98
275.215	8768.02
275.284	8775.63
275.353	8763.74
275.421	8741.55
275.49	8754.59
275.559	8738.37
275.627	8736.35
275.696	8730.62
275.765	8734.91
275.833	8730.82
275.902	8726.87
275.971	8739.82
276.039	8757.67
276.108	8757.87
276.177	8755.84
276.245	8747.42
276.314	8738.28
276.383	8748.05
276.451	8686.7
276.52	8692.33
276.588	8705.9
276.657	8711.05
276.725	8700.85
276.794	8702
276.863	8710.14
276.931	8682.85
277	8688.62
277.068	8695.65
277.137	8718.85
277.205	8713.46
277.274	8727.08
277.342	8738.05
277.411	8719.72
277.48	8699.22
277.548	8685.59
277.617	8683.67
277.685	8683.62
277.754	8685.55
277.822	8674.86
277.89	8691.85
277.959	8685.31
278.027	8666.68
278.096	8652.44
278.164	8681.56
278.233	8674.58
278.301	8664.24
278.37	8676.22
278.438	8664.86
278.507	8661.59
278.575	8634.35
278.643	8634.44
278.712	8615.91
278.78	8594.59
278.849	8598.49
278.917	8613.55
278.985	8608.79
279.054	8608.79
279.122	8611.58
279.191	8616.49
279.259	8612.11
279.327	8586.5
279.396	8603.11
279.464	8600.41
279.532	8610.67
279.601	8598.05
279.669	8594.92
279.737	8604.6
279.806	8602.29
279.874	8612.87
279.942	8615.18
280.011	8613.07
280.079	8615.09
280.147	8625.05
280.215	8637.23
280.284	8634.63
280.352	8622.55
280.42	8630.29
280.488	8626.64
280.557	8625.53
280.625	8623.99
280.693	8624.42
280.761	8624.57
280.83	8605.41
280.898	8613.21
280.966	8592.8
281.034	8560.17
281.102	8543.67
281.171	8534.19
281.239	8541.6
281.307	8526.73
281.375	8510.27
281.443	8534.15
281.512	8531.98
281.58	8540.98
281.648	8526.11
281.716	8525.97
281.784	8521.39
281.852	8512.54
281.92	8504.74
281.989	8513.17
282.057	8498.82
282.125	8549.85
282.193	8551.44
282.261	8552.55
282.329	8555.82
282.397	8566.31
282.465	8577.38
282.533	8597.2
282.601	8587.77
282.67	8565.25
282.738	8560.39
282.806	8572.61
282.874	8555.52
282.942	8559.03
283.01	8554.51
283.078	8561.2
283.146	8560.96
283.214	8570.15
283.282	8571.31
283.35	8585.7
283.418	8573.66
283.486	8570.78
283.554	8519.99
283.622	8517.58
283.69	8514.36
283.758	8504.59
283.826	8498.53
283.894	8508.63
283.962	8522.69
284.03	8535.44
284.098	8534.24
284.165	8534.38
284.233	8533.13
284.301	8531.54
284.369	8522.83
284.437	8508.01
284.505	8500.84
284.573	8514.7
284.641	8504.49
284.709	8517.39
284.777	8496.22
284.845	8507.29
284.912	8517.25
284.98	8525.86
285.048	8520.95
285.116	8530.1
285.184	8543.52
285.252	8543.38
285.319	8523.5
285.387	8517.44
285.455	8504.83
285.523	8516.77
285.591	8514.65
285.659	8515.8
285.726	8525.33
285.794	8510.75
285.862	8515.52
285.93	8512.29
285.997	8509.74
286.065	8504.88
286.133	8495.45
286.201	8500.12
286.269	8482.36
286.336	8472.59
286.404	8456.95
286.472	8466.87
286.539	8442.62
286.607	8427.41
286.675	8430.97
286.743	8443
286.81	8432.32
286.878	8450.31
286.946	8444.2
287.013	8441.12
287.081	8442.85
287.149	8422.88
287.216	8443.48
287.284	8439.63
287.352	8445.21
287.419	8436.45
287.487	8444.92
287.555	8446.56
287.622	8442.9
287.69	8452.19
287.758	8460.85
287.825	8467.2
287.893	8453.2
287.96	8459.21
288.028	8468.02
288.096	8472.01
288.163	8470.57
288.231	8462.63
288.298	8458.25
288.366	8468.07
288.433	8464.75
288.501	8454.5
288.569	8463.88
288.636	8464.41
288.704	8473.46
288.771	8480.67
288.839	8475.53
288.906	8477.79
288.974	8487.7
289.041	8484.82
289.109	8474.85
289.176	8482.75
289.244	8482.36
289.311	8498.72
289.379	8510.8
289.446	8514.65
289.514	8516.53
289.581	8511.43
289.649	8517.15
289.716	8524.52
289.783	8513.4
289.851	8535.63
289.918	8536.5
289.986	8543.19
290.053	8540.25
290.121	8539.48
290.188	8540.25
290.255	8573.65
290.323	8560.85
290.39	8557.1
290.458	8557.82
290.525	8567.44
290.592	8567.87
290.66	8569.66
290.727	8560.99
290.794	8574.85
290.862	8575.38
290.929	8578.9
290.996	8586.79
291.064	8599.83
291.131	8600.55
291.198	8619.27
291.266	8619.32
291.333	8623.22
291.4	8622.26
291.468	8634.72
291.535	8628.51
291.602	8627.5
291.669	8616.29
291.737	8628.08
291.804	8623.26
291.871	8646.51
291.938	8658.69
292.006	8687.14
292.073	8697.05
292.14	8703.02
292.207	8694.84
292.275	8697
292.342	8702.44
292.409	8721.02
292.476	8740.13
292.543	8737
292.611	8735.94
292.678	8750.58
292.745	8776.28
292.812	8794.42
292.879	8793.51
292.946	8803.04
293.014	8818.06
293.081	8824.27
293.148	8835.82
293.215	8854.64
293.282	8844.34
293.349	8854.78
293.416	8832.3
293.484	8850.01
293.551	8865.95
293.618	8880.96
293.685	8905.9
293.752	8901.09
293.819	8904.55
293.886	8889.15
293.953	8898.73
294.02	8906.14
294.087	8913.02
294.154	8905.42
294.221	8924.44
294.288	8927.71
294.356	8946.05
294.423	8952.93
294.49	8950.19
294.557	8964.34
294.624	8953.66
294.691	8981.09
294.758	8982.39
294.825	8991.69
294.892	8984.9
294.959	8985.43
295.026	8992.41
295.093	8979.55
295.16	8981.48
295.226	8981.43
295.293	9006.46
295.36	9009.98
295.427	9019.61
295.494	9036.94
295.561	9045.03
295.628	9063.09
295.695	9074.74
295.762	9075.8
295.829	9085.62
295.896	9099.19
295.963	9107.04
296.03	9119.61
296.096	9120.95
296.163	9131.21
296.23	9149.46
296.297	9166.02
296.364	9166.36
296.431	9173.05
296.498	9174.3
296.564	9199.24
296.631	9196.69
296.698	9185.37
296.765	9206.75
296.832	9201.89
296.899	9179.98
296.965	9206.51
297.032	9184.11
297.099	9201.45
297.166	9210.4
297.233	9206.36
297.299	9198.18
297.366	9199.28
297.433	9199.48
297.5	9207.9
297.566	9204.87
297.633	9197.02
297.7	9196.39
297.767	9193.75
297.833	9196.44
297.9	9195.19
297.967	9182.05
298.033	9198.51
298.1	9223.22
298.167	9212.91
298.234	9221.82
298.3	9234.34
298.367	9220.08
298.434	9224.22
298.5	9218.3
298.567	9208.34
298.634	9205.93
298.7	9225.14
298.767	9230.82
298.834	9245.07
298.9	9239.25
298.967	9237.03
299.033	9251.33
299.1	9267.42
299.167	9282.77
299.233	9283.01
299.3	9304.05
299.366	9313.15
299.433	9329.34
299.5	9306.17
299.566	9317.25
299.633	9335.02
299.699	9349.42
299.766	9345.52
299.832	9352.11
299.899	9356.59
299.965	9372.14
300.032	9375.37
300.099	9382.21
300.165	9387.7
300.232	9390.78
300.298	9393.14
300.365	9401.66
300.431	9404.02
300.498	9394.39
300.564	9403.06
300.631	9421.98
300.697	9429.98
300.763	9434.21
300.83	9432.19
300.896	9448.18
300.963	9457.04
301.029	9459.83
301.096	9460.99
301.162	9476.3
301.229	9472.11
301.295	9465.75
301.361	9466.19
301.428	9462.91
301.494	9445.72
301.561	9448.23
301.627	9447.94
301.693	9443.41
301.76	9456.32
301.826	9445.15
301.892	9461.23
301.959	9474.19
302.025	9460.17
302.092	9452.71
302.158	9461.86
302.224	9457.14
302.291	9449.62
302.357	9443.32
302.423	9431.23
302.49	9424.05
302.556	9437.06
302.622	9437.78
302.688	9447.6
302.755	9462.82
302.821	9473.51
302.887	9488.2
302.954	9480.63
303.02	9485.79
303.086	9501.39
303.152	9493.15
303.219	9490.07
303.285	9487.47
303.351	9487.76
303.417	9489.93
303.483	9486.08
303.55	9477.17
303.616	9485.11
303.682	9480.83
303.748	9474.66
303.815	9489.26
303.881	9495.47
303.947	9475.15
304.013	9468.45
304.079	9463.35
304.145	9444.47
304.212	9446.69
304.278	9441.39
304.344	9438.21
304.41	9424.78
304.476	9412.21
304.542	9407.92
304.608	9421.74
304.674	9408.26
304.741	9405.99
304.807	9406.72
304.873	9410.76
304.939	9432.05
305.005	9411.44
305.071	9409.99
305.137	9409.89
305.203	9386.11
305.269	9385.05
305.335	9402.82
305.401	9404.36
305.467	9398.82
305.533	9406.28
305.599	9411.05
305.666	9416.59
305.732	9417.6
305.798	9436.38
305.864	9464.22
305.93	9469.32
305.996	9462.1
306.062	9465.03
306.128	9457.62
306.194	9447.8
306.259	9447.41
306.325	9429.45
306.391	9438.55
306.457	9447.46
306.523	9451.98
306.589	9476.49
306.655	9464.41
306.721	9446.73
306.787	9436.86
306.853	9451.98
306.919	9440.48
306.985	9430.94
307.051	9423.91
307.117	9417.6
307.183	9409.37
307.248	9374.21
307.314	9376.96
307.38	9375.18
307.446	9381.48
307.512	9373.3
307.578	9384.61
307.644	9379.61
307.709	9388.56
307.775	9382.98
307.841	9381.72
307.907	9377.87
307.973	9360.97
308.039	9366.7
308.104	9366.7
308.17	9369.88
308.236	9353.55
308.302	9354.23
308.368	9350.08
308.433	9349.36
308.499	9346.14
308.565	9334.15
308.631	9341.99
308.696	9318.64
308.762	9308.58
308.828	9299.72
308.894	9281.09
308.959	9255.42
309.025	9241.46
309.091	9235.39
309.156	9223.93
309.222	9226
309.288	9215.36
309.354	9188.5
309.419	9189.94
309.485	9179.06
309.551	9177.23
309.616	9160.28
309.682	9154.8
309.748	9141.17
309.813	9139.15
309.879	9132.6
309.945	9120.32
310.01	9112.62
310.076	9116.33
310.141	9119.22
310.207	9110.21
310.273	9113.58
310.338	9122.15
310.404	9110.65
310.469	9089.85
310.535	9082.05
310.601	9058.55
310.666	9062.84
310.732	9076.61
310.797	9054.94
310.863	9044.54
310.928	9045.46
310.994	9050.85
311.059	9047.86
311.125	9052
311.191	9059.22
311.256	9050.32
311.322	9056.96
311.387	9036.17
311.453	9371.45
311.518	9337.9
311.584	9329
311.649	9331.74
311.715	9314.65
311.78	9318.84
311.846	9310.08
311.911	9316.14
311.976	9319.56
312.042	9307.53
312.107	9294.29
312.173	9287.79
312.238	9286.78
312.304	9278.64
312.369	9273.25
312.434	9260.01
312.5	9251.97
312.565	9220.73
312.631	9223.9
312.696	9208.93
312.761	9215.43
312.827	8867.72
312.892	8906.52
312.958	8905.03
313.023	8903.11
313.088	8904.02
313.154	8893.38
313.219	8891.89
313.284	8882.21
313.35	8879.71
313.415	8865.42
313.48	8861.37
313.546	8862.58
313.611	8863.3
313.676	8850.88
313.741	8842.26
313.807	8852.42
313.872	8858.53
313.937	8861.13
314.003	8869.6
314.068	8868.31
314.133	8875.43
314.198	8860.51
314.264	8836.15
314.329	8828.64
314.394	8824.21
314.459	8820.94
314.525	8834.22
314.59	8832.25
314.655	8823.49
314.72	8826.86
314.785	8829.02
314.851	8819.78
314.916	8802.7
314.981	8794.8
315.046	8784.5
315.111	8772.38
315.176	8762.07
315.242	8753.94
315.307	8757.98
315.372	8738.15
315.437	8734.16
315.502	8721.26
315.567	8737.04
315.632	8731.36
315.698	8734.68
315.763	8727.56
315.828	8721.5
315.893	8721.3
315.958	8713.36
316.023	8702.68
316.088	8681.69
316.153	8664.42
316.218	8658.45
316.283	8645.65
316.348	8625.58
316.413	8630.06
316.479	8612.35
316.544	8576.12
316.609	8553.94
316.674	8518.33
316.739	8479.88
316.804	8447.36
316.869	8412.38
316.934	8376
316.999	8343.33
317.064	8284.63
317.129	8242.77
317.194	8210.59
317.259	8157.18
317.324	8104.08
317.389	8064.25
317.454	8025.67
317.518	7989.5
317.583	7964.68
317.648	7941.01
317.713	7905.47
317.778	7839.39
317.843	7815.96
317.908	7784.28
317.973	7744.5
318.038	7710.12
318.103	7681.71
318.168	7648.67
318.233	7617.23
318.297	7565.98
318.362	7527.32
318.427	7495.02
318.492	7470.74
318.557	7420.66
318.622	7395.47
318.687	7381.24
318.751	7336.69
318.816	7304.97
318.881	7275.36
318.946	7221.77
319.011	7175.15
319.075	7136.9
319.14	7113.21
319.205	7064.73
319.27	7022.84
319.335	6976.04
319.399	6936.21
319.464	6903.55
319.529	6854.84
319.594	6817.18
319.658	6792.59
319.723	6751.67
319.788	6723.43
319.853	6665.84
319.917	6637.41
319.982	6583.39
320.047	6539.25
320.112	6514.09
320.176	6465.65
320.241	6426.52
320.306	6395.74
320.37	6355.23
320.435	6318.75
320.5	6282.22
320.564	6247.42
320.629	6210.81
320.694	6180.72
320.758	6144.97
320.823	6097.13
320.888	6071.22
320.952	6022.33
321.017	5977.9
321.082	5940.68
321.146	5907.96
321.211	5873.33
321.275	5833.04
321.34	5788.69
321.405	5747.54
321.469	5703.8
321.534	5657.83
321.598	5608.07
321.663	5576.41
321.727	5542.85
321.792	5495.4
321.857	5453.35
321.921	5413.28
321.986	5374.9
322.05	5318.02
322.115	5277.14
322.179	5237.72
322.244	5182
322.308	5150.38
322.373	5106.84
322.437	5066.93
322.502	5036.6
322.566	4995.12
322.631	4960.21
322.695	4924.63
322.76	4882.5
322.824	4844.86
322.889	4804.37
322.953	4763.03
323.018	4696.34
323.082	4632.66
323.146	4585.63
323.211	4537.82
323.275	4490.17
323.34	4441.71
323.404	4408.56
323.468	4362.4
323.533	4322.32
323.597	4280.06
323.662	4230.94
323.726	4195.12
323.79	4146.73
323.855	4081.64
323.919	4033.41
323.983	3987.51
324.048	3919.97
324.112	4029.9
324.177	3905.94
324.241	3704.58
324.305	3504.98
324.37	3311.08
324.434	3126.35
324.498	3082.4
324.562	3029.06
324.627	2972.14
324.691	2917.55
324.755	2850.63
324.82	2775.98
324.884	2696.19
324.948	2620.71
325.012	2520.54
325.077	2392.02
