Data from 20250702_urea_0.5M_MAYP1162681_09-14-59-987.txt Node
Date: Thu Jul 03 09:14:59 BST 2025
User: adleo
Spectrometer: MAYP116268
Trigger mode: 0
Integration Time (sec): 1.000000E0
Scans to average: 1
Electric dark correction enabled: true
Nonlinearity correction enabled: true
Boxcar width: 10
XAxis mode: Wavelengths
Number of Pixels in Spectrum: 2068
>>>>>Begin Spectral Data<<<<<
179.565	1172.98
179.642	1228.68
179.718	1270.44
179.795	1309.73
179.871	1341.58
179.948	1355.43
180.024	1375.8
180.101	1397.73
180.177	1412.36
180.254	1435.36
180.33	1456.93
180.407	1508.87
180.483	1601.56
180.56	1690.64
180.636	1772.49
180.712	1760.7
180.789	1772.15
180.865	1784.03
180.942	1792.73
181.018	1803.66
181.095	1816.06
181.171	1821.05
181.248	1820.44
181.324	1834.89
181.4	1841.35
181.477	1850.24
181.553	1867.49
181.63	1888.55
181.706	1903.91
181.782	1911.42
181.859	1912.46
181.935	1917.79
182.011	1916.6
182.088	1933.1
182.164	1950.94
182.24	1965.53
182.317	1978.22
182.393	1976.32
182.469	1988.82
182.546	2002.19
182.622	2005.51
182.698	2001.8
182.775	2012.55
182.851	2026.91
182.927	2019.49
183.003	2015.45
183.08	2010.89
183.156	2016.5
183.232	2012.55
183.308	2001.61
183.385	2011.27
183.461	2026.34
183.537	2027.72
183.613	2036.47
183.69	2029.43
183.766	2018.06
183.842	2022.68
183.918	2027.53
183.995	2041.37
184.071	2043.98
184.147	2041.03
184.223	2032.38
184.299	2044.7
184.375	2033.15
184.452	2038.62
184.528	2085.18
184.604	2095.3
184.68	2109.14
184.756	2119.89
184.832	2124.75
184.908	2129.74
184.985	2125.22
185.061	2111.52
185.137	2119.85
185.213	2109.34
185.289	2108.43
185.365	2101.35
185.441	2103.06
185.517	2114.44
185.593	2109.06
185.669	2105.97
185.745	2113.87
185.822	2128.79
185.898	2121.23
185.974	2131.07
186.05	2124.65
186.126	2093.12
186.202	2087.08
186.278	2084.18
186.354	2074.19
186.43	2080.71
186.506	2080.04
186.582	2082.52
186.658	2086.84
186.734	2067.3
186.81	2071.53
186.886	2075.33
186.962	2088.17
187.038	2080.66
187.114	2071.76
187.19	2081.89
187.266	2073.48
187.341	2074.71
187.417	2070.29
187.493	2066.39
187.569	2068.1
187.645	2061.68
187.721	2052.03
187.797	2059.26
187.873	2061.68
187.949	2055.64
188.025	2047.55
188.101	2048.46
188.176	2053.69
188.252	2051.03
188.328	2059.96
188.404	2058.96
188.48	2053.92
188.556	2048.31
188.632	2051.45
188.707	2054.69
188.783	2049.5
188.859	2043.65
188.935	2030.71
189.011	2037.14
189.086	2035.28
189.162	2029.15
189.238	2027.86
189.314	2025.15
189.39	2019.68
189.465	2013.02
189.541	2029.77
189.617	2016.88
189.693	2010.03
189.768	2011.08
189.844	2034.73
189.92	2025.74
189.996	2033.21
190.071	2044.77
190.147	2045.34
190.223	2055.76
190.298	2047.38
190.374	2033.83
190.45	2049.19
190.526	2056.46
190.601	2050.33
190.677	2052.56
190.753	2080.4
190.828	2083.54
190.904	2098.43
190.98	2114.7
191.055	2125.55
191.131	2116.37
191.207	2135.39
191.282	2148.85
191.358	2140.14
191.433	2126.25
191.509	2137.7
191.585	2134.66
191.66	2137.32
191.736	2143.36
191.811	2133.85
191.887	2149.31
191.963	2172.67
192.038	2178
192.114	2181.18
192.189	2184.56
192.265	2178.29
192.34	2153.82
192.416	2153.49
192.491	2150.06
192.567	2150.44
192.642	2150.11
192.718	2150.63
192.793	2139.41
192.869	2134.65
192.944	2137.6
193.02	2141.41
193.095	2147.11
193.171	2152.77
193.246	2152.63
193.322	2150.59
193.397	2149.35
193.473	2135.84
193.548	2121.13
193.624	2125.13
193.699	2123.27
193.775	2137.26
193.85	2142.16
193.925	2152.29
194.001	2152.82
194.076	2144.11
194.152	2132.93
194.227	2126.94
194.302	2117.85
194.378	2124.32
194.453	2123.85
194.529	2138.93
194.604	2127.27
194.679	2119.14
194.755	2102.12
194.83	2112.73
194.905	2109.11
194.981	2117.49
195.056	2110.69
195.131	2113.4
195.207	2110.88
195.282	2101.27
195.357	2084.28
195.433	2098.7
195.508	2086.85
195.583	2092.61
195.659	2107.4
195.734	2116.78
195.809	2115.54
195.884	2124.1
195.96	2120.15
196.035	2133.38
196.11	2125.19
196.185	2136.51
196.261	2141.79
196.336	2170.24
196.411	2157.01
196.486	2164.33
196.561	2157.96
196.637	2164.47
196.712	2180.41
196.787	2181.27
196.862	2196.02
196.937	2207.2
197.013	2213
197.088	2224.04
197.163	2244.6
197.238	2261.74
197.313	2260.7
197.388	2274.78
197.464	2304.25
197.539	2317.14
197.614	2310.05
197.689	2324.57
197.764	2339.95
197.839	2362.13
197.914	2356.56
197.989	2376.69
198.065	2390.5
198.14	2439.27
198.215	2467.02
198.29	2478.17
198.365	2494.07
198.44	2505.16
198.515	2530.02
198.59	2541.87
198.665	2567.45
198.74	2576.26
198.815	2577.07
198.89	2597.88
198.965	2624.75
199.04	2620.27
199.115	2636.74
199.19	2678.23
199.265	2679.51
199.34	2688.47
199.415	2719.64
199.49	2740.97
199.565	2752.22
199.64	2774.71
199.715	2773.66
199.79	2782.71
199.865	2788.62
199.94	2786.38
200.015	2819.03
200.09	2824.32
200.165	2833.51
200.24	2839.71
200.315	2877.44
200.39	2892.21
200.464	2899.98
200.539	2900.94
200.614	2917.47
200.689	2941.64
200.764	2949.94
200.839	2967.66
200.914	2971.52
200.989	2963.03
201.063	2979.24
201.138	2959.95
201.213	2960.23
201.288	2939.88
201.363	2941.07
201.438	2943.07
201.512	2962.52
201.587	2941.97
201.662	2945.64
201.737	2956.32
201.812	2964.09
201.886	2935.94
201.961	2946.05
202.036	2932.19
202.111	2932.85
202.186	2903.18
202.26	2882.96
202.335	2859.98
202.41	2853.98
202.485	2840.64
202.559	2822.72
202.634	2798.18
202.709	2809.27
202.784	2789.16
202.858	2790.21
202.933	2774.63
203.008	2767.15
203.082	2745.09
203.157	2746.57
203.232	2705.61
203.306	2686.02
203.381	2655.67
203.456	2629.18
203.53	2605.87
203.605	2590.92
203.68	2569.52
203.754	2564.1
203.829	2553.38
203.904	2534.76
203.978	2525.09
204.053	2531.43
204.127	2518.66
204.202	2515.52
204.277	2498.05
204.351	2492.33
204.426	2483.14
204.5	2474.28
204.575	2443.53
204.65	2450.77
204.724	2444.1
204.799	2454.48
204.873	2451.67
204.948	2450.28
205.022	2439.62
205.097	2433.19
205.171	2443.95
205.246	2450.52
205.32	2449.43
205.395	2446.05
205.469	2438.48
205.544	2443.34
205.618	2422.11
205.693	2432.92
205.767	2417.21
205.842	2437.64
205.916	2431.92
205.991	2422.64
206.065	2428.31
206.14	2441.91
206.214	2434.58
206.289	2426.63
206.363	2438.81
206.438	2440.72
206.512	2448.15
206.586	2472.14
206.661	2477.05
206.735	2455.44
206.81	2455.3
206.884	2470.91
206.958	2459.92
207.033	2477.05
207.107	2489.01
207.181	2522.26
207.256	2516.49
207.33	2538.2
207.405	2552.12
207.479	2572.36
207.553	2582.78
207.628	2566.79
207.702	2580.74
207.776	2581.31
207.851	2584.93
207.925	2603.09
207.999	2604.9
208.073	2608.04
208.148	2612
208.222	2606.99
208.296	2643.8
208.371	2666.39
208.445	2683.92
208.519	2718.17
208.593	2736.85
208.668	2735.8
208.742	2744.24
208.816	2755.43
208.89	2779.65
208.965	2787.37
209.039	2805.63
209.113	2829.65
209.187	2862.74
209.261	2869.84
209.336	2903.54
209.41	2938
209.484	2949.69
209.558	2984.45
209.632	3009.71
209.707	3036.32
209.781	3074.18
209.855	3109.09
209.929	3143.23
210.003	3167.98
210.077	3189.21
210.151	3256.49
210.226	3312.9
210.3	3363.52
210.374	3409.37
210.448	3439.2
210.522	3474.82
210.596	3513.87
210.67	3556.5
210.744	3635.73
210.818	3701.74
210.892	3757.92
210.966	3792.64
211.041	3846.09
211.115	3878.81
211.189	3939.43
211.263	3994.76
211.337	4041.78
211.411	4096.81
211.485	4137.12
211.559	4195.43
211.633	4245.65
211.707	4263.26
211.781	4318.82
211.855	4338.14
211.929	4381.6
212.003	4416.45
212.077	4480.67
212.151	4547.39
212.225	4614.58
212.299	4659.84
212.373	4708.65
212.447	4757.06
212.52	4844.26
212.594	4912.27
212.668	4986.19
212.742	5036.86
212.816	5095.1
212.89	5150.85
212.964	5215.79
213.038	5277.37
213.112	5355.5
213.186	5435.14
213.26	5481.84
213.333	5506.91
213.407	5578.75
213.481	5649.38
213.555	5727.54
213.629	5784.57
213.703	5831.58
213.777	5898.99
213.85	5950.66
213.924	6049.9
213.998	6119.39
214.072	6181.27
214.146	6233.54
214.219	6296.13
214.293	6367.45
214.367	6440.42
214.441	6519.15
214.515	6576.25
214.588	6628.87
214.662	6660.66
214.736	6704.7
214.81	6781.89
214.883	6856.99
214.957	6913.94
215.031	6969.31
215.105	7023.92
215.178	7080.28
215.252	7144.61
215.326	7187.86
215.4	7236.3
215.473	7257.69
215.547	7306.67
215.621	7359.03
215.694	7431.1
215.768	7480.19
215.842	7527.73
215.915	7578.94
215.989	7619.24
216.063	7677.72
216.136	7745.09
216.21	7809.9
216.284	7887.67
216.357	7949.23
216.431	8013.39
216.504	8084.1
216.578	8173.29
216.652	8242.46
216.725	8304.96
216.799	8374.2
216.873	8439.92
216.946	8508.24
217.02	8574.21
217.093	8640.05
217.167	8683.6
217.24	8735.3
217.314	8791.03
217.387	8850.37
217.461	8903.32
217.535	8979.32
217.608	9026.79
217.682	9089.67
217.755	9162.46
217.829	9215.38
217.902	9277.68
217.976	9337.19
218.049	9393.53
218.123	9442.13
218.196	9509.45
218.27	9559.34
218.343	9612.07
218.417	9676.8
218.49	9737.15
218.563	9809.79
218.637	9870.38
218.71	9955.21
218.784	10015.66
218.857	10087.72
218.931	10153.14
219.004	10229.64
219.077	10299.88
219.151	10371.52
219.224	10426.73
219.298	10483.2
219.371	10552.29
219.444	10600.47
219.518	10668.51
219.591	10735.24
219.665	10823.96
219.738	10888.58
219.811	10951.02
219.885	11022.44
219.958	11095.69
220.031	11154.77
220.105	11218.87
220.178	11285.42
220.251	11339.07
220.325	11418.49
220.398	11485.92
220.471	11553.15
220.544	11612.34
220.618	11667.86
220.691	11730.95
220.764	11795.01
220.838	11871.35
220.911	11927.85
220.984	12014.36
221.057	12076.25
221.131	12135.54
221.204	12159.01
221.277	12229.15
221.35	12327.05
221.424	12383.35
221.497	12444.43
221.57	12517.69
221.643	12576.5
221.716	12636.32
221.79	12689.3
221.863	12736.78
221.936	12791.83
222.009	12848.48
222.082	12909.55
222.155	12960.02
222.229	13031.71
222.302	13094.32
222.375	13148.51
222.448	13216
222.521	13269.7
222.594	13325.28
222.667	13367.9
222.74	13445.36
222.814	13501.96
222.887	13545.39
222.96	13613.27
223.033	13670.39
223.106	13716.81
223.179	13774.61
223.252	13837.57
223.325	13890.21
223.398	13942.51
223.471	14004.65
223.544	14059.85
223.617	14109.12
223.69	14165.71
223.763	14204.03
223.837	14257.78
223.91	14308.16
223.983	14343.25
224.056	14375.07
224.129	14419.61
224.202	14480.54
224.275	14520.74
224.348	14551.45
224.42	14581.1
224.493	14604.76
224.566	14639.33
224.639	14687
224.712	14723.78
224.785	14761.33
224.858	14797.63
224.931	14839.71
225.004	14869.07
225.077	14911.15
225.15	14933.76
225.223	14973.81
225.296	15038.36
225.369	15064.58
225.442	15092.63
225.514	15136.59
225.587	15188.32
225.66	15243.7
225.733	15283.61
225.806	15324.29
225.879	15369.84
225.952	15402.43
226.025	15457.86
226.097	15522.74
226.17	15560.58
226.243	15586.65
226.316	15623.43
226.389	15673.99
226.461	15716.55
226.534	15762.92
226.607	15802.35
226.68	15866.55
226.753	15913.4
226.825	15921.16
226.898	15979.87
226.971	16029.42
227.044	16076.65
227.117	16118.44
227.189	16156.71
227.262	16204.86
227.335	16245.97
227.407	16276.67
227.48	16325.74
227.553	16360.88
227.626	16382.51
227.698	16428.25
227.771	16470.38
227.844	16499.39
227.916	16543.25
227.989	16568.31
228.062	16595.11
228.134	16648.22
228.207	16677.67
228.28	16704.08
228.352	16744.91
228.425	16772.14
228.498	16802.98
228.57	16825.1
228.643	16869.97
228.716	16892.53
228.788	16916.77
228.861	16944.67
228.934	16990.27
229.006	17021.45
229.079	17047.91
229.151	17065.88
229.224	17071.28
229.296	17099.76
229.369	17160.25
229.442	17198.13
229.514	17217.26
229.587	17260.92
229.659	17268.49
229.732	17304.54
229.804	17344.68
229.877	17398.8
229.949	17440.97
230.022	17492.2
230.094	17521.88
230.167	17545.26
230.239	17568.2
230.312	17597.31
230.384	17641.93
230.457	17667.81
230.529	17696.73
230.602	17732.44
230.674	17767.95
230.747	17813.59
230.819	17857.01
230.892	17846.17
230.964	17869.64
231.037	17902.17
231.109	17927.81
231.181	17965.4
231.254	17978.22
231.326	18002.31
231.399	18012.91
231.471	18016.72
231.544	18014.65
231.616	18050.02
231.688	18072.28
231.761	18089.15
231.833	18107.03
231.905	18106.36
231.978	18125.39
232.05	18141.73
232.122	18156.47
232.195	18169.68
232.267	18202.54
232.339	18215.12
232.412	18250.93
232.484	18255.5
232.556	18264.66
232.629	18297.77
232.701	18318.25
232.773	18333.04
232.846	18341.24
232.918	18359.4
232.99	18384.27
233.062	18406.77
233.135	18411.26
233.207	18409.86
233.279	18432.8
233.351	18454.82
233.424	18458.15
233.496	18457.13
233.568	18483.93
233.64	18475.69
233.713	18481.81
233.785	18480.36
233.857	18482.58
233.929	18472.65
234.001	18501.66
234.074	18532.36
234.146	18514.86
234.218	18516.41
234.29	18519.73
234.362	18510.33
234.434	18501.18
234.507	18483.97
234.579	18471.54
234.651	18468.46
234.723	18477.04
234.795	18475.83
234.867	18470.29
234.939	18480.79
235.012	18478.91
235.084	18482.14
235.156	18499.11
235.228	18491.25
235.3	18485.85
235.372	18487.93
235.444	18506.67
235.516	18474.29
235.588	18467.78
235.66	18463.64
235.732	18459.88
235.804	18513.32
235.876	18524.74
235.948	18533.51
236.02	18550.33
236.092	18547.97
236.164	18546.72
236.236	18544.12
236.308	18533.85
236.38	18534.82
236.452	18530.72
236.524	18533.08
236.596	18537.42
236.668	18535.49
236.74	18530.96
236.812	18536.36
236.884	18534.43
236.956	18514.09
237.028	18499.83
237.1	18474.77
237.172	18483.35
237.244	18479.16
237.316	18423.16
237.388	18402.87
237.46	18381.57
237.532	18376.08
237.604	18355.02
237.675	18360.51
237.747	18353.04
237.819	18338.3
237.891	18315.36
237.963	18293.19
238.035	18276.61
238.107	18225
238.178	18226.4
238.25	18207.7
238.322	18208.86
238.394	18180.91
238.466	18164.91
238.538	18156.86
238.609	18152.95
238.681	18119.94
238.753	18099.8
238.825	18089.29
238.897	18079.7
238.968	18077.78
239.04	18041.44
239.112	18048.57
239.184	18014.74
239.255	17992.96
239.327	17981.83
239.399	17971.81
239.471	17957.73
239.542	17939.76
239.614	17934.51
239.686	17886.03
239.758	17889.64
239.829	17856.39
239.901	17854.6
239.973	17839.62
240.044	17828.39
240.116	17805.5
240.188	17779.04
240.259	17751.91
240.331	17718.08
240.403	17698.85
240.474	17663.43
240.546	17635.77
240.618	17592.78
240.689	17566.95
240.761	17543.14
240.833	17529.36
240.904	17500.06
240.976	17473.12
241.048	17453.16
241.119	17439.53
241.191	17423.43
241.262	17401.31
241.334	17370.27
241.405	17338.95
241.477	17312.39
241.549	17282.03
241.62	17257.5
241.692	17240.01
241.763	17227.57
241.835	17203.48
241.906	17173.5
241.978	17133.4
242.049	17126.56
242.121	17113.5
242.192	17102.46
242.264	17061.01
242.335	17029.98
242.407	17015.28
242.478	16986.6
242.55	16964.1
242.621	16925.97
242.693	16890.26
242.764	16864.91
242.836	16831.08
242.907	16810.64
242.979	16781.53
243.05	16757.05
243.122	16729.24
243.193	16708.28
243.264	16661.24
243.336	16626.25
243.407	16616.08
243.479	16605.43
243.55	16575.01
243.622	16551.5
243.693	16513.42
243.764	16507.35
243.836	16461.75
243.907	16430.28
243.978	16402.37
244.05	16376.06
244.121	16329.5
244.192	16313.26
244.264	16261.83
244.335	16234.55
244.407	16190.5
244.478	16165.34
244.549	16143.31
244.62	16106.97
244.692	16071.11
244.763	16046.43
244.834	16010.57
244.906	15962.66
244.977	15942.47
245.048	15925.94
245.119	15885.21
245.191	15847.27
245.262	15788.95
245.333	15771.21
245.405	15734.2
245.476	15712.22
245.547	15687.06
245.618	15675.15
245.689	15645.85
245.761	15629.07
245.832	15592.39
245.903	15566.51
245.974	15533.54
246.045	15494.78
246.117	15487.8
246.188	15447.26
246.259	15404.98
246.33	15384.31
246.401	15359
246.473	15306.27
246.544	15273.88
246.615	15257.78
246.686	15232.57
246.757	15223.7
246.828	15180.89
246.899	15163.59
246.97	15115.72
247.042	15083.23
247.113	15065.93
247.184	15056.34
247.255	15019.32
247.326	15002.93
247.397	14969.43
247.468	14950
247.539	14929.95
247.61	14882.52
247.681	14863.72
247.752	14860.05
247.823	14814.84
247.894	14793.48
247.965	14766.34
248.037	14732.17
248.108	14685.02
248.179	14650.8
248.25	14617.01
248.321	14604.86
248.392	14571.69
248.463	14571.26
248.534	14536.36
248.605	14506.33
248.675	14466.03
248.746	14437.69
248.817	14419.71
248.888	14412.52
248.959	14368.46
249.03	14344.51
249.101	14321.75
249.172	14285.6
249.243	14233.1
249.314	14237.73
249.385	14201.19
249.456	14176.75
249.527	14135.87
249.598	14124.35
249.669	14098.85
249.739	14077.59
249.81	14050.02
249.881	14010.15
249.952	13985.8
250.023	13961.32
250.094	13921.35
250.165	13890.4
250.235	13862.83
250.306	13827.01
250.377	13779.96
250.448	13759.57
250.519	13713.15
250.59	13700.57
250.66	13679.16
250.731	13668.32
250.802	13632.55
250.873	13616.88
250.944	13592.2
251.014	13569.11
251.085	13564.72
251.156	13550.5
251.227	13546.45
251.297	13538.79
251.368	13530.83
251.439	13521.34
251.51	13513.43
251.58	13478.19
251.651	13446.95
251.722	13440.49
251.792	13401.98
251.863	13373.25
251.934	13369.34
252.005	13368.81
252.075	13344.51
252.146	13335.6
252.217	13327.35
252.287	13316.22
252.358	13289.94
252.429	13289.66
252.499	13261.02
252.57	13231.9
252.641	13215.47
252.711	13179.21
252.782	13140.89
252.852	13131.01
252.923	13101.51
252.994	13069.59
253.064	13058.89
253.135	13026.88
253.205	12999.65
253.276	13001.53
253.347	12999.55
253.417	12959.68
253.488	12929.7
253.558	12900.73
253.629	12870.41
253.699	12845.19
253.77	12833.96
253.841	12810.44
253.911	12790.29
253.982	12775.06
254.052	12763.87
254.123	12739.53
254.193	12724.1
254.264	12738.03
254.334	12707.13
254.405	12670.83
254.475	12651.89
254.546	12635.79
254.616	12629.72
254.687	12603.49
254.757	12582.23
254.827	12552.83
254.898	12535.14
254.968	12517.74
255.039	12482.07
255.109	12464.86
255.18	12441
255.25	12393.66
255.321	12374.81
255.391	12332.73
255.461	12334.08
255.532	12287.13
255.602	12266.88
255.673	12222.01
255.743	12192.89
255.813	12147.15
255.884	12138.91
255.954	12120.3
256.024	12115.96
256.095	12098.46
256.165	12060.68
256.235	12046.79
256.306	12027.03
256.376	12015.61
256.446	12008.42
256.517	12000.42
256.587	11995.22
256.657	11975.12
256.728	11956.75
256.798	11943.69
256.868	11921.52
256.938	11889.85
257.009	11881.42
257.079	11871.58
257.149	11880.11
257.219	11842.76
257.29	11828.2
257.36	11785.88
257.43	11769.35
257.5	11720.86
257.571	11697.87
257.641	11700.81
257.711	11664.04
257.781	11651.36
257.852	11640.27
257.922	11594.29
257.992	11573.47
258.062	11550.19
258.132	11540.17
258.202	11521.23
258.273	11498.91
258.343	11500.79
258.413	11476.98
258.483	11459.34
258.553	11422.9
258.623	11397.6
258.693	11382.32
258.764	11387.91
258.834	11387.33
258.904	11369.69
258.974	11350.27
259.044	11340.54
259.114	11323.77
259.184	11311.24
259.254	11289.07
259.324	11248.87
259.394	11239.19
259.464	11243.48
259.535	11222.42
259.605	11198.8
259.675	11178.03
259.745	11160.44
259.815	11130.85
259.885	11105.94
259.955	11112.63
260.025	11090.81
260.095	11076.01
260.165	11060.11
260.235	11055.19
260.305	11028.74
260.375	10999.48
260.445	11008.11
260.515	10998.04
260.585	10987
260.655	10971.24
260.725	10961.56
260.795	10955.58
260.865	10959.24
260.934	10928.93
261.004	10926.57
261.074	10906.38
261.144	10903.73
261.214	10901.27
261.284	10887.92
261.354	10881.61
261.424	10850
261.494	10855.68
261.564	10838.05
261.634	10827.54
261.703	10791.21
261.773	10779.74
261.843	10773.24
261.913	10751.6
261.983	10714.74
262.053	10705.63
262.123	10689.06
262.192	10666.46
262.262	10659.47
262.332	10629.69
262.402	10621.36
262.472	10595.24
262.541	10557.04
262.611	10548.36
262.681	10519.65
262.751	10509.53
262.821	10492.04
262.89	10464.24
262.96	10452.91
263.03	10456.43
263.1	10445.93
263.169	10426.56
263.239	10414.47
263.309	10418.75
263.379	10409.31
263.448	10398.04
263.518	10382.28
263.588	10365.13
263.657	10361.71
263.727	10355.4
263.797	10337.53
263.867	10324.81
263.936	10297.39
264.006	10305.39
264.076	10290.99
264.145	10275.23
264.215	10251.39
264.285	10247.92
264.354	10218.63
264.424	10193.58
264.494	10158.21
264.563	10139.33
264.633	10149.93
264.702	10143.81
264.772	10108.69
264.842	10094.62
264.911	10090.04
264.981	10066.29
265.05	10055.26
265.12	10041.2
265.19	10029.39
265.259	10034.45
265.329	10023.23
265.398	10021.25
265.468	10031.32
265.537	10005.89
265.607	10001.55
265.676	9999.72
265.746	9985.94
265.815	9987.97
265.885	9967.74
265.955	9947.51
266.024	9928
266.094	9888.79
266.163	9890.62
266.232	9893.32
266.302	9871.12
266.371	9856.62
266.441	9844.58
266.51	9834.41
266.58	9813.41
266.649	9788.32
266.719	9778.92
266.788	9767.94
266.858	9767.46
266.927	9726.81
266.996	9720.26
267.066	9708.8
267.135	9676.19
267.205	9678.12
267.274	9669.69
267.343	9678.46
267.413	9667.72
267.482	9672.44
267.552	9678.6
267.621	9646.62
267.69	9610.84
267.76	9605.39
267.829	9599.23
267.898	9588.39
267.968	9572.12
268.037	9569.37
268.106	9574
268.176	9548.04
268.245	9534.7
268.314	9516.88
268.384	9519.48
268.453	9516.63
268.522	9505.41
268.592	9512.25
268.661	9490.87
268.73	9475.02
268.799	9449.36
268.869	9450.56
268.938	9418.92
269.007	9400
269.076	9388.59
269.146	9392.25
269.215	9383.53
269.284	9392.39
269.353	9377.13
269.422	9363.84
269.492	9347.18
269.561	9297.54
269.63	9295.95
269.699	9278.52
269.768	9259.79
269.838	9253
269.907	9241.15
269.976	9217.46
270.045	9187.04
270.114	9181.5
270.183	9172.21
270.253	9169.65
270.322	9143.37
270.391	9127.91
270.46	9130.08
270.529	9130.32
270.598	9124.78
270.667	9115.16
270.736	9090.16
270.806	9086.94
270.875	9089.63
270.944	9079.76
271.013	9108.17
271.082	9098.73
271.151	9097.77
271.22	9074.04
271.289	9054.63
271.358	9048.66
271.427	9049.92
271.496	9043.37
271.565	9025.99
271.634	9015.3
271.703	9037.98
271.772	9043.09
271.841	9040.2
271.91	9016.13
271.979	9007.6
272.048	8986.52
272.117	8982.81
272.186	8967.89
272.255	8963.99
272.324	8955.76
272.393	8947.43
272.462	8929.57
272.531	8914.45
272.6	8900.2
272.669	8912.47
272.738	8907.32
272.807	8896.93
272.876	8875.89
272.945	8906.22
273.013	8906.27
273.082	8912.09
273.151	8865.83
273.22	8863.56
273.289	8860.19
273.358	8870.11
273.427	8857.5
273.496	8861.06
273.564	8860.72
273.633	8862.36
273.702	8845.8
273.771	8841.13
273.84	8831.55
273.909	8824.91
273.977	8824
274.046	8809.94
274.115	8811.53
274.184	8794.64
274.253	8786.36
274.322	8794.35
274.39	8755.46
274.459	8744.39
274.528	8716.28
274.597	8710.12
274.665	8704.25
274.734	8706.46
274.803	8696.79
274.872	8684.95
274.94	8662.47
275.009	8710.63
275.078	8692.29
275.147	8685.41
275.215	8682.09
275.284	8694.99
275.353	8688.78
275.421	8668.9
275.49	8689.21
275.559	8675.93
275.627	8670.25
275.696	8664.43
275.765	8662.12
275.833	8656.05
275.902	8651.05
275.971	8667.27
276.039	8684.93
276.108	8688.44
276.177	8685.31
276.245	8671.26
276.314	8674.58
276.383	8685.55
276.451	8621.95
276.52	8624.35
276.588	8641.34
276.657	8645.05
276.725	8630.95
276.794	8627.38
276.863	8635.76
276.931	8609.58
277	8618.19
277.068	8627.48
277.137	8643.55
277.205	8642.83
277.274	8661.17
277.342	8671.95
277.411	8649.86
277.48	8634.12
277.548	8624.83
277.617	8627.34
277.685	8624.83
277.754	8625.51
277.822	8618
277.89	8636.44
277.959	8627.77
278.027	8607.8
278.096	8589.95
278.164	8614.88
278.233	8605.4
278.301	8594.67
278.37	8600.68
278.438	8581.82
278.507	8585.33
278.575	8555.83
278.643	8554.77
278.712	8541.25
278.78	8526.28
278.849	8532.92
278.917	8540.86
278.985	8532.58
279.054	8528.01
279.122	8533.21
279.191	8532.1
279.259	8524.16
279.327	8495.23
279.396	8512.41
279.464	8505.97
279.532	8514.68
279.601	8512.08
279.669	8515.3
279.737	8532.91
279.806	8537.49
279.874	8552.74
279.942	8545.62
280.011	8543.7
280.079	8550.24
280.147	8563.23
280.215	8568.96
280.284	8571.85
280.352	8556.79
280.42	8570.84
280.488	8564.1
280.557	8562.08
280.625	8566.07
280.693	8571.37
280.761	8578.25
280.83	8561.26
280.898	8576.08
280.966	8558.9
281.034	8519.73
281.102	8501.59
281.171	8489.41
281.239	8497.36
281.307	8489.85
281.375	8483.74
281.443	8512.85
281.512	8505.2
281.58	8508.14
281.648	8488.55
281.716	8483.26
281.784	8488.55
281.852	8476.47
281.92	8473.78
281.989	8485.23
282.057	8465.21
282.125	8514.03
282.193	8500.94
282.261	8503.58
282.329	8501.22
282.397	8503.82
282.465	8517.58
282.533	8536.35
282.601	8530.57
282.67	8506.94
282.738	8498.04
282.806	8509.25
282.874	8493.95
282.942	8495.68
283.01	8492.17
283.078	8501.6
283.146	8499.77
283.214	8505.35
283.282	8506.07
283.35	8519.55
283.418	8508.05
283.486	8513.63
283.554	8464.43
283.622	8472.32
283.69	8470.74
283.758	8463.32
283.826	8471.94
283.894	8477.38
283.962	8496.87
284.03	8505.58
284.098	8506.49
284.165	8498.07
284.233	8493.89
284.301	8488.83
284.369	8478.2
284.437	8467.95
284.505	8458.08
284.573	8476.03
284.641	8462.17
284.709	8470.07
284.777	8451.54
284.845	8455.24
284.912	8457.89
284.98	8460.63
285.048	8451.97
285.116	8461.16
285.184	8475.02
285.252	8471.03
285.319	8453.95
285.387	8441
285.455	8430.65
285.523	8440.28
285.591	8439.22
285.659	8443.26
285.726	8454.28
285.794	8443.7
285.862	8439.27
285.93	8444.76
285.997	8431.52
286.065	8427.82
286.133	8419.06
286.201	8420.31
286.269	8414.2
286.336	8410.2
286.404	8411.65
286.472	8425.7
286.539	8400.01
286.607	8377.49
286.675	8379.65
286.743	8392.98
286.81	8389.18
286.878	8397.6
286.946	8387.88
287.013	8389.32
287.081	8386.53
287.149	8367.67
287.216	8384.6
287.284	8383.4
287.352	8382.87
287.419	8384.07
287.487	8397.4
287.555	8400.77
287.622	8395.43
287.69	8400.72
287.758	8408.23
287.825	8396.49
287.893	8382.15
287.96	8386.29
288.028	8397.45
288.096	8400.1
288.163	8402.55
288.231	8387.44
288.298	8387.97
288.366	8402.22
288.433	8404.67
288.501	8401.06
288.569	8406.21
288.636	8401.64
288.704	8414.2
288.771	8420.5
288.839	8412.42
288.906	8411.55
288.974	8423.2
289.041	8424.4
289.109	8412.9
289.176	8420.65
289.244	8426.23
289.311	8446.25
289.379	8459.14
289.446	8465.83
289.514	8466.02
289.581	8469.34
289.649	8477.91
289.716	8481.42
289.783	8473.19
289.851	8490.52
289.918	8483.15
289.986	8491.67
290.053	8493.55
290.121	8494.03
290.188	8494.75
290.255	8522.18
290.323	8520.88
290.39	8513.08
290.458	8516.07
290.525	8529.64
290.592	8528.05
290.66	8532.24
290.727	8520.16
290.794	8531.18
290.862	8532.24
290.929	8532.24
290.996	8528.14
291.064	8534.64
291.131	8544.32
291.198	8553.84
291.266	8549.03
291.333	8552.59
291.4	8558.08
291.468	8576.94
291.535	8572.32
291.602	8575.89
291.669	8570.54
291.737	8569.97
291.804	8569.39
291.871	8592.73
291.938	8598.79
292.006	8627.48
292.073	8640.67
292.14	8654.48
292.207	8648.75
292.275	8646.88
292.342	8656.02
292.409	8680.71
292.476	8703.87
292.543	8694.63
292.611	8693.13
292.678	8712.58
292.745	8740.3
292.812	8750.12
292.879	8750.45
292.946	8753.44
293.014	8767.83
293.081	8775.15
293.148	8794.54
293.215	8809.51
293.282	8800.75
293.349	8811.39
293.416	8792.18
293.484	8804.69
293.551	8815.28
293.618	8835.69
293.685	8863.27
293.752	8860.19
293.819	8859.52
293.886	8849.99
293.953	8853.98
294.02	8872.9
294.087	8876.7
294.154	8872.61
294.221	8888.93
294.288	8889.12
294.356	8909.29
294.423	8916.42
294.49	8904.14
294.557	8913
294.624	8901.3
294.691	8926.67
294.758	8925.04
294.825	8933.99
294.892	8924.46
294.959	8920.61
295.026	8922.87
295.093	8913.15
295.16	8910.6
295.226	8915.99
295.293	8942.13
295.36	8952.53
295.427	8957.15
295.494	8970.77
295.561	8979.92
295.628	8998.03
295.695	9012.42
295.762	9009.73
295.829	9011.75
295.896	9039.09
295.963	9046.31
296.03	9062.05
296.096	9062.58
296.163	9072.69
296.23	9093.49
296.297	9106.97
296.364	9111.49
296.431	9118.38
296.498	9115.15
296.564	9142.5
296.631	9139.27
296.698	9122.71
296.765	9141
296.832	9135.22
296.899	9121.89
296.965	9137.44
297.032	9120.58
297.099	9140.28
297.166	9149.38
297.233	9154.77
297.299	9143.07
297.366	9139.08
297.433	9142.69
297.5	9144.28
297.566	9145.05
297.633	9136.04
297.7	9139.31
297.767	9134.93
297.833	9139.36
297.9	9148.41
297.967	9133.78
298.033	9150.44
298.1	9178.27
298.167	9172.3
298.234	9177.84
298.3	9184.05
298.367	9177.64
298.434	9183.52
298.5	9167.29
298.567	9163.15
298.634	9167.19
298.7	9180.34
298.767	9188.96
298.834	9199.69
298.9	9202.05
298.967	9199.31
299.033	9209.76
299.1	9226.18
299.167	9247.22
299.233	9243.12
299.3	9256.51
299.366	9274.61
299.433	9284.92
299.5	9257.13
299.566	9264.02
299.633	9280.29
299.699	9295.6
299.766	9296.81
299.832	9295.7
299.899	9307.98
299.965	9325.84
300.032	9316.89
300.099	9326.04
300.165	9329.94
300.232	9325.46
300.298	9325.94
300.365	9340.05
300.431	9338.31
300.498	9326.9
300.564	9323.44
300.631	9334.37
300.697	9340.67
300.763	9339.33
300.83	9338.41
300.896	9358.83
300.963	9364.22
301.029	9371.25
301.096	9377.61
301.162	9393.59
301.229	9391.86
301.295	9377.22
301.361	9380.4
301.428	9387.67
301.494	9378.18
301.561	9378.52
301.627	9390.56
301.693	9391.86
301.76	9399.03
301.826	9392.92
301.892	9410.45
301.959	9426.34
302.025	9424.08
302.092	9423.74
302.158	9432.79
302.224	9427.73
302.291	9412.28
302.357	9404.28
302.423	9393.35
302.49	9380.5
302.556	9383.24
302.622	9385.65
302.688	9397.44
302.755	9404.48
302.821	9408.95
302.887	9418.15
302.954	9420.65
303.02	9419.98
303.086	9426.34
303.152	9418.87
303.219	9417.86
303.285	9417.57
303.351	9418.83
303.417	9421.33
303.483	9410.3
303.55	9402.4
303.616	9406.07
303.682	9411.26
303.748	9406.26
303.815	9424.75
303.881	9438.81
303.947	9426.63
304.013	9427.59
304.079	9420.71
304.145	9400.58
304.212	9403.85
304.278	9393.4
304.344	9388.01
304.41	9377.08
304.476	9374.14
304.542	9371.06
304.608	9377.8
304.674	9363.35
304.741	9361.67
304.807	9371.3
304.873	9377.56
304.939	9390.61
305.005	9375.06
305.071	9373.03
305.137	9376.89
305.203	9347.8
305.269	9344.52
305.335	9361.33
305.401	9362.68
305.467	9365.76
305.533	9381.51
305.599	9381.7
305.666	9396.15
305.732	9401.49
305.798	9415.5
305.864	9435.06
305.93	9444.25
305.996	9443.92
306.062	9442.57
306.128	9434.96
306.194	9415.12
306.259	9415.02
306.325	9404.96
306.391	9410.64
306.457	9419.41
306.523	9423.84
306.589	9447.58
306.655	9444.3
306.721	9426.1
306.787	9411.99
306.853	9424.7
306.919	9407.32
306.985	9400.72
307.051	9386.85
307.117	9376.07
307.183	9367.98
307.248	9341.01
307.314	9338.17
307.38	9338.36
307.446	9345.1
307.512	9336.58
307.578	9340
307.644	9328.39
307.709	9328.88
307.775	9329.79
307.841	9322.18
307.907	9320.35
307.973	9297.67
308.039	9292.23
308.104	9295.12
308.17	9297.48
308.236	9278.75
308.302	9280.14
308.368	9272.87
308.433	9275.95
308.499	9270.22
308.565	9259.87
308.631	9253.23
308.696	9234.02
308.762	9224.05
308.828	9220.58
308.894	9202.53
308.959	9185.1
309.025	9182.69
309.091	9179.18
309.156	9163.15
309.222	9167.09
309.288	9155.83
309.354	9141.24
309.419	9139.41
309.485	9125.69
309.551	9129.11
309.616	9115.67
309.682	9110.96
309.748	9100.56
309.813	9090.01
309.879	9084.62
309.945	9070.85
310.01	9075.04
310.076	9076.97
310.141	9072.73
310.207	9057.47
310.273	9060.84
310.338	9065.27
310.404	9042.93
310.469	9031.76
310.535	9025.89
310.601	9002.59
310.666	9008.61
310.732	9020.35
310.797	9001.38
310.863	8987.76
310.928	8979.29
310.994	8983.62
311.059	8978.8
311.125	8982.17
311.191	8997.15
311.256	8988.39
311.322	8997.49
311.387	8972.16
311.453	9256.45
311.518	9226.99
311.584	9231.13
311.649	9237.58
311.715	9225.45
311.78	9233.88
311.846	9225.31
311.911	9237.49
311.976	9242.59
312.042	9226.7
312.107	9200.04
312.173	9197.25
312.238	9189.21
312.304	9183.86
312.369	9175.15
312.434	9167.74
312.5	9157
312.565	9124.7
312.631	9127.64
312.696	9116.95
312.761	9124.07
312.827	8824.53
312.892	8864.05
312.958	8856.97
313.023	8855.53
313.088	8859.33
313.154	8852.69
313.219	8844.89
313.284	8830.3
313.35	8822.17
313.415	8805.76
313.48	8807.44
313.546	8813.55
313.611	8822.36
313.676	8816.39
313.741	8804.26
313.807	8814.28
313.872	8817.12
313.937	8825.88
314.003	8835.89
314.068	8835.12
314.133	8833.44
314.198	8825.16
314.264	8798.97
314.329	8788.09
314.394	8783.66
314.459	8781.01
314.525	8792.37
314.59	8788.09
314.655	8779.57
314.72	8785.3
314.785	8791.6
314.851	8786.84
314.916	8764.26
314.981	8756.13
315.046	8743.71
315.111	8737.7
315.176	8719.31
315.242	8724.75
315.307	8719.12
315.372	8696.59
315.437	8692.55
315.502	8690.81
315.567	8710.84
315.632	8699
315.698	8698.66
315.763	8687.78
315.828	8676.04
315.893	8667.23
315.958	8665.88
316.023	8651.4
316.088	8633.44
316.153	8612.85
316.218	8608.62
316.283	8588.7
316.348	8566.85
316.413	8566.99
316.479	8550.44
316.544	8517.87
316.609	8484.52
316.674	8450.74
316.739	8416.92
316.804	8380.21
316.869	8340.85
316.934	8292.73
316.999	8264.49
317.064	8217.01
317.129	8173.47
317.194	8137.34
317.259	8093.03
317.324	8037.77
317.389	7997.65
317.454	7957.58
317.518	7925.17
317.583	7901.26
317.648	7880.05
317.713	7841.91
317.778	7781.07
317.843	7751.98
317.908	7715.68
317.973	7675.28
318.038	7645.23
318.103	7611.96
318.168	7583.69
318.233	7554.12
318.297	7510.09
318.362	7475.37
318.427	7440.19
318.492	7413.12
318.557	7366.12
318.622	7335.69
318.687	7312.82
318.751	7268.13
318.816	7237.32
318.881	7200.99
318.946	7147.83
319.011	7103.29
319.075	7070.57
319.14	7033.96
319.205	6993.55
319.27	6961.31
319.335	6921.49
319.399	6881.33
319.464	6848.37
319.529	6795.92
319.594	6759.22
319.658	6734.29
319.723	6687.23
319.788	6656.54
319.853	6607.6
319.917	6578.75
319.982	6529.05
320.047	6491.65
320.112	6469.99
320.176	6418.62
320.241	6386.36
320.306	6347.15
320.37	6305.2
320.435	6270.11
320.5	6246.4
320.564	6205.17
320.629	6161.89
320.694	6129.26
320.758	6091.44
320.823	6049.46
320.888	6024.23
320.952	5973.66
321.017	5933.5
321.082	5899.11
321.146	5863.61
321.211	5828.64
321.275	5788.22
321.34	5743.29
321.405	5700.04
321.469	5655.06
321.534	5616.81
321.598	5565.66
321.663	5539.72
321.727	5512.77
321.792	5466.09
321.857	5419.44
321.921	5378.37
321.986	5338.22
322.05	5278.86
322.115	5240.14
322.179	5200.42
322.244	5143.27
322.308	5114.29
322.373	5063.75
322.437	5022.27
322.502	4997.74
322.566	4953.91
322.631	4919.15
322.695	4886.88
322.76	4846.52
322.824	4809.23
322.889	4770.74
322.953	4732.41
323.018	4672.1
323.082	4604.29
323.146	4553.54
323.211	4500.76
323.275	4457.56
323.34	4415.81
323.404	4387.26
323.468	4340.52
323.533	4298
323.597	4253.98
323.662	4205.62
323.726	4168.37
323.79	4122.53
323.855	4055.33
323.919	4006.96
323.983	3961.93
324.048	3894.29
324.112	4046.34
324.177	3924.01
324.241	3717.58
324.305	3517.56
324.37	3319.64
324.434	3136.29
324.498	3097.24
324.562	3052.92
324.627	2997.7
324.691	2943.61
324.755	2878.93
324.82	2807.03
324.884	2729.73
324.948	2663.3
325.012	2566.32
325.077	2449.71
