Data from 20250702_urea_0.5M_MAYP1162681_13-04-59-827.txt Node
Date: Wed Jul 02 13:04:59 BST 2025
User: adleo
Spectrometer: MAYP116268
Trigger mode: 0
Integration Time (sec): 1.000000E0
Scans to average: 1
Electric dark correction enabled: true
Nonlinearity correction enabled: true
Boxcar width: 10
XAxis mode: Wavelengths
Number of Pixels in Spectrum: 2068
>>>>>Begin Spectral Data<<<<<
179.565	1098.22
179.642	1151.53
179.718	1189.73
179.795	1224.61
179.871	1255.51
179.948	1268.34
180.024	1287.92
180.101	1310.48
180.177	1323.64
180.254	1344.8
180.33	1363.19
180.407	1407.67
180.483	1495.7
180.56	1576.03
180.636	1650.14
180.712	1637.78
180.789	1648.19
180.865	1660.01
180.942	1668.8
181.018	1676.59
181.095	1689.66
181.171	1694.08
181.248	1692.61
181.324	1705.25
181.4	1712.38
181.477	1719.65
181.553	1733.66
181.63	1753.76
181.706	1768.31
181.782	1774.39
181.859	1771.96
181.935	1777.62
182.011	1773.63
182.088	1790.88
182.164	1808.9
182.24	1823.44
182.317	1832.04
182.393	1827
182.469	1840.45
182.546	1852.29
182.622	1857.52
182.698	1851.86
182.775	1866.22
182.851	1878.05
182.927	1873.68
183.003	1867.02
183.08	1862.32
183.156	1871.87
183.232	1869.45
183.308	1855.9
183.385	1865.55
183.461	1882.38
183.537	1883.61
183.613	1898.06
183.69	1888.84
183.766	1878.95
183.842	1883.94
183.918	1888.69
183.995	1900.15
184.071	1900.2
184.147	1898.29
184.223	1887.65
184.299	1898.68
184.375	1887.98
184.452	1895.16
184.528	1945.71
184.604	1956.03
184.68	1968.1
184.756	1975.99
184.832	1977.61
184.908	1982.46
184.985	1980.22
185.061	1967.39
185.137	1977.75
185.213	1965.58
185.289	1964.82
185.365	1959.74
185.441	1958.36
185.517	1967.63
185.593	1969.77
185.669	1967.82
185.745	1975.67
185.822	1994.02
185.898	1987.12
185.974	1992.73
186.05	1984.5
186.126	1947.84
186.202	1941.52
186.278	1937.33
186.354	1924.73
186.43	1931.91
186.506	1932.1
186.582	1929.82
186.658	1935.62
186.734	1914.37
186.81	1916.51
186.886	1918.7
186.962	1927.92
187.038	1926.21
187.114	1921.55
187.19	1925.59
187.266	1915.8
187.341	1915.56
187.417	1905.67
187.493	1907.34
187.569	1912.14
187.645	1909.38
187.721	1898.63
187.797	1907.05
187.873	1911.52
187.949	1907.24
188.025	1900.96
188.101	1904.15
188.176	1913.22
188.252	1907.19
188.328	1914.79
188.404	1917.07
188.48	1912.65
188.556	1907.09
188.632	1907.47
188.707	1908.99
188.783	1904.62
188.859	1903.14
188.935	1893.11
189.011	1901.19
189.086	1894.11
189.162	1886.27
189.238	1883.6
189.314	1881.42
189.39	1878.42
189.465	1871.62
189.541	1888.12
189.617	1874.15
189.693	1869.35
189.768	1869.01
189.844	1891.36
189.92	1885.19
189.996	1890.8
190.071	1899.54
190.147	1898.69
190.223	1907.06
190.298	1901.21
190.374	1892.08
190.45	1903.53
190.526	1911.09
190.601	1905.06
190.677	1905.39
190.753	1928.79
190.828	1933.59
190.904	1948.9
190.98	1961.41
191.055	1970.73
191.131	1961.84
191.207	1979.24
191.282	1985.89
191.358	1979.47
191.433	1967.34
191.509	1978.51
191.585	1976.23
191.66	1977.37
191.736	1985.36
191.811	1977.7
191.887	1992.5
191.963	2013.51
192.038	2014.99
192.114	2016.27
192.189	2020.17
192.265	2018.55
192.34	1999.81
192.416	1996.82
192.491	1991.34
192.567	1993.2
192.642	1996.77
192.718	1998
192.793	1989.21
192.869	1986.4
192.944	1987.64
193.02	1995.53
193.095	1999.29
193.171	2005.19
193.246	2005.38
193.322	2003.81
193.397	2001.19
193.473	1984.59
193.548	1967.57
193.624	1976.41
193.699	1974.42
193.775	1990.11
193.85	1989.54
193.925	1999.29
194.001	1998.53
194.076	1990.54
194.152	1982.5
194.227	1973.04
194.302	1963.53
194.378	1966.1
194.453	1962.35
194.529	1974.38
194.604	1960.49
194.679	1955.36
194.755	1938.96
194.83	1952.23
194.905	1949.99
194.981	1958.93
195.056	1953.8
195.131	1960.5
195.207	1956.36
195.282	1948.24
195.357	1931.68
195.433	1948.8
195.508	1935.91
195.583	1942.09
195.659	1956.74
195.734	1962.21
195.809	1963.68
195.884	1973.33
195.96	1972.24
196.035	1988.88
196.11	1984.17
196.185	1993.63
196.261	1997.2
196.336	2025.3
196.411	2012.65
196.486	2018.12
196.561	2014.41
196.637	2021.68
196.712	2037.43
196.787	2040.52
196.862	2056.12
196.937	2064.25
197.013	2070.43
197.088	2079.52
197.163	2101.59
197.238	2116.59
197.313	2115.02
197.388	2126.29
197.464	2152.6
197.539	2163.78
197.614	2153.79
197.689	2167.68
197.764	2182.43
197.839	2199.46
197.914	2193.42
197.989	2213.5
198.065	2224.82
198.14	2269.91
198.215	2294.98
198.29	2303.17
198.365	2316.73
198.44	2325.73
198.515	2349.67
198.59	2361.76
198.665	2387.99
198.74	2392.56
198.815	2391.13
198.89	2411.59
198.965	2440.4
199.04	2436.78
199.115	2451.44
199.19	2493.38
199.265	2491.81
199.34	2502.52
199.415	2536.68
199.49	2555.53
199.565	2563.96
199.64	2587.15
199.715	2585.39
199.79	2592.86
199.865	2602.39
199.94	2599.68
200.015	2627.16
200.09	2635.93
200.165	2643.5
200.24	2649.07
200.315	2688.83
200.39	2704.74
200.464	2711.74
200.539	2709.17
200.614	2727.03
200.689	2746.23
200.764	2752.76
200.839	2773.14
200.914	2774.76
200.989	2762.27
201.063	2775.28
201.138	2760.85
201.213	2759.95
201.288	2743.32
201.363	2748.75
201.438	2747.18
201.512	2764.56
201.587	2750.93
201.662	2751.41
201.737	2762.18
201.812	2769.28
201.886	2734.19
201.961	2743.72
202.036	2732.96
202.111	2735.06
202.186	2704.11
202.26	2691.95
202.335	2671.42
202.41	2664.04
202.485	2650.08
202.559	2634.37
202.634	2611.22
202.709	2617.26
202.784	2602.97
202.858	2599.78
202.933	2581.78
203.008	2574.4
203.082	2554.97
203.157	2554.11
203.232	2516.6
203.306	2496.26
203.381	2468.63
203.456	2452.06
203.53	2429.53
203.605	2411.63
203.68	2390.11
203.754	2386.54
203.829	2373.06
203.904	2354.69
203.978	2344.79
204.053	2350.26
204.127	2337.46
204.202	2333.56
204.277	2319.23
204.351	2307.05
204.426	2301.05
204.5	2295.05
204.575	2264.99
204.65	2276.17
204.724	2266.75
204.799	2273.4
204.873	2269.21
204.948	2267.12
205.022	2254.99
205.097	2246.56
205.171	2259.41
205.246	2266.26
205.32	2266.74
205.395	2265.12
205.469	2258.37
205.544	2260.89
205.618	2244.57
205.693	2255.04
205.767	2245.95
205.842	2267.85
205.916	2267.56
205.991	2261.09
206.065	2265.28
206.14	2278.35
206.214	2272.16
206.289	2268.93
206.363	2281.54
206.438	2286.16
206.512	2292.34
206.586	2312.28
206.661	2323.47
206.735	2305.49
206.81	2310.11
206.884	2322.34
206.958	2312.34
207.033	2330.09
207.107	2342.85
207.181	2377.94
207.256	2376.13
207.33	2399.65
207.405	2410.22
207.479	2431.41
207.553	2444.4
207.628	2437.31
207.702	2453.26
207.776	2456.11
207.851	2468.87
207.925	2490.74
207.999	2499.31
208.073	2509.4
208.148	2524.03
208.222	2526.5
208.296	2572.5
208.371	2600.95
208.445	2632.97
208.519	2679.12
208.593	2710.85
208.668	2731.92
208.742	2757.53
208.816	2789.54
208.89	2831.07
208.965	2863.74
209.039	2904.42
209.113	2955.96
209.187	3013.15
209.261	3055.14
209.336	3117.15
209.41	3182.66
209.484	3238.22
209.558	3311.62
209.632	3383.44
209.707	3456.1
209.781	3543.28
209.855	3622.71
209.929	3711.29
210.003	3792.56
210.077	3870.44
210.151	3999.34
210.226	4119.82
210.3	4234.51
210.374	4349.51
210.448	4449.59
210.522	4560.19
210.596	4677.84
210.67	4793.87
210.744	4950.85
210.818	5097.88
210.892	5242.53
210.966	5360.25
211.041	5503.85
211.115	5634.24
211.189	5789.94
211.263	5943.41
211.337	6086.89
211.411	6250.78
211.485	6394.86
211.559	6557.39
211.633	6717.71
211.707	6848.73
211.781	7007.37
211.855	7147.98
211.929	7317.45
212.003	7470.92
212.077	7659.64
212.151	7850.07
212.225	8035.84
212.299	8208.33
212.373	8385.85
212.447	8566.36
212.52	8781.7
212.594	8971.11
212.668	9171.49
212.742	9356.27
212.816	9548.15
212.89	9749.52
212.964	9939.87
213.038	10146.32
213.112	10359.09
213.186	10581.69
213.26	10772.76
213.333	10946.26
213.407	11153.54
213.481	11353.08
213.555	11574.53
213.629	11772.28
213.703	11960.49
213.777	12173.81
213.85	12367.18
213.924	12606.59
213.998	12816.95
214.072	13021.86
214.146	13210.48
214.219	13414.38
214.293	13610.85
214.367	13817.12
214.441	14024.68
214.515	14218.08
214.588	14397.59
214.662	14561.97
214.736	14734.87
214.81	14927.88
214.883	15120.07
214.957	15302.03
215.031	15483.56
215.105	15656.89
215.178	15826.32
215.252	16007.55
215.326	16162.99
215.4	16322.38
215.473	16445.62
215.547	16590.93
215.621	16742.99
215.694	16920.06
215.768	17069.42
215.842	17223.4
215.915	17368.65
215.989	17506.39
216.063	17656.7
216.136	17819.45
216.21	17985.04
216.284	18145.13
216.357	18307.68
216.431	18461.46
216.504	18608.39
216.578	18772.15
216.652	18921.63
216.725	19059.89
216.799	19206.39
216.873	19347.11
216.946	19484.69
217.02	19616.64
217.093	19745.31
217.167	19853.5
217.24	19970.41
217.314	20089.11
217.387	20197.73
217.461	20311.46
217.535	20438.26
217.608	20546.31
217.682	20648.53
217.755	20763.96
217.829	20869.51
217.902	20970.82
217.976	21071.11
218.049	21166.4
218.123	21247.47
218.196	21345.89
218.27	21441.52
218.343	21512.71
218.417	21612.82
218.49	21712.02
218.563	21821.92
218.637	21921.27
218.71	22031.08
218.784	22119.58
218.857	22217.78
218.931	22313.51
219.004	22401.49
219.077	22491.79
219.151	22567.48
219.224	22646.88
219.298	22714.52
219.371	22795.33
219.444	22842.58
219.518	22918.03
219.591	22991.22
219.665	23088.72
219.738	23152.9
219.811	23213.17
219.885	23298.66
219.958	23365.88
220.031	23420.85
220.105	23484.7
220.178	23551.69
220.251	23613.71
220.325	23670.33
220.398	23730.03
220.471	23791.71
220.544	23848
220.618	23893.57
220.691	23948.55
220.764	23989.36
220.838	24044.15
220.911	24088.19
220.984	24172.3
221.057	24220.05
221.131	24270.36
221.204	24278.17
221.277	24331.72
221.35	24398.77
221.424	24423.61
221.497	24454.29
221.57	24488.49
221.643	24527.18
221.716	24562.55
221.79	24584.16
221.863	24620.2
221.936	24636.89
222.009	24662.21
222.082	24692.71
222.155	24706.74
222.229	24743.46
222.302	24778.1
222.375	24803.38
222.448	24814.04
222.521	24821.04
222.594	24836.91
222.667	24842.51
222.74	24881.73
222.814	24904.26
222.887	24908.85
222.96	24929.84
223.033	24957.1
223.106	24973.41
223.179	24979.77
223.252	24986.68
223.325	24983.54
223.398	24986.92
223.471	24994.49
223.544	25002.16
223.617	25003.9
223.69	25006.6
223.763	25010.08
223.837	25009.5
223.91	25014.85
223.983	25019.24
224.056	25004.91
224.129	25007.62
224.202	25012.2
224.275	24998.06
224.348	24976.73
224.42	24963.66
224.493	24950.39
224.566	24928.72
224.639	24914.54
224.712	24900.59
224.785	24885.11
224.858	24871.4
224.931	24854.66
225.004	24844.43
225.077	24831.99
225.15	24798.6
225.223	24797.15
225.296	24799.9
225.369	24780.32
225.442	24752.38
225.514	24744.08
225.587	24741.09
225.66	24723.58
225.733	24710.17
225.806	24696.37
225.879	24683
225.952	24658.88
226.025	24655.79
226.097	24652.9
226.17	24647.4
226.243	24610.3
226.316	24596.99
226.389	24593.22
226.461	24594.96
226.534	24581.98
226.607	24563.6
226.68	24583.91
226.753	24567.85
226.825	24528.04
226.898	24521.44
226.971	24507.59
227.044	24485.35
227.117	24458.1
227.189	24446.95
227.262	24444.98
227.335	24435.38
227.407	24416.56
227.48	24402.09
227.553	24379.32
227.626	24356.31
227.698	24337.35
227.771	24330.07
227.844	24293.75
227.916	24284.39
227.989	24237.7
228.062	24214.59
228.134	24218.31
228.207	24185.46
228.28	24152.08
228.352	24131.72
228.425	24107.7
228.498	24099.07
228.57	24071.29
228.643	24075.53
228.716	24053.58
228.788	24025.95
228.861	23999.03
228.934	23985
229.006	23959.1
229.079	23930.35
229.151	23909.71
229.224	23879.18
229.296	23864.28
229.369	23882.8
229.442	23872.62
229.514	23850.97
229.587	23835.63
229.659	23794.15
229.732	23766.76
229.804	23755.76
229.877	23763.82
229.949	23754.56
230.022	23740.14
230.094	23718.15
230.167	23696.68
230.239	23659.94
230.312	23638.19
230.384	23628.73
230.457	23611.47
230.529	23605.73
230.602	23591.22
230.674	23572.6
230.747	23565.17
230.819	23552.59
230.892	23482.81
230.964	23452.28
231.037	23439.45
231.109	23408.79
231.181	23386.08
231.254	23358.16
231.326	23332.55
231.399	23295.47
231.471	23264.17
231.544	23210.69
231.616	23197.53
231.688	23166.62
231.761	23140.73
231.833	23100.76
231.905	23055.91
231.978	23032.14
232.05	22994
232.122	22969.55
232.195	22922.78
232.267	22900.41
232.339	22869.79
232.412	22872.06
232.484	22846.41
232.556	22817.58
232.629	22803.11
232.701	22776.64
232.773	22743.19
232.846	22701.72
232.918	22671.83
232.99	22638.61
233.062	22633.41
233.135	22599.37
233.207	22554.72
233.279	22528.98
233.351	22505.55
233.424	22475.23
233.496	22422.39
233.568	22404.89
233.64	22357.41
233.713	22329.64
233.785	22292.81
233.857	22248.22
233.929	22193.79
234.001	22174.51
234.074	22141.15
234.146	22093.38
234.218	22066.86
234.29	22038.81
234.362	22002.27
234.434	21947.8
234.507	21911.94
234.579	21858.96
234.651	21823
234.723	21803.38
234.795	21776.97
234.867	21743.13
234.939	21725
235.012	21702.21
235.084	21661.62
235.156	21636.22
235.228	21590.48
235.3	21544.98
235.372	21519.14
235.444	21497.11
235.516	21440.67
235.588	21419.51
235.66	21396.61
235.732	21345.67
235.804	21374.93
235.876	21355.89
235.948	21335.65
236.02	21289.62
236.092	21256.65
236.164	21226.29
236.236	21172.02
236.308	21126.23
236.38	21090.18
236.452	21040.39
236.524	21006.56
236.596	20996.39
236.668	20957.59
236.74	20931.76
236.812	20905.45
236.884	20882.65
236.956	20851.32
237.028	20799.18
237.1	20743.75
237.172	20723.03
237.244	20711.13
237.316	20623.12
237.388	20583.55
237.46	20541.43
237.532	20522.78
237.604	20470.34
237.675	20442.15
237.747	20413.57
237.819	20376.42
237.891	20345.28
237.963	20301.62
238.035	20255.45
238.107	20175.17
238.178	20160.23
238.25	20119.84
238.322	20100.47
238.394	20030.83
238.466	19984.18
238.538	19958.01
238.609	19936.14
238.681	19877.05
238.753	19830.11
238.825	19794.45
238.897	19749.06
238.968	19729.97
239.04	19689.2
239.112	19678.31
239.184	19629.64
239.255	19596.39
239.327	19567.91
239.399	19518.8
239.471	19485.12
239.542	19457.31
239.614	19440.11
239.686	19371.39
239.758	19347.15
239.829	19284.55
239.901	19271.49
239.973	19236.36
240.044	19193.96
240.116	19151.55
240.188	19104.37
240.259	19062.25
240.331	19017.15
240.403	18990.26
240.474	18929.73
240.546	18877.01
240.618	18815.71
240.689	18777.35
240.761	18734.85
240.833	18705.02
240.904	18683.38
240.976	18643.68
241.048	18608.5
241.119	18574.38
241.191	18545.13
241.262	18520.02
241.334	18488.46
241.405	18446.39
241.477	18397.33
241.549	18368.94
241.62	18332.46
241.692	18308.22
241.763	18278.88
241.835	18240.95
241.906	18201.39
241.978	18154.98
242.049	18132.71
242.121	18113.68
242.192	18088.19
242.264	18046.93
242.335	17994.45
242.407	17950.7
242.478	17907.42
242.55	17864.82
242.621	17820.77
242.693	17790.46
242.764	17745.4
242.836	17714.03
242.907	17682.61
242.979	17658.9
243.05	17624.01
243.122	17591.48
243.193	17551.28
243.264	17491.19
243.336	17456.83
243.407	17427.77
243.479	17407.38
243.55	17376.49
243.622	17344.92
243.693	17297.02
243.764	17269.36
243.836	17216.49
243.907	17184.87
243.978	17156.2
244.05	17128.73
244.121	17078.22
244.192	17047.33
244.264	16999.18
244.335	16956.14
244.407	16898.69
244.478	16871.51
244.549	16830.4
244.62	16784.81
244.692	16745.63
244.763	16722.59
244.834	16680.85
244.906	16630.78
244.977	16604.12
245.048	16574.87
245.119	16522.96
245.191	16486.19
245.262	16431.58
245.333	16422.62
245.405	16377.07
245.476	16351.33
245.547	16321.84
245.618	16299.71
245.689	16268.19
245.761	16241.49
245.832	16202.98
245.903	16183.61
245.974	16143.17
246.045	16109.62
246.117	16089.38
246.188	16050.87
246.259	16007.34
246.33	15974.23
246.401	15944.49
246.473	15894.75
246.544	15851.42
246.615	15831.03
246.686	15794.59
246.757	15775.7
246.828	15732.56
246.899	15719.06
246.97	15668.69
247.042	15625.7
247.113	15599.09
247.184	15579.09
247.255	15537.39
247.326	15515.32
247.397	15473.82
247.468	15446.49
247.539	15418.67
247.61	15374.38
247.681	15346.56
247.752	15330.32
247.823	15290.99
247.894	15264.91
247.965	15220.95
248.037	15186.53
248.108	15149.42
248.179	15129.46
248.25	15092.59
248.321	15069.21
248.392	15022.4
248.463	15014.64
248.534	14976.46
248.605	14952.65
248.675	14919.15
248.746	14895.39
248.817	14863.38
248.888	14842.51
248.959	14793.24
249.03	14766.3
249.101	14736.22
249.172	14708.07
249.243	14655.62
249.314	14642.7
249.385	14609.97
249.456	14599.22
249.527	14566.39
249.598	14538.72
249.669	14500.98
249.739	14479.24
249.81	14454.03
249.881	14416.23
249.952	14382.49
250.023	14363.3
250.094	14320.35
250.165	14278.85
250.235	14252.38
250.306	14223.61
250.377	14189.86
250.448	14163.16
250.519	14118.23
250.59	14113.02
250.66	14082.17
250.731	14070.46
250.802	14042.11
250.873	14018.78
250.944	13986.19
251.014	13958.28
251.085	13953.07
251.156	13932.49
251.227	13920.68
251.297	13910.99
251.368	13896.33
251.439	13888.09
251.51	13870.54
251.58	13842.78
251.651	13812.17
251.722	13783
251.792	13746.7
251.863	13721.06
251.934	13721.54
252.005	13724.14
252.075	13689.91
252.146	13677.24
252.217	13671.4
252.287	13654.58
252.358	13629.08
252.429	13626.38
252.499	13594.95
252.57	13574.32
252.641	13555.08
252.711	13530.98
252.782	13487.35
252.852	13480.89
252.923	13443.29
252.994	13419.67
253.064	13410.03
253.135	13382.69
253.205	13361.05
253.276	13356.08
253.347	13350.88
253.417	13313.9
253.488	13282.47
253.558	13256.49
253.629	13227.08
253.699	13206.07
253.77	13189.67
253.841	13174.2
253.911	13153.04
253.982	13134.67
254.052	13117.56
254.123	13092.88
254.193	13069.4
254.264	13081.64
254.334	13052.96
254.405	13020.09
254.475	12984.46
254.546	12951.68
254.616	12938.47
254.687	12918.27
254.757	12901.74
254.827	12865.97
254.898	12855.66
254.968	12834.69
255.039	12804.75
255.109	12790.96
255.18	12757.27
255.25	12713.88
255.321	12700.53
255.391	12659.51
255.461	12663.36
255.532	12613.86
255.602	12595.73
255.673	12557.8
255.743	12525.69
255.813	12484.19
255.884	12475.7
255.954	12460.86
256.024	12461.87
256.095	12443.07
256.165	12414.1
256.235	12395.59
256.306	12375.44
256.376	12361.31
256.446	12343.38
256.517	12331.57
256.587	12325.35
256.657	12310.65
256.728	12290.6
256.798	12265.63
256.868	12246.83
256.938	12212.8
257.009	12203.79
257.079	12189.57
257.149	12196.51
257.219	12158.14
257.29	12144.06
257.36	12105.79
257.43	12094.51
257.5	12052.72
257.571	12027.32
257.641	12014.88
257.711	11980.23
257.781	11964.8
257.852	11946.2
257.922	11917.18
257.992	11894.04
258.062	11870.95
258.132	11853.55
258.202	11842.32
258.273	11822.22
258.343	11811.04
258.413	11792.63
258.483	11760.38
258.553	11728.57
258.623	11699.36
258.693	11684.47
258.764	11673.58
258.834	11669.38
258.904	11656.56
258.974	11630.83
259.044	11612.8
259.114	11598.92
259.184	11589.62
259.254	11566.96
259.324	11525.95
259.394	11508.6
259.464	11507.34
259.535	11479.73
259.605	11455.53
259.675	11418.09
259.745	11402.71
259.815	11381.07
259.885	11351.48
259.955	11366.23
260.025	11338.76
260.095	11326.95
260.165	11314.61
260.235	11315.09
260.305	11289.21
260.375	11256.83
260.445	11258.51
260.515	11258.03
260.585	11257.6
260.655	11234.71
260.725	11232.73
260.795	11224.73
260.865	11221.02
260.934	11194.95
261.004	11187.81
261.074	11172.97
261.144	11178.71
261.214	11167.81
261.284	11145.4
261.354	11141.36
261.424	11117.64
261.494	11123.72
261.564	11096.78
261.634	11083.14
261.703	11045.4
261.773	11036.59
261.843	11035.82
261.913	11014.13
261.983	10979.43
262.053	10963.96
262.123	10938.62
262.192	10902.19
262.262	10891.1
262.332	10864.65
262.402	10854.63
262.472	10839.06
262.541	10801.77
262.611	10795.36
262.681	10772.08
262.751	10768.71
262.821	10748.18
262.89	10715.08
262.96	10699.8
263.03	10707.95
263.1	10695.22
263.169	10686.31
263.239	10679.23
263.309	10669.54
263.379	10660.48
263.448	10648.39
263.518	10632.44
263.588	10627.57
263.657	10632.44
263.727	10628.05
263.797	10616.39
263.867	10595.96
263.936	10565.61
264.006	10569.17
264.076	10546.87
264.145	10531.88
264.215	10512.85
264.285	10507.36
264.354	10484.23
264.424	10464.33
264.494	10428.2
264.563	10409.41
264.633	10408.35
264.702	10396.11
264.772	10369.61
264.842	10353.47
264.911	10344.27
264.981	10322.25
265.05	10315.26
265.12	10296.23
265.19	10286.11
265.259	10275.71
265.329	10273.25
265.398	10262.31
265.468	10265.83
265.537	10249.07
265.607	10236.88
265.676	10233.75
265.746	10221.75
265.815	10214.96
265.885	10199.54
265.955	10180.51
266.024	10158.84
266.094	10121.31
266.163	10119.38
266.232	10115.53
266.302	10097.22
266.371	10087.35
266.441	10066.39
266.51	10054.54
266.58	10038.94
266.649	10016.05
266.719	10010.13
266.788	9995.1
266.858	10000.06
266.927	9966.92
266.996	9957.04
267.066	9953.57
267.135	9924.34
267.205	9916.92
267.274	9909.6
267.343	9907.24
267.413	9897.7
267.482	9896.3
267.552	9903.82
267.621	9871.21
267.69	9841.05
267.76	9829.59
267.829	9815.14
267.898	9807.34
267.968	9787.69
268.037	9783.06
268.106	9778.53
268.176	9754.64
268.245	9740.77
268.314	9725.6
268.384	9726.18
268.453	9710.57
268.522	9691.69
268.592	9688.85
268.661	9668.09
268.73	9659.33
268.799	9637.13
268.869	9640.16
268.938	9616.61
269.007	9599.03
269.076	9590.07
269.146	9587.04
269.215	9581.45
269.284	9585.5
269.353	9566.72
269.422	9550.73
269.492	9535.51
269.561	9494.1
269.63	9488.9
269.699	9475.32
269.768	9460.43
269.838	9450.66
269.907	9454.75
269.976	9438.43
270.045	9415.94
270.114	9414.11
270.183	9402.55
270.253	9396.49
270.322	9363.65
270.391	9353.58
270.46	9351.85
270.529	9351.56
270.598	9351.99
270.667	9338.08
270.736	9313.81
270.806	9310.15
270.875	9314.1
270.944	9305.48
271.013	9326.04
271.082	9320.31
271.151	9317.03
271.22	9289.49
271.289	9271.48
271.358	9257.9
271.427	9253.81
271.496	9239.03
271.565	9225.45
271.634	9219.19
271.703	9245.63
271.772	9257.43
271.841	9248.33
271.91	9225.27
271.979	9217.18
272.048	9194.16
272.117	9192.38
272.186	9185.25
272.255	9182.17
272.324	9176.83
272.393	9163.35
272.462	9149.72
272.531	9140.24
272.6	9126.47
272.669	9134.12
272.738	9131.42
272.807	9117.94
272.876	9098.45
272.945	9127.09
273.013	9122.04
273.082	9118.72
273.151	9074.66
273.22	9062.96
273.289	9054.92
273.358	9063.39
273.427	9046.59
273.496	9045.19
273.564	9038.26
273.633	9036.91
273.702	9019.15
273.771	9003.98
273.84	9004.18
273.909	8997.92
273.977	8997.87
274.046	8984.49
274.115	8989.11
274.184	8969.61
274.253	8965.71
274.322	8967.11
274.39	8932.59
274.459	8925.23
274.528	8892.74
274.597	8886.67
274.665	8880.41
274.734	8886.91
274.803	8877.24
274.872	8875.36
274.94	8859.09
275.009	8910.28
275.078	8896.13
275.147	8892.95
275.215	8889.73
275.284	8888.04
275.353	8880.48
275.421	8855.93
275.49	8874.47
275.559	8862.77
275.627	8859.31
275.696	8851.6
275.765	8856.08
275.833	8853.72
275.902	8848.23
275.971	8866.14
276.039	8880.24
276.108	8880.96
276.177	8873.6
276.245	8863.54
276.314	8857.47
276.383	8864.89
276.451	8807.24
276.52	8808.26
276.588	8818.41
276.657	8816.78
276.725	8807.34
276.794	8809.75
276.863	8816.25
276.931	8789.24
277	8790.83
277.068	8801.18
277.137	8816
277.205	8812.92
277.274	8827.41
277.342	8835.35
277.411	8814.8
277.48	8795.64
277.548	8788.86
277.617	8790.45
277.685	8784.29
277.754	8794.87
277.822	8784.09
277.89	8797.86
277.959	8792.38
278.027	8774.66
278.096	8768.45
278.164	8799.65
278.233	8782.18
278.301	8776.5
278.37	8782.56
278.438	8769.57
278.507	8766.44
278.575	8745.36
278.643	8737.13
278.712	8720.23
278.78	8711.13
278.849	8721.67
278.917	8735.92
278.985	8726.58
279.054	8732.74
279.122	8742.85
279.191	8731.3
279.259	8729.71
279.327	8706.94
279.396	8719.75
279.464	8713.78
279.532	8718.64
279.601	8704
279.669	8711.41
279.737	8720.03
279.806	8721.23
279.874	8734.76
279.942	8740.82
280.011	8735.14
280.079	8740.49
280.147	8746.5
280.215	8746.65
280.284	8742.99
280.352	8722.15
280.42	8733.36
280.488	8719.69
280.557	8711.32
280.625	8716.23
280.693	8713.68
280.761	8715.46
280.83	8696.21
280.898	8711.32
280.966	8698.47
281.034	8672.43
281.102	8654.62
281.171	8646.68
281.239	8648.08
281.307	8634.46
281.375	8617.56
281.443	8634.46
281.512	8632.58
281.58	8643.5
281.648	8626.52
281.716	8625.02
281.784	8631.18
281.852	8624.69
281.92	8624.21
281.989	8628.87
282.057	8611.6
282.125	8651.89
282.193	8647.08
282.261	8652.95
282.329	8642.55
282.397	8642.79
282.465	8640.1
282.533	8654.73
282.601	8647.89
282.67	8636.53
282.738	8630.47
282.806	8645.44
282.874	8640.67
282.942	8646.59
283.01	8640.19
283.078	8651.26
283.146	8650.92
283.214	8656.89
283.282	8657.85
283.35	8663.34
283.418	8661.75
283.486	8669.35
283.554	8632.77
283.622	8630.65
283.69	8629.54
283.758	8626.56
283.826	8631.42
283.894	8646.1
283.962	8663.72
284.03	8674.16
284.098	8673.44
284.165	8666.65
284.233	8655.01
284.301	8648.65
284.369	8638.83
284.437	8632.19
284.505	8625.98
284.573	8638.06
284.641	8628.77
284.709	8636.33
284.777	8627.28
284.845	8633.59
284.912	8631.95
284.98	8638.45
285.048	8638.55
285.116	8639.56
285.184	8653.8
285.252	8647.98
285.319	8635.56
285.387	8630.99
285.455	8619.39
285.523	8623.34
285.591	8620.35
285.659	8621.8
285.726	8629.31
285.794	8612.37
285.862	8606.69
285.93	8601.54
285.997	8596.39
286.065	8587.82
286.133	8575.7
286.201	8572.18
286.269	8560.01
286.336	8557.6
286.404	8544.89
286.472	8551.15
286.539	8530.32
286.607	8512.75
286.675	8519.82
286.743	8523.24
286.81	8508.8
286.878	8518.57
286.946	8512.12
287.013	8515.63
287.081	8524.54
287.149	8513.18
287.216	8536.81
287.284	8530.99
287.352	8532.81
287.419	8529.83
287.487	8541.57
287.555	8541.86
287.622	8544.41
287.69	8545.66
287.758	8557.84
287.825	8558.71
287.893	8548.89
287.96	8554.95
288.028	8560.53
288.096	8562.55
288.163	8565.15
288.231	8562.79
288.298	8562.02
288.366	8569.53
288.433	8565.92
288.501	8549.7
288.569	8551.73
288.636	8540.7
288.704	8559.09
288.771	8569.29
288.839	8558.51
288.906	8559.43
288.974	8570.26
289.041	8564.48
289.109	8559.81
289.176	8562.46
289.244	8566.21
289.311	8579.11
289.379	8589.65
289.446	8602.02
289.514	8599.9
289.581	8600.91
289.649	8598.55
289.716	8595.28
289.783	8589.89
289.851	8613.76
289.918	8619.49
289.986	8631.18
290.053	8636.33
290.121	8629.06
290.188	8637.73
290.255	8671.95
290.323	8662.71
290.39	8663.77
290.458	8665.55
290.525	8678.25
290.592	8669.16
290.66	8675.51
290.727	8668.48
290.794	8684.61
290.862	8677.05
290.929	8682.06
290.996	8678.45
291.064	8690.04
291.131	8707.23
291.198	8718.15
291.266	8709.54
291.333	8714.3
291.4	8714.01
291.468	8729.37
291.535	8729.51
291.602	8729.8
291.669	8718.3
291.737	8724.31
291.804	8718.68
291.871	8736.68
291.938	8744.81
292.006	8773.46
292.073	8779.18
292.14	8788.23
292.207	8778.46
292.275	8784.14
292.342	8790.35
292.409	8821.11
292.476	8842.63
292.543	8833
292.611	8833.96
292.678	8851.87
292.745	8870.59
292.812	8881.28
292.879	8881.57
292.946	8884.94
293.014	8894.52
293.081	8900.97
293.148	8913.24
293.215	8928.26
293.282	8926.19
293.349	8933.46
293.416	8918.63
293.484	8937.98
293.551	8953
293.618	8970.91
293.685	8999.51
293.752	8996.52
293.819	8994.98
293.886	8984.25
293.953	8995.03
294.02	9011.16
294.087	9019.58
294.154	9013.47
294.221	9025.89
294.288	9027.86
294.356	9047.41
294.423	9053.43
294.49	9051.11
294.557	9063.39
294.624	9057.52
294.691	9071
294.758	9073.11
294.825	9085.2
294.892	9073.4
294.959	9066.86
295.026	9074.03
295.093	9059.63
295.16	9061.46
295.226	9058.96
295.293	9080.96
295.36	9081.4
295.427	9091.99
295.494	9097.62
295.561	9109.66
295.628	9132.68
295.695	9148.57
295.762	9151.65
295.829	9164.41
295.896	9180.82
295.963	9191.18
296.03	9202.1
296.096	9214.96
296.163	9223.24
296.23	9226.76
296.297	9238.94
296.364	9242.84
296.431	9249.77
296.498	9254.68
296.564	9278.61
296.631	9282.36
296.698	9270.52
296.765	9294.59
296.832	9286.46
296.899	9276.15
296.965	9292.91
297.032	9272.15
297.099	9291.8
297.166	9295.56
297.233	9285.88
297.299	9277.84
297.366	9279.96
297.433	9279.19
297.5	9284.19
297.566	9287.95
297.633	9290.6
297.7	9298.83
297.767	9301.19
297.833	9303.12
297.9	9306.34
297.967	9290.65
298.033	9300.42
298.1	9327.92
298.167	9318
298.234	9324.45
298.3	9337.16
298.367	9327.68
298.434	9332.64
298.5	9318.09
298.567	9316.74
298.634	9318.52
298.7	9336.87
298.767	9338.75
298.834	9354.88
298.9	9352.28
298.967	9341.49
299.033	9355.99
299.1	9362.73
299.167	9377.51
299.233	9375.87
299.3	9388.2
299.366	9408.04
299.433	9425.33
299.5	9401.1
299.566	9407.46
299.633	9422.49
299.699	9438.91
299.766	9443.96
299.832	9452.25
299.899	9460.82
299.965	9475.07
300.032	9474.83
300.099	9478.15
300.165	9485.72
300.232	9482.78
300.298	9482.44
300.365	9501.08
300.431	9501.8
300.498	9501.65
300.564	9508.97
300.631	9518.8
300.697	9529.49
300.763	9525.35
300.83	9520.53
300.896	9534.54
300.963	9541.48
301.029	9539.02
301.096	9537.24
301.162	9543.07
301.229	9534.64
301.295	9520.87
301.361	9516.1
301.428	9518.27
301.494	9509.74
301.561	9508.88
301.627	9514.12
301.693	9515.28
301.76	9510.95
301.826	9503.48
301.892	9509.07
301.959	9511.48
302.025	9510.51
302.092	9501.65
302.158	9513.55
302.224	9514.37
302.291	9502.09
302.357	9499.24
302.423	9498.38
302.49	9490.86
302.556	9504.49
302.622	9505.65
302.688	9520.87
302.755	9539.07
302.821	9548.66
302.887	9562.86
302.954	9564.98
303.02	9571.96
303.086	9580.78
303.152	9577.36
303.219	9574.85
303.285	9581.64
303.351	9592.58
303.417	9591.13
303.483	9586.7
303.55	9577.36
303.616	9577.99
303.682	9577.12
303.748	9568.74
303.815	9579.58
303.881	9581.84
303.947	9568.69
304.013	9569.61
304.079	9557.57
304.145	9535.13
304.212	9525.45
304.278	9508.69
304.344	9502.19
304.41	9492.41
304.476	9483.69
304.542	9484.99
304.608	9496.02
304.674	9474.88
304.741	9466.64
304.807	9469.49
304.873	9469.39
304.939	9483.11
305.005	9461.83
305.071	9463.13
305.137	9463.9
305.203	9442.18
305.269	9441.6
305.335	9449.12
305.401	9443.82
305.467	9443.96
305.533	9455.14
305.599	9474.01
305.666	9484.9
305.732	9486.2
305.798	9493.76
305.864	9511.53
305.93	9513.36
305.996	9499.83
306.062	9502.28
306.128	9493.23
306.194	9479.7
306.259	9479.31
306.325	9470.79
306.391	9484.65
306.457	9491.16
306.523	9500.59
306.589	9520.58
306.655	9515.33
306.721	9499.58
306.787	9494.48
306.853	9508.54
306.919	9492.41
306.985	9474.16
307.051	9464.48
307.117	9453.02
307.183	9445.79
307.248	9417.82
307.314	9422.73
307.38	9430.82
307.446	9439
307.512	9431.49
307.578	9436.16
307.644	9432.12
307.709	9433.66
307.775	9425.62
307.841	9424.37
307.907	9417.96
307.973	9395.18
308.039	9400
308.104	9408.91
308.17	9408.52
308.236	9393.35
308.302	9396.29
308.368	9390.99
308.433	9389.93
308.499	9391.67
308.565	9378.23
308.631	9388.63
308.696	9363.54
308.762	9354.01
308.828	9345.2
308.894	9324.4
308.959	9306.78
309.025	9297.87
309.091	9288.62
309.156	9280.2
309.222	9286.07
309.288	9274.47
309.354	9254.92
309.419	9248.28
309.485	9231.09
309.551	9231.33
309.616	9214.19
309.682	9205.28
309.748	9199.31
309.813	9195.31
309.879	9178.56
309.945	9169.51
310.01	9155.01
310.076	9160.84
310.141	9153.33
310.207	9143.31
310.273	9150.87
310.338	9153.04
310.404	9137.39
310.469	9124.58
310.535	9119.91
310.601	9091.22
310.666	9102.05
310.732	9115.43
310.797	9099.74
310.863	9088.62
310.928	9086.88
310.994	9093.09
311.059	9095.4
311.125	9089.15
311.191	9096.22
311.256	9091.7
311.322	9092.13
311.387	9073.31
311.453	9430
311.518	9403.43
311.584	9400.39
311.649	9400.68
311.715	9387.64
311.78	9387.11
311.846	9376.27
311.911	9376.76
311.976	9382.73
312.042	9361.35
312.107	9347.82
312.173	9344.64
312.238	9337.86
312.304	9330.1
312.369	9320.33
312.434	9307.57
312.5	9302.37
312.565	9270.26
312.631	9274.64
312.696	9272
312.761	9280.23
312.827	8910.01
312.892	8940.34
312.958	8934.71
313.023	8933.41
313.088	8934.23
313.154	8924.5
313.219	8916.61
313.284	8909.05
313.35	8904.72
313.415	8891.77
313.48	8883.59
313.546	8884.31
313.611	8892.78
313.676	8883.2
313.741	8871.6
313.807	8873.48
313.872	8876.22
313.937	8882.62
314.003	8885.61
314.068	8882.72
314.133	8884.84
314.198	8878.77
314.264	8866.06
314.329	8857.69
314.394	8849.6
314.459	8846.18
314.525	8862.98
314.59	8856.24
314.655	8850.85
314.72	8849.99
314.785	8857.11
314.851	8854.94
314.916	8838.34
314.981	8822.84
315.046	8812.44
315.111	8802.24
315.176	8792.66
315.242	8790.69
315.307	8788.23
315.372	8770.37
315.437	8762.77
315.502	8756.27
315.567	8771.82
315.632	8755.36
315.698	8755.98
315.763	8751.6
315.828	8743.04
315.893	8737.55
315.958	8738.22
316.023	8724.02
316.088	8705.35
316.153	8677.58
316.218	8663.05
316.283	8644.67
316.348	8624.89
316.413	8620.27
316.479	8602.9
316.544	8573.64
316.609	8538.56
316.674	8499.4
316.739	8464.23
316.804	8431.17
316.869	8395.37
316.934	8344.31
316.999	8311.98
317.064	8260.45
317.129	8212.25
317.194	8178.86
317.259	8131.22
317.324	8076.01
317.389	8027.86
317.454	7985
317.518	7955.18
317.583	7932.86
317.648	7905.15
317.713	7872.02
317.778	7811.95
317.843	7784.87
317.908	7741.59
317.973	7705.77
318.038	7675.86
318.103	7643.17
318.168	7604.08
318.233	7572.25
318.297	7529.13
318.362	7491.72
318.427	7452.89
318.492	7432.65
318.557	7383.09
318.622	7350.3
318.687	7328.58
318.751	7293.55
318.816	7261.93
318.881	7221.65
318.946	7166.05
319.011	7116.74
319.075	7073.07
319.14	7041.55
319.205	6998.93
319.27	6967.65
319.335	6921.49
319.399	6881.62
319.464	6852.89
319.529	6804.29
319.594	6764.65
319.658	6730.51
319.723	6685.84
319.788	6658.42
319.853	6601.27
319.917	6565.41
319.982	6511.87
320.047	6471.68
320.112	6441.34
320.176	6391.22
320.241	6361.69
320.306	6328.81
320.37	6288.97
320.435	6255.62
320.5	6225.14
320.564	6181.37
320.629	6142.16
320.694	6113.04
320.758	6069.95
320.823	6017.27
320.888	5992.66
320.952	5938.5
321.017	5897.34
321.082	5856.33
321.146	5815.85
321.211	5785.35
321.275	5747.42
321.34	5708.34
321.405	5668.64
321.469	5622.13
321.534	5579.99
321.598	5524.91
321.663	5497.33
321.727	5465.79
321.792	5418.1
321.857	5372.95
321.921	5334.42
321.986	5289.38
322.05	5231.79
322.115	5197.82
322.179	5160.7
322.244	5103.55
322.308	5073.76
322.373	5028.16
322.437	4992.49
322.502	4964.22
322.566	4918.96
322.631	4879.22
322.695	4840.73
322.76	4795.01
322.824	4757.82
322.889	4715.7
322.953	4672.16
323.018	4600.18
323.082	4537.12
323.146	4489.19
323.211	4439.96
323.275	4393.03
323.34	4346.3
323.404	4310.35
323.468	4266.15
323.533	4220.05
323.597	4175.8
323.662	4119.81
323.726	4084.71
323.79	4034.95
323.855	3972.55
323.919	3922.7
323.983	3880.21
324.048	3810.78
324.112	3928.65
324.177	3801.68
324.241	3602.52
324.305	3408.14
324.37	3220.3
324.434	3038.68
324.498	2994.93
324.562	2942.25
324.627	2885.1
324.691	2830.33
324.755	2767.39
324.82	2688.7
324.884	2613.74
324.948	2542.68
325.012	2454.1
325.077	2330.08
