Data from 20250702_urea_0.5M_MAYP1162681_21-25-00-415.txt Node
Date: Wed Jul 02 21:25:00 BST 2025
User: adleo
Spectrometer: MAYP116268
Trigger mode: 0
Integration Time (sec): 1.000000E0
Scans to average: 1
Electric dark correction enabled: true
Nonlinearity correction enabled: true
Boxcar width: 10
XAxis mode: Wavelengths
Number of Pixels in Spectrum: 2068
>>>>>Begin Spectral Data<<<<<
179.565	1229.69
179.642	1290.32
179.718	1334.09
179.795	1371.68
179.871	1406.33
179.948	1423.48
180.024	1444.66
180.101	1466.15
180.177	1480.02
180.254	1504.48
180.33	1527.23
180.407	1584.68
180.483	1682.5
180.56	1775.34
180.636	1860.46
180.712	1848.67
180.789	1857.84
180.865	1867.92
180.942	1873.57
181.018	1885.03
181.095	1900.68
181.171	1905.72
181.248	1904.67
181.324	1920.41
181.4	1927.97
181.477	1938.38
181.553	1949.22
181.63	1968.95
181.706	1987.79
181.782	1995.29
181.859	1992.11
181.935	1996.63
182.011	1990.4
182.088	2005.52
182.164	2022.31
182.24	2036.34
182.317	2045.99
182.393	2047.23
182.469	2064.01
182.546	2079.95
182.622	2084.18
182.698	2075.95
182.775	2089.7
182.851	2100.78
182.927	2094.55
183.003	2091.84
183.08	2087.46
183.156	2100.49
183.232	2095.73
183.308	2081.7
183.385	2090.79
183.461	2109.57
183.537	2113.24
183.613	2126.56
183.69	2116.8
183.766	2105.86
183.842	2114.61
183.918	2120.66
183.995	2135.17
184.071	2138.35
184.147	2130.22
184.223	2117.43
184.299	2131.84
184.375	2119.71
184.452	2128.95
184.528	2181.96
184.604	2190.38
184.68	2201.46
184.756	2209.27
184.832	2216.83
184.908	2223.87
184.985	2223.44
185.061	2205.46
185.137	2214.02
185.213	2203.7
185.289	2207.89
185.365	2200.99
185.441	2199.23
185.517	2211.18
185.593	2205.32
185.669	2202.37
185.745	2213.51
185.822	2231.29
185.898	2223.01
185.974	2231.76
186.05	2223.53
186.126	2184.51
186.202	2177.9
186.278	2172.71
186.354	2163
186.43	2168.38
186.506	2167.81
186.582	2168.62
186.658	2178.51
186.734	2156.58
186.81	2157.91
186.886	2157.91
186.962	2173.33
187.038	2168.81
187.114	2160.81
187.19	2169.99
187.266	2159.43
187.341	2162.48
187.417	2154.68
187.493	2156.87
187.569	2160.05
187.645	2155.63
187.721	2144.92
187.797	2155.96
187.873	2160.29
187.949	2153.82
188.025	2145.59
188.101	2145.73
188.176	2149.68
188.252	2141.59
188.328	2152.05
188.404	2152.77
188.48	2149.44
188.556	2142.83
188.632	2142.11
188.707	2141.45
188.783	2137.69
188.859	2133.45
188.935	2119.75
189.011	2126.08
189.086	2118.04
189.162	2110.24
189.238	2108.05
189.314	2106.48
189.39	2099.44
189.465	2092.3
189.541	2107.29
189.617	2094.54
189.693	2090.12
189.768	2092.55
189.844	2119.24
189.92	2108.11
189.996	2117.82
190.071	2129.62
190.147	2124.43
190.223	2133.23
190.298	2128.24
190.374	2113.63
190.45	2126.81
190.526	2135.8
190.601	2131.99
190.677	2132.66
190.753	2160.89
190.828	2162.79
190.904	2176.64
190.98	2190.48
191.055	2200.62
191.131	2192.05
191.207	2214.08
191.282	2222.83
191.358	2215.55
191.433	2201.75
191.509	2214.97
191.585	2212.02
191.66	2212.02
191.736	2220.96
191.811	2213.44
191.887	2227.72
191.963	2253.99
192.038	2258.84
192.114	2260.6
192.189	2266.64
192.265	2264.55
192.34	2241.32
192.416	2241.56
192.491	2237.41
192.567	2240.46
192.642	2243.89
192.718	2246.84
192.793	2230.99
192.869	2225.62
192.944	2225.86
193.02	2232.95
193.095	2239.42
193.171	2241.7
193.246	2240.84
193.322	2237.85
193.397	2236.37
193.473	2221.71
193.548	2199.68
193.624	2206.82
193.699	2204.11
193.775	2219.34
193.85	2220.91
193.925	2229.71
194.001	2227.81
194.076	2219.82
194.152	2209.06
194.227	2202.16
194.302	2190.32
194.378	2196.55
194.453	2196.12
194.529	2208.3
194.604	2194.88
194.679	2187.41
194.755	2171.95
194.83	2185.23
194.905	2186
194.981	2195.32
195.056	2189.47
195.131	2195.94
195.207	2191.56
195.282	2183.43
195.357	2162.77
195.433	2176.04
195.508	2162.24
195.583	2171.24
195.659	2187.04
195.734	2195.79
195.809	2195.08
195.884	2206.54
195.96	2206.49
196.035	2220.96
196.11	2216.96
196.185	2229.09
196.261	2231.47
196.336	2260.35
196.411	2246.12
196.486	2249.07
196.561	2245.88
196.637	2253.4
196.712	2271.73
196.787	2275.15
196.862	2289.29
196.937	2300.28
197.013	2304.66
197.088	2317.31
197.163	2338.79
197.238	2353.69
197.313	2354.65
197.388	2367.16
197.464	2397.16
197.539	2408.4
197.614	2401.83
197.689	2416.92
197.764	2433.06
197.839	2456.06
197.914	2452.06
197.989	2474.19
198.065	2489
198.14	2536.55
198.215	2564.5
198.29	2575.6
198.365	2587.36
198.44	2598.27
198.515	2624.42
198.59	2644.18
198.665	2671.86
198.74	2679.77
198.815	2681.53
198.89	2703.54
198.965	2735.23
199.04	2729.18
199.115	2748.04
199.19	2791.77
199.265	2793.49
199.34	2800.3
199.415	2834.68
199.49	2855.5
199.565	2865.74
199.64	2891.19
199.715	2891.72
199.79	2899.82
199.865	2907.64
199.94	2905.68
200.015	2937.57
200.09	2943.39
200.165	2946.97
200.24	2952.02
200.315	2996.25
200.39	3011.65
200.464	3016.23
200.539	3019.04
200.614	3037.35
200.689	3059.81
200.764	3065.29
200.839	3087.93
200.914	3094.27
200.989	3082.82
201.063	3097.51
201.138	3083.5
201.213	3083.59
201.288	3060.09
201.363	3064.62
201.438	3064.47
201.512	3083.35
201.587	3066.04
201.662	3071.71
201.737	3084.39
201.812	3093.26
201.886	3056.28
201.961	3065.05
202.036	3055.76
202.111	3049.99
202.186	3019.64
202.26	3001.99
202.335	2982.49
202.41	2971
202.485	2956.03
202.559	2935.3
202.634	2905.65
202.709	2914.56
202.784	2895.64
202.858	2896.3
202.933	2878.24
203.008	2869.33
203.082	2848.88
203.157	2849.45
203.232	2805.58
203.306	2784.17
203.381	2750.38
203.456	2724.65
203.53	2701.62
203.605	2680.47
203.68	2659.55
203.754	2654.51
203.829	2638.45
203.904	2616.2
203.978	2605.34
204.053	2609.39
204.127	2596.39
204.202	2600.25
204.277	2580.43
204.351	2570.48
204.426	2563.48
204.5	2553.38
204.575	2519.2
204.65	2529.39
204.724	2517.1
204.799	2526.24
204.873	2521.66
204.948	2523.09
205.022	2513.52
205.097	2506.28
205.171	2517.85
205.246	2524.52
205.32	2520.95
205.395	2520.67
205.469	2514.53
205.544	2519.34
205.618	2501.62
205.693	2513.96
205.767	2499.96
205.842	2520.91
205.916	2518.34
205.991	2509.2
206.065	2515.2
206.14	2528.14
206.214	2525.38
206.289	2520.04
206.363	2533.09
206.438	2540.19
206.512	2548.62
206.586	2573.24
206.661	2583.01
206.735	2565.4
206.81	2570.21
206.884	2587.87
206.958	2577.02
207.033	2592.97
207.107	2603.78
207.181	2638.85
207.256	2636.47
207.33	2657.24
207.405	2672.63
207.479	2694.55
207.553	2703.83
207.628	2689.84
207.702	2706.74
207.776	2705.07
207.851	2714.36
207.925	2732.95
207.999	2732.81
208.073	2734.33
208.148	2738.86
208.222	2733.71
208.296	2772.72
208.371	2793.47
208.445	2813.68
208.519	2854.75
208.593	2879.87
208.668	2888.21
208.742	2903.05
208.816	2920.35
208.89	2952.31
208.965	2969.06
209.039	2996.01
209.113	3035.34
209.187	3079.13
209.261	3100.92
209.336	3145.52
209.41	3193.75
209.484	3224.39
209.558	3278.79
209.632	3324.06
209.707	3370.83
209.781	3431.49
209.855	3482.67
209.929	3540.58
210.003	3592.06
210.077	3633.22
210.151	3730.64
210.226	3816
210.3	3896.81
210.374	3972.81
210.448	4034.48
210.522	4105.01
210.596	4176.3
210.67	4250.17
210.744	4364.59
210.818	4466
210.892	4557.44
210.966	4627.68
211.041	4716.64
211.115	4789.72
211.189	4895.99
211.263	4992.95
211.337	5082.69
211.411	5190.35
211.485	5276.81
211.559	5377.66
211.633	5473.07
211.707	5534.12
211.781	5637.3
211.855	5702.82
211.929	5797.5
212.003	5882.85
212.077	6000.32
212.151	6122.17
212.225	6242.96
212.299	6346.55
212.373	6449.32
212.447	6557.42
212.52	6703.17
212.594	6827.57
212.668	6957.11
212.742	7061.79
212.816	7176.63
212.89	7295.32
212.964	7412.43
213.038	7539.7
213.112	7682.26
213.186	7825.47
213.26	7932.44
213.333	8018.34
213.407	8154.43
213.481	8282.7
213.555	8423.91
213.629	8541.53
213.703	8651.93
213.777	8781.26
213.85	8892.27
213.924	9052.48
213.998	9178.56
214.072	9305.36
214.146	9420.54
214.219	9551.72
214.293	9672.81
214.367	9808.87
214.441	9949.27
214.515	10069.55
214.588	10175.77
214.662	10269.08
214.736	10378
214.81	10515.53
214.883	10653.21
214.957	10764.07
215.031	10882.93
215.105	10983
215.178	11091.19
215.252	11211.76
215.326	11312.43
215.4	11413.25
215.473	11489.26
215.547	11604.01
215.621	11709.91
215.694	11836.63
215.768	11925.5
215.842	12044.32
215.915	12151.61
215.989	12233.89
216.063	12339.6
216.136	12451.97
216.21	12556.03
216.284	12671.67
216.357	12782.59
216.431	12883.44
216.504	12998.12
216.578	13126.63
216.652	13248.01
216.725	13356.38
216.799	13470.29
216.873	13575.81
216.946	13686.39
217.02	13783
217.093	13874.83
217.167	13951.43
217.24	14040.56
217.314	14141.79
217.387	14229.34
217.461	14311.67
217.535	14426.49
217.608	14507.62
217.682	14592.51
217.755	14690.03
217.829	14775.5
217.902	14865.73
217.976	14952.45
218.049	15031.99
218.123	15107.09
218.196	15199.4
218.27	15281.1
218.343	15348.15
218.417	15435.44
218.49	15514.44
218.563	15614.22
218.637	15697.12
218.71	15804.36
218.784	15886.4
218.857	15977.59
218.931	16049.22
219.004	16128.99
219.077	16214.01
219.151	16299.32
219.224	16381.45
219.298	16471.77
219.371	16567.58
219.444	16634.72
219.518	16720.22
219.591	16794.68
219.665	16894.54
219.738	16967.12
219.811	17022.88
219.885	17099.51
219.958	17167.9
220.031	17242.94
220.105	17306.12
220.178	17374.75
220.251	17422.27
220.325	17489.16
220.398	17556.72
220.471	17637.54
220.544	17710.8
220.618	17763.08
220.691	17823.9
220.764	17887.08
220.838	17950.94
220.911	18002.31
220.984	18074.93
221.057	18131.89
221.131	18201.14
221.204	18227.5
221.277	18306.63
221.35	18404.65
221.424	18470.82
221.497	18530.91
221.57	18585.08
221.643	18648.25
221.716	18708.92
221.79	18758.13
221.863	18807.62
221.936	18857.2
222.009	18905.59
222.082	18957.73
222.155	18990.59
222.229	19053.63
222.302	19105.09
222.375	19139.16
222.448	19185.09
222.521	19237.62
222.594	19276.7
222.667	19305.03
222.74	19362.67
222.814	19395.68
222.887	19423.92
222.96	19463.48
223.033	19515.34
223.106	19555.96
223.179	19604.2
223.252	19637.21
223.325	19677.78
223.398	19713.88
223.471	19753.88
223.544	19795.8
223.617	19836.43
223.69	19888.47
223.763	19911.56
223.837	19949.53
223.91	19999.02
223.983	20023.12
224.056	20029.53
224.129	20066.39
224.202	20108.27
224.275	20119.16
224.348	20132.7
224.42	20143.89
224.493	20150.29
224.566	20159.6
224.639	20187.35
224.712	20200.7
224.785	20226.63
224.858	20243.93
224.931	20267.45
225.004	20272.94
225.077	20291.45
225.15	20286.15
225.223	20306.39
225.296	20350.15
225.369	20353.96
225.442	20364.99
225.514	20388.41
225.587	20418.87
225.66	20443.98
225.733	20467.55
225.806	20492.8
225.879	20514.53
225.952	20527.74
226.025	20561.67
226.097	20595.26
226.17	20619.26
226.243	20623.16
226.316	20641.43
226.389	20659.55
226.461	20667.45
226.534	20688.99
226.607	20707.12
226.68	20745.77
226.753	20758.97
226.825	20745.38
226.898	20770.2
226.971	20774.63
227.044	20787.6
227.117	20803.74
227.189	20813.62
227.262	20829.87
227.335	20857.1
227.407	20860.37
227.48	20880.52
227.553	20891.03
227.626	20896.47
227.698	20901.68
227.771	20918.26
227.844	20917.44
227.916	20933.39
227.989	20934.45
228.062	20935.85
228.134	20951.08
228.207	20949.82
228.28	20944.62
228.352	20955.46
228.425	20966.31
228.498	20984.28
228.57	20976.24
228.643	20991.51
228.716	20996.82
228.788	20995.66
228.861	20988.77
228.934	21008
229.006	21009.97
229.079	21009.78
229.151	21003.08
229.224	20990.98
229.296	21002.5
229.369	21038.46
229.442	21053.59
229.514	21059.81
229.587	21080.05
229.659	21069.69
229.732	21081.4
229.804	21100.97
229.877	21126.46
229.949	21146.8
230.022	21176.06
230.094	21187.92
230.167	21189.94
230.239	21185.56
230.312	21185.22
230.384	21214.19
230.457	21217.42
230.529	21228.79
230.602	21241.56
230.674	21256.31
230.747	21278.14
230.819	21274.43
230.892	21231.1
230.964	21242.77
231.037	21247.2
231.109	21253.47
231.181	21263.11
231.254	21248.26
231.326	21244.16
231.399	21237.13
231.471	21217.03
231.544	21179.1
231.616	21182.86
231.688	21183.29
231.761	21176.73
231.833	21173.7
231.905	21138.37
231.978	21136.39
232.05	21126.13
232.122	21126.03
232.195	21106.22
232.267	21117.5
232.339	21117.4
232.412	21138.47
232.484	21126.95
232.556	21111.04
232.629	21122.75
232.701	21117.16
232.773	21112.54
232.846	21100.44
232.918	21092.44
232.99	21087.62
233.062	21093.31
233.135	21088.34
233.207	21076.63
233.279	21078.08
233.351	21069.93
233.424	21056.48
233.496	21028.43
233.568	21028.72
233.64	20992.24
233.713	20986.94
233.785	20963.18
233.857	20949.15
233.929	20914.69
234.001	20906.55
234.074	20909.1
234.146	20870.3
234.218	20852.37
234.29	20831.17
234.362	20803.46
234.434	20773.19
234.507	20746.15
234.579	20709.19
234.651	20687.65
234.723	20664.95
234.795	20642.54
234.867	20631.16
234.939	20625.19
235.012	20613.43
235.084	20599.16
235.156	20592.94
235.228	20558.25
235.3	20529.14
235.372	20507.55
235.444	20501.18
235.516	20453.76
235.588	20430.87
235.66	20409.28
235.732	20383.69
235.804	20432.99
235.876	20428.85
235.948	20422.63
236.02	20388.85
236.092	20363.07
236.164	20337.28
236.236	20309.72
236.308	20292.66
236.38	20265.67
236.452	20235.74
236.524	20212.71
236.596	20202.88
236.668	20184.13
236.74	20165
236.812	20148.9
236.884	20138.25
236.956	20113.05
237.028	20090.11
237.1	20065.82
237.172	20052.71
237.244	20052.18
237.316	19978.59
237.388	19943.46
237.46	19906.59
237.532	19909.82
237.604	19883.51
237.675	19878.3
237.747	19862.64
237.819	19824.96
237.891	19796.43
237.963	19764.96
238.035	19726.36
238.107	19656.72
238.178	19641.21
238.25	19604.29
238.322	19596.2
238.394	19541.98
238.466	19514.27
238.538	19485.41
238.609	19458.52
238.681	19416.21
238.753	19365.51
238.825	19331.78
238.897	19301.76
238.968	19284.17
239.04	19246.39
239.112	19248.75
239.184	19199.93
239.255	19156.99
239.327	19125.91
239.399	19102.73
239.471	19088.13
239.542	19067.26
239.614	19058.93
239.686	18997.68
239.758	18986.79
239.829	18942.5
239.901	18933.73
239.973	18907.56
240.044	18876.19
240.116	18841.69
240.188	18803.91
240.259	18782.51
240.331	18744.06
240.403	18731.19
240.474	18686.71
240.546	18641.46
240.618	18586.57
240.689	18553.03
240.761	18524.45
240.833	18510.53
240.904	18472.65
240.976	18432.22
241.048	18407.93
241.119	18374.82
241.191	18359.98
241.262	18339.26
241.334	18304.13
241.405	18257.77
241.477	18211.99
241.549	18178.11
241.62	18150.59
241.692	18132.76
241.763	18100.04
241.835	18074.6
241.906	18037.35
241.978	17986.89
242.049	17976.43
242.121	17956.77
242.192	17934.79
242.264	17894.07
242.335	17845.16
242.407	17823.95
242.478	17793.54
242.55	17760.53
242.621	17730.51
242.693	17686.94
242.764	17653.26
242.836	17606.42
242.907	17583.43
242.979	17566.75
243.05	17545.89
243.122	17514.51
243.193	17475.38
243.264	17418.51
243.336	17384.39
243.407	17354.56
243.479	17351.62
243.55	17313.21
243.622	17286.13
243.693	17255.72
243.764	17240.63
243.836	17192.53
243.907	17143.86
243.978	17098.85
244.05	17068.34
244.121	17016.87
244.192	16995.28
244.264	16944.38
244.335	16920.86
244.407	16868.72
244.478	16831.03
244.549	16798.26
244.62	16755.51
244.692	16720.66
244.763	16711.74
244.834	16677
244.906	16633.57
244.977	16605.23
245.048	16590.44
245.119	16549.81
245.191	16501.9
245.262	16438.42
245.333	16429.8
245.405	16402.52
245.476	16376.15
245.547	16338.7
245.618	16320.15
245.689	16291.57
245.761	16262.99
245.832	16224.67
245.903	16211.08
245.974	16185.63
246.045	16148.66
246.117	16130.83
246.188	16090
246.259	16043.68
246.33	16013.32
246.401	15981.8
246.473	15930.03
246.544	15881.06
246.615	15851.37
246.686	15814.55
246.757	15799.99
246.828	15752.95
246.899	15729.81
246.97	15684.6
247.042	15654.14
247.113	15631.14
247.184	15620.49
247.255	15575.71
247.326	15550.99
247.397	15516.09
247.468	15485.14
247.539	15453.67
247.61	15408.7
247.681	15387.01
247.752	15366.37
247.823	15320.44
247.894	15290.55
247.965	15245.63
248.037	15216.9
248.108	15174.67
248.179	15140.84
248.25	15108.49
248.321	15092.25
248.392	15059.23
248.463	15052.91
248.534	15017.15
248.605	14993.43
248.675	14955.16
248.746	14940.26
248.817	14917.9
248.888	14892.11
248.959	14843.28
249.03	14822.21
249.101	14797.58
249.172	14762.73
249.243	14708.5
249.314	14701.17
249.385	14673.21
249.456	14655.28
249.527	14620.72
249.598	14603.85
249.669	14588.37
249.739	14568.08
249.81	14541.57
249.881	14495.14
249.952	14469.21
250.023	14446.36
250.094	14399.41
250.165	14357.62
250.235	14333.8
250.306	14308.16
250.377	14268.49
250.448	14249.68
250.519	14201.48
250.59	14194.97
250.66	14175.93
250.731	14179.35
250.802	14144.84
250.873	14133.85
250.944	14110.9
251.014	14082.41
251.085	14071.47
251.156	14050.11
251.227	14040.81
251.297	14032.71
251.368	14026.68
251.439	14008.03
251.51	13994.58
251.58	13962.14
251.651	13933.12
251.722	13915.71
251.792	13869.58
251.863	13841.33
251.934	13823.88
252.005	13827.83
252.075	13795.29
252.146	13776.4
252.217	13762.03
252.287	13749.06
252.358	13714.93
252.429	13708.28
252.499	13679.55
252.57	13657.23
252.641	13639.68
252.711	13612.93
252.782	13574.07
252.852	13571.42
252.923	13545.87
252.994	13523.12
253.064	13510.73
253.135	13481.13
253.205	13452.5
253.276	13444.4
253.347	13445.65
253.417	13414.85
253.488	13388.09
253.558	13360.23
253.629	13333.19
253.699	13308.94
253.77	13290.62
253.841	13267.24
253.911	13246.9
253.982	13227.32
254.052	13215.32
254.123	13193.77
254.193	13168.03
254.264	13179.31
254.334	13136.74
254.405	13099.29
254.475	13057.4
254.546	13031.66
254.616	13022.79
254.687	13001.29
254.757	12986.15
254.827	12956.5
254.898	12945.56
254.968	12918.18
255.039	12889.4
255.109	12879.28
255.18	12843.17
255.25	12801.76
255.321	12780.36
255.391	12746.23
255.461	12737.65
255.532	12689.78
255.602	12660.86
255.673	12617.28
255.743	12581.99
255.813	12542.8
255.884	12537.74
255.954	12525.11
256.024	12522.61
256.095	12501.78
256.165	12471.12
256.235	12456.04
256.306	12425.33
256.376	12410.68
256.446	12397.66
256.517	12386.24
256.587	12367.19
256.657	12355.29
256.728	12338.03
256.798	12319.47
256.868	12292.05
256.938	12267.7
257.009	12252.52
257.079	12242.44
257.149	12254.01
257.219	12214.68
257.29	12197.47
257.36	12156.4
257.43	12155.92
257.5	12114.66
257.571	12089.84
257.641	12080.73
257.711	12054.17
257.781	12051.32
257.852	12033.83
257.922	11998.78
257.992	11976.61
258.062	11959.06
258.132	11945.57
258.202	11925.37
258.273	11905.71
258.343	11916.07
258.413	11888.79
258.483	11872.79
258.553	11842.28
258.623	11813.69
258.693	11797.88
258.764	11801.69
258.834	11798.99
258.904	11776.05
258.974	11747.37
259.044	11731.18
259.114	11711.85
259.184	11692.62
259.254	11663.17
259.324	11629.24
259.394	11622.39
259.464	11626.01
259.535	11600.9
259.605	11575.78
259.675	11554.1
259.745	11549.04
259.815	11511.83
259.885	11488.5
259.955	11500.65
260.025	11469.47
260.095	11454.62
260.165	11446.33
260.235	11440.11
260.305	11411.25
260.375	11383.2
260.445	11402.23
260.515	11396.5
260.585	11395.53
260.655	11377.27
260.725	11378.23
260.795	11370.23
260.865	11373.46
260.934	11339.24
261.004	11336.78
261.074	11316.69
261.144	11311.87
261.214	11300.4
261.284	11280.35
261.354	11275.67
261.424	11243.38
261.494	11256.68
261.564	11236.73
261.634	11228.63
261.703	11194.42
261.773	11189.6
261.843	11176.49
261.913	11151.91
261.983	11118.08
262.053	11108.01
262.123	11089.79
262.192	11059.62
262.262	11052.25
262.332	11007.92
262.402	11005.94
262.472	10991.77
262.541	10959.2
262.611	10954.38
262.681	10928.21
262.751	10924.79
262.821	10914.24
262.89	10884.02
262.96	10866.77
263.03	10873.03
263.1	10854.77
263.169	10835.5
263.239	10824.41
263.309	10828.22
263.379	10812.99
263.448	10803.26
263.518	10781.77
263.588	10761.24
263.657	10764.47
263.727	10758.59
263.797	10748.57
263.867	10725.29
263.936	10695.03
264.006	10692.62
264.076	10675.47
264.145	10660.53
264.215	10639.52
264.285	10630.47
264.354	10597.22
264.424	10571.06
264.494	10531.84
264.563	10510.59
264.633	10515.41
264.702	10505.09
264.772	10473.63
264.842	10459.75
264.911	10447.95
264.981	10426.46
265.05	10417.74
265.12	10394.81
265.19	10378.09
265.259	10374.62
265.329	10368.88
265.398	10352.55
265.468	10368.69
265.537	10338.68
265.607	10322.35
265.676	10319.98
265.746	10308.76
265.815	10310.3
265.885	10295.99
265.955	10276.24
266.024	10262.51
266.094	10230.38
266.163	10227.2
266.232	10229.61
266.302	10209.81
266.371	10199.4
266.441	10184.08
266.51	10183.22
266.58	10172.18
266.649	10150.02
266.719	10149.15
266.788	10138.65
266.858	10142.46
266.927	10099.29
266.996	10096.84
267.066	10103
267.135	10073.09
267.205	10063.31
267.274	10052.37
267.343	10056.32
267.413	10050.5
267.482	10049.92
267.552	10050.06
267.621	10024.24
267.69	9991.68
267.76	9981.8
267.829	9976.51
267.898	9964.85
267.968	9934.65
268.037	9921.02
268.106	9920.68
268.176	9892.64
268.245	9880.41
268.314	9857.77
268.384	9858.88
268.453	9848.09
268.522	9825.3
268.592	9830.26
268.661	9812.44
268.73	9807.34
268.799	9780.85
268.869	9786.53
268.938	9759.22
269.007	9739.71
269.076	9725.22
269.146	9727.86
269.215	9725.89
269.284	9732.87
269.353	9717.99
269.422	9704.51
269.492	9691.17
269.561	9647.92
269.63	9644.84
269.699	9625.09
269.768	9621.91
269.838	9617.82
269.907	9613.44
269.976	9590.8
270.045	9555.02
270.114	9547.03
270.183	9535.81
270.253	9532.39
270.322	9496.08
270.391	9485.1
270.46	9492.8
270.529	9489.43
270.598	9484.42
270.667	9463.76
270.736	9440.65
270.806	9434.48
270.875	9438.91
270.944	9421.34
271.013	9447.82
271.082	9441.66
271.151	9438.48
271.22	9408.86
271.289	9390.57
271.358	9377.13
271.427	9374.43
271.496	9365.09
271.565	9352.43
271.634	9341.02
271.703	9369.77
271.772	9377.43
271.841	9360.86
271.91	9339.48
271.979	9332.21
272.048	9305.97
272.117	9309.34
272.186	9289.74
272.255	9287.62
272.324	9282.9
272.393	9278.52
272.462	9263.74
272.531	9252.47
272.6	9238.02
272.669	9241.59
272.738	9231.81
272.807	9228.97
272.876	9206.35
272.945	9234.32
273.013	9233.98
273.082	9237.16
273.151	9189.1
273.22	9185.54
273.289	9181.45
273.358	9186.21
273.427	9176.49
273.496	9179.04
273.564	9176.82
273.633	9172.73
273.702	9151.07
273.771	9141.05
273.84	9137.78
273.909	9124.78
273.977	9116.16
274.046	9109.27
274.115	9115.49
274.184	9098.78
274.253	9093.29
274.322	9101.86
274.39	9070.42
274.459	9056.56
274.528	9024.78
274.597	9021.61
274.665	9013.95
274.734	9021.36
274.803	9010.58
274.872	9003.79
274.94	8984.68
275.009	9036.07
275.078	9024.86
275.147	9027.36
275.215	9020.91
275.284	9023.36
275.353	9021.1
275.421	8999.2
275.49	9008.78
275.559	8993.04
275.627	8991.26
275.696	8982.59
275.765	8985.43
275.833	8977.49
275.902	8974.65
275.971	8991.45
276.039	9001.65
276.108	9001.85
276.177	8993.76
276.245	8978.11
276.314	8975.37
276.383	8982.83
276.451	8915.98
276.52	8918.82
276.588	8925.32
276.657	8936.49
276.725	8932.26
276.794	8927.3
276.863	8938.66
276.931	8917.33
277	8927.2
277.068	8939.23
277.137	8952.04
277.205	8949.73
277.274	8967.2
277.342	8974.33
277.411	8950.69
277.48	8941.55
277.548	8932.69
277.617	8941.59
277.685	8944.1
277.754	8943.18
277.822	8933.89
277.89	8948.72
277.959	8941.36
278.027	8924.89
278.096	8906.75
278.164	8926.34
278.233	8919.89
278.301	8907.76
278.37	8909.01
278.438	8892.07
278.507	8891.97
278.575	8863.57
278.643	8854.47
278.712	8836.81
278.78	8822.94
278.849	8832.76
278.917	8837.48
278.985	8831.94
279.054	8829.25
279.122	8833.24
279.191	8833.15
279.259	8827.03
279.327	8801.18
279.396	8819.19
279.464	8812.74
279.532	8822.03
279.601	8819.72
279.669	8818.08
279.737	8834.97
279.806	8843.54
279.874	8844.31
279.942	8833.44
280.011	8828.33
280.079	8840.56
280.147	8853.51
280.215	8862.32
280.284	8852.4
280.352	8838.83
280.42	8850.24
280.488	8835.27
280.557	8824.97
280.625	8828.77
280.693	8830.12
280.761	8832.96
280.83	8813.03
280.898	8829.73
280.966	8809.47
281.034	8777.31
281.102	8762.2
281.171	8754.83
281.239	8756.28
281.307	8756.95
281.375	8748.43
281.443	8771.97
281.512	8767.39
281.58	8775.14
281.648	8753.25
281.716	8762.92
281.784	8763.06
281.852	8756.76
281.92	8761.81
281.989	8777.31
282.057	8755.65
282.125	8806.88
282.193	8803.94
282.261	8802.21
282.329	8791.43
282.397	8798.69
282.465	8801.01
282.533	8822.86
282.601	8811.98
282.67	8788.63
282.738	8777.28
282.806	8791.71
282.874	8782.57
282.942	8782.04
283.01	8778.52
283.078	8789.35
283.146	8778.43
283.214	8790.13
283.282	8789.69
283.35	8799.32
283.418	8790.65
283.486	8796.91
283.554	8748.28
283.622	8748.62
283.69	8749.49
283.758	8746.12
283.826	8745.68
283.894	8759.11
283.962	8764.99
284.03	8782.12
284.098	8783.18
284.165	8777.02
284.233	8776.25
284.301	8765.57
284.369	8757.24
284.437	8742.75
284.505	8736.73
284.573	8751.32
284.641	8733.65
284.709	8737.6
284.777	8718.1
284.845	8725.18
284.912	8729.37
284.98	8733.56
285.048	8725.28
285.116	8728.07
285.184	8741.5
285.252	8740.97
285.319	8722.68
285.387	8717.86
285.455	8699.24
285.523	8712.28
285.591	8715.36
285.659	8717.24
285.726	8734.85
285.794	8718.06
285.862	8718.35
285.93	8720.32
285.997	8716.9
286.065	8715.65
286.133	8705.3
286.201	8708
286.269	8688.94
286.336	8680.9
286.404	8677.63
286.472	8695.05
286.539	8677.97
286.607	8663.29
286.675	8666.27
286.743	8669.64
286.81	8663.96
286.878	8673.92
286.946	8661.84
287.013	8660.69
287.081	8657.12
287.149	8638.35
287.216	8663.23
287.284	8657.99
287.352	8652.45
287.419	8650
287.487	8665.98
287.555	8674.31
287.622	8669.21
287.69	8682.44
287.758	8696.78
287.825	8685.91
287.893	8668.77
287.96	8676.76
288.028	8691.25
288.096	8692.88
288.163	8700.01
288.231	8687.35
288.298	8688.46
288.366	8706.03
288.433	8702.13
288.501	8692.84
288.569	8695.24
288.636	8684.27
288.704	8697.22
288.771	8706.41
288.839	8699.67
288.906	8690.91
288.974	8700.49
289.041	8698.28
289.109	8686
289.176	8690.05
289.244	8700.49
289.311	8715.99
289.379	8726.14
289.446	8730.62
289.514	8726.53
289.581	8724.99
289.649	8729.9
289.716	8735.63
289.783	8728.89
289.851	8749.77
289.918	8749.77
289.986	8762.96
290.053	8768.98
290.121	8763.68
290.188	8766.38
290.255	8784.04
290.323	8778.22
290.39	8770.04
290.458	8777.98
290.525	8794.73
290.592	8790.68
290.66	8787.8
290.727	8782.07
290.794	8787.56
290.862	8782.98
290.929	8791.55
290.996	8789.67
291.064	8803.39
291.131	8813.31
291.198	8823.13
291.266	8819.28
291.333	8821.78
291.4	8829.92
291.468	8845.85
291.535	8841.04
291.602	8853.07
291.669	8857.11
291.737	8860.68
291.804	8861.16
291.871	8883.59
291.938	8887.2
292.006	8916.71
292.073	8930.86
292.14	8942.56
292.207	8936.4
292.275	8937.22
292.342	8948.15
292.409	8971.4
292.476	8991.81
292.543	8982.09
292.611	8978.86
292.678	9001.83
292.745	9028.25
292.812	9034.66
292.879	9033.55
292.946	9045
293.014	9050.73
293.081	9060.56
293.148	9075.86
293.215	9094.59
293.282	9079.81
293.349	9091.46
293.416	9070.42
293.484	9086.02
293.551	9095.02
293.618	9116.83
293.685	9141
293.752	9129.3
293.819	9129.25
293.886	9112.69
293.953	9121.98
294.02	9135.61
294.087	9144.32
294.154	9135.9
294.221	9150.05
294.288	9150.1
294.356	9170.42
294.423	9176.58
294.49	9166.81
294.557	9180.53
294.624	9170.37
294.691	9192.08
294.758	9188.62
294.825	9200.46
294.892	9191.6
294.959	9187.94
295.026	9196.32
295.093	9184.86
295.16	9190.49
295.226	9197.23
295.293	9220.59
295.36	9223.19
295.427	9233.2
295.494	9239.27
295.561	9251.02
295.628	9272.69
295.695	9286.61
295.762	9282.9
295.829	9293.11
295.896	9308.37
295.963	9312.37
296.03	9322.04
296.096	9327.68
296.163	9343.86
296.23	9359.75
296.297	9370.2
296.364	9374.39
296.431	9380.89
296.498	9379.3
296.564	9406.36
296.631	9406.74
296.698	9395.57
296.765	9414.25
296.832	9401.45
296.899	9392.15
296.965	9406.79
297.032	9382.42
297.099	9397.74
297.166	9406.88
297.233	9397.83
297.299	9394.51
297.366	9400.58
297.433	9398.55
297.5	9406.02
297.566	9399.08
297.633	9391.76
297.7	9398.6
297.767	9397.98
297.833	9404.67
297.9	9406.84
297.967	9389.36
298.033	9400.96
298.1	9430.39
298.167	9421.19
298.234	9435.44
298.3	9442.52
298.367	9435.93
298.434	9447.15
298.5	9441.94
298.567	9440.5
298.634	9437.42
298.7	9455.04
298.767	9456.68
298.834	9477.63
298.9	9472.09
298.967	9467.95
299.033	9478.25
299.1	9497.28
299.167	9505.08
299.233	9501.03
299.3	9516.39
299.366	9532.96
299.433	9550.06
299.5	9520.82
299.566	9521.35
299.633	9526.94
299.699	9541.87
299.766	9546.97
299.832	9546.49
299.899	9554.97
299.965	9563.16
300.032	9570.57
300.099	9576.83
300.165	9583.77
300.232	9577.27
300.298	9584.2
300.365	9598.65
300.431	9599.66
300.498	9590.51
300.564	9599.13
300.631	9606.64
300.697	9615.79
300.763	9615.74
300.83	9610.4
300.896	9630
300.963	9645.74
301.029	9657.01
301.096	9656
301.162	9661.93
301.229	9665.35
301.295	9650.56
301.361	9658.99
301.428	9659.9
301.494	9642.23
301.561	9640.3
301.627	9648.83
301.693	9652.15
301.76	9650.95
301.826	9646.71
301.892	9660.34
301.959	9672.52
302.025	9670.02
302.092	9674.31
302.158	9682.73
302.224	9684.95
302.291	9670.55
302.357	9666.84
302.423	9665.98
302.49	9654.95
302.556	9670.12
302.622	9667.33
302.688	9679.7
302.755	9689.43
302.821	9702.92
302.887	9714.09
302.954	9720.74
303.02	9726.37
303.086	9726.42
303.152	9734.46
303.219	9729.41
303.285	9730.56
303.351	9738.89
303.417	9741.78
303.483	9727.58
303.55	9723.53
303.616	9725.12
303.682	9731.04
303.748	9725.41
303.815	9733.45
303.881	9747.95
303.947	9741.01
304.013	9744.96
304.079	9738.65
304.145	9721.75
304.212	9714.19
304.278	9708.65
304.344	9702.1
304.41	9685.82
304.476	9682.3
304.542	9672.09
304.608	9684.62
304.674	9662.7
304.741	9653.02
304.807	9650.08
304.873	9656.97
304.939	9667.56
305.005	9644.5
305.071	9637.56
305.137	9642.04
305.203	9619.35
305.269	9614.54
305.335	9615.07
305.401	9605.34
305.467	9603.27
305.533	9601
305.599	9610.88
305.666	9619.21
305.732	9615.84
305.798	9631.83
305.864	9650.13
305.93	9653.65
305.996	9650.9
306.062	9651.86
306.128	9650.52
306.194	9640.07
306.259	9639.63
306.325	9626.92
306.391	9640.16
306.457	9654.56
306.523	9652.3
306.589	9675.46
306.655	9661.98
306.721	9640.21
306.787	9635.59
306.853	9646.47
306.919	9633.37
306.985	9623.6
307.051	9615.89
307.117	9610.55
307.183	9606.98
307.248	9583.24
307.314	9588.53
307.38	9589.83
307.446	9597.3
307.512	9582.56
307.578	9591.18
307.644	9581.84
307.709	9583.43
307.775	9573.85
307.841	9566.57
307.907	9568.21
307.973	9540.04
308.039	9548.42
308.104	9556.7
308.17	9551.02
308.236	9533.29
308.302	9546.2
308.368	9536.13
308.433	9532.81
308.499	9524.96
308.565	9506.28
308.631	9508.3
308.696	9482.54
308.762	9468.18
308.828	9466.16
308.894	9449.07
308.959	9423.02
309.025	9411.46
309.091	9402.5
309.156	9402.36
309.222	9404.82
309.288	9391.91
309.354	9378.52
309.419	9377.37
309.485	9363.36
309.551	9370.72
309.616	9362.34
309.682	9355.51
309.748	9345.83
309.813	9340.97
309.879	9333.98
309.945	9324.55
310.01	9317.76
310.076	9324.26
310.141	9317.71
310.207	9299.26
310.273	9300.52
310.338	9304.99
310.404	9293.15
310.469	9290.89
310.535	9277.74
310.601	9252.12
310.666	9254.2
310.732	9263.78
310.797	9241.91
310.863	9236.47
310.928	9231.23
310.994	9231.71
311.059	9224.15
311.125	9222.65
311.191	9234.45
311.256	9225.35
311.322	9233.44
311.387	9213.08
311.453	9517.81
311.518	9492.3
311.584	9492.68
311.649	9502.31
311.715	9489.36
311.78	9495.53
311.846	9477.47
311.911	9481.95
311.976	9484.89
312.042	9472.17
312.107	9457.35
312.173	9452.19
312.238	9441.46
312.304	9436.21
312.369	9423.35
312.434	9416.37
312.5	9407.85
312.565	9375.98
312.631	9379.11
312.696	9366.06
312.761	9368.85
312.827	9052.99
312.892	9088.47
312.958	9084.29
313.023	9080.34
313.088	9087.08
313.154	9072.39
313.219	9066.95
313.284	9058.63
313.35	9052.13
313.415	9039.51
313.48	9030.66
313.546	9034.89
313.611	9049.34
313.676	9037.3
313.741	9031.67
313.807	9036
313.872	9042.93
313.937	9047.55
314.003	9057.81
314.068	9058.05
314.133	9064.12
314.198	9052.08
314.264	9029.93
314.329	9022.52
314.394	9015.25
314.459	9008.7
314.525	9027.96
314.59	9022.52
314.655	9009.33
314.72	9019.15
314.785	9027.09
314.851	9022.86
314.916	9006.25
314.981	8986.27
315.046	8975.82
315.111	8963.89
315.176	8947.23
315.242	8950.84
315.307	8947.13
315.372	8930.48
315.437	8921.95
315.502	8913
315.567	8928.79
315.632	8918.06
315.698	8917.72
315.763	8910.59
315.828	8900.58
315.893	8894.76
315.958	8895
316.023	8887.34
316.088	8864.28
316.153	8835.6
316.218	8827.23
316.283	8804.32
316.348	8786.7
316.413	8789.83
316.479	8775.97
316.544	8746.09
316.609	8711.29
316.674	8676.88
316.739	8641.27
316.804	8612.01
316.869	8570.05
316.934	8522.69
316.999	8487.27
317.064	8434.1
317.129	8396.23
317.194	8364.81
317.259	8309.33
317.324	8264.2
317.389	8215.66
317.454	8176.88
317.518	8147.34
317.583	8125.4
317.648	8107.51
317.713	8069.22
317.778	8006.39
317.843	7976.67
317.908	7939.2
317.973	7901.25
318.038	7870.76
318.103	7828.78
318.168	7794.15
318.233	7761.7
318.297	7711.26
318.362	7675.15
318.427	7642.6
318.492	7612.16
318.557	7558.8
318.622	7537.4
318.687	7507.79
318.751	7466.89
318.816	7433.81
318.881	7397.67
318.946	7341.52
319.011	7293.4
319.075	7256.25
319.14	7221.99
319.205	7181.86
319.27	7150.62
319.335	7105.12
319.399	7066.05
319.464	7038.52
319.529	6985.19
319.594	6949.45
319.658	6923.7
319.723	6880.66
319.788	6846.65
319.853	6793.28
319.917	6769.22
319.982	6717.34
320.047	6678.14
320.112	6655.72
320.176	6606.59
320.241	6570.48
320.306	6535.62
320.37	6496.3
320.435	6467.87
320.5	6443.34
320.564	6401.33
320.629	6355.92
320.694	6323.96
320.758	6283.49
320.823	6240.92
320.888	6218.22
320.952	6169.71
321.017	6130.94
321.082	6091.45
321.146	6056.86
321.211	6025.19
321.275	5982.59
321.34	5934.05
321.405	5889.11
321.469	5844.4
321.534	5802.25
321.598	5755.54
321.663	5726.62
321.727	5692.33
321.792	5640.44
321.857	5590.09
321.921	5551.69
321.986	5511.04
322.05	5451.05
322.115	5412.51
322.179	5366.74
322.244	5302.92
322.308	5273.26
322.373	5224.24
322.437	5183.14
322.502	5159.89
322.566	5112.41
322.631	5077.25
322.695	5040.18
322.76	4996.08
322.824	4960.16
322.889	4918.84
322.953	4873.41
323.018	4809.3
323.082	4744.92
323.146	4694.05
323.211	4642.07
323.275	4597.13
323.34	4553.06
323.404	4521.68
323.468	4474.26
323.533	4432.93
323.597	4393.49
323.662	4343.3
323.726	4307.19
323.79	4263.72
323.855	4192.68
323.919	4145.82
323.983	4099.76
324.048	4033.69
324.112	4176.54
324.177	4046.34
324.241	3836
324.305	3629.99
324.37	3428.97
324.434	3237.31
324.498	3194.67
324.562	3144.91
324.627	3085.38
324.691	3028.12
324.755	2963.27
324.82	2888.56
324.884	2811.49
324.948	2737.39
325.012	2637.3
325.077	2515.74
