Data from 20250702_urea_0.5M_MAYP1162681_02-14-59-994.txt Node
Date: Thu Jul 03 02:14:59 BST 2025
User: adleo
Spectrometer: MAYP116268
Trigger mode: 0
Integration Time (sec): 1.000000E0
Scans to average: 1
Electric dark correction enabled: true
Nonlinearity correction enabled: true
Boxcar width: 10
XAxis mode: Wavelengths
Number of Pixels in Spectrum: 2068
>>>>>Begin Spectral Data<<<<<
179.565	1188.92
179.642	1242.24
179.718	1285.6
179.795	1326.82
179.871	1360.55
179.948	1377.47
180.024	1397.44
180.101	1420.13
180.177	1436.75
180.254	1462.84
180.33	1483.69
180.407	1537.91
180.483	1631.5
180.56	1721.06
180.636	1803.47
180.712	1792.73
180.789	1801.62
180.865	1812.64
180.942	1822.24
181.018	1833.69
181.095	1844.58
181.171	1848.95
181.248	1851.14
181.324	1867.4
181.4	1874.25
181.477	1884.52
181.553	1898.44
181.63	1919.55
181.706	1935.72
181.782	1941.56
181.859	1937.24
181.935	1941.61
182.011	1938.09
182.088	1955.21
182.164	1973.43
182.24	1985.93
182.317	1996.34
182.393	1997.43
182.469	2013.08
182.546	2026.3
182.622	2031.15
182.698	2029.01
182.775	2041.9
182.851	2058.16
182.927	2049.17
183.003	2043.7
183.08	2038.85
183.156	2050.31
183.232	2045.75
183.308	2034.19
183.385	2043.27
183.461	2059.11
183.537	2061.39
183.613	2072.76
183.69	2064.53
183.766	2053.49
183.842	2062.25
183.918	2063.05
183.995	2074.23
184.071	2076.23
184.147	2073.85
184.223	2063.2
184.299	2076.09
184.375	2063.92
184.452	2068.01
184.528	2126.78
184.604	2136.1
184.68	2146.42
184.756	2151.28
184.832	2157.46
184.908	2160.74
184.985	2158.89
185.061	2146.52
185.137	2157.6
185.213	2144.29
185.289	2145.57
185.365	2138.63
185.441	2135.82
185.517	2152.67
185.593	2150.34
185.669	2148.48
185.745	2156.14
185.822	2173.73
185.898	2162.41
185.974	2173.73
186.05	2163.07
186.126	2120.14
186.202	2113.67
186.278	2109.16
186.354	2097.07
186.43	2103.5
186.506	2103.88
186.582	2104.92
186.658	2110.39
186.734	2089.51
186.81	2092.98
186.886	2098.69
186.962	2112.25
187.038	2110.49
187.114	2100.35
187.19	2107.91
187.266	2097.02
187.341	2098.21
187.417	2091.08
187.493	2093.79
187.569	2095.83
187.645	2093.88
187.721	2082.23
187.797	2090.46
187.873	2094.93
187.949	2093.83
188.025	2089.07
188.101	2091.17
188.176	2095.26
188.252	2091.17
188.328	2097.82
188.404	2097.49
188.48	2089.07
188.556	2081.65
188.632	2080.51
188.707	2081.22
188.783	2077.94
188.859	2074.19
188.935	2065.1
189.011	2072.04
189.086	2066.29
189.162	2058.82
189.238	2058.68
189.314	2056.44
189.39	2052.16
189.465	2045.88
189.541	2060.63
189.617	2040.85
189.693	2035.95
189.768	2042.33
189.844	2064.74
189.92	2059.79
189.996	2072.06
190.071	2081.91
190.147	2081.43
190.223	2090.76
190.298	2083.72
190.374	2070.97
190.45	2082.86
190.526	2091.23
190.601	2084.05
190.677	2084.66
190.753	2111.6
190.828	2113.32
190.904	2130.49
190.98	2144.29
191.055	2157.99
191.131	2148.47
191.207	2169.97
191.282	2179
191.358	2166.3
191.433	2153.64
191.509	2164.01
191.585	2157.21
191.66	2156.35
191.736	2164.96
191.811	2156.25
191.887	2174.96
191.963	2196.08
192.038	2202.74
192.114	2201.36
192.189	2205.12
192.265	2202.79
192.34	2179.42
192.416	2177.8
192.491	2171.9
192.567	2173.66
192.642	2172.71
192.718	2173.61
192.793	2162.72
192.869	2158.91
192.944	2161.58
193.02	2168.76
193.095	2173.85
193.171	2179.18
193.246	2181.46
193.322	2179.37
193.397	2179.42
193.473	2163.33
193.548	2145.87
193.624	2150.96
193.699	2151.34
193.775	2168.33
193.85	2168.24
193.925	2177.66
194.001	2177.09
194.076	2171.14
194.152	2159.96
194.227	2154.87
194.302	2145.07
194.378	2150.92
194.453	2148.59
194.529	2160.48
194.604	2145.78
194.679	2139.41
194.755	2123.95
194.83	2139.04
194.905	2135.57
194.981	2143.56
195.056	2134.67
195.131	2140.33
195.207	2135.52
195.282	2124.77
195.357	2105.02
195.433	2123.43
195.508	2112.82
195.583	2119.15
195.659	2132.81
195.734	2143.8
195.809	2142.94
195.884	2153.69
195.96	2154.45
196.035	2170.39
196.11	2167.06
196.185	2179.47
196.261	2183.9
196.336	2214.39
196.411	2198.4
196.486	2203.4
196.561	2196.64
196.637	2206.25
196.712	2223.43
196.787	2226.09
196.862	2242.98
196.937	2254.59
197.013	2257.92
197.088	2266.91
197.163	2290.29
197.238	2305.19
197.313	2303.2
197.388	2314.05
197.464	2340.18
197.539	2350.41
197.614	2343.23
197.689	2357.13
197.764	2373.27
197.839	2390.83
197.914	2383.88
197.989	2408.68
198.065	2419.06
198.14	2473.94
198.215	2500.83
198.29	2512.6
198.365	2528.27
198.44	2538.41
198.515	2566.89
198.59	2582.13
198.665	2608.13
198.74	2614.28
198.815	2615.42
198.89	2636.66
198.965	2666.29
199.04	2664.86
199.115	2679.58
199.19	2723.69
199.265	2725.93
199.34	2736.03
199.415	2770.39
199.49	2792.87
199.565	2799.74
199.64	2829.47
199.715	2826.65
199.79	2833.75
199.865	2840
199.94	2839.81
200.015	2867.26
200.09	2872.84
200.165	2881.18
200.24	2888.8
200.315	2928.97
200.39	2942.22
200.464	2948.84
200.539	2949.56
200.614	2965.05
200.689	2991.08
200.764	2999.14
200.839	3016.96
200.914	3021.68
200.989	3011.85
201.063	3026.25
201.138	3009.58
201.213	3010.2
201.288	2988.79
201.363	2997.95
201.438	3000
201.512	3014.77
201.587	3000.7
201.662	3001.13
201.737	3010.24
201.812	3016.72
201.886	2984.47
201.961	2995.01
202.036	2986.48
202.111	2986.86
202.186	2958.42
202.26	2939.78
202.335	2916.94
202.41	2909.98
202.485	2891.92
202.559	2873.47
202.634	2844.69
202.709	2854.02
202.784	2831.96
202.858	2831.58
202.933	2810.32
203.008	2801.98
203.082	2784.11
203.157	2781.06
203.232	2742.63
203.306	2722.8
203.381	2692.25
203.456	2668.33
203.53	2648.93
203.605	2625.69
203.68	2602.2
203.754	2596.34
203.829	2580.72
203.904	2557.91
203.978	2546.04
204.053	2552.28
204.127	2539.43
204.202	2538.14
204.277	2520.38
204.351	2513.48
204.426	2506.52
204.5	2498.57
204.575	2463.77
204.65	2473.11
204.724	2467.01
204.799	2475.48
204.873	2470.67
204.948	2470.72
205.022	2458.49
205.097	2447.24
205.171	2462.86
205.246	2468.33
205.32	2466.48
205.395	2465.48
205.469	2458.53
205.544	2466.91
205.618	2449.77
205.693	2463.01
205.767	2453.06
205.842	2474.2
205.916	2470.16
205.991	2462.25
206.065	2467.97
206.14	2482.29
206.214	2478.1
206.289	2472.43
206.363	2484.9
206.438	2488.38
206.512	2493.81
206.586	2516.23
206.661	2525.57
206.735	2504.67
206.81	2507.58
206.884	2523.05
206.958	2512.63
207.033	2530.9
207.107	2536.91
207.181	2569.68
207.256	2564.35
207.33	2586.11
207.405	2601.41
207.479	2621.13
207.553	2628.03
207.628	2612.99
207.702	2628.37
207.776	2620.7
207.851	2628.75
207.925	2645.38
207.999	2647.72
208.073	2651.86
208.148	2661.3
208.222	2656.1
208.296	2695.39
208.371	2716.42
208.445	2734.04
208.519	2770.92
208.593	2791.6
208.668	2797.79
208.742	2808.81
208.816	2821.72
208.89	2845.8
208.965	2856.29
209.039	2873.17
209.113	2906.11
209.187	2942.79
209.261	2959.23
209.336	2999.94
209.41	3040.81
209.484	3065.34
209.558	3107.16
209.632	3141.88
209.707	3175.65
209.781	3224.74
209.855	3264.11
209.929	3312.01
210.003	3350.75
210.077	3382.4
210.151	3462.08
210.226	3531.09
210.3	3596.6
210.374	3661.62
210.448	3705.08
210.522	3755.48
210.596	3817.68
210.67	3873.29
210.744	3970.88
210.818	4051.33
210.892	4126.97
210.966	4171.32
211.041	4240.84
211.115	4298.6
211.189	4385.5
211.263	4460.16
211.337	4527.17
211.411	4609.63
211.485	4671.15
211.559	4751.54
211.633	4826.32
211.707	4865.73
211.781	4947
211.855	4986.08
211.929	5048.08
212.003	5110.56
212.077	5203.57
212.151	5294.87
212.225	5385.15
212.299	5455.51
212.373	5530.04
212.447	5608.88
212.52	5723.48
212.594	5814.23
212.668	5913.94
212.742	5988.64
212.816	6073.27
212.89	6158.67
212.964	6248.68
213.038	6347.73
213.112	6455.32
213.186	6566.51
213.26	6645.22
213.333	6696.99
213.407	6804.35
213.481	6908.3
213.555	7020.28
213.629	7108.04
213.703	7191.41
213.777	7288.74
213.85	7369.54
213.924	7501.42
213.998	7605.95
214.072	7700.11
214.146	7789.51
214.219	7892.33
214.293	7986.54
214.367	8089.8
214.441	8202.6
214.515	8293.24
214.588	8366.52
214.662	8427.72
214.736	8504.28
214.81	8609.34
214.883	8721.88
214.957	8807.06
215.031	8888.92
215.105	8961.01
215.178	9038.13
215.252	9124.87
215.326	9198.73
215.4	9275.08
215.473	9322.61
215.547	9393.31
215.621	9471.62
215.694	9564.67
215.768	9635.56
215.842	9719.07
215.915	9803.03
215.989	9868.3
216.063	9948.46
216.136	10038.59
216.21	10138.73
216.284	10238.98
216.357	10330.95
216.431	10409.67
216.504	10509.41
216.578	10629.86
216.652	10726.31
216.725	10817.72
216.799	10911.49
216.873	11007.63
216.946	11100.72
217.02	11175.41
217.093	11254.97
217.167	11322.11
217.24	11392.28
217.314	11467.85
217.387	11539.22
217.461	11610.36
217.535	11700.54
217.608	11771.15
217.682	11854.97
217.755	11941.39
217.829	12004
217.902	12076.01
217.976	12151.06
218.049	12209.73
218.123	12263.62
218.196	12351.49
218.27	12415.41
218.343	12474.7
218.417	12536.59
218.49	12608.42
218.563	12702.22
218.637	12781.42
218.71	12881.26
218.784	12964.56
218.857	13045.01
218.931	13121.37
219.004	13194.59
219.077	13276.01
219.151	13345.53
219.224	13406.99
219.298	13472.17
219.371	13567.42
219.444	13624.98
219.518	13699.8
219.591	13771.04
219.665	13870.64
219.738	13929.45
219.811	13996.07
219.885	14082.31
219.958	14166.67
220.031	14224.85
220.105	14299.38
220.178	14371.21
220.251	14418.59
220.325	14490.75
220.398	14558.38
220.471	14633.83
220.544	14710.71
220.618	14762
220.691	14825.39
220.764	14894.18
220.838	14955.88
220.911	15004.37
220.984	15094.75
221.057	15162.67
221.131	15227.02
221.204	15263.22
221.277	15344
221.35	15441.47
221.424	15487.69
221.497	15542.74
221.57	15614.85
221.643	15681.94
221.716	15739.64
221.79	15796.37
221.863	15844.23
221.936	15899.18
222.009	15955.09
222.082	16017.12
222.155	16070.86
222.229	16147.98
222.302	16207.6
222.375	16263.22
222.448	16318.51
222.521	16362.7
222.594	16407.43
222.667	16448.93
222.74	16504.36
222.814	16556.99
222.887	16600.27
222.96	16667.26
223.033	16723.26
223.106	16763.17
223.179	16807.6
223.252	16853.44
223.325	16901.58
223.398	16945.49
223.471	16992.19
223.544	17034.89
223.617	17073.83
223.69	17119.76
223.763	17153.5
223.837	17195.23
223.91	17238.51
223.983	17264.92
224.056	17299.14
224.129	17346.8
224.202	17396.54
224.275	17431.24
224.348	17455.72
224.42	17468.59
224.493	17483
224.566	17510.61
224.639	17559.04
224.712	17585.55
224.785	17623.81
224.858	17651.28
224.931	17682.85
225.004	17703.91
225.077	17736.44
225.15	17743.57
225.223	17783.33
225.296	17837.78
225.369	17851.28
225.442	17872.68
225.514	17902.6
225.587	17937.64
225.66	17966.65
225.733	18010.12
225.806	18043.32
225.879	18071.56
225.952	18101.68
226.025	18141.34
226.097	18180.86
226.17	18210.88
226.243	18217.77
226.316	18245.77
226.389	18291.94
226.461	18336.66
226.534	18382.15
226.607	18414.97
226.68	18468.46
226.753	18487.83
226.825	18483.93
226.898	18536.31
226.971	18565.08
227.044	18609.75
227.117	18639.39
227.189	18669.07
227.262	18703.53
227.335	18736.15
227.407	18765.98
227.48	18795.67
227.553	18832.63
227.626	18856.53
227.698	18884.87
227.771	18922.41
227.844	18937.97
227.916	18959.85
227.989	18964.48
228.062	18975.99
228.134	19015.27
228.207	19029
228.28	19050.78
228.352	19082.4
228.425	19093.72
228.498	19129.24
228.57	19125.86
228.643	19150.25
228.716	19160.9
228.788	19167.84
228.861	19177.14
228.934	19190.29
229.006	19210.82
229.079	19221.91
229.151	19232.89
229.224	19230.96
229.296	19251.01
229.369	19301.23
229.442	19322.82
229.514	19329.08
229.587	19357.8
229.659	19353.08
229.732	19374.62
229.804	19396.45
229.877	19431.58
229.949	19463.34
230.022	19499.34
230.094	19529.21
230.167	19549.74
230.239	19566.9
230.312	19581.11
230.384	19625.74
230.457	19656.87
230.529	19673.3
230.602	19689.16
230.674	19703.71
230.747	19737.49
230.819	19765.78
230.892	19737.88
230.964	19761.73
231.037	19785.83
231.109	19793.34
231.181	19816.91
231.254	19810.79
231.326	19814.74
231.399	19814.11
231.471	19805.34
231.544	19779.32
231.616	19795.61
231.688	19808.91
231.761	19802.6
231.833	19805.58
231.905	19775.56
231.978	19770.5
232.05	19765.83
232.122	19770.16
232.195	19777.1
232.267	19789.39
232.339	19791.8
232.412	19820.52
232.484	19808.43
232.556	19802.26
232.629	19826.64
232.701	19835.32
232.773	19848.67
232.846	19844.43
232.918	19839.66
232.99	19843.17
233.062	19860.04
233.135	19865.53
233.207	19850.88
233.279	19869.05
233.351	19874.35
233.424	19869.44
233.496	19865.82
233.568	19893.29
233.64	19875.75
233.713	19865.05
233.785	19857.1
233.857	19850.79
233.929	19833.53
234.001	19844.72
234.074	19863.94
234.146	19828.76
234.218	19817.87
234.29	19809.92
234.362	19804.86
234.434	19787.18
234.507	19776.43
234.579	19749.49
234.651	19729.35
234.723	19721.2
234.795	19705.06
234.867	19692.63
234.939	19712.09
235.012	19694.07
235.084	19682.51
235.156	19683.23
235.228	19665.54
235.3	19647.23
235.372	19631.57
235.444	19620.73
235.516	19584.29
235.588	19568.25
235.66	19570.7
235.732	19544.39
235.804	19588.58
235.876	19588.15
235.948	19593.07
236.02	19579.96
236.092	19568.44
236.164	19552.68
236.236	19535.29
236.308	19520.15
236.38	19516.25
236.452	19480.59
236.524	19480.25
236.596	19477.89
236.668	19471.96
236.74	19461.7
236.812	19455.96
236.884	19450.9
236.956	19436.5
237.028	19405.32
237.1	19376.4
237.172	19370.57
237.244	19378.72
237.316	19312.84
237.388	19285.28
237.46	19263.4
237.532	19255.45
237.604	19228.56
237.675	19225.18
237.747	19216.8
237.819	19190.49
237.891	19155.93
237.963	19126.83
238.035	19094.4
238.107	19037.82
238.178	19024.23
238.25	18996.86
238.322	18984.62
238.394	18938.36
238.466	18925.59
238.538	18919.47
238.609	18902.02
238.681	18856.82
238.753	18817.93
238.825	18798.22
238.897	18783.57
238.968	18774.27
239.04	18744.34
239.112	18750.32
239.184	18715.48
239.255	18687.87
239.327	18677.26
239.399	18660.01
239.471	18647.1
239.542	18630.42
239.614	18620.69
239.686	18570.14
239.758	18559.63
239.829	18523.59
239.901	18514.29
239.973	18465.9
240.044	18444.99
240.116	18414.82
240.188	18391.16
240.259	18361.72
240.331	18337.81
240.403	18308.8
240.474	18267.17
240.546	18230.01
240.618	18178.69
240.689	18152.42
240.761	18122.31
240.833	18098.64
240.904	18058.65
240.976	18024.29
241.048	17992.14
241.119	17978.84
241.191	17958.22
241.262	17945.06
241.334	17907.33
241.405	17884.48
241.477	17854.94
241.549	17822.36
241.62	17798.08
241.692	17780.63
241.763	17758.61
241.835	17720.44
241.906	17694.32
241.978	17646.99
242.049	17631.52
242.121	17617.11
242.192	17594.37
242.264	17553.93
242.335	17512.59
242.407	17500.15
242.478	17472.44
242.55	17443.62
242.621	17394.42
242.693	17363.72
242.764	17325.26
242.836	17299.72
242.907	17269.55
242.979	17248.59
243.05	17220.1
243.122	17199.09
243.193	17156.68
243.264	17104.15
243.336	17068.15
243.407	17042.85
243.479	17030.51
243.55	17006.22
243.622	16980.39
243.693	16945.2
243.764	16929.88
243.836	16891.66
243.907	16855.8
243.978	16822.06
244.05	16805.49
244.121	16758.54
244.192	16732.23
244.264	16686.3
244.335	16662.1
244.407	16619.02
244.478	16595.88
244.549	16561.42
244.62	16514.19
244.692	16480.98
244.763	16465.85
244.834	16436.83
244.906	16399.77
244.977	16373.36
245.048	16356.83
245.119	16316.15
245.191	16279.28
245.262	16227.56
245.333	16216.48
245.405	16188.96
245.476	16160.57
245.547	16120.47
245.618	16097.72
245.689	16064.99
245.761	16037.03
245.832	15998.14
245.903	15969.56
245.974	15939.33
246.045	15907.28
246.117	15892.05
246.188	15848.09
246.259	15803.02
246.33	15769.09
246.401	15732.8
246.473	15676.02
246.544	15640.74
246.615	15618.47
246.686	15584.39
246.757	15574.07
246.828	15524.23
246.899	15500.57
246.97	15458.05
247.042	15424.99
247.113	15398.81
247.184	15393.61
247.255	15358.9
247.326	15330.71
247.397	15292.87
247.468	15265.87
247.539	15234.11
247.61	15187.02
247.681	15173.33
247.752	15164.07
247.823	15123.53
247.894	15094.95
247.965	15069.45
248.037	15024.57
248.108	14979.02
248.179	14949.81
248.25	14909.03
248.321	14890.18
248.392	14852.68
248.463	14846.51
248.534	14815.99
248.605	14805.73
248.675	14770.59
248.746	14749.33
248.817	14728.55
248.888	14708.55
248.959	14658.8
249.03	14642.27
249.101	14616.86
249.172	14585.39
249.243	14541.13
249.314	14543.74
249.385	14517.03
249.456	14497.89
249.527	14467.24
249.598	14452.24
249.669	14424.72
249.739	14400.33
249.81	14384.23
249.881	14350.82
249.952	14319.97
250.023	14289.21
250.094	14241.25
250.165	14202.78
250.235	14167.69
250.306	14138.52
250.377	14102.22
250.448	14087.18
250.519	14042.5
250.59	14033.58
250.66	14004.75
250.731	13985.37
250.802	13940.4
250.873	13923.67
250.944	13896.58
251.014	13870.25
251.085	13865.39
251.156	13849.38
251.227	13840.03
251.297	13820.84
251.368	13804.45
251.439	13790.23
251.51	13779.05
251.58	13738.46
251.651	13707.94
251.722	13699.65
251.792	13657.47
251.863	13633.27
251.934	13616.25
252.005	13624.21
252.075	13593.16
252.146	13577.93
252.217	13568.82
252.287	13555.56
252.358	13524.57
252.429	13523.36
252.499	13487.83
252.57	13461.42
252.641	13433.7
252.711	13407.33
252.782	13367.7
252.852	13360.28
252.923	13332.85
252.994	13309.85
253.064	13304.79
253.135	13273.75
253.205	13241.59
253.276	13237.64
253.347	13232.39
253.417	13205.44
253.488	13171.4
253.558	13145.33
253.629	13124.16
253.699	13099.87
253.77	13089.89
253.841	13063.42
253.911	13033.92
253.982	13022.01
254.052	13001.91
254.123	12987.84
254.193	12963.49
254.264	12980.27
254.334	12940.11
254.405	12904.68
254.475	12872.33
254.546	12849.34
254.616	12843.99
254.687	12825.29
254.757	12809.57
254.827	12782.24
254.898	12764.26
254.968	12741.5
255.039	12718.7
255.109	12698.79
255.18	12665.34
255.25	12620.22
255.321	12608.84
255.391	12577.61
255.461	12575.1
255.532	12530.08
255.602	12512.15
255.673	12477.82
255.743	12443.16
255.813	12406.87
255.884	12395.78
255.954	12383.87
256.024	12383.78
256.095	12358.61
256.165	12323.28
256.235	12307.81
256.306	12281.83
256.376	12271.32
256.446	12258.4
256.517	12242.88
256.587	12236.03
256.657	12223.79
256.728	12209.38
256.798	12190.39
256.868	12171.2
256.938	12138.52
257.009	12130.9
257.079	12114.76
257.149	12116.83
257.219	12070.94
257.29	12057.06
257.36	12024.62
257.43	12016.14
257.5	11971.55
257.571	11946.49
257.641	11938.24
257.711	11901.9
257.781	11887.97
257.852	11865.7
257.922	11829.84
257.992	11807.67
258.062	11785.21
258.132	11773.35
258.202	11748.91
258.273	11730.21
258.343	11725.39
258.413	11701.39
258.483	11679.51
258.553	11644.9
258.623	11623.4
258.693	11618.29
258.764	11612.99
258.834	11616.7
258.904	11595.45
258.974	11568.94
259.044	11549.37
259.114	11538.82
259.184	11527.3
259.254	11511.49
259.324	11474.09
259.394	11459.15
259.464	11459.05
259.535	11432.93
259.605	11408.49
259.675	11385.02
259.745	11375.14
259.815	11344.59
259.885	11324.54
259.955	11343.1
260.025	11318.28
260.095	11294.04
260.165	11277.75
260.235	11276.93
260.305	11246.37
260.375	11213.55
260.445	11220.49
260.515	11217.79
260.585	11215.62
260.655	11194.08
260.725	11178.27
260.795	11173.94
260.865	11176.44
260.934	11147.24
261.004	11142.23
261.074	11122.9
261.144	11126.56
261.214	11114.9
261.284	11093.02
261.354	11084.69
261.424	11044.34
261.494	11056.83
261.564	11040.97
261.634	11035.72
261.703	11002.85
261.773	10991.24
261.843	10993.31
261.913	10971.82
261.983	10941.36
262.053	10922.33
262.123	10905.56
262.192	10885.08
262.262	10875.97
262.332	10845.42
262.402	10838.82
262.472	10825.66
262.541	10789.62
262.611	10778.83
262.681	10751.27
262.751	10748.52
262.821	10727.22
262.89	10700.33
262.96	10674.51
263.03	10679.47
263.1	10665.35
263.169	10649.59
263.239	10636.83
263.309	10632.78
263.379	10620.59
263.448	10610.57
263.518	10601.12
263.588	10587.82
263.657	10589.12
263.727	10583.78
263.797	10568.6
263.867	10545.86
263.936	10511.31
264.006	10516.51
264.076	10502.3
264.145	10485.48
264.215	10460.72
264.285	10461.11
264.354	10427.58
264.424	10409.94
264.494	10378.09
264.563	10354.87
264.633	10356.56
264.702	10349.57
264.772	10313.29
264.842	10300.52
264.911	10294.02
264.981	10267.09
265.05	10245.99
265.12	10222.33
265.19	10208.55
265.259	10205.56
265.329	10197.57
265.398	10191.83
265.468	10204.84
265.537	10184.85
265.607	10180.9
265.676	10179.55
265.746	10167.41
265.815	10172.85
265.885	10160.47
265.955	10135.91
266.024	10115.43
266.094	10082.24
266.163	10080.12
266.232	10082.34
266.302	10060.9
266.371	10052.42
266.441	10043.85
266.51	10049.82
266.58	10033.11
266.649	10009.45
266.719	10008.01
266.788	10004.88
266.858	10006.18
266.927	9965.67
266.996	9952.23
267.066	9941.05
267.135	9916.78
267.205	9908.92
267.274	9892.69
267.343	9888.6
267.413	9882.24
267.482	9885.95
267.552	9883.11
267.621	9850.06
267.69	9817.02
267.76	9807.82
267.829	9795.25
267.898	9779.02
267.968	9752.82
268.037	9748.48
268.106	9745.93
268.176	9715.2
268.245	9697.67
268.314	9676.71
268.384	9676.38
268.453	9663.71
268.522	9653.6
268.592	9653.12
268.661	9637.32
268.73	9634.23
268.799	9613.48
268.869	9617.43
268.938	9590.31
269.007	9570.66
269.076	9562.57
269.146	9567.73
269.215	9562.24
269.284	9566.81
269.353	9551.93
269.422	9538.11
269.492	9519.33
269.561	9484.56
269.63	9477.24
269.699	9458.46
269.768	9454.8
269.838	9447.92
269.907	9447.29
269.976	9420.9
270.045	9392.83
270.114	9381.46
270.183	9369.71
270.253	9364.32
270.322	9335.72
270.391	9324.26
270.46	9331.63
270.529	9329.8
270.598	9322.48
270.667	9309.76
270.736	9281.21
270.806	9275.62
270.875	9276.15
270.944	9262.62
271.013	9282.6
271.082	9282.41
271.151	9273.89
271.22	9238.45
271.289	9223.58
271.358	9207.97
271.427	9206.29
271.496	9194.64
271.565	9176.2
271.634	9163.15
271.703	9181.45
271.772	9188.58
271.841	9178.56
271.91	9155.65
271.979	9150.44
272.048	9131.62
272.117	9128.78
272.186	9117.18
272.255	9117.46
272.324	9115.88
272.393	9114.96
272.462	9096.81
272.531	9082.8
272.6	9077.79
272.669	9085.97
272.738	9074.27
272.807	9072.44
272.876	9052.13
272.945	9084.05
273.013	9092.19
273.082	9096.57
273.151	9058.24
273.22	9046.01
273.289	9039.66
273.358	9049.1
273.427	9036.38
273.496	9033.35
273.564	9034.65
273.633	9033.01
273.702	9010.34
273.771	9003.02
273.84	8999.17
273.909	8994.07
273.977	8990.31
274.046	8980.4
274.115	8990.12
274.184	8976.84
274.253	8967.74
274.322	8982.8
274.39	8954.21
274.459	8938.08
274.528	8906.02
274.597	8904.82
274.665	8903.62
274.734	8910.79
274.803	8903.76
274.872	8890.23
274.94	8874.25
275.009	8927.76
275.078	8919.96
275.147	8920.73
275.215	8912.84
275.284	8918.04
275.353	8906.77
275.421	8888.24
275.49	8900.37
275.559	8884.39
275.627	8876.5
275.696	8865.14
275.765	8862.39
275.833	8844.92
275.902	8848.1
275.971	8866.92
276.039	8878.86
276.108	8877.94
276.177	8870.87
276.245	8856.18
276.314	8854.07
276.383	8864.41
276.451	8798.49
276.52	8799.64
276.588	8810.42
276.657	8810.28
276.725	8801.33
276.794	8803.16
276.863	8816.44
276.931	8789.87
277	8795.98
277.068	8804.12
277.137	8822.94
277.205	8816.1
277.274	8841.18
277.342	8848.25
277.411	8824.87
277.48	8806.14
277.548	8796.9
277.617	8798.82
277.685	8791.7
277.754	8796.71
277.822	8781.88
277.89	8796.47
277.959	8781.5
278.027	8758.98
278.096	8750.36
278.164	8768.99
278.233	8760.57
278.301	8743.58
278.37	8750.6
278.438	8738.47
278.507	8741.41
278.575	8716.14
278.643	8715.8
278.712	8688.9
278.78	8669.84
278.849	8680.33
278.917	8692.79
278.985	8694
279.054	8695.1
279.122	8702.61
279.191	8696.88
279.259	8693.42
279.327	8667.43
279.396	8687.02
279.464	8690.48
279.532	8690.82
279.601	8688.99
279.669	8688.65
279.737	8705.69
279.806	8707.47
279.874	8712.38
279.942	8710.45
280.011	8711.51
280.079	8715.12
280.147	8734.23
280.215	8743.37
280.284	8743.61
280.352	8728.45
280.42	8732.64
280.488	8729.7
280.557	8727.92
280.625	8737.31
280.693	8738.66
280.761	8745.25
280.83	8729.61
280.898	8732.16
280.966	8723.54
281.034	8690.72
281.102	8671.28
281.171	8659.92
281.239	8667.62
281.307	8661.07
281.375	8650.39
281.443	8667.76
281.512	8662.23
281.58	8663.63
281.648	8644.23
281.716	8637.73
281.784	8637.54
281.852	8625.32
281.92	8620.21
281.989	8623.34
282.057	8600.05
282.125	8644.58
282.193	8637.94
282.261	8635.87
282.329	8638.03
282.397	8637.84
282.465	8645.2
282.533	8663.63
282.601	8654.1
282.67	8636.92
282.738	8625.76
282.806	8638.65
282.874	8625.03
282.942	8625.71
283.01	8619.3
283.078	8624.74
283.146	8622.19
283.214	8625.85
283.282	8630.08
283.35	8639.09
283.418	8633.65
283.486	8641.83
283.554	8599.18
283.622	8599.27
283.69	8601.05
283.758	8592.44
283.826	8598.12
283.894	8603.99
283.962	8622.18
284.03	8632.67
284.098	8628.68
284.165	8627.24
284.233	8621.61
284.301	8618.04
284.369	8611.69
284.437	8605.34
284.505	8599.37
284.573	8616.55
284.641	8608.18
284.709	8613.57
284.777	8596.19
284.845	8606.78
284.912	8610.3
284.98	8613.14
285.048	8612.7
285.116	8617.08
285.184	8629.88
285.252	8630.46
285.319	8619.2
285.387	8612.08
285.455	8598.02
285.523	8603.12
285.591	8603.51
285.659	8604.47
285.726	8617.61
285.794	8605.29
285.862	8603.56
285.93	8608.52
285.997	8605
286.065	8602.31
286.133	8592.1
286.201	8589.75
286.269	8573.38
286.336	8565.54
286.404	8556.59
286.472	8561.3
286.539	8542.2
286.607	8524.78
286.675	8526.32
286.743	8527.18
286.81	8515.87
286.878	8530.84
286.946	8526.41
287.013	8522.47
287.081	8520.88
287.149	8505.29
287.216	8523.72
287.284	8520.69
287.352	8514.14
287.419	8510.2
287.487	8529.78
287.555	8540.95
287.622	8536.04
287.69	8544.37
287.758	8553.13
287.825	8553.08
287.893	8545.95
287.96	8549.18
288.028	8555.72
288.096	8556.3
288.163	8558.42
288.231	8552.98
288.298	8550.38
288.366	8565.73
288.433	8570.55
288.501	8560.58
288.569	8565.4
288.636	8555.82
288.704	8568.09
288.771	8583.39
288.839	8573.67
288.906	8562.36
288.974	8566.17
289.041	8568.38
289.109	8556.73
289.176	8568.14
289.244	8571.65
289.311	8582.82
289.379	8592.49
289.446	8603.13
289.514	8599.61
289.581	8600.96
289.649	8601.59
289.716	8602.36
289.783	8596.82
289.851	8609.62
289.918	8616.99
289.986	8623.43
290.053	8624.59
290.121	8622.57
290.188	8623.29
290.255	8654.77
290.323	8645.05
290.39	8637.78
290.458	8642.98
290.525	8653.56
290.592	8644.66
290.66	8647.35
290.727	8641.43
290.794	8654.28
290.862	8649.71
290.929	8652.98
290.996	8652.84
291.064	8665.16
291.131	8677.34
291.198	8682.58
291.266	8683.55
291.333	8686.19
291.4	8688.17
291.468	8708.82
291.535	8709.01
291.602	8713.1
291.669	8700.49
291.737	8707.37
291.804	8706.36
291.871	8727.54
291.938	8741.25
292.006	8772.64
292.073	8791.7
292.14	8803.73
292.207	8792.71
292.275	8800.85
292.342	8815
292.409	8843.59
292.476	8857.46
292.543	8849.08
292.611	8852.55
292.678	8865.98
292.745	8887.64
292.812	8894.57
292.879	8890.48
292.946	8893.94
293.014	8905.64
293.081	8912.38
293.148	8926.67
293.215	8946.46
293.282	8937.98
293.349	8943.71
293.416	8926
293.484	8934.95
293.551	8940.25
293.618	8963.3
293.685	8981.07
293.752	8973.94
293.819	8970.09
293.886	8966.38
293.953	8972.5
294.02	8983.52
294.087	8997.48
294.154	8988.96
294.221	9012.6
294.288	9017.75
294.356	9036.34
294.423	9047.51
294.49	9043.7
294.557	9055.74
294.624	9043.85
294.691	9065.9
294.758	9066.62
294.825	9067.77
294.892	9066.91
294.959	9064.93
295.026	9076.01
295.093	9067.77
295.16	9068.35
295.226	9066.86
295.293	9091.03
295.36	9098.92
295.427	9111.06
295.494	9116.5
295.561	9127.09
295.628	9145.58
295.695	9153.05
295.762	9145.25
295.829	9148.23
295.896	9164.02
295.963	9175.72
296.03	9189.01
296.096	9185.83
296.163	9202.06
296.23	9224.4
296.297	9228.92
296.364	9235.42
296.431	9238.07
296.498	9239.61
296.564	9270.47
296.631	9268.93
296.698	9252.18
296.765	9272.45
296.832	9259.69
296.899	9245.2
296.965	9261.86
297.032	9239.12
297.099	9262.14
297.166	9278.32
297.233	9274.9
297.299	9266.86
297.366	9276.35
297.433	9275.14
297.5	9288.29
297.566	9284.58
297.633	9280.01
297.7	9285.45
297.767	9285.93
297.833	9289.64
297.9	9291.23
297.967	9266.67
298.033	9286.94
298.1	9323.25
298.167	9313.62
298.234	9321.04
298.3	9334.04
298.367	9332.78
298.434	9340.78
298.5	9328.26
298.567	9328.83
298.634	9332.54
298.7	9352.67
298.767	9341.5
298.834	9360.9
298.9	9360.56
298.967	9355.99
299.033	9366.49
299.1	9378.24
299.167	9391.91
299.233	9390.42
299.3	9406.02
299.366	9428.89
299.433	9442.38
299.5	9409.82
299.566	9415.45
299.633	9432.6
299.699	9442.76
299.766	9437.03
299.832	9443.91
299.899	9454.65
299.965	9464.57
300.032	9459.86
300.099	9466.74
300.165	9476.28
300.232	9471.56
300.298	9469.63
300.365	9480.37
300.431	9479.65
300.498	9474.78
300.564	9479.26
300.631	9491.06
300.697	9503
300.763	9499.54
300.83	9493.56
300.896	9510.18
300.963	9516.53
301.029	9517.83
301.096	9525.93
301.162	9537.43
301.229	9535.51
301.295	9522.51
301.361	9524.38
301.428	9528.28
301.494	9513.36
301.561	9515.52
301.627	9522.02
301.693	9529.68
301.76	9531.51
301.826	9529.54
301.892	9545.14
301.959	9553.62
302.025	9544.9
302.092	9540.85
302.158	9551.16
302.224	9558.53
302.291	9546.15
302.357	9544.03
302.423	9537.77
302.49	9524.82
302.556	9538.06
302.622	9533.54
302.688	9545.48
302.755	9560.07
302.821	9569.9
302.887	9583.19
302.954	9578.85
303.02	9581.21
303.086	9586.22
303.152	9593.54
303.219	9586.03
303.285	9585.79
303.351	9596.24
303.417	9602.07
303.483	9594.02
303.55	9587.81
303.616	9588.39
303.682	9589.11
303.748	9583.53
303.815	9601.2
303.881	9610.02
303.947	9596.48
304.013	9600.62
304.079	9592
304.145	9567.3
304.212	9560.31
304.278	9548.13
304.344	9549.67
304.41	9541.92
304.476	9526.51
304.542	9518.47
304.608	9521.74
304.674	9504.31
304.741	9491.78
304.807	9492.79
304.873	9496.89
304.939	9510.66
305.005	9488.46
305.071	9491.2
305.137	9492.41
305.203	9465.44
305.269	9466.5
305.335	9475.84
305.401	9474.64
305.467	9472.62
305.533	9481.24
305.599	9493.18
305.666	9505.65
305.732	9501.36
305.798	9509.26
305.864	9540.18
305.93	9544.52
305.996	9551.5
306.062	9555.3
306.128	9551.88
306.194	9539.41
306.259	9536.28
306.325	9526.89
306.391	9536.91
306.457	9542.06
306.523	9545
306.589	9568.59
306.655	9556.12
306.721	9541.38
306.787	9530.41
306.853	9552.37
306.919	9537.25
306.985	9530.31
307.051	9517.74
307.117	9513.75
307.183	9508.64
307.248	9481.38
307.314	9481.77
307.38	9477.24
307.446	9480.95
307.512	9468.62
307.578	9470.16
307.644	9468.62
307.709	9463.23
307.775	9457.83
307.841	9453.98
307.907	9457.35
307.973	9437.03
308.039	9437.51
308.104	9441.41
308.17	9445.17
308.236	9426.38
308.302	9431.05
308.368	9412.61
308.433	9418.1
308.499	9411.7
308.565	9398.02
308.631	9401.73
308.696	9376.98
308.762	9369.08
308.828	9369.27
308.894	9352.81
308.959	9333.6
309.025	9324.06
309.091	9321.03
309.156	9315.78
309.222	9317.61
309.288	9303.17
309.354	9281.6
309.419	9274.57
309.485	9259.73
309.551	9253.81
309.616	9231.33
309.682	9228.39
309.748	9229.69
309.813	9220.06
309.879	9212.02
309.945	9204.36
310.01	9194.11
310.076	9198.83
310.141	9188.18
310.207	9165.94
310.273	9167.62
310.338	9171.67
310.404	9155.35
310.469	9145.19
310.535	9131.75
310.601	9109.65
310.666	9110.28
310.732	9123.23
310.797	9116.25
310.863	9110.18
310.928	9103.88
310.994	9106.33
311.059	9103.39
311.125	9098.63
311.191	9108.45
311.256	9097.81
311.322	9102.58
311.387	9082.41
311.453	9333.05
311.518	9318.37
311.584	9323.47
311.649	9332.19
311.715	9324.97
311.78	9325.64
311.846	9317.7
311.911	9326.07
311.976	9330.46
312.042	9314.52
312.107	9296.56
312.173	9286.36
312.238	9278.22
312.304	9270.76
312.369	9267.29
312.434	9252.37
312.5	9242.65
312.565	9208.99
312.631	9212.36
312.696	9198.93
312.761	9203.07
312.827	8944.67
312.892	8975.2
312.958	8967.3
313.023	8963.64
313.088	8962.01
313.154	8952.72
313.219	8941.98
313.284	8929.61
313.35	8918.58
313.415	8909.39
313.48	8909.05
313.546	8912.13
313.611	8918.39
313.676	8913.34
313.741	8903.47
313.807	8909.68
313.872	8915.99
313.937	8923.54
314.003	8936.45
314.068	8937.89
314.133	8943.23
314.198	8932.11
314.264	8912.23
314.329	8901.35
314.394	8894.51
314.459	8890.52
314.525	8909.19
314.59	8905.01
314.655	8894.27
314.72	8903.9
314.785	8911.12
314.851	8901.21
314.916	8881.42
314.981	8868.43
315.046	8858.27
315.111	8846.62
315.176	8834.06
315.242	8830.64
315.307	8831.8
315.372	8815.14
315.437	8805.95
315.502	8794.63
315.567	8803.35
315.632	8788.38
315.698	8785.01
315.763	8782.26
315.828	8774.42
315.893	8759.54
315.958	8762
316.023	8757.67
316.088	8732.35
316.153	8709.25
316.218	8701.02
316.283	8691.54
316.348	8672.82
316.413	8671.18
316.479	8660.5
316.544	8625.38
316.609	8602.71
316.674	8565.99
316.739	8526.68
316.804	8499.35
316.869	8463.79
316.934	8426.54
316.999	8394.01
317.064	8351.34
317.129	8308.17
317.194	8271.51
317.259	8229.07
317.324	8176.01
317.389	8122.72
317.454	8088.08
317.518	8055.42
317.583	8032.18
317.648	8001.3
317.713	7968.69
317.778	7910.49
317.843	7880.14
317.908	7848.98
317.973	7805.79
318.038	7780.06
318.103	7743.71
318.168	7712.5
318.233	7683.12
318.297	7634.41
318.362	7601.76
318.427	7559.08
318.492	7531.48
318.557	7481.06
318.622	7452.79
318.687	7431.88
318.751	7404.73
318.816	7370.16
318.881	7334.26
318.946	7279.32
319.011	7236.98
319.075	7196.76
319.14	7161.54
319.205	7119.39
319.27	7079.9
319.335	7035.22
319.399	6992.5
319.464	6966.03
319.529	6909.63
319.594	6865.86
319.658	6834.88
319.723	6792.13
319.788	6762.55
319.853	6708.36
319.917	6683.06
319.982	6631.09
320.047	6586.76
320.112	6554.97
320.176	6504.85
320.241	6472.05
320.306	6442.72
320.37	6401.34
320.435	6369.6
320.5	6340.9
320.564	6303.26
320.629	6262.24
320.694	6231.47
320.758	6184.78
320.823	6139.57
320.888	6111.41
320.952	6062.66
321.017	6021.02
321.082	5979.9
321.146	5947.61
321.211	5913.84
321.275	5874.46
321.34	5828.24
321.405	5786.46
321.469	5739.75
321.534	5704.75
321.598	5656.51
321.663	5628.02
321.727	5595.75
321.792	5543.59
321.857	5500.92
321.921	5458.78
321.986	5418.58
322.05	5359.25
322.115	5323.75
322.179	5279.47
322.244	5225.15
322.308	5193.43
322.373	5147.49
322.437	5105.19
322.502	5079.46
322.566	5032.95
322.631	4993.29
322.695	4960.2
322.76	4915.24
322.824	4880.1
322.889	4835.48
322.953	4789.1
323.018	4719.39
323.082	4657.99
323.146	4608.81
323.211	4556.74
323.275	4514.62
323.34	4468.61
323.404	4432.55
323.468	4389.01
323.533	4347.98
323.597	4304.38
323.662	4256.45
323.726	4220.97
323.79	4177.03
323.855	4109.44
323.919	4064.02
323.983	4017.32
324.048	3948.43
324.112	4097.66
324.177	3968.82
324.241	3762.3
324.305	3560.55
324.37	3364.98
324.434	3174.7
324.498	3133.69
324.562	3083.93
324.627	3022.44
324.691	2971.08
324.755	2911.55
324.82	2836.18
324.884	2759.5
324.948	2689.55
325.012	2594.57
325.077	2473.47
