Data from 20250702_urea_0.5M_MAYP1162681_02-54-59-812.txt Node
Date: Thu Jul 03 02:54:59 BST 2025
User: adleo
Spectrometer: MAYP116268
Trigger mode: 0
Integration Time (sec): 1.000000E0
Scans to average: 1
Electric dark correction enabled: true
Nonlinearity correction enabled: true
Boxcar width: 10
XAxis mode: Wavelengths
Number of Pixels in Spectrum: 2068
>>>>>Begin Spectral Data<<<<<
179.565	1187.62
179.642	1242.49
179.718	1284.39
179.795	1323.09
179.871	1354.36
179.948	1372.87
180.024	1392.43
180.101	1416.41
180.177	1430.83
180.254	1451.89
180.33	1472.66
180.407	1525.31
180.483	1620.09
180.56	1710.93
180.636	1794.97
180.712	1779.23
180.789	1789.83
180.865	1801.61
180.942	1809.97
181.018	1819.1
181.095	1830.65
181.171	1841.3
181.248	1841.92
181.324	1857.66
181.4	1863.27
181.477	1872.96
181.553	1883.99
181.63	1907.14
181.706	1919.79
181.782	1928.96
181.859	1927.96
181.935	1933.43
182.011	1930.86
182.088	1948.08
182.164	1964.77
182.24	1976.14
182.317	1988.73
182.393	1987.12
182.469	2002.19
182.546	2014.6
182.622	2019.4
182.698	2012.32
182.775	2019.78
182.851	2033.24
182.927	2027.77
183.003	2023.3
183.08	2019.64
183.156	2033.1
183.232	2028.39
183.308	2016.69
183.385	2024.49
183.461	2044.89
183.537	2045.85
183.613	2056.31
183.69	2046.32
183.766	2037.61
183.842	2044.22
183.918	2048.03
183.995	2060.96
184.071	2063.3
184.147	2059.16
184.223	2049.41
184.299	2066.96
184.375	2056.03
184.452	2064.21
184.528	2121.56
184.604	2131.83
184.68	2142.77
184.756	2148.76
184.832	2151.71
184.908	2156.8
184.985	2155.89
185.061	2138.2
185.137	2150.24
185.213	2138.73
185.289	2139.92
185.365	2128.27
185.441	2125.98
185.517	2139.59
185.593	2134.31
185.669	2131.5
185.745	2142.07
185.822	2156.99
185.898	2147.72
185.974	2157.8
186.05	2149.52
186.126	2105.44
186.202	2101.59
186.278	2099.98
186.354	2088.13
186.43	2094.98
186.506	2096.36
186.582	2096.69
186.658	2104.06
186.734	2081.19
186.81	2085.75
186.886	2088.56
186.962	2103.35
187.038	2102.92
187.114	2093.69
187.19	2103.11
187.266	2092.03
187.341	2090.5
187.417	2084.51
187.493	2082.51
187.569	2086.42
187.645	2080.85
187.721	2070.19
187.797	2075.14
187.873	2076.8
187.949	2072.95
188.025	2066.67
188.101	2067.77
188.176	2071.62
188.252	2067.05
188.328	2076.8
188.404	2074.52
188.48	2067.43
188.556	2062.72
188.632	2061.44
188.707	2061.2
188.783	2056.11
188.859	2054.11
188.935	2045.79
189.011	2054.02
189.086	2050.92
189.162	2038.8
189.238	2034.09
189.314	2030.52
189.39	2024.58
189.465	2017.78
189.541	2034
189.617	2019.35
189.693	2013.41
189.768	2015.22
189.844	2038.58
189.92	2030.73
189.996	2038.77
190.071	2050.56
190.147	2046.81
190.223	2054.99
190.298	2047.05
190.374	2035.2
190.45	2045.38
190.526	2050.09
190.601	2045.24
190.677	2044.95
190.753	2073.12
190.828	2077.26
190.904	2092.53
190.98	2108.7
191.055	2120.21
191.131	2109.08
191.207	2132.01
191.282	2143.32
191.358	2136.24
191.433	2120.72
191.509	2131.85
191.585	2132.13
191.66	2134.61
191.736	2144.79
191.811	2137.37
191.887	2155.45
191.963	2180.61
192.038	2183.99
192.114	2184.7
192.189	2187.84
192.265	2182.9
192.34	2162.67
192.416	2164.15
192.491	2160.58
192.567	2164.91
192.642	2166.24
192.718	2167.76
192.793	2151.82
192.869	2147.73
192.944	2147.69
193.02	2156.39
193.095	2161.29
193.171	2163.34
193.246	2161.34
193.322	2155.68
193.397	2155.58
193.473	2141.07
193.548	2121.28
193.624	2128.37
193.699	2127.7
193.775	2143.17
193.85	2146.21
193.925	2156.11
194.001	2153.35
194.076	2146.4
194.152	2134.51
194.227	2127.56
194.302	2116.43
194.378	2120.71
194.453	2119
194.529	2132.27
194.604	2119.62
194.679	2111.39
194.755	2096.03
194.83	2110.16
194.905	2105.08
194.981	2112.26
195.056	2107.08
195.131	2114.4
195.207	2113.35
195.282	2104.55
195.357	2087
195.433	2100.46
195.508	2088.28
195.583	2096.22
195.659	2109.21
195.734	2115.01
195.809	2114.59
195.884	2125.62
195.96	2126.76
196.035	2143.98
196.11	2139.7
196.185	2149.64
196.261	2155.2
196.336	2184.65
196.411	2170.23
196.486	2179.17
196.561	2176.7
196.637	2183.98
196.712	2200.16
196.787	2203.87
196.862	2218.62
196.937	2229.37
197.013	2236.27
197.088	2247.83
197.163	2270.54
197.238	2286.11
197.313	2288.63
197.388	2302.81
197.464	2333.57
197.539	2345.18
197.614	2336.52
197.689	2349.89
197.764	2365.79
197.839	2385.78
197.914	2379.78
197.989	2402.06
198.065	2418.72
198.14	2467.84
198.215	2492.92
198.29	2504.45
198.365	2516.55
198.44	2531.02
198.515	2554.88
198.59	2571.83
198.665	2596.26
198.74	2602.22
198.815	2603.79
198.89	2623.65
198.965	2652.19
199.04	2648.52
199.115	2664.61
199.19	2708.53
199.265	2710.06
199.34	2721.63
199.415	2753.9
199.49	2774.09
199.565	2781.72
199.64	2801.01
199.715	2796.29
199.79	2804.82
199.865	2812.92
199.94	2813.45
200.015	2842.24
200.09	2848.96
200.165	2850.43
200.24	2856.72
200.315	2897.94
200.39	2914.81
200.464	2920.82
200.539	2922.34
200.614	2937.78
200.689	2959.71
200.764	2964.15
200.839	2982.11
200.914	2989.21
200.989	2981.58
201.063	2997.22
201.138	2981.83
201.213	2983.12
201.288	2964.77
201.363	2970.2
201.438	2967.67
201.512	2981.02
201.587	2963.33
201.662	2968.19
201.737	2984.83
201.812	2992.07
201.886	2955.15
201.961	2961.83
202.036	2950.44
202.111	2945.67
202.186	2916.61
202.26	2900.88
202.335	2878.95
202.41	2874.47
202.485	2853.41
202.559	2831.67
202.634	2805.7
202.709	2814.32
202.784	2798.07
202.858	2796.59
202.933	2776.82
203.008	2770.67
203.082	2753.47
203.157	2753.76
203.232	2711.89
203.306	2692.64
203.381	2660.09
203.456	2641.89
203.53	2621.25
203.605	2604.06
203.68	2581.1
203.754	2573.77
203.829	2556.05
203.904	2536.95
203.978	2523.66
204.053	2527.04
204.127	2517.19
204.202	2513.09
204.277	2496.33
204.351	2486.52
204.426	2481.52
204.5	2474.71
204.575	2439.44
204.65	2446.4
204.724	2436.68
204.799	2443.48
204.873	2437
204.948	2438.1
205.022	2427.1
205.097	2418.57
205.171	2429.33
205.246	2438.76
205.32	2436.34
205.395	2439.29
205.469	2428.58
205.544	2433.49
205.618	2418.16
205.693	2428.54
205.767	2417.07
205.842	2437.02
205.916	2433.16
205.991	2422.83
206.065	2427.74
206.14	2443.24
206.214	2441.86
206.289	2433.91
206.363	2446.62
206.438	2449.96
206.512	2456.91
206.586	2473.28
206.661	2483.19
206.735	2462.11
206.81	2465.3
206.884	2482.25
206.958	2468.68
207.033	2489.39
207.107	2499.44
207.181	2531.78
207.256	2527.78
207.33	2552.11
207.405	2568.37
207.479	2589.65
207.553	2598.18
207.628	2585.09
207.702	2600.42
207.776	2596.61
207.851	2607.85
207.925	2625.43
207.999	2623.86
208.073	2626.57
208.148	2637
208.222	2629.19
208.296	2669.57
208.371	2686.78
208.445	2707.12
208.519	2741.22
208.593	2759.04
208.668	2766.53
208.742	2779.31
208.816	2792.12
208.89	2812.67
208.965	2820.35
209.039	2842.42
209.113	2873.02
209.187	2910.03
209.261	2925.76
209.336	2962.51
209.41	2998.95
209.484	3020.65
209.558	3067.53
209.632	3101.95
209.707	3138.2
209.781	3184.71
209.855	3224.12
209.929	3271.53
210.003	3307.9
210.077	3344.35
210.151	3424.88
210.226	3490.4
210.3	3554.62
210.374	3613.76
210.448	3660.17
210.522	3716.26
210.596	3767.56
210.67	3824.36
210.744	3918.84
210.818	3997.23
210.892	4064.33
210.966	4112.31
211.041	4181.82
211.115	4234.98
211.189	4318.71
211.263	4391.69
211.337	4461.95
211.411	4540.37
211.485	4603.41
211.559	4681.78
211.633	4748.75
211.707	4784.82
211.781	4860.31
211.855	4895.13
211.929	4958.26
212.003	5012.3
212.077	5099.89
212.151	5194.53
212.225	5278.61
212.299	5345.31
212.373	5412.11
212.447	5489.68
212.52	5608.4
212.594	5695.78
212.668	5793.65
212.742	5865.59
212.816	5947.86
212.89	6030.33
212.964	6118.06
213.038	6212.1
213.112	6313.15
213.186	6421.9
213.26	6495.94
213.333	6550.01
213.407	6650.42
213.481	6754.55
213.555	6865.1
213.629	6948.23
213.703	7024.97
213.777	7126.46
213.85	7203.68
213.924	7335.81
213.998	7435.41
214.072	7517.93
214.146	7602.06
214.219	7691.83
214.293	7783.27
214.367	7883.59
214.441	7989.93
214.515	8078.73
214.588	8142.37
214.662	8205.38
214.736	8280.05
214.81	8382.93
214.883	8485.73
214.957	8571.22
215.031	8651.14
215.105	8722.78
215.178	8798.25
215.252	8882.05
215.326	8949.21
215.4	9022.13
215.473	9067.29
215.547	9139.99
215.621	9220.85
215.694	9312.48
215.768	9380.19
215.842	9457.76
215.915	9531.06
215.989	9592.13
216.063	9658.98
216.136	9753.96
216.21	9841.42
216.284	9940.17
216.357	10030.68
216.431	10108.81
216.504	10207.09
216.578	10319.05
216.652	10416.79
216.725	10499.13
216.799	10593.62
216.873	10678.66
216.946	10774.63
217.02	10852.69
217.093	10930.75
217.167	10989.64
217.24	11056.48
217.314	11134.64
217.387	11212.66
217.461	11279.64
217.535	11368.75
217.608	11445.52
217.682	11522.78
217.755	11614.5
217.829	11675.09
217.902	11744.78
217.976	11819.34
218.049	11874.97
218.123	11926.88
218.196	11993.11
218.27	12062.76
218.343	12121.56
218.417	12192.04
218.49	12254.55
218.563	12341.08
218.637	12422.59
218.71	12518.04
218.784	12603.94
218.857	12687.81
218.931	12761.03
219.004	12838.84
219.077	12921.32
219.151	13000.57
219.224	13065.74
219.298	13121.32
219.371	13199.27
219.444	13263.72
219.518	13335.12
219.591	13403.66
219.665	13495.5
219.738	13575.57
219.811	13634.86
219.885	13707.99
219.958	13783.14
220.031	13853.91
220.105	13925.21
220.178	13995.3
220.251	14051.75
220.325	14117.26
220.398	14180.6
220.471	14249.05
220.544	14325.17
220.618	14371.45
220.691	14426.26
220.764	14495.77
220.838	14570.25
220.911	14634.98
220.984	14715.1
221.057	14784.9
221.131	14852
221.204	14880.39
221.277	14952.6
221.35	15049.49
221.424	15105.11
221.497	15162.67
221.57	15224.42
221.643	15289.78
221.716	15351.33
221.79	15397.75
221.863	15454.87
221.936	15514.16
222.009	15570.6
222.082	15621.74
222.155	15681.85
222.229	15757.43
222.302	15804.76
222.375	15848.19
222.448	15907.23
222.521	15955.57
222.594	16009.75
222.667	16050.33
222.74	16117.62
222.814	16166.88
222.887	16214.3
222.96	16279.47
223.033	16337.93
223.106	16383.57
223.179	16433.51
223.252	16481.7
223.325	16535.92
223.398	16571.88
223.471	16615.83
223.544	16656.46
223.617	16712.08
223.69	16767.12
223.763	16802.83
223.837	16860.67
223.91	16920
223.983	16946.41
224.056	16985.73
224.129	17021.4
224.202	17084.1
224.275	17126.37
224.348	17148.92
224.42	17170.9
224.493	17189.93
224.566	17219.28
224.639	17274.99
224.712	17298.03
224.785	17323.33
224.858	17359.62
224.931	17397.74
225.004	17423.43
225.077	17467.43
225.15	17474.71
225.223	17501.74
225.296	17555.04
225.369	17570.99
225.442	17594.99
225.514	17633.5
225.587	17659.14
225.66	17703.62
225.733	17735.67
225.806	17763.33
225.879	17795.67
225.952	17815.38
226.025	17859.04
226.097	17914.17
226.17	17931.13
226.243	17946.89
226.316	17979.18
226.389	18014.79
226.461	18054.93
226.534	18097.87
226.607	18117.73
226.68	18173
226.753	18205.87
226.825	18223.26
226.898	18269.67
226.971	18300.03
227.044	18328.42
227.117	18364.99
227.189	18394.05
227.262	18433.71
227.335	18469.95
227.407	18494.96
227.48	18529.95
227.553	18559.83
227.626	18581.75
227.698	18613.41
227.771	18653.56
227.844	18657.89
227.916	18680.49
227.989	18694.52
228.062	18705.5
228.134	18752.1
228.207	18767.43
228.28	18774.85
228.352	18780.97
228.425	18793.35
228.498	18823.86
228.57	18842.6
228.643	18878.22
228.716	18890.55
228.788	18895.08
228.861	18915.85
228.934	18955.27
229.006	18974.88
229.079	18990.79
229.151	18990.69
229.224	18983.7
229.296	18997.15
229.369	19050.78
229.442	19075.6
229.514	19078.54
229.587	19115.98
229.659	19112.85
229.732	19126.06
229.804	19154.2
229.877	19201.28
229.949	19235.5
230.022	19266.53
230.094	19284.17
230.167	19298.48
230.239	19311.78
230.312	19321.95
230.384	19358.62
230.457	19372.11
230.529	19394.81
230.602	19409.94
230.674	19429.36
230.747	19458.04
230.819	19492.3
230.892	19478.32
230.964	19500.54
231.037	19526.03
231.109	19530.66
231.181	19561.89
231.254	19574.08
231.326	19585.31
231.399	19587.72
231.471	19586.22
231.544	19568.63
231.616	19584.49
231.688	19596.15
231.761	19599.28
231.833	19613.79
231.905	19580.34
231.978	19589.59
232.05	19589.16
232.122	19590.8
232.195	19587.23
232.267	19615.14
232.339	19601.93
232.412	19630.7
232.484	19625.83
232.556	19619.76
232.629	19646.27
232.701	19646.12
232.773	19649.69
232.846	19646.89
232.918	19650.12
232.99	19653.4
233.062	19667.61
233.135	19670.84
233.207	19657.4
233.279	19668.34
233.351	19673.64
233.424	19680.14
233.496	19669.4
233.568	19680.38
233.64	19675.04
233.713	19680.29
233.785	19676.82
233.857	19685.73
233.929	19666.46
234.001	19679.71
234.074	19694.99
234.146	19672.58
234.218	19665.11
234.29	19667.81
234.362	19655.62
234.434	19633.01
234.507	19618.07
234.579	19591.91
234.651	19578.85
234.723	19576.15
234.795	19571.09
234.867	19556.49
234.939	19563.43
235.012	19556.63
235.084	19557.4
235.156	19557.69
235.228	19549.21
235.3	19539.19
235.372	19523.91
235.444	19522.22
235.516	19478.66
235.588	19467.24
235.66	19455.58
235.732	19443.53
235.804	19481.22
235.876	19489.02
235.948	19492.44
236.02	19480.54
236.092	19475.96
236.164	19462.86
236.236	19449.22
236.308	19429.22
236.38	19419
236.452	19388.98
236.524	19380.88
236.596	19374.04
236.668	19371.97
236.74	19352.55
236.812	19330.86
236.884	19330.24
236.956	19320.89
237.028	19301.66
237.1	19279.93
237.172	19283.98
237.244	19281.57
237.316	19227.74
237.388	19191.83
237.46	19162.39
237.532	19161.57
237.604	19127.79
237.675	19123.5
237.747	19107.5
237.819	19081.67
237.891	19059.51
237.963	19042.16
238.035	19014.88
238.107	18959.46
238.178	18934.31
238.25	18904.72
238.322	18902.6
238.394	18854.94
238.466	18820.53
238.538	18808.39
238.609	18791.09
238.681	18741.12
238.753	18706.95
238.825	18682.61
238.897	18665.6
238.968	18659.72
239.04	18621.85
239.112	18635.19
239.184	18596.11
239.255	18569.9
239.327	18547.34
239.399	18522
239.471	18499.97
239.542	18477.9
239.614	18475.01
239.686	18431.78
239.758	18421.71
239.829	18387.21
239.901	18375.26
239.973	18352.85
240.044	18335.16
240.116	18305.96
240.188	18272.13
240.259	18241.63
240.331	18205.68
240.403	18194.5
240.474	18153.39
240.546	18119.85
240.618	18067.18
240.689	18035.9
240.761	18008.19
240.833	17996.91
240.904	17970.65
240.976	17943.37
241.048	17917.16
241.119	17892.24
241.191	17874.89
241.262	17867.76
241.334	17836.77
241.405	17815.09
241.477	17780.78
241.549	17754.85
241.62	17729.07
241.692	17714.51
241.763	17695.43
241.835	17662.27
241.906	17628.06
241.978	17592.15
242.049	17584.15
242.121	17574.85
242.192	17558.8
242.264	17516.06
242.335	17463.81
242.407	17444.83
242.478	17408.58
242.55	17382.85
242.621	17339.43
242.693	17304.05
242.764	17267.72
242.836	17230.95
242.907	17196.97
242.979	17170.56
243.05	17136.78
243.122	17105.02
243.193	17077.21
243.264	17034.17
243.336	17009.88
243.407	16987.95
243.479	16973.4
243.55	16938.7
243.622	16905.68
243.693	16870.21
243.764	16859.37
243.836	16824.52
243.907	16790.83
243.978	16767.46
244.05	16730.83
244.121	16690.68
244.192	16667.4
244.264	16616.66
244.335	16580.85
244.407	16529.13
244.478	16504.36
244.549	16476.35
244.62	16437.12
244.692	16399.29
244.763	16371.91
244.834	16333.98
244.906	16292.24
244.977	16258.26
245.048	16234.5
245.119	16192.43
245.191	16161.24
245.262	16104.22
245.333	16096.17
245.405	16066.72
245.476	16035.59
245.547	16011.92
245.618	15991.63
245.689	15964.93
245.761	15939.29
245.832	15912.34
245.903	15894.7
245.974	15867.23
246.045	15830.45
246.117	15821.87
246.188	15780.42
246.259	15738.39
246.33	15705.42
246.401	15675.2
246.473	15628.16
246.544	15597.36
246.615	15575.57
246.686	15536.04
246.757	15522.02
246.828	15475.21
246.899	15459.5
246.97	15419.35
247.042	15384.4
247.113	15360.49
247.184	15346.66
247.255	15315.19
247.326	15292.48
247.397	15261.87
247.468	15233.34
247.539	15203.98
247.61	15152.94
247.681	15138.43
247.752	15126.42
247.823	15089.69
247.894	15055.52
247.965	15023.99
248.037	14990.06
248.108	14937.95
248.179	14916.35
248.25	14888.11
248.321	14868.25
248.392	14823.42
248.463	14814.16
248.534	14787.65
248.605	14767.65
248.675	14732.12
248.746	14704.74
248.817	14682.18
248.888	14658.66
248.959	14615.47
249.03	14588.62
249.101	14566.78
249.172	14530.1
249.243	14482.56
249.314	14463.57
249.385	14440.24
249.456	14418.45
249.527	14386.93
249.598	14378.3
249.669	14342.24
249.739	14317.75
249.81	14299.05
249.881	14256.1
249.952	14227.85
250.023	14196.95
250.094	14156.7
250.165	14121.84
250.235	14095.23
250.306	14066.94
250.377	14025.53
250.448	14001.91
250.519	13960.21
250.59	13946.71
250.66	13919.62
250.731	13914.94
250.802	13897.06
250.873	13877.44
250.944	13855.55
251.014	13823.06
251.085	13816.5
251.156	13799.97
251.227	13788.06
251.297	13770.32
251.368	13765.84
251.439	13756.73
251.51	13742.6
251.58	13707.27
251.651	13665.91
251.722	13648.7
251.792	13603.05
251.863	13585.35
251.934	13578.51
252.005	13589.21
252.075	13564.34
252.146	13554.94
252.217	13533.92
252.287	13522.78
252.358	13495.3
252.429	13495.4
252.499	13469.42
252.57	13442.04
252.641	13428.83
252.711	13397.16
252.782	13358.74
252.852	13345.09
252.923	13308.02
252.994	13282.91
253.064	13273.17
253.135	13247.43
253.205	13222.74
253.276	13221.54
253.347	13219.37
253.417	13186.93
253.488	13151.11
253.558	13114.43
253.629	13088.97
253.699	13065.06
253.77	13039.99
253.841	13019.02
253.911	12986.24
253.982	12959.35
254.052	12952.31
254.123	12937.8
254.193	12917.12
254.264	12931.39
254.334	12901.88
254.405	12871.95
254.475	12842.74
254.546	12822.59
254.616	12820.71
254.687	12793.95
254.757	12772.4
254.827	12739.91
254.898	12716.34
254.968	12694.7
255.039	12676.38
255.109	12654.11
255.18	12628.75
255.25	12586.82
255.321	12570.96
255.391	12539.43
255.461	12546.18
255.532	12490.6
255.602	12458.98
255.673	12423.35
255.743	12385.66
255.813	12336.78
255.884	12324.58
255.954	12310.65
256.024	12298.46
256.095	12278.6
256.165	12257.19
256.235	12235.99
256.306	12214.44
256.376	12212.75
256.446	12200.75
256.517	12183.64
256.587	12183.06
256.657	12166.72
256.728	12148.45
256.798	12125.51
256.868	12106.56
256.938	12076.87
257.009	12068.05
257.079	12053.88
257.149	12057.44
257.219	12025.92
257.29	12017.63
257.36	11987.99
257.43	11977.19
257.5	11931.74
257.571	11909.08
257.641	11893.27
257.711	11868.59
257.781	11852.78
257.852	11839.91
257.922	11798.17
257.992	11788.05
258.062	11760.29
258.132	11751.47
258.202	11736.09
258.273	11716.52
258.343	11708.86
258.413	11686.49
258.483	11671.55
258.553	11638.78
258.623	11607.55
258.693	11593.28
258.764	11590.58
258.834	11586.72
258.904	11569.18
258.974	11550.63
259.044	11529.32
259.114	11514.86
259.184	11501.71
259.254	11483.92
259.324	11439.15
259.394	11432.06
259.464	11422.86
259.535	11405.07
259.605	11376.88
259.675	11347.48
259.745	11331.33
259.815	11299.48
259.885	11270.71
259.955	11275.04
260.025	11255
260.095	11238.56
260.165	11225.07
260.235	11220.06
260.305	11190.47
260.375	11159.86
260.445	11165.36
260.515	11165.55
260.585	11161.07
260.655	11143.09
260.725	11138.61
260.795	11127.04
260.865	11128.73
260.934	11102.9
261.004	11092.73
261.074	11072.35
261.144	11073.26
261.214	11071.57
261.284	11062.13
261.354	11055.77
261.424	11033.07
261.494	11033.26
261.564	11016.3
261.634	11007
261.703	10972.59
261.773	10965.46
261.843	10960.69
261.913	10944.54
261.983	10909.08
262.053	10893.51
262.123	10875.92
262.192	10844.07
262.262	10839.83
262.332	10805.71
262.402	10793.96
262.472	10780.7
262.541	10750.4
262.611	10743.12
262.681	10714.35
262.751	10704.77
262.821	10684.67
262.89	10648
262.96	10639.14
263.03	10647.23
263.1	10632.29
263.169	10617.31
263.239	10602.95
263.309	10599.1
263.379	10590.23
263.448	10568.07
263.518	10558.77
263.588	10541.28
263.657	10547.74
263.727	10542.48
263.797	10531.26
263.867	10514.15
263.936	10481.25
264.006	10482.59
264.076	10464.48
264.145	10445.98
264.215	10423.24
264.285	10422.42
264.354	10401.32
264.424	10380.17
264.494	10342.63
264.563	10321.1
264.633	10330.11
264.702	10320.61
264.772	10285.68
264.842	10263.72
264.911	10262.66
264.981	10230.76
265.05	10219.63
265.12	10198.14
265.19	10184.03
265.259	10179.88
265.329	10174.97
265.398	10162.64
265.468	10173.86
265.537	10154.69
265.607	10151.22
265.676	10146.93
265.746	10133.98
265.815	10126.08
265.885	10103
265.955	10088.31
266.024	10072.08
266.094	10038.36
266.163	10043.85
266.232	10048.86
266.302	10028.92
266.371	10015.77
266.441	10004.64
266.51	9992.79
266.58	9973.19
266.649	9945.82
266.719	9933.78
266.788	9923.95
266.858	9929.78
266.927	9891.73
266.996	9887.05
267.066	9873.76
267.135	9845.34
267.205	9845.97
267.274	9839.56
267.343	9854.35
267.413	9836.53
267.482	9836.29
267.552	9835.9
267.621	9800.6
267.69	9773.14
267.76	9770.4
267.829	9764.33
267.898	9751.66
267.968	9738.08
268.037	9737.69
268.106	9742.13
268.176	9728.25
268.245	9709.23
268.314	9695.02
268.384	9691.74
268.453	9673.3
268.522	9668.29
268.592	9673.49
268.661	9647.77
268.73	9634.57
268.799	9607.94
268.869	9623.98
268.938	9592.63
269.007	9566.04
269.076	9556.65
269.146	9558.63
269.215	9548.95
269.284	9554.49
269.353	9538.07
269.422	9522.61
269.492	9504.84
269.561	9460.3
269.63	9449.03
269.699	9434.24
269.768	9415.17
269.838	9405.98
269.907	9404.63
269.976	9382.19
270.045	9349.4
270.114	9340.15
270.183	9326.91
270.253	9321.52
270.322	9282.9
270.391	9277.36
270.46	9283.28
270.529	9278.08
270.598	9269.51
270.667	9254.92
270.736	9231.9
270.806	9229.11
270.875	9233.01
270.944	9208.12
271.013	9230.65
271.082	9224.2
271.151	9224.15
271.22	9203.06
271.289	9188.19
271.358	9166.76
271.427	9158.19
271.496	9155.83
271.565	9147.65
271.634	9140.09
271.703	9158.2
271.772	9163.16
271.841	9154.2
271.91	9132.87
271.979	9127.82
272.048	9108.03
272.117	9108.17
272.186	9087.28
272.255	9086.32
272.324	9080.92
272.393	9088.91
272.462	9072.06
272.531	9066.33
272.6	9049.38
272.669	9051.55
272.738	9047.27
272.807	9051.74
272.876	9030.03
272.945	9052.85
273.013	9051.55
273.082	9060.36
273.151	9018.04
273.22	9013.18
273.289	9002.78
273.358	9014.1
273.427	8993.59
273.496	8990.99
273.564	8989.83
273.633	8991.76
273.702	8973.42
273.771	8962.83
273.84	8956.86
273.909	8953.82
273.977	8944.63
274.046	8937.22
274.115	8945.59
274.184	8924.9
274.253	8912.48
274.322	8924.75
274.39	8892.64
274.459	8879.45
274.528	8848.88
274.597	8842.87
274.665	8840.94
274.734	8851.63
274.803	8840.6
274.872	8846.43
274.94	8831.22
275.009	8855.97
275.078	8844.22
275.147	8842.39
275.215	8840.13
275.284	8847.21
275.353	8839.46
275.421	8815.44
275.49	8830.89
275.559	8812.22
275.627	8803.94
275.696	8796.34
275.765	8792.24
275.833	8783.2
275.902	8780.89
275.971	8789.84
276.039	8804.42
276.108	8803.6
276.177	8800.72
276.245	8785.84
276.314	8773.71
276.383	8777.52
276.451	8740.49
276.52	8745.88
276.588	8757.29
276.657	8761.29
276.725	8746.41
276.794	8748.96
276.863	8763.79
276.931	8737.45
277	8746.31
277.068	8753.63
277.137	8772.78
277.205	8765.8
277.274	8788.76
277.342	8798.53
277.411	8782.17
277.48	8762.48
277.548	8756.03
277.617	8754.01
277.685	8748.77
277.754	8757.48
277.822	8750.55
277.89	8766.05
277.959	8752.24
278.027	8728.56
278.096	8711.61
278.164	8737.22
278.233	8721.39
278.301	8703.68
278.37	8709.02
278.438	8694.97
278.507	8703.05
278.575	8675.04
278.643	8677.11
278.712	8651.46
278.78	8637.16
278.849	8649
278.917	8659.01
278.985	8651.36
279.054	8650.44
279.122	8667.19
279.191	8661.22
279.259	8658.24
279.327	8637.11
279.396	8655.93
279.464	8652.8
279.532	8658.53
279.601	8654.19
279.669	8650.25
279.737	8667.96
279.806	8668.97
279.874	8680.57
279.942	8677.77
280.011	8671.38
280.079	8681.39
280.147	8697.99
280.215	8700.11
280.284	8692.89
280.352	8678.07
280.42	8682.2
280.488	8676.14
280.557	8662.38
280.625	8663.39
280.693	8660.16
280.761	8664.59
280.83	8646.06
280.898	8656.41
280.966	8637.83
281.034	8600.48
281.102	8590.33
281.171	8580.41
281.239	8591.73
281.307	8586.14
281.375	8576.66
281.443	8601.01
281.512	8591
281.58	8602.31
281.648	8588.31
281.716	8582.73
281.784	8588.89
281.852	8584.27
281.92	8577.34
281.989	8587.16
282.057	8574.6
282.125	8625.81
282.193	8620.66
282.261	8623.99
282.329	8618.31
282.397	8615.71
282.465	8623.74
282.533	8641.64
282.601	8634.57
282.67	8607.91
282.738	8598.38
282.806	8609.3
282.874	8599.97
282.942	8600.16
283.01	8588.65
283.078	8599.14
283.146	8596.21
283.214	8602.95
283.282	8604.97
283.35	8620.85
283.418	8617.05
283.486	8623.64
283.554	8577.14
283.622	8570.93
283.69	8569.68
283.758	8573.62
283.826	8586.38
283.894	8590.08
283.962	8604.28
284.03	8622.13
284.098	8626.22
284.165	8621.8
284.233	8617.85
284.301	8610.06
284.369	8601.49
284.437	8595.38
284.505	8585.37
284.573	8601.1
284.641	8588.2
284.709	8593.35
284.777	8575.11
284.845	8582.81
284.912	8585.9
284.98	8593.4
285.048	8590.56
285.116	8593.26
285.184	8599.76
285.252	8601.92
285.319	8591.19
285.387	8583.2
285.455	8563.32
285.523	8570.54
285.591	8565.25
285.659	8567.95
285.726	8580.84
285.794	8568.77
285.862	8560.39
285.93	8561.45
285.997	8557.41
286.065	8552.45
286.133	8539.79
286.201	8539.36
286.269	8521.36
286.336	8511.11
286.404	8496.87
286.472	8504.95
286.539	8488.98
286.607	8471.75
286.675	8471.8
286.743	8481.85
286.81	8472.28
286.878	8484.07
286.946	8474.78
287.013	8476.17
287.081	8475.6
287.149	8460.29
287.216	8481.13
287.284	8480.6
287.352	8481.37
287.419	8478.72
287.487	8493.45
287.555	8500.09
287.622	8501
287.69	8507.64
287.758	8515.25
287.825	8519.29
287.893	8502.74
287.96	8504.85
288.028	8518.95
288.096	8522.37
288.163	8524.15
288.231	8518.33
288.298	8516.98
288.366	8531.08
288.433	8529.35
288.501	8525.69
288.569	8532.43
288.636	8529.16
288.704	8540.46
288.771	8544.84
288.839	8534.11
288.906	8525.93
288.974	8535.13
289.041	8526.03
289.109	8514.82
289.176	8525.07
289.244	8524.69
289.311	8543.21
289.379	8548.55
289.446	8550.43
289.514	8547.88
289.581	8548.6
289.649	8553.13
289.716	8557.02
289.783	8545.81
289.851	8561.83
289.918	8557.6
289.986	8563.52
290.053	8564.67
290.121	8565.78
290.188	8568.67
290.255	8599.52
290.323	8595.19
290.39	8591.14
290.458	8597.01
290.525	8613.09
290.592	8609.48
290.66	8612.6
290.727	8607.98
290.794	8628.73
290.862	8626.9
290.929	8630.22
290.996	8625.36
291.064	8632.82
291.131	8641.87
291.198	8652.55
291.266	8656.74
291.333	8666.12
291.4	8673.49
291.468	8690.33
291.535	8688.17
291.602	8694.91
291.669	8685.37
291.737	8694.18
291.804	8691.63
291.871	8711.84
291.938	8724.84
292.006	8749.44
292.073	8764.12
292.14	8780.05
292.207	8774.08
292.275	8775.43
292.342	8784.58
292.409	8812.78
292.476	8834.97
292.543	8828.38
292.611	8828.81
292.678	8843.59
292.745	8865.73
292.812	8875.7
292.879	8866.89
292.946	8873.29
293.014	8883.21
293.081	8892.45
293.148	8905.64
293.215	8924.31
293.282	8920.22
293.349	8925.61
293.416	8904.62
293.484	8919.69
293.551	8920.99
293.618	8935.53
293.685	8956.66
293.752	8948.14
293.819	8946.79
293.886	8932.45
293.953	8935.24
294.02	8951.12
294.087	8956.08
294.154	8945.4
294.221	8961.43
294.288	8972.02
294.356	8988.48
294.423	8997.68
294.49	8991.04
294.557	9002.2
294.624	8996.38
294.691	9011.4
294.758	9004.95
294.825	9010.92
294.892	8999.46
294.959	9006.15
295.026	9008.85
295.093	9007.16
295.16	9011.01
295.226	9007.16
295.293	9031.52
295.36	9038.89
295.427	9049.05
295.494	9060.22
295.561	9073.26
295.628	9090.7
295.695	9099.8
295.762	9094.74
295.829	9105.14
295.896	9123.39
295.963	9132.82
296.03	9139.56
296.096	9147.51
296.163	9166.77
296.23	9193.2
296.297	9205.38
296.364	9197.24
296.431	9208.94
296.498	9201.63
296.564	9233.59
296.631	9240.91
296.698	9224.01
296.765	9249.43
296.832	9239.08
296.899	9222.13
296.965	9236.87
297.032	9213.95
297.099	9234.31
297.166	9248.76
297.233	9237.97
297.299	9233.21
297.366	9237.83
297.433	9240.09
297.5	9250.64
297.566	9247.84
297.633	9235.61
297.7	9239.8
297.767	9242.79
297.833	9244.14
297.9	9247.79
297.967	9222.47
298.033	9234.36
298.1	9272.12
298.167	9259.79
298.234	9265.23
298.3	9281.45
298.367	9275.87
298.434	9284.73
298.5	9270.47
298.567	9262.96
298.634	9264.99
298.7	9286.22
298.767	9284.39
298.834	9302.11
298.9	9294.98
298.967	9286.6
299.033	9308.32
299.1	9328.36
299.167	9333.8
299.233	9330.52
299.3	9348.43
299.366	9371.01
299.433	9385.61
299.5	9358.44
299.566	9365.23
299.633	9385.8
299.699	9395.76
299.766	9396.87
299.832	9404.19
299.899	9415.7
299.965	9431.06
300.032	9431.01
300.099	9431.01
300.165	9436.6
300.232	9431.16
300.298	9432.41
300.365	9455.09
300.431	9452.06
300.498	9440.93
300.564	9458.36
300.631	9468.52
300.697	9482.2
300.763	9481.77
300.83	9473.87
300.896	9487.74
300.963	9499.05
301.029	9498.47
301.096	9499.15
301.162	9512.05
301.229	9502.76
301.295	9490.91
301.361	9494.81
301.428	9503.82
301.494	9491.4
301.561	9495.97
301.627	9501.6
301.693	9510.13
301.76	9510.95
301.826	9507
301.892	9521.11
301.959	9531.61
302.025	9537.53
302.092	9526.36
302.158	9529.2
302.224	9541.34
302.291	9531.32
302.357	9523.13
302.423	9517.02
302.49	9511.62
302.556	9518.32
302.622	9526.36
302.688	9538.54
302.755	9546.78
302.821	9546.54
302.887	9557.18
302.954	9558.43
303.02	9563.01
303.086	9565.08
303.152	9557.13
303.219	9551.35
303.285	9554.1
303.351	9555.25
303.417	9548.71
303.483	9541.53
303.55	9538.98
303.616	9530.02
303.682	9531.08
303.748	9525.25
303.815	9543.07
303.881	9554.49
303.947	9542.01
304.013	9544.95
304.079	9538.5
304.145	9518.66
304.212	9518.61
304.278	9509.8
304.344	9503.53
304.41	9492.51
304.476	9484.42
304.542	9480.03
304.608	9485.67
304.674	9471.99
304.741	9460.38
304.807	9467.95
304.873	9476.04
304.939	9492.07
305.005	9475.27
305.071	9476.57
305.137	9477.63
305.203	9448.44
305.269	9439.63
305.335	9453.88
305.401	9441.03
305.467	9435.97
305.533	9450.03
305.599	9466.98
305.666	9477.77
305.732	9473.92
305.798	9484.08
305.864	9505.85
305.93	9510.18
305.996	9512.93
306.062	9505.99
306.128	9509.36
306.194	9491.4
306.259	9488.22
306.325	9472.67
306.391	9480.18
306.457	9483.16
306.523	9489.67
306.589	9519.52
306.655	9517.5
306.721	9494.96
306.787	9490.39
306.853	9510.37
306.919	9490.2
306.985	9470.07
307.051	9464
307.117	9461.25
307.183	9454.18
307.248	9428.7
307.314	9434.57
307.38	9433.37
307.446	9441.08
307.512	9431.83
307.578	9439.39
307.644	9432.26
307.709	9435.34
307.775	9434.77
307.841	9432.84
307.907	9435.68
307.973	9411.26
308.039	9412.18
308.104	9421.04
308.17	9424.07
308.236	9401.92
308.302	9402.79
308.368	9396.19
308.433	9394.55
308.499	9392.19
308.565	9380.3
308.631	9384.68
308.696	9362.39
308.762	9349.72
308.828	9341.25
308.894	9320.93
308.959	9304.9
309.025	9301.72
309.091	9293.34
309.156	9286.12
309.222	9288.19
309.288	9270.18
309.354	9246.25
309.419	9236.57
309.485	9218.52
309.551	9213.12
309.616	9207.06
309.682	9204.02
309.748	9195.98
309.813	9192.03
309.879	9173.74
309.945	9163.15
310.01	9154.87
310.076	9158.28
310.141	9150.2
310.207	9140.04
310.273	9141.72
310.338	9140.57
310.404	9125.26
310.469	9112.5
310.535	9101.95
310.601	9080.24
310.666	9092.18
310.732	9105.32
310.797	9094.49
310.863	9087.65
310.928	9082.45
310.994	9083.8
311.059	9083.42
311.125	9082.69
311.191	9088.81
311.256	9085.92
311.322	9093.48
311.387	9074.37
311.453	9413.85
311.518	9387.9
311.584	9389.49
311.649	9394.69
311.715	9385.93
311.78	9387.57
311.846	9379.05
311.911	9388.92
311.976	9389.16
312.042	9370.09
312.107	9358.54
312.173	9353.34
312.238	9347.22
312.304	9345.92
312.369	9332.25
312.434	9322.29
312.5	9315.45
312.565	9284.93
312.631	9291.43
312.696	9281.03
312.761	9279.97
312.827	8927.25
312.892	8970.24
312.958	8963.5
313.023	8961.77
313.088	8961.19
313.154	8947.57
313.219	8942.08
313.284	8930.14
313.35	8926.24
313.415	8912.47
313.48	8907.76
313.546	8909.92
313.611	8917.96
313.676	8908
313.741	8900.49
313.807	8902.22
313.872	8904.29
313.937	8907.9
314.003	8917.34
314.068	8923.74
314.133	8932.69
314.198	8927.73
314.264	8901.54
314.329	8889.51
314.394	8889.03
314.459	8884.07
314.525	8902.07
314.59	8901.73
314.655	8885.9
314.72	8890.28
314.785	8895.33
314.851	8887.44
314.916	8869.92
314.981	8850.86
315.046	8836.85
315.111	8829.53
315.176	8820.82
315.242	8826.12
315.307	8828.33
315.372	8800.99
315.437	8788.18
315.502	8777.21
315.567	8781.59
315.632	8769.12
315.698	8773.89
315.763	8763.73
315.828	8754.2
315.893	8745.73
315.958	8737.16
316.023	8734.61
316.088	8718.49
316.153	8696.4
316.218	8689.8
316.283	8666.04
316.348	8648.95
316.413	8652.75
316.479	8633.65
316.544	8599.78
316.609	8561.08
316.674	8522.78
316.739	8494.83
316.804	8462.68
316.869	8424.72
316.934	8390.65
316.999	8363.41
317.064	8310.83
317.129	8267.38
317.194	8234.09
317.259	8189.34
317.324	8143.26
317.389	8092.22
317.454	8044.4
317.518	8009.87
317.583	7985.33
317.648	7966.24
317.713	7935.26
317.778	7874.56
317.843	7842.24
317.908	7801.42
317.973	7769.25
318.038	7739.87
318.103	7703.95
318.168	7667.16
318.233	7638.12
318.297	7588.17
318.362	7550.76
318.427	7506.68
318.492	7480
318.557	7430.44
318.622	7402.03
318.687	7378.33
318.751	7337.82
318.816	7313.02
318.881	7279.04
318.946	7221.17
319.011	7176.33
319.075	7129.53
319.14	7095.46
319.205	7051.21
319.27	7023.92
319.335	6979.67
319.399	6937.3
319.464	6905.45
319.529	6855.73
319.594	6815.76
319.658	6781.85
319.723	6734.59
319.788	6714.81
319.853	6662.83
319.917	6634.89
319.982	6581.15
320.047	6536.4
320.112	6510.52
320.176	6458.13
320.241	6422.89
320.306	6397.35
320.37	6355.73
320.435	6328.61
320.5	6301.78
320.564	6268.13
320.629	6227.24
320.694	6194.37
320.758	6154.68
320.823	6110.82
320.888	6087.7
320.952	6045.47
321.017	6003.83
321.082	5966.75
321.146	5930.29
321.211	5897.62
321.275	5853.79
321.34	5813.79
321.405	5777.2
321.469	5735.67
321.534	5695.64
321.598	5649.08
321.663	5614.4
321.727	5586.88
321.792	5536.45
321.857	5492.77
321.921	5451.88
321.986	5405.55
322.05	5348.76
322.115	5311.29
322.179	5267.74
322.244	5207.66
322.308	5172.69
322.373	5133.26
322.437	5089.77
322.502	5061.69
322.566	5017.04
322.631	4986.53
322.695	4944.78
322.76	4902.79
322.824	4863.05
322.889	4821.5
322.953	4774.93
323.018	4709.15
323.082	4645.79
323.146	4597.89
323.211	4544.58
323.275	4499.6
323.34	4462.67
323.404	4430.72
323.468	4386.23
323.533	4342.76
323.597	4301.46
323.662	4249.32
323.726	4211.83
323.79	4168.89
323.855	4104.94
323.919	4056.18
323.983	4010.47
324.048	3942.6
324.112	4090.69
324.177	3967.83
324.241	3761.69
324.305	3561.43
324.37	3365.99
324.434	3175.1
324.498	3133.49
324.562	3084.49
324.627	3029.1
324.691	2969.43
324.755	2902.87
324.82	2829.24
324.884	2756.71
324.948	2687.83
325.012	2594.85
325.077	2474.47
