Data from 20250702_urea_0.5M_MAYP1162681_19-44-59-905.txt Node
Date: Wed Jul 02 19:44:59 BST 2025
User: adleo
Spectrometer: MAYP116268
Trigger mode: 0
Integration Time (sec): 1.000000E0
Scans to average: 1
Electric dark correction enabled: true
Nonlinearity correction enabled: true
Boxcar width: 10
XAxis mode: Wavelengths
Number of Pixels in Spectrum: 2068
>>>>>Begin Spectral Data<<<<<
179.565	1181.14
179.642	1235.59
179.718	1277.52
179.795	1311.61
179.871	1343.22
179.948	1360.15
180.024	1381.25
180.101	1403.5
180.177	1418.52
180.254	1442.12
180.33	1463.94
180.407	1515.26
180.483	1608.52
180.56	1693.7
180.636	1776.31
180.712	1765
180.789	1776.83
180.865	1787.04
180.942	1795.98
181.018	1804.2
181.095	1816.42
181.171	1821.84
181.248	1824.21
181.324	1839.57
181.4	1847.94
181.477	1859.39
181.553	1871.51
181.63	1893.05
181.706	1906.26
181.782	1915.67
181.859	1914.44
181.935	1919.14
182.011	1915.34
182.088	1934.46
182.164	1956.95
182.24	1969.22
182.317	1979.15
182.393	1976.58
182.469	1994.03
182.546	2008.11
182.622	2011.58
182.698	2009.25
182.775	2023.23
182.851	2033.93
182.927	2027.13
183.003	2022.09
183.08	2017.57
183.156	2026.7
183.232	2023.28
183.308	2013.01
183.385	2019.19
183.461	2036.55
183.537	2039.64
183.613	2050.86
183.69	2039.92
183.766	2028.12
183.842	2035.07
183.918	2036.64
183.995	2048
184.071	2050.29
184.147	2043.96
184.223	2034.31
184.299	2044.97
184.375	2029.84
184.452	2036.36
184.528	2089.46
184.604	2100.96
184.68	2110.47
184.756	2121.03
184.832	2124.51
184.908	2131.4
184.985	2129.59
185.061	2115.66
185.137	2124.27
185.213	2114.09
185.289	2113.85
185.365	2109.72
185.441	2107.67
185.517	2120.61
185.593	2117.66
185.669	2114.76
185.745	2123.8
185.822	2139.68
185.898	2132.02
185.974	2144.43
186.05	2138.53
186.126	2099.61
186.202	2096.14
186.278	2092.19
186.354	2080.2
186.43	2087.06
186.506	2084.01
186.582	2083.2
186.658	2089.53
186.734	2069.27
186.81	2073.03
186.886	2076.26
186.962	2086.44
187.038	2086.96
187.114	2080.44
187.19	2092.86
187.266	2081.26
187.341	2082.49
187.417	2075.98
187.493	2075.64
187.569	2075.41
187.645	2070.51
187.721	2059.99
187.797	2066.13
187.873	2069.94
187.949	2063.18
188.025	2056.09
188.101	2059.66
188.176	2067.13
188.252	2060.71
188.328	2068.22
188.404	2067.08
188.48	2062.75
188.556	2055
188.632	2051.86
188.707	2053.71
188.783	2043.39
188.859	2040.16
188.935	2029.41
189.011	2040.15
189.086	2034.45
189.162	2025.79
189.238	2023.42
189.314	2022.08
189.39	2014.86
189.465	2009.39
189.541	2025.32
189.617	2008.91
189.693	2004.82
189.768	2008.53
189.844	2032.66
189.92	2025.43
189.996	2034.56
190.071	2046.21
190.147	2044.36
190.223	2053.06
190.298	2044.98
190.374	2036.27
190.45	2051.11
190.526	2059.62
190.601	2052.01
190.677	2054.25
190.753	2085.32
190.828	2089.08
190.904	2102.11
190.98	2119.34
191.055	2127.75
191.131	2121.09
191.207	2140.64
191.282	2150.1
191.358	2139.21
191.433	2124.03
191.509	2134.54
191.585	2131.97
191.66	2132.92
191.736	2139.86
191.811	2132.11
191.887	2147.62
191.963	2167.74
192.038	2169.88
192.114	2170.55
192.189	2173.17
192.265	2168.13
192.34	2144.33
192.416	2142.19
192.491	2138.14
192.567	2141.09
192.642	2144.33
192.718	2146.42
192.793	2136.39
192.869	2130.16
192.944	2132.44
193.02	2141.86
193.095	2146.14
193.171	2151.13
193.246	2148.28
193.322	2150.33
193.397	2151.66
193.473	2138.71
193.548	2122.54
193.624	2128.63
193.699	2125.68
193.775	2140.95
193.85	2143.52
193.925	2150.61
194.001	2149.9
194.076	2143.57
194.152	2127.63
194.227	2121.02
194.302	2108.84
194.378	2113.27
194.453	2113.31
194.529	2126.92
194.604	2111.32
194.679	2106.27
194.755	2089.39
194.83	2102.57
194.905	2099.34
194.981	2106.48
195.056	2098.39
195.131	2104.95
195.207	2102.77
195.282	2094.16
195.357	2075.32
195.433	2092.06
195.508	2079.88
195.583	2086.87
195.659	2101.67
195.734	2111.28
195.809	2109.47
195.884	2118.18
195.96	2119.94
196.035	2133.06
196.11	2125.4
196.185	2137.87
196.261	2140.43
196.336	2169.45
196.411	2156.98
196.486	2160.89
196.561	2156.13
196.637	2164.78
196.712	2180.06
196.787	2183.77
196.862	2198.99
196.937	2209.79
197.013	2214.5
197.088	2227.11
197.163	2251.15
197.238	2266.25
197.313	2268.39
197.388	2285.42
197.464	2316.94
197.539	2326.12
197.614	2321.98
197.689	2334.69
197.764	2350.68
197.839	2371.24
197.914	2367.77
197.989	2388.23
198.065	2404.51
198.14	2451.72
198.215	2477.28
198.29	2488.47
198.365	2500.28
198.44	2512.7
198.515	2539.08
198.59	2554.42
198.665	2581.71
198.74	2586.47
198.815	2587.66
198.89	2607.47
198.965	2635.11
199.04	2631.44
199.115	2648.01
199.19	2689.02
199.265	2694.87
199.34	2701.97
199.415	2737.96
199.49	2756.06
199.565	2766.16
199.64	2787.36
199.715	2785.17
199.79	2793.65
199.865	2799.89
199.94	2800.51
200.015	2830.39
200.09	2837.16
200.165	2843.31
200.24	2848.55
200.315	2892.58
200.39	2907.36
200.464	2914.93
200.539	2916.32
200.614	2932.38
200.689	2952.49
200.764	2957.83
200.839	2974.18
200.914	2979.85
200.989	2968.78
201.063	2982.08
201.138	2964.17
201.213	2963.74
201.288	2947.96
201.363	2954.78
201.438	2956.26
201.512	2968.26
201.587	2950.53
201.662	2953.39
201.737	2963.45
201.812	2972.84
201.886	2937.53
201.961	2944.93
202.036	2934.35
202.111	2928.82
202.186	2899.61
202.26	2884.45
202.335	2862.95
202.41	2858.81
202.485	2843.71
202.559	2822.21
202.634	2798.53
202.709	2812.1
202.784	2795.09
202.858	2790.9
202.933	2774.98
203.008	2768.88
203.082	2754.21
203.157	2753.49
203.232	2712.2
203.306	2692.33
203.381	2660.45
203.456	2637.39
203.53	2616.46
203.605	2600.37
203.68	2579.59
203.754	2572.6
203.829	2557.5
203.904	2536.55
203.978	2524.35
204.053	2527.78
204.127	2516.26
204.202	2514.5
204.277	2496.54
204.351	2484.88
204.426	2480.74
204.5	2468.31
204.575	2432.13
204.65	2438.8
204.724	2429.23
204.799	2437.5
204.873	2433.74
204.948	2430.98
205.022	2418.13
205.097	2409.32
205.171	2418.6
205.246	2426.41
205.32	2424.13
205.395	2424.79
205.469	2417.52
205.544	2424.18
205.618	2409.8
205.693	2422.09
205.767	2409.14
205.842	2427.67
205.916	2426.62
205.991	2416.1
206.065	2422.19
206.14	2440.98
206.214	2438.7
206.289	2436.13
206.363	2451.93
206.438	2453.93
206.512	2461.65
206.586	2485.93
206.661	2494.26
206.735	2474.27
206.81	2475.42
206.884	2496.51
206.958	2488.13
207.033	2506.69
207.107	2516.6
207.181	2546.51
207.256	2543.23
207.33	2567.03
207.405	2582.72
207.479	2604.15
207.553	2613.05
207.628	2596.53
207.702	2611.49
207.776	2609.06
207.851	2616.77
207.925	2635.07
207.999	2644.22
208.073	2648.08
208.148	2654.56
208.222	2654.37
208.296	2692.99
208.371	2720.26
208.445	2738.22
208.519	2777.72
208.593	2804.98
208.668	2815.04
208.742	2833.88
208.816	2852.41
208.89	2883.65
208.965	2901.54
209.039	2933.39
209.113	2974.15
209.187	3024.99
209.261	3047.97
209.336	3097.61
209.41	3145.84
209.484	3179.34
209.558	3230.44
209.632	3280.1
209.707	3331.59
209.781	3393.44
209.855	3451.58
209.929	3513.13
210.003	3567.98
210.077	3617.89
210.151	3718.28
210.226	3807.31
210.3	3895.01
210.374	3979.61
210.448	4049.31
210.522	4127.78
210.596	4205.87
210.67	4292.19
210.744	4411.16
210.818	4519.72
210.892	4616.53
210.966	4692.45
211.041	4792.11
211.115	4875.59
211.189	4993.86
211.263	5104.54
211.337	5201.43
211.411	5314.28
211.485	5409.43
211.559	5524.01
211.633	5630.82
211.707	5705.31
211.781	5819.04
211.855	5897.48
211.929	6005
212.003	6100.78
212.077	6233.23
212.151	6364.96
212.225	6489.11
212.299	6600.5
212.373	6710.55
212.447	6838.34
212.52	6999.02
212.594	7138.39
212.668	7287.44
212.742	7407.51
212.816	7535.19
212.89	7671.28
212.964	7812.87
213.038	7955.04
213.112	8107.71
213.186	8263.93
213.26	8385.23
213.333	8488.2
213.407	8636.58
213.481	8779.58
213.555	8933.16
213.629	9064.65
213.703	9195.31
213.777	9341.97
213.85	9467.45
213.924	9651.55
213.998	9793.2
214.072	9926.44
214.146	10049.07
214.219	10184.82
214.293	10324.08
214.367	10470.68
214.441	10625.58
214.515	10754.76
214.588	10878.55
214.662	10981.52
214.736	11103.73
214.81	11254.74
214.883	11405.57
214.957	11535.3
215.031	11662.28
215.105	11778.48
215.178	11896.76
215.252	12021.74
215.326	12131.05
215.4	12255.12
215.473	12332.92
215.547	12443.59
215.621	12569.12
215.694	12706.98
215.768	12813.75
215.842	12920.24
215.915	13031.93
215.989	13126.6
216.063	13238.1
216.136	13351.92
216.21	13477.45
216.284	13606.49
216.357	13723.53
216.431	13833.73
216.504	13953.19
216.578	14093.61
216.652	14224.1
216.725	14331.6
216.799	14454.28
216.873	14565.53
216.946	14679.78
217.02	14794.6
217.093	14904.89
217.167	14985.73
217.24	15069.46
217.314	15170.3
217.387	15271.62
217.461	15363.59
217.535	15479.13
217.608	15570.62
217.682	15668.85
217.755	15773.88
217.829	15856.35
217.902	15951.83
217.976	16037.92
218.049	16121.83
218.123	16200.53
218.196	16291.44
218.27	16384.22
218.343	16452.41
218.417	16551.94
218.49	16625.2
218.563	16719.33
218.637	16805.64
218.71	16907.09
218.784	17007.92
218.857	17102.72
218.931	17192.94
219.004	17284.46
219.077	17366.53
219.151	17454.82
219.224	17531.78
219.298	17609.04
219.371	17699.11
219.444	17759.97
219.518	17840.55
219.591	17917.32
219.665	18010.81
219.738	18088.64
219.811	18143.77
219.885	18219.58
219.958	18289.07
220.031	18365.06
220.105	18429.49
220.178	18498.41
220.251	18562.26
220.325	18629.53
220.398	18697.43
220.471	18764.13
220.544	18829.28
220.618	18882.48
220.691	18937.71
220.764	18996.55
220.838	19060.64
220.911	19113.98
220.984	19200.24
221.057	19265.98
221.131	19325.44
221.204	19353.58
221.277	19418.35
221.35	19512.18
221.424	19569.14
221.497	19621.91
221.57	19661.62
221.643	19721.37
221.716	19776.46
221.79	19818.33
221.863	19866.62
221.936	19915.2
222.009	19962.18
222.082	20010.28
222.155	20048.4
222.229	20104.2
222.302	20149.94
222.375	20188.83
222.448	20237.31
222.521	20265.16
222.594	20296.49
222.667	20323.62
222.74	20369.4
222.814	20400.63
222.887	20421.4
222.96	20471.14
223.033	20516.05
223.106	20561.89
223.179	20596.15
223.252	20629.5
223.325	20664.92
223.398	20693.55
223.471	20729.5
223.544	20753.02
223.617	20782.42
223.69	20820.49
223.763	20839.58
223.837	20875.39
223.91	20907.2
223.983	20913.03
224.056	20939.68
224.129	20972.55
224.202	21006.57
224.275	21016.74
224.348	21029.32
224.42	21044.02
224.493	21046.05
224.566	21057.76
224.639	21092.32
224.712	21114.15
224.785	21136.32
224.858	21150.49
224.931	21155.6
225.004	21155.98
225.077	21179.75
225.15	21169.29
225.223	21181.67
225.296	21219.7
225.369	21229
225.442	21235.08
225.514	21255.22
225.587	21281.83
225.66	21303.28
225.733	21320.73
225.806	21349.11
225.879	21362.95
225.952	21357.12
226.025	21378.32
226.097	21393.36
226.17	21402.28
226.243	21389.46
226.316	21389.26
226.389	21405.8
226.461	21427.58
226.534	21438.57
226.607	21435.39
226.68	21464.31
226.753	21476.74
226.825	21458.67
226.898	21468.07
226.971	21479.35
227.044	21491.35
227.117	21482.67
227.189	21484.79
227.262	21495.35
227.335	21507.16
227.407	21506.19
227.48	21520.17
227.553	21533.28
227.626	21537.91
227.698	21538.29
227.771	21559.07
227.844	21553.53
227.916	21557.67
227.989	21543.36
228.062	21548.32
228.134	21577.48
228.207	21578.69
228.28	21572.56
228.352	21580.37
228.425	21592.71
228.498	21601.97
228.57	21593.63
228.643	21612.76
228.716	21609.39
228.788	21609
228.861	21602.59
228.934	21614.69
229.006	21613.87
229.079	21606.79
229.151	21601.24
229.224	21576.28
229.296	21578.06
229.369	21610.65
229.442	21626.94
229.514	21619.03
229.587	21629.35
229.659	21621.3
229.732	21625.68
229.804	21633.93
229.877	21653.01
229.949	21651.28
230.022	21660.34
230.094	21658.08
230.167	21651.67
230.239	21639.95
230.312	21630.99
230.384	21645.98
230.457	21648.15
230.529	21658.41
230.602	21653.98
230.674	21663.23
230.747	21679.62
230.819	21679.72
230.892	21637.01
230.964	21621.2
231.037	21626.99
231.109	21615.27
231.181	21608.14
231.254	21594.55
231.326	21584.91
231.399	21565.29
231.471	21555.6
231.544	21524.27
231.616	21523.5
231.688	21515.79
231.761	21502.72
231.833	21490.82
231.905	21459.92
231.978	21454.91
232.05	21437.12
232.122	21426.28
232.195	21401.6
232.267	21407.48
232.339	21388.73
232.412	21403.82
232.484	21393.17
232.556	21376.39
232.629	21380.78
232.701	21377.79
232.773	21365.6
232.846	21340.92
232.918	21332.1
232.99	21317.93
233.062	21324.82
233.135	21316.68
233.207	21284.33
233.279	21280.82
233.351	21272.09
233.424	21246.26
233.496	21213.34
233.568	21218.5
233.64	21196.13
233.713	21187.75
233.785	21162.2
233.857	21142.64
233.929	21107.93
234.001	21107.11
234.074	21105.48
234.146	21068.85
234.218	21048.46
234.29	21030.67
234.362	21015.25
234.434	20978.14
234.507	20945.13
234.579	20902.81
234.651	20870.57
234.723	20864.59
234.795	20841.94
234.867	20815.63
234.939	20811.96
235.012	20794.37
235.084	20774.37
235.156	20756.54
235.228	20719.04
235.3	20694.08
235.372	20677.55
235.444	20661.98
235.516	20606.27
235.588	20585.98
235.66	20569.5
235.732	20533.11
235.804	20561.79
235.876	20554.99
235.948	20549.55
236.02	20523.96
236.092	20501.55
236.164	20481.89
236.236	20449.45
236.308	20427.48
236.38	20413.79
236.452	20382.66
236.524	20354.66
236.596	20337.21
236.668	20323.62
236.74	20299.28
236.812	20276.25
236.884	20257.16
236.956	20232.3
237.028	20199.77
237.1	20160.35
237.172	20150.81
237.244	20138.32
237.316	20069.12
237.388	20028.54
237.46	19988.88
237.532	19980.16
237.604	19947.43
237.675	19931.39
237.747	19911.73
237.819	19874.23
237.891	19836.64
237.963	19797.32
238.035	19768.41
238.107	19705.04
238.178	19671.59
238.25	19636.03
238.322	19625.28
238.394	19575.74
238.466	19540.51
238.538	19519.99
238.609	19493.29
238.681	19433.48
238.753	19390.26
238.825	19355.37
238.897	19321.83
238.968	19309.06
239.04	19253.49
239.112	19240.96
239.184	19192.58
239.255	19156.92
239.327	19123.53
239.399	19096.25
239.471	19079.63
239.542	19059.92
239.614	19054.95
239.686	19011.63
239.758	18997.32
239.829	18948.65
239.901	18930.82
239.973	18904.84
240.044	18871.49
240.116	18836.94
240.188	18809.18
240.259	18773.04
240.331	18738.25
240.403	18718.39
240.474	18670.59
240.546	18637.34
240.618	18588.81
240.689	18556.09
240.761	18523.95
240.833	18521.54
240.904	18479.76
240.976	18438.17
241.048	18400.29
241.119	18361.74
241.191	18330.95
241.262	18310.13
241.334	18274.71
241.405	18242.9
241.477	18191.72
241.549	18160.16
241.62	18129.65
241.692	18101.22
241.763	18082.33
241.835	18043.44
241.906	18008.84
241.978	17955.35
242.049	17948.12
242.121	17930.34
242.192	17916.89
242.264	17865.18
242.335	17804.41
242.407	17779.16
242.478	17749.33
242.55	17709.04
242.621	17667.21
242.693	17624.66
242.764	17581.04
242.836	17543.93
242.907	17511.84
242.979	17491.5
243.05	17461.09
243.122	17433.28
243.193	17392.75
243.264	17331.79
243.336	17300.9
243.407	17268.22
243.479	17251.31
243.55	17201.62
243.622	17164.66
243.693	17124.37
243.764	17108.37
243.836	17059.74
243.907	17022.92
243.978	16971.2
244.05	16954.24
244.121	16906.77
244.192	16885.32
244.264	16843.78
244.335	16812.26
244.407	16757.8
244.478	16728.93
244.549	16695.58
244.62	16646.27
244.692	16620.44
244.763	16606.41
244.834	16569.25
244.906	16529.54
244.977	16512.05
245.048	16502.12
245.119	16457.92
245.191	16421.68
245.262	16367.26
245.333	16361.38
245.405	16334.01
245.476	16314.87
245.547	16268.75
245.618	16248.55
245.689	16216.89
245.761	16187.15
245.832	16152.73
245.903	16144.06
245.974	16109.16
246.045	16072.29
246.117	16061.4
246.188	16010.98
246.259	15965.53
246.33	15937.62
246.401	15904.46
246.473	15855.06
246.544	15815.05
246.615	15787.29
246.686	15744.73
246.757	15731.09
246.828	15678.21
246.899	15665.54
246.97	15622.25
247.042	15586.97
247.113	15548.17
247.184	15537.56
247.255	15497.75
247.326	15469.69
247.397	15430.94
247.468	15403.13
247.539	15373.82
247.61	15324.56
247.681	15305.38
247.752	15287.64
247.823	15246.62
247.894	15216.15
247.965	15173.3
248.037	15135.46
248.108	15095.69
248.179	15064.94
248.25	15026.47
248.321	15009.12
248.392	14962.27
248.463	14959.76
248.534	14925.59
248.605	14908.57
248.675	14867.21
248.746	14847.98
248.817	14822.82
248.888	14793.17
248.959	14745.02
249.03	14725.64
249.101	14702.4
249.172	14672.47
249.243	14624.89
249.314	14611.05
249.385	14592.16
249.456	14580.16
249.527	14554.7
249.598	14534.17
249.669	14504.81
249.739	14479.02
249.81	14452.6
249.881	14405.75
249.952	14369.4
250.023	14354.6
250.094	14317.97
250.165	14283.84
250.235	14244.07
250.306	14220.4
250.377	14184.05
250.448	14163.81
250.519	14114.68
250.59	14099.74
250.66	14067.68
250.731	14057.22
250.802	14028.97
250.873	13996.77
250.944	13970.89
251.014	13931.89
251.085	13930.73
251.156	13912.07
251.227	13902.72
251.297	13893.37
251.368	13883.29
251.439	13869.99
251.51	13848.59
251.58	13813.4
251.651	13789.2
251.722	13783.03
251.792	13741.18
251.863	13712.4
251.934	13701.17
252.005	13704.55
252.075	13682.85
252.146	13670.51
252.217	13657.21
252.287	13634.93
252.358	13612.9
252.429	13601
252.499	13577.04
252.57	13552.55
252.641	13544.74
252.711	13517.7
252.782	13472.72
252.852	13469.59
252.923	13439.17
252.994	13414.87
253.064	13397.42
253.135	13363.63
253.205	13332.58
253.276	13328.24
253.347	13328.1
253.417	13297.83
253.488	13277.19
253.558	13240.46
253.629	13213.95
253.699	13196.3
253.77	13188.59
253.841	13161.06
253.911	13139.18
253.982	13120.23
254.052	13099.65
254.123	13073.47
254.193	13050.33
254.264	13076.99
254.334	13036.64
254.405	13002.8
254.475	12975.37
254.546	12964.19
254.616	12954.36
254.687	12940.09
254.757	12920.03
254.827	12886.15
254.898	12870.62
254.968	12845.22
255.039	12825.84
255.109	12808.44
255.18	12770.79
255.25	12713.86
255.321	12695.88
255.391	12660.83
255.461	12653.36
255.532	12604
255.602	12579.61
255.673	12541.38
255.743	12499.06
255.813	12454.76
255.884	12447.53
255.954	12438.76
256.024	12430.85
256.095	12407.18
256.165	12368.43
256.235	12345.14
256.306	12316.56
256.376	12311.06
256.446	12297.18
256.517	12275.92
256.587	12266.14
256.657	12252.74
256.728	12246.52
256.798	12232.3
256.868	12208.05
256.938	12187.76
257.009	12183.28
257.079	12172.19
257.149	12181.16
257.219	12144.28
257.29	12132.62
257.36	12099.12
257.43	12077.91
257.5	12035.63
257.571	12015.15
257.641	12005.56
257.711	11981.84
257.781	11974.42
257.852	11952
257.922	11911.27
257.992	11892.91
258.062	11880.38
258.132	11866.01
258.202	11842.16
258.273	11829.62
258.343	11829.14
258.413	11795.93
258.483	11775.01
258.553	11739.3
258.623	11713.32
258.693	11704.21
258.764	11709.75
258.834	11700.35
258.904	11685.07
258.974	11655.34
259.044	11626.61
259.114	11613.55
259.184	11596.01
259.254	11575.86
259.324	11537.98
259.394	11520.48
259.464	11526.22
259.535	11498.94
259.605	11479.56
259.675	11457.54
259.745	11437.58
259.815	11407.84
259.885	11391.07
259.955	11404.47
260.025	11381.05
260.095	11360.62
260.165	11339.75
260.235	11329.05
260.305	11306.49
260.375	11279.07
260.445	11290.44
260.515	11294.88
260.585	11286.68
260.655	11266.25
260.725	11259.89
260.795	11256.42
260.865	11258.01
260.934	11222.78
261.004	11209.14
261.074	11194.3
261.144	11197.43
261.214	11192.46
261.284	11173.57
261.354	11169.09
261.424	11133.28
261.494	11136.56
261.564	11118
261.634	11103.31
261.703	11070.29
261.773	11058.78
261.843	11050.83
261.913	11034.15
261.983	11004.27
262.053	10984.85
262.123	10969.58
262.192	10935.94
262.262	10926.55
262.332	10902.74
262.402	10891.27
262.472	10880.77
262.541	10840.05
262.611	10824.39
262.681	10796.29
262.751	10791.72
262.821	10769.99
262.89	10748.16
262.96	10741.55
263.03	10743.96
263.1	10740.11
263.169	10725.89
263.239	10717.36
263.309	10715.29
263.379	10704.74
263.448	10690.62
263.518	10683.83
263.588	10669.18
263.657	10676.75
263.727	10662.34
263.797	10646.24
263.867	10637.28
263.936	10603.41
264.006	10604.18
264.076	10590.5
264.145	10568.77
264.215	10545.83
264.285	10540.39
264.354	10502.76
264.424	10473.61
264.494	10438.44
264.563	10411.36
264.633	10416.56
264.702	10402.11
264.772	10364.82
264.842	10338.03
264.911	10324.83
264.981	10297.03
265.05	10282.96
265.12	10268.51
265.19	10259.11
265.259	10256.99
265.329	10241.67
265.398	10233.72
265.468	10245.43
265.537	10223.03
265.607	10220.72
265.676	10217.68
265.746	10205.49
265.815	10208.38
265.885	10194.27
265.955	10172.01
266.024	10154.77
266.094	10114.88
266.163	10115.65
266.232	10119.79
266.302	10107.75
266.371	10102.55
266.441	10095.95
266.51	10089.73
266.58	10065.94
266.649	10038.62
266.719	10032.36
266.788	10027.16
266.858	10028.51
266.927	9994.06
266.996	9988.14
267.066	9977.54
267.135	9950.61
267.205	9946.61
267.274	9939.97
267.343	9941.85
267.413	9934.62
267.482	9936.98
267.552	9944.83
267.621	9915.83
267.69	9889.15
267.76	9880.82
267.829	9872.29
267.898	9857.7
267.968	9834
268.037	9826.77
268.106	9826.39
268.176	9802.55
268.245	9788.14
268.314	9773.64
268.384	9773.21
268.453	9763.39
268.522	9747.2
268.592	9747.35
268.661	9720.47
268.73	9708.24
268.799	9687.33
268.869	9692.1
268.938	9659.88
269.007	9636.24
269.076	9627.81
269.146	9630.46
269.215	9624.63
269.284	9633.4
269.353	9609.85
269.422	9606.91
269.492	9594.77
269.561	9559.23
269.63	9554.99
269.699	9531.2
269.768	9514.06
269.838	9498.89
269.907	9495.71
269.976	9476.11
270.045	9445.25
270.114	9440.29
270.183	9426.8
270.253	9416.69
270.322	9389.24
270.391	9382.79
270.46	9385.97
270.529	9387.46
270.598	9381.83
270.667	9362.52
270.736	9323.12
270.806	9321.34
270.875	9318.31
270.944	9301.36
271.013	9321.87
271.082	9308.25
271.151	9305.79
271.22	9279.41
271.289	9267.66
271.358	9252.39
271.427	9247.96
271.496	9240.17
271.565	9226.78
271.634	9217.78
271.703	9242.05
271.772	9245.03
271.841	9235.55
271.91	9213.35
271.979	9196.69
272.048	9166.4
272.117	9167.37
272.186	9161.01
272.255	9159.76
272.324	9155.72
272.393	9148.59
272.462	9129.09
272.531	9117.82
272.6	9107.95
272.669	9118.45
272.738	9111.9
272.807	9106.46
272.876	9095.1
272.945	9122.54
273.013	9130.39
273.082	9133.95
273.151	9088.83
273.22	9089.03
273.289	9083.73
273.358	9095.53
273.427	9086.28
273.496	9090.47
273.564	9087.78
273.633	9089.8
273.702	9073.33
273.771	9059.27
273.84	9055.9
273.909	9054.99
273.977	9055.62
274.046	9046.76
274.115	9045.99
274.184	9030.05
274.253	9020.47
274.322	9024.95
274.39	8987.83
274.459	8966.03
274.528	8937.58
274.597	8933
274.665	8925.2
274.734	8924.87
274.803	8910.95
274.872	8904.46
274.94	8891.31
275.009	8921.56
275.078	8903.89
275.147	8901.96
275.215	8892.24
275.284	8901.43
275.353	8889.98
275.421	8867.98
275.49	8881.6
275.559	8875.06
275.627	8869.18
275.696	8860.52
275.765	8858.84
275.833	8858.55
275.902	8857.97
275.971	8872.94
276.039	8886.75
276.108	8880.83
276.177	8886.46
276.245	8876.36
276.314	8872.89
276.383	8881.22
276.451	8841.49
276.52	8840.92
276.588	8846.79
276.657	8861.37
276.725	8846.16
276.794	8846.98
276.863	8853.58
276.931	8822.05
277	8829.99
277.068	8837.26
277.137	8858.63
277.205	8854.49
277.274	8871.58
277.342	8883.9
277.411	8865.9
277.48	8853.63
277.548	8850.3
277.617	8845.83
277.685	8840.58
277.754	8838.99
277.822	8823.83
277.89	8839.57
277.959	8833.17
278.027	8813.78
278.096	8798.52
278.164	8820.71
278.233	8805.79
278.301	8797.8
278.37	8810.75
278.438	8790.34
278.507	8790.05
278.575	8762.37
278.643	8753.95
278.712	8730.55
278.78	8711.83
278.849	8722.13
278.917	8730.5
278.985	8722.9
279.054	8720.4
279.122	8733.58
279.191	8734.11
279.259	8728.58
279.327	8703.93
279.396	8725.4
279.464	8720.01
279.532	8724.58
279.601	8724.24
279.669	8723.62
279.737	8731.37
279.806	8729.78
279.874	8740.03
279.942	8737.63
280.011	8733.63
280.079	8740.75
280.147	8759.86
280.215	8764.63
280.284	8753.41
280.352	8738.88
280.42	8745.95
280.488	8738.83
280.557	8725.45
280.625	8722.13
280.693	8727.37
280.761	8727.23
280.83	8708.7
280.898	8729.2
280.966	8710.62
281.034	8675.96
281.102	8664.27
281.171	8661.24
281.239	8676.31
281.307	8667.31
281.375	8663.84
281.443	8689.11
281.512	8680.78
281.58	8686.51
281.648	8671.26
281.716	8675.11
281.784	8673.52
281.852	8667.98
281.92	8669.23
281.989	8682.33
282.057	8673.66
282.125	8715.26
282.193	8716.94
282.261	8719.3
282.329	8709.58
282.397	8718.63
282.465	8732.2
282.533	8744.76
282.601	8736.67
282.67	8710.77
282.738	8707.17
282.806	8714.72
282.874	8696.29
282.942	8697.59
283.01	8686.9
283.078	8693.2
283.146	8690.07
283.214	8697.39
283.282	8700.57
283.35	8714.48
283.418	8703.02
283.486	8703.02
283.554	8661.09
283.622	8659.02
283.69	8660.22
283.758	8657.48
283.826	8655.8
283.894	8658.78
283.962	8680.87
284.03	8692.43
284.098	8689.78
284.165	8680.2
284.233	8672.5
284.301	8669.86
284.369	8669.13
284.437	8660.08
284.505	8656.91
284.573	8670.19
284.641	8660.95
284.709	8664.71
284.777	8644.2
284.845	8657.34
284.912	8660.23
284.98	8661.72
285.048	8655.03
285.116	8654.5
285.184	8665.14
285.252	8666.87
285.319	8647.77
285.387	8637.08
285.455	8618.45
285.523	8622.3
285.591	8620.81
285.659	8626.97
285.726	8636.21
285.794	8622.74
285.862	8623.51
285.93	8624.23
285.997	8620
286.065	8613.93
286.133	8603.68
286.201	8600.6
286.269	8588.28
286.336	8581.2
286.404	8574.47
286.472	8581.16
286.539	8561.91
286.607	8546.6
286.675	8548.29
286.743	8556.37
286.81	8549.97
286.878	8569.37
286.946	8567.97
287.013	8570.95
287.081	8565.03
287.149	8553.15
287.216	8573.26
287.284	8567.29
287.352	8566.33
287.419	8562
287.487	8576.92
287.555	8579.71
287.622	8579.28
287.69	8580.34
287.758	8589.67
287.825	8587.8
287.893	8581.35
287.96	8588.71
288.028	8600.26
288.096	8603.34
288.163	8609.69
288.231	8597.08
288.298	8589.58
288.366	8602.47
288.433	8599.2
288.501	8590.44
288.569	8593.76
288.636	8581.88
288.704	8594.58
288.771	8604.01
288.839	8593.04
288.906	8590.06
288.974	8599.93
289.041	8599.35
289.109	8591.89
289.176	8604.21
289.244	8608.49
289.311	8621.39
289.379	8628.47
289.446	8624.47
289.514	8624.09
289.581	8620.86
289.649	8625.43
289.716	8628.71
289.783	8619.18
289.851	8640.83
289.918	8644.73
289.986	8649.88
290.053	8657.15
290.121	8654.88
290.188	8656.09
290.255	8688.62
290.323	8680.25
290.39	8676.45
290.458	8683.96
290.525	8691.17
290.592	8681.21
290.66	8685.4
290.727	8674.14
290.794	8689.15
290.862	8695.12
290.929	8697.53
290.996	8700.08
291.064	8707.2
291.131	8721.64
291.198	8735.5
291.266	8729.05
291.333	8727.03
291.4	8732.37
291.468	8747.15
291.535	8744.22
291.602	8745.08
291.669	8733.91
291.737	8738.39
291.804	8736.32
291.871	8752.88
291.938	8764.62
292.006	8798.85
292.073	8808.43
292.14	8822.24
292.207	8810.02
292.275	8816.42
292.342	8824.07
292.409	8848.24
292.476	8875.78
292.543	8861.77
292.611	8859.75
292.678	8879.63
292.745	8907.93
292.812	8917.32
292.879	8919.14
292.946	8924.58
293.014	8941.72
293.081	8948.36
293.148	8962.47
293.215	8979.31
293.282	8965.55
293.349	8978.88
293.416	8957.12
293.484	8971.71
293.551	8978.3
293.618	8999.1
293.685	9011.95
293.752	9004.64
293.819	9000.93
293.886	8990.29
293.953	9003.09
294.02	9017.82
294.087	9022.25
294.154	9018.93
294.221	9032.84
294.288	9027.79
294.356	9035.73
294.423	9041.94
294.49	9038.14
294.557	9048.06
294.624	9044.78
294.691	9067.84
294.758	9065.1
294.825	9073.67
294.892	9065.82
294.959	9064.47
295.026	9074.82
295.093	9074.05
295.16	9072.95
295.226	9076.41
295.293	9098.08
295.36	9099.09
295.427	9108.09
295.494	9117.34
295.561	9126.54
295.628	9150.76
295.695	9171.46
295.762	9186.72
295.829	9195.15
295.896	9212.43
295.963	9224.57
296.03	9227.36
296.096	9234.92
296.163	9245.99
296.23	9260.49
296.297	9272.91
296.364	9276.52
296.431	9280.95
296.498	9279.5
296.564	9301.12
296.631	9301.89
296.698	9290.04
296.765	9311.86
296.832	9305.69
296.899	9295.77
296.965	9308.49
297.032	9282.91
297.099	9298.81
297.166	9307.81
297.233	9305.31
297.299	9298.08
297.366	9295.44
297.433	9297.12
297.5	9309.83
297.566	9305.74
297.633	9305.5
297.7	9312.87
297.767	9308.92
297.833	9313.69
297.9	9316.43
297.967	9303.91
298.033	9324.19
298.1	9353.85
298.167	9348.31
298.234	9352.46
298.3	9359.68
298.367	9354.96
298.434	9366.03
298.5	9357.17
298.567	9345.66
298.634	9340.56
298.7	9360.64
298.767	9363.48
298.834	9378.55
298.9	9367.67
298.967	9367.04
299.033	9378.22
299.1	9391.36
299.167	9410.48
299.233	9403.45
299.3	9409.71
299.366	9427.81
299.433	9440.14
299.5	9408.35
299.566	9409.46
299.633	9428.63
299.699	9438.4
299.766	9436.14
299.832	9442.69
299.899	9449.67
299.965	9465.81
300.032	9467.2
300.099	9470.52
300.165	9474.67
300.232	9474.96
300.298	9474.52
300.365	9485.79
300.431	9483.72
300.498	9477.31
300.564	9487.86
300.631	9497.49
300.697	9518.2
300.763	9522.44
300.83	9515.84
300.896	9535.97
300.963	9547.52
301.029	9549.07
301.096	9553.11
301.162	9567.61
301.229	9562.98
301.295	9548.05
301.361	9548.44
301.428	9550.12
301.494	9532.31
301.561	9536.35
301.627	9541.41
301.693	9547.67
301.76	9549.4
301.826	9546.46
301.892	9556.53
301.959	9562.69
302.025	9560.96
302.092	9552.63
302.158	9553.74
302.224	9553.16
302.291	9542.23
302.357	9539.14
302.423	9528.79
302.49	9522.77
302.556	9537.6
302.622	9537.41
302.688	9552.63
302.755	9567.66
302.821	9573.29
302.887	9587.35
302.954	9586.24
303.02	9588.65
303.086	9597.08
303.152	9592.22
303.219	9583.89
303.285	9590.97
303.351	9588.41
303.417	9592.89
303.483	9584.56
303.55	9584.85
303.616	9586.92
303.682	9591.01
303.748	9584.18
303.815	9600.89
303.881	9607.53
303.947	9590.72
304.013	9594.24
304.079	9581.91
304.145	9561.78
304.212	9559.61
304.278	9550.27
304.344	9549.31
304.41	9534.67
304.476	9521.18
304.542	9518.1
304.608	9523.54
304.674	9503.8
304.741	9505.87
304.807	9503.41
304.873	9508.42
304.939	9520.75
305.005	9497.68
305.071	9492.43
305.137	9495.76
305.203	9468.59
305.269	9473.22
305.335	9480.88
305.401	9471.77
305.467	9473.03
305.533	9481.16
305.599	9494.84
305.666	9508.08
305.732	9505.24
305.798	9517.62
305.864	9544.88
305.93	9552.54
305.996	9551.86
306.062	9552.1
306.128	9544.93
306.194	9535.68
306.259	9530.53
306.325	9519.26
306.391	9536.16
306.457	9541.36
306.523	9544.68
306.589	9571.61
306.655	9559.81
306.721	9543.19
306.787	9538.95
306.853	9548.3
306.919	9530.09
306.985	9513.62
307.051	9499.13
307.117	9492.1
307.183	9491.38
307.248	9456.27
307.314	9460.27
307.38	9463.11
307.446	9468.5
307.512	9453.76
307.578	9457.67
307.644	9459.98
307.709	9458.1
307.775	9449.67
307.841	9443.07
307.907	9447.6
307.973	9428.43
308.039	9423.71
308.104	9431.9
308.17	9430.55
308.236	9418.95
308.302	9425.06
308.368	9420.29
308.433	9425.49
308.499	9427.81
308.565	9416.1
308.631	9425.2
308.696	9400.5
308.762	9390.29
308.828	9387.11
308.894	9378.21
308.959	9357.26
309.025	9342.96
309.091	9340.99
309.156	9332.27
309.222	9335.69
309.288	9315.08
309.354	9289.27
309.419	9292.64
309.485	9278.01
309.551	9283.11
309.616	9271.55
309.682	9262.84
309.748	9255.47
309.813	9248.01
309.879	9236.6
309.945	9218.78
310.01	9211.71
310.076	9212.57
310.141	9203.23
310.207	9188.69
310.273	9185.22
310.338	9192.4
310.404	9181.23
310.469	9168.95
310.535	9154.36
310.601	9131.88
310.666	9137.41
310.732	9156.43
310.797	9140.83
310.863	9127.21
310.928	9116.71
310.994	9115.07
311.059	9116.56
311.125	9115.31
311.191	9126.24
311.256	9117.87
311.322	9128.75
311.387	9106.17
311.453	9343.8
311.518	9322.37
311.584	9316.79
311.649	9323.19
311.715	9313.95
311.78	9313.08
311.846	9301.72
311.911	9313.42
311.976	9321.46
312.042	9302.11
312.107	9278.76
312.173	9267.64
312.238	9265.47
312.304	9259.69
312.369	9247.75
312.434	9235.48
312.5	9224.41
312.565	9189.21
312.631	9189.93
312.696	9178.43
312.761	9181.46
312.827	8933.38
312.892	8971.27
312.958	8970.98
313.023	8966.41
313.088	8963.52
313.154	8948.75
313.219	8939.6
313.284	8931.13
313.35	8919.28
313.415	8918.66
313.48	8910.86
313.546	8915.87
313.611	8920.83
313.676	8910.28
313.741	8908.5
313.807	8914.71
313.872	8924.15
313.937	8931.99
314.003	8942.68
314.068	8945.23
314.133	8952.12
314.198	8943.6
314.264	8918.94
314.329	8908.07
314.394	8903.93
314.459	8898.77
314.525	8920
314.59	8917.84
314.655	8901.95
314.72	8908.5
314.785	8906.52
314.851	8905.9
314.916	8888.23
314.981	8871.15
315.046	8862.24
315.111	8852.13
315.176	8839.04
315.242	8838.08
315.307	8830.95
315.372	8807.12
315.437	8799.09
315.502	8787.1
315.567	8796.39
315.632	8779.25
315.698	8777.18
315.763	8771.94
315.828	8766.98
315.893	8757.64
315.958	8755.09
316.023	8748.06
316.088	8731.79
316.153	8704.46
316.218	8694.74
316.283	8672.41
316.348	8661.39
316.413	8663.22
316.479	8645.03
316.544	8611.97
316.609	8579.82
316.674	8545.56
316.739	8518.71
316.804	8485.85
316.869	8450.87
316.934	8408.81
316.999	8375.28
317.064	8327.64
317.129	8282.56
317.194	8241.95
317.259	8196.58
317.324	8146.12
317.389	8099.13
317.454	8057.27
317.518	8023.94
317.583	7996.13
317.648	7980.36
317.713	7939.86
317.778	7878.91
317.843	7847.27
317.908	7805.24
317.973	7767.05
318.038	7739.93
318.103	7698.77
318.168	7667.28
318.233	7641.6
318.297	7602.22
318.362	7571.02
318.427	7528.67
318.492	7503.67
318.557	7455.22
318.622	7424.11
318.687	7400.47
318.751	7361.69
318.816	7324.92
318.881	7293.34
318.946	7238.55
319.011	7189.53
319.075	7153.39
319.14	7119.9
319.205	7081.79
319.27	7056.33
319.335	7006.12
319.399	6963.65
319.464	6938.33
319.529	6885.44
319.594	6842.2
319.658	6807.47
319.723	6760.93
319.788	6738.6
319.853	6688.02
319.917	6660.12
319.982	6608.06
320.047	6571.08
320.112	6547.08
320.176	6503.05
320.241	6468.67
320.306	6442.26
320.37	6401.75
320.435	6365.03
320.5	6333.44
320.564	6287.6
320.629	6242.54
320.694	6211.68
320.758	6172.62
320.823	6124
320.888	6095.36
320.952	6048.24
321.017	6005.68
321.082	5969.04
321.146	5929.41
321.211	5892.9
321.275	5851.94
321.34	5810.03
321.405	5763.32
321.469	5714.65
321.534	5672.69
321.598	5620.77
321.663	5590.45
321.727	5561.11
321.792	5513.75
321.857	5468.87
321.921	5435.75
321.986	5390.47
322.05	5336.71
322.115	5296.41
322.179	5256.69
322.244	5201.4
322.308	5164.47
322.373	5119.53
322.437	5081.21
322.502	5058.02
322.566	5010.69
322.631	4974.78
322.695	4937.57
322.76	4895.97
322.824	4862.02
322.889	4819.61
322.953	4776.34
323.018	4709.42
323.082	4642.85
323.146	4594.57
323.211	4541.56
323.275	4495.56
323.34	4456.49
323.404	4423.96
323.468	4381.48
323.533	4334.94
323.597	4291.34
323.662	4245.52
323.726	4210.28
323.79	4165.52
323.855	4098.79
323.919	4051.99
323.983	4008.39
324.048	3941.9
324.112	4089.21
324.177	3962.24
324.241	3756.82
324.305	3557.32
324.37	3361.26
324.434	3174.43
324.498	3132.66
324.562	3086.33
324.627	3027.33
324.691	2971.49
324.755	2906.78
324.82	2832.04
324.884	2756.66
324.948	2687.28
325.012	2591.45
325.077	2470.91
