Data from 20250702_urea_0.5M_MAYP1162681_00-04-59-611.txt Node
Date: Thu Jul 03 00:04:59 BST 2025
User: adleo
Spectrometer: MAYP116268
Trigger mode: 0
Integration Time (sec): 1.000000E0
Scans to average: 1
Electric dark correction enabled: true
Nonlinearity correction enabled: true
Boxcar width: 10
XAxis mode: Wavelengths
Number of Pixels in Spectrum: 2068
>>>>>Begin Spectral Data<<<<<
179.565	1228.74
179.642	1286.48
179.718	1326.2
179.795	1363.31
179.871	1395.87
179.948	1413.64
180.024	1432.95
180.101	1454.44
180.177	1469.58
180.254	1493.33
180.33	1518.1
180.407	1574.03
180.483	1668.33
180.56	1761.5
180.636	1844.35
180.712	1835.03
180.789	1842.83
180.865	1854.94
180.942	1865.07
181.018	1875.86
181.095	1886.13
181.171	1887.79
181.248	1887.27
181.324	1904.05
181.4	1915.47
181.477	1927.35
181.553	1940.66
181.63	1964.77
181.706	1980.94
181.782	1989.68
181.859	1987.64
181.935	1992.49
182.011	1986.35
182.088	2004.57
182.164	2019.89
182.24	2037.24
182.317	2045.32
182.393	2041.04
182.469	2056.26
182.546	2070.96
182.622	2074
182.698	2071.96
182.775	2087.41
182.851	2105.16
182.927	2099.45
183.003	2091.17
183.08	2086.75
183.156	2094.41
183.232	2086.84
183.308	2077.33
183.385	2083.61
183.461	2102.63
183.537	2101.02
183.613	2117.24
183.69	2109.72
183.766	2101.49
183.842	2105.87
183.918	2112.1
183.995	2129.41
184.071	2132.5
184.147	2127.17
184.223	2118.24
184.299	2129.94
184.375	2116.86
184.452	2120.57
184.528	2178.11
184.604	2188.91
184.68	2201.52
184.756	2211.08
184.832	2218.93
184.908	2222.35
184.985	2222.26
185.061	2207.13
185.137	2217.93
185.213	2205.61
185.289	2206.75
185.365	2199.47
185.441	2199.28
185.517	2210.99
185.593	2204.38
185.669	2200
185.745	2207.8
185.822	2225.97
185.898	2219.12
185.974	2229.3
186.05	2221.97
186.126	2181.65
186.202	2178.89
186.278	2170.9
186.354	2162.71
186.43	2167.19
186.506	2165.43
186.582	2164.19
186.658	2168.04
186.734	2144.45
186.81	2145.6
186.886	2147.17
186.962	2161.91
187.038	2158.72
187.114	2151.78
187.19	2162.77
187.266	2153.44
187.341	2153.63
187.417	2143.55
187.493	2142.74
187.569	2147.5
187.645	2140.36
187.721	2125.42
187.797	2130.42
187.873	2135.94
187.949	2129.99
188.025	2122.19
188.101	2127.08
188.176	2134.03
188.252	2132.08
188.328	2143.11
188.404	2142.92
188.48	2137.74
188.556	2129.22
188.632	2130.88
188.707	2129.41
188.783	2124.46
188.859	2119.42
188.935	2109.95
189.011	2119.8
189.086	2113.19
189.162	2103.91
189.238	2102.53
189.314	2100.11
189.39	2093.83
189.465	2086.64
189.541	2103.11
189.617	2091.69
189.693	2085.6
189.768	2088.7
189.844	2114.06
189.92	2104.79
189.996	2116.35
190.071	2130.38
190.147	2128.86
190.223	2135.52
190.298	2129.86
190.374	2115.83
190.45	2127.91
190.526	2135.04
190.601	2127.43
190.677	2131
190.753	2157.23
190.828	2158.08
190.904	2173.83
190.98	2188.48
191.055	2197.62
191.131	2187.05
191.207	2206.46
191.282	2218.78
191.358	2209.03
191.433	2193.66
191.509	2207.49
191.585	2201.74
191.66	2202.97
191.736	2209.49
191.811	2202.92
191.887	2220.2
191.963	2245.28
192.038	2251.08
192.114	2252.79
192.189	2256.98
192.265	2251.37
192.34	2231.09
192.416	2230.14
192.491	2225.47
192.567	2228.66
192.642	2235.61
192.718	2236.09
192.793	2225.43
192.869	2220
192.944	2221.95
193.02	2228.52
193.095	2233.37
193.171	2239.75
193.246	2238.51
193.322	2236.47
193.397	2238.04
193.473	2221.47
193.548	2203.49
193.624	2207.24
193.699	2204.44
193.775	2222.24
193.85	2222.71
193.925	2228.85
194.001	2229.9
194.076	2224.95
194.152	2215.19
194.227	2205.39
194.302	2195.26
194.378	2197.64
194.453	2195.83
194.529	2207.96
194.604	2193.69
194.679	2185.7
194.755	2168.15
194.83	2176.81
194.905	2177.33
194.981	2182.38
195.056	2175.72
195.131	2181.14
195.207	2184.33
195.282	2174.05
195.357	2153.59
195.433	2170.29
195.508	2159.58
195.583	2169.14
195.659	2181.85
195.734	2187.75
195.809	2186.18
195.884	2196.93
195.96	2197.83
196.035	2209.06
196.11	2205.92
196.185	2216.39
196.261	2222.1
196.336	2251.74
196.411	2239.51
196.486	2243.46
196.561	2237.7
196.637	2246.4
196.712	2264.83
196.787	2266.73
196.862	2287.1
196.937	2297.37
197.013	2302.23
197.088	2310.41
197.163	2332.03
197.238	2349.99
197.313	2353.18
197.388	2370.36
197.464	2399.21
197.539	2414.4
197.614	2411.54
197.689	2424.68
197.764	2440.92
197.839	2458.34
197.914	2454
197.989	2475.33
198.065	2490.62
198.14	2542.5
198.215	2570.12
198.29	2579.31
198.365	2590.84
198.44	2597.36
198.515	2628.47
198.59	2644.47
198.665	2671.38
198.74	2679.24
198.815	2678.05
198.89	2697.58
198.965	2724.17
199.04	2721.22
199.115	2731.7
199.19	2773.14
199.265	2777.95
199.34	2784.2
199.415	2818.09
199.49	2840.96
199.565	2852.87
199.64	2876.17
199.715	2875.17
199.79	2881.94
199.865	2889.85
199.94	2888.8
200.015	2917.35
200.09	2917.16
200.165	2924.12
200.24	2931.8
200.315	2968.72
200.39	2984.55
200.464	2992.32
200.539	2995.09
200.614	3012.87
200.689	3033.37
200.764	3039.9
200.839	3055.49
200.914	3067.83
200.989	3060.25
201.063	3072.74
201.138	3055.97
201.213	3052.54
201.288	3032.22
201.363	3039.33
201.438	3038.13
201.512	3053.29
201.587	3040.46
201.662	3049.28
201.737	3062.11
201.812	3071.65
201.886	3039.78
201.961	3049.08
202.036	3035.92
202.111	3030.25
202.186	2996.66
202.26	2984.4
202.335	2963.47
202.41	2957.32
202.485	2938.02
202.559	2917.09
202.634	2891.59
202.709	2901.98
202.784	2884.82
202.858	2882.44
202.933	2858.75
203.008	2853.94
203.082	2835.54
203.157	2835.69
203.232	2790.09
203.306	2768.16
203.381	2737.09
203.456	2716.69
203.53	2696.33
203.605	2676.95
203.68	2657.51
203.754	2652.75
203.829	2639.5
203.904	2618.68
203.978	2606.82
204.053	2609.16
204.127	2597.3
204.202	2594.68
204.277	2575.77
204.351	2570.01
204.426	2563
204.5	2557.38
204.575	2521.3
204.65	2530.3
204.724	2522.44
204.799	2531.29
204.873	2528.52
204.948	2525.95
205.022	2511.62
205.097	2501.9
205.171	2515.09
205.246	2522.43
205.32	2523.05
205.395	2520.9
205.469	2511.96
205.544	2517.96
205.618	2504.67
205.693	2518.25
205.767	2504.72
205.842	2527.68
205.916	2522.87
205.991	2510.73
206.065	2516.35
206.14	2535.15
206.214	2531.96
206.289	2528.33
206.363	2543
206.438	2547.05
206.512	2553.86
206.586	2575.57
206.661	2584.96
206.735	2563.73
206.81	2565.73
206.884	2580.97
206.958	2569.11
207.033	2589.01
207.107	2598.07
207.181	2633.42
207.256	2626.75
207.33	2650.23
207.405	2663.63
207.479	2685.69
207.553	2699.21
207.628	2685.98
207.702	2699.22
207.776	2696.79
207.851	2700.5
207.925	2719.57
207.999	2719.67
208.073	2722.62
208.148	2731.72
208.222	2725.91
208.296	2766.24
208.371	2787.94
208.445	2806.34
208.519	2840.59
208.593	2862.09
208.668	2869.81
208.742	2879.16
208.816	2893.88
208.89	2921.64
208.965	2935.48
209.039	2955.89
209.113	2988.5
209.187	3028.62
209.261	3042.82
209.336	3083.88
209.41	3127.29
209.484	3148.62
209.558	3197.76
209.632	3241.64
209.707	3283.87
209.781	3335.4
209.855	3381.8
209.929	3434.35
210.003	3477.93
210.077	3521.33
210.151	3605.33
210.226	3677.18
210.3	3751.99
210.374	3821.8
210.448	3872.84
210.522	3930.29
210.596	3989.59
210.67	4053.39
210.744	4160.07
210.818	4253.22
210.892	4334.44
210.966	4390.48
211.041	4471.94
211.115	4529.24
211.189	4619.77
211.263	4702.52
211.337	4783.54
211.411	4872.27
211.485	4945.61
211.559	5038.69
211.633	5117.87
211.707	5170.68
211.781	5265.17
211.855	5310.5
211.929	5393.68
212.003	5458.3
212.077	5556.74
212.151	5665.2
212.225	5768.15
212.299	5847.2
212.373	5927.53
212.447	6013.85
212.52	6143.7
212.594	6247.09
212.668	6364.67
212.742	6451.89
212.816	6551.09
212.89	6647.45
212.964	6751.55
213.038	6857.29
213.112	6978.67
213.186	7098.99
213.26	7190.02
213.333	7260.96
213.407	7381.76
213.481	7493.49
213.555	7621.98
213.629	7720.41
213.703	7819.43
213.777	7930.58
213.85	8025.58
213.924	8174.51
213.998	8290.84
214.072	8390.31
214.146	8490.4
214.219	8601.9
214.293	8710.55
214.367	8826.98
214.441	8949.67
214.515	9053.56
214.588	9142.92
214.662	9215.09
214.736	9309.84
214.81	9423.2
214.883	9529.07
214.957	9628.46
215.031	9717.35
215.105	9796.8
215.178	9890.09
215.252	10000.55
215.326	10083.83
215.4	10172.46
215.473	10231.82
215.547	10320.08
215.621	10408.4
215.694	10519.08
215.768	10591.59
215.842	10681.21
215.915	10763.85
215.989	10837.53
216.063	10921.43
216.136	11021.52
216.21	11118.23
216.284	11230.67
216.357	11329.89
216.431	11424.98
216.504	11521.37
216.578	11645.04
216.652	11754.97
216.725	11854.64
216.799	11945.74
216.873	12037.23
216.946	12133.43
217.02	12219.23
217.093	12303.92
217.167	12376.85
217.24	12451.62
217.314	12541.51
217.387	12624.76
217.461	12707.24
217.535	12806.68
217.608	12881.5
217.682	12959.21
217.755	13048.29
217.829	13117.47
217.902	13195.32
217.976	13284.16
218.049	13363.56
218.123	13428.2
218.196	13519.17
218.27	13591.91
218.343	13658.24
218.417	13745.59
218.49	13824.94
218.563	13911.85
218.637	13998.62
218.71	14102.65
218.784	14182.09
218.857	14270.31
218.931	14353.85
219.004	14434.16
219.077	14514.18
219.151	14595.36
219.224	14670.7
219.298	14745.42
219.371	14829.24
219.444	14896.88
219.518	14962.77
219.591	15032.13
219.665	15125.74
219.738	15193.23
219.811	15252.18
219.885	15328.48
219.958	15393.31
220.031	15456.36
220.105	15536.62
220.178	15600.05
220.251	15652.15
220.325	15728.21
220.398	15791.89
220.471	15862.02
220.544	15937.83
220.618	15998.51
220.691	16063.34
220.764	16132.46
220.838	16204.47
220.911	16262.26
220.984	16344.19
221.057	16410.85
221.131	16479.34
221.204	16514.47
221.277	16600.45
221.35	16702.1
221.424	16753.72
221.497	16826.97
221.57	16893.2
221.643	16955.42
221.716	17026.31
221.79	17083.61
221.863	17131.61
221.936	17188.15
222.009	17231.76
222.082	17284.58
222.155	17332.92
222.229	17410.17
222.302	17469.69
222.375	17518.8
222.448	17570.41
222.521	17613.31
222.594	17662.94
222.667	17702.27
222.74	17764.49
222.814	17793.74
222.887	17832.34
222.96	17891.04
223.033	17936.62
223.106	17987.71
223.179	18031.56
223.252	18069.34
223.325	18117.15
223.398	18158.35
223.471	18207.84
223.544	18251.7
223.617	18288.18
223.69	18333.19
223.763	18357.62
223.837	18395.93
223.91	18441.47
223.983	18465.71
224.056	18488.26
224.129	18527.97
224.202	18566.72
224.275	18589.51
224.348	18612.45
224.42	18624.35
224.493	18642.09
224.566	18664.21
224.639	18694.61
224.712	18717.31
224.785	18752.78
224.858	18770.66
224.931	18794.17
225.004	18808.29
225.077	18842.51
225.15	18853.06
225.223	18879.47
225.296	18932.53
225.369	18945.3
225.442	18961.49
225.514	18993.68
225.587	19033.29
225.66	19068.71
225.733	19110.68
225.806	19140.99
225.879	19170.58
225.952	19190.24
226.025	19226
226.097	19264.79
226.17	19295.68
226.243	19307.3
226.316	19323.3
226.389	19351.1
226.461	19386.38
226.534	19415.87
226.607	19441.8
226.68	19490.18
226.753	19513.94
226.825	19505.41
226.898	19536.1
226.971	19556.2
227.044	19590.56
227.117	19616.92
227.189	19638.32
227.262	19658.8
227.335	19685.4
227.407	19704.19
227.48	19740.29
227.553	19766.65
227.626	19773.97
227.698	19787.22
227.771	19808.52
227.844	19819.85
227.916	19847.9
227.989	19842.64
228.062	19857.87
228.134	19893.34
228.207	19895.99
228.28	19898.78
228.352	19915.89
228.425	19928.18
228.498	19957.96
228.57	19949.77
228.643	19972.04
228.716	19982.78
228.788	19988.18
228.861	19996.03
228.934	20024.23
229.006	20026.49
229.079	20023.41
229.151	20032.85
229.224	20020.23
229.296	20041.29
229.369	20073.91
229.442	20094.15
229.514	20108.66
229.587	20134.73
229.659	20126.83
229.732	20143.12
229.804	20170.1
229.877	20204.46
229.949	20231.31
230.022	20253.14
230.094	20270.58
230.167	20279.35
230.239	20273.52
230.312	20278.05
230.384	20304.75
230.457	20310.15
230.529	20322
230.602	20341.62
230.674	20356.51
230.747	20392.51
230.819	20404.7
230.892	20380.12
230.964	20385.81
231.037	20402.24
231.109	20402.1
231.181	20417.47
231.254	20414.24
231.326	20414.53
231.399	20407.45
231.471	20405.86
231.544	20389.86
231.616	20412.03
231.688	20422.63
231.761	20426.53
231.833	20432.94
231.905	20420.6
231.978	20421.86
232.05	20426.63
232.122	20434.82
232.195	20435.54
232.267	20447.79
232.339	20450.29
232.412	20470.34
232.484	20470.15
232.556	20472.8
232.629	20497.67
232.701	20506.58
232.773	20513.09
232.846	20507.11
232.918	20509.18
232.99	20506.1
233.062	20511.93
233.135	20507.06
233.207	20489.18
233.279	20496.89
233.351	20500.32
233.424	20485.04
233.496	20465.38
233.568	20474.87
233.64	20444.85
233.713	20428.41
233.785	20409.33
233.857	20395.45
233.929	20370.24
234.001	20370.49
234.074	20370.29
234.146	20333.71
234.218	20314.44
234.29	20297.52
234.362	20283.02
234.434	20260.12
234.507	20242.68
234.579	20214.82
234.651	20198.05
234.723	20192.8
234.795	20188.32
234.867	20160.85
234.939	20166.44
235.012	20163.02
235.084	20157.43
235.156	20154.78
235.228	20142.2
235.3	20123.5
235.372	20113.09
235.444	20116.46
235.516	20082.78
235.588	20067.02
235.66	20054.35
235.732	20030.44
235.804	20075.5
235.876	20074.3
235.948	20073.72
236.02	20060.08
236.092	20051.02
236.164	20033.19
236.236	20003.51
236.308	19976.57
236.38	19961.63
236.452	19934.16
236.524	19919.03
236.596	19902.45
236.668	19894.98
236.74	19865.92
236.812	19858.6
236.884	19840.24
236.956	19820.28
237.028	19798.21
237.1	19764.77
237.172	19764.38
237.244	19761.73
237.316	19701.88
237.388	19662.07
237.46	19626.51
237.532	19614.41
237.604	19571.62
237.675	19555.72
237.747	19540.63
237.819	19507.62
237.891	19489.22
237.963	19452.83
238.035	19416.5
238.107	19358.62
238.178	19346.19
238.25	19329.47
238.322	19315.3
238.394	19280.22
238.466	19252.12
238.538	19229.18
238.609	19205.86
238.681	19155.26
238.753	19119.41
238.825	19095.17
238.897	19072.28
238.968	19064.23
239.04	19026.54
239.112	19030.59
239.184	18995.7
239.255	18970.02
239.327	18945.73
239.399	18923.03
239.471	18912.24
239.542	18894.55
239.614	18886.65
239.686	18832.34
239.758	18819.71
239.829	18769.69
239.901	18752.39
239.973	18723.62
240.044	18700.01
240.116	18674.37
240.188	18641.94
240.259	18608.64
240.331	18563.87
240.403	18546.81
240.474	18496.46
240.546	18455.54
240.618	18408.94
240.689	18376.51
240.761	18349.09
240.833	18337.19
240.904	18296.95
240.976	18265.53
241.048	18236.47
241.119	18217.92
241.191	18190.88
241.262	18171.17
241.334	18152.81
241.405	18124.43
241.477	18090.93
241.549	18053.34
241.62	18019.71
241.692	18000.14
241.763	17982.94
241.835	17953.25
241.906	17920.53
241.978	17880.19
242.049	17872.05
242.121	17857.93
242.192	17842.99
242.264	17794.85
242.335	17742.08
242.407	17724.77
242.478	17684.97
242.55	17660.97
242.621	17619.67
242.693	17589.64
242.764	17554.08
242.836	17516.92
242.907	17486.51
242.979	17460.78
243.05	17436.15
243.122	17421.98
243.193	17382.95
243.264	17328.25
243.336	17298.46
243.407	17266.08
243.479	17256.92
243.55	17224.01
243.622	17189.11
243.693	17154.22
243.764	17142.41
243.836	17103.62
243.907	17062.8
243.978	17028.39
244.05	17000.14
244.121	16942.16
244.192	16912.14
244.264	16863.51
244.335	16832.09
244.407	16791.46
244.478	16764.66
244.549	16730.16
244.62	16677.91
244.692	16646.2
244.763	16626.92
244.834	16585.37
244.906	16553.57
244.977	16516.07
245.048	16495.54
245.119	16457.08
245.191	16407
245.262	16346.32
245.333	16341.69
245.405	16320.44
245.476	16290.65
245.547	16259.32
245.618	16247.61
245.689	16216.04
245.761	16196.96
245.832	16158.11
245.903	16128.27
245.974	16099.02
246.045	16063.35
246.117	16047.3
246.188	16001.27
246.259	15956.15
246.33	15924.54
246.401	15894.03
246.473	15849.63
246.544	15807.07
246.615	15779.46
246.686	15747.93
246.757	15739.88
246.828	15691.01
246.899	15673.42
246.97	15637.02
247.042	15599.38
247.113	15577.26
247.184	15565.78
247.255	15517.34
247.326	15492.76
247.397	15460.13
247.468	15428.85
247.539	15406.05
247.61	15354.04
247.681	15341.17
247.752	15326.8
247.823	15290.84
247.894	15267.32
247.965	15231.22
248.037	15191.69
248.108	15145.9
248.179	15119.72
248.25	15091.38
248.321	15072
248.392	15026.98
248.463	15018.98
248.534	14986.83
248.605	14962.97
248.675	14932.22
248.746	14910.48
248.817	14888.06
248.888	14863.62
248.959	14814.5
249.03	14787.56
249.101	14766.73
249.172	14729.66
249.243	14669.55
249.314	14663.19
249.385	14628.62
249.456	14608.14
249.527	14588.52
249.598	14576.18
249.669	14547.3
249.739	14516.98
249.81	14493.27
249.881	14447.18
249.952	14416.62
250.023	14383.74
250.094	14338.62
250.165	14302.04
250.235	14280.2
250.306	14255.66
250.377	14217.92
250.448	14201.86
250.519	14153.08
250.59	14146.14
250.66	14121.79
250.731	14126.62
250.802	14099.57
250.873	14069.73
250.944	14051.56
251.014	14013.28
251.085	14005.38
251.156	13989.13
251.227	13981.9
251.297	13973.51
251.368	13971.34
251.439	13950.37
251.51	13942.18
251.58	13907.18
251.651	13876.33
251.722	13862.01
251.792	13821.42
251.863	13795.97
251.934	13783.58
252.005	13792.06
252.075	13762.8
252.146	13743.38
252.217	13724.24
252.287	13706.55
252.358	13684.61
252.429	13678.44
252.499	13653.76
252.57	13625.66
252.641	13611.77
252.711	13582.03
252.782	13538.84
252.852	13527.65
252.923	13501.81
252.994	13480.89
253.064	13467.87
253.135	13431.29
253.205	13395.9
253.276	13389.73
253.347	13380.14
253.417	13347.5
253.488	13314.63
253.558	13285.12
253.629	13261.12
253.699	13245.88
253.77	13226.6
253.841	13209.78
253.911	13186.11
253.982	13162.82
254.052	13150.24
254.123	13127.34
254.193	13107.97
254.264	13113.22
254.334	13077.31
254.405	13048.19
254.475	13009.05
254.546	12988.94
254.616	12987.64
254.687	12971.49
254.757	12944.31
254.827	12921.07
254.898	12907.43
254.968	12883.86
255.039	12853.49
255.109	12849.39
255.18	12815.98
255.25	12771.68
255.321	12757.27
255.391	12721.4
255.461	12723.76
255.532	12679.66
255.602	12648.52
255.673	12605.85
255.743	12576.02
255.813	12529.74
255.884	12523.47
255.954	12513.35
256.024	12511.86
256.095	12494.94
256.165	12466.25
256.235	12461.92
256.306	12430.97
256.376	12415.79
256.446	12399.49
256.517	12389.37
256.587	12373.56
256.657	12353.89
256.728	12337.94
256.798	12312.48
256.868	12285.73
256.938	12255.6
257.009	12246.3
257.079	12235.89
257.149	12241.1
257.219	12207.21
257.29	12193.47
257.36	12156.84
257.43	12147.05
257.5	12101.02
257.571	12072.63
257.641	12059.08
257.711	12020.62
257.781	12018.93
257.852	11999.51
257.922	11961.04
257.992	11946.15
258.062	11929.08
258.132	11919.59
258.202	11896.98
258.273	11874.38
258.343	11874.23
258.413	11849.89
258.483	11827.29
258.553	11796.34
258.623	11769.2
258.693	11755.03
258.764	11757.44
258.834	11753.49
258.904	11731.99
258.974	11707.32
259.044	11683.22
259.114	11660.81
259.184	11648.95
259.254	11623.12
259.324	11585.33
259.394	11577.95
259.464	11571.83
259.535	11545.52
259.605	11524.02
259.675	11500.45
259.745	11495.05
259.815	11465.22
259.885	11440.06
259.955	11452.02
260.025	11424.55
260.095	11403.53
260.165	11386.62
260.235	11383.72
260.305	11354.76
260.375	11323.87
260.445	11336.83
260.515	11340.64
260.585	11339.43
260.655	11319.05
260.725	11313.75
260.795	11309.5
260.865	11314.13
260.934	11285.84
261.004	11274.23
261.074	11255.24
261.144	11257.69
261.214	11253.16
261.284	11241.07
261.354	11235.82
261.424	11198.22
261.494	11205.98
261.564	11182.85
261.634	11171.43
261.703	11133.79
261.773	11126.75
261.843	11120.05
261.913	11098.66
261.983	11059.67
262.053	11052.73
262.123	11038.71
262.192	11006.76
262.262	10998.47
262.332	10968.88
262.402	10956.21
262.472	10943.34
262.541	10911.58
262.611	10904.26
262.681	10869.85
262.751	10859.01
262.821	10835.11
262.89	10814.05
262.96	10800.9
263.03	10814.58
263.1	10803.3
263.169	10793.23
263.239	10782.25
263.309	10781.33
263.379	10770.01
263.448	10759.07
263.518	10739.26
263.588	10725.77
263.657	10729.58
263.727	10730.16
263.797	10709.68
263.867	10691.95
263.936	10664.72
264.006	10656.82
264.076	10640.34
264.145	10621.6
264.215	10598.81
264.285	10601.27
264.354	10571.69
264.424	10548.61
264.494	10510.25
264.563	10489.34
264.633	10493.39
264.702	10477.68
264.772	10445.11
264.842	10425.45
264.911	10418.99
264.981	10391.43
265.05	10377.9
265.12	10351.3
265.19	10330.29
265.259	10328.41
265.329	10325.96
265.398	10309
265.468	10323.6
265.537	10303.51
265.607	10296.76
265.676	10298.16
265.746	10286.16
265.815	10284.38
265.885	10270.99
265.955	10248.11
266.024	10228.74
266.094	10185.96
266.163	10189.14
266.232	10191.74
266.302	10173.34
266.371	10159.66
266.441	10150.99
266.51	10141.01
266.58	10133.07
266.649	10111.72
266.719	10105.27
266.788	10096.36
266.858	10096.84
266.927	10056.03
266.996	10043.85
267.066	10031.18
267.135	9999.15
267.205	9995.2
267.274	9980.31
267.343	9976.7
267.413	9967.79
267.482	9972.51
267.552	9977.47
267.621	9947.75
267.69	9920
267.76	9909.6
267.829	9905.6
267.898	9891.97
267.968	9867.79
268.037	9865.48
268.106	9862.97
268.176	9837.4
268.245	9819.14
268.314	9800.5
268.384	9802.57
268.453	9787.3
268.522	9785.52
268.592	9787.97
268.661	9764.28
268.73	9760.09
268.799	9739.42
268.869	9745.97
268.938	9714.96
269.007	9695.16
269.076	9685.53
269.146	9684.95
269.215	9678.83
269.284	9679.03
269.353	9662.65
269.422	9654.61
269.492	9631.93
269.561	9591.67
269.63	9589.5
269.699	9573.46
269.768	9571.68
269.838	9562.77
269.907	9563.78
269.976	9543.6
270.045	9507.92
270.114	9503.44
270.183	9491.55
270.253	9488.75
270.322	9461.5
270.391	9453.84
270.46	9460.15
270.529	9453.17
270.598	9450.04
270.667	9432.7
270.736	9413.44
270.806	9410.69
270.875	9414.83
270.944	9404.67
271.013	9428.12
271.082	9420.85
271.151	9413.58
271.22	9380.21
271.289	9364.37
271.358	9350.74
271.427	9339.14
271.496	9333.8
271.565	9321.42
271.634	9312.27
271.703	9336.64
271.772	9342.56
271.841	9331.15
271.91	9306.88
271.979	9302.6
272.048	9272.89
272.117	9275.49
272.186	9251.8
272.255	9249.25
272.324	9241.3
272.393	9231.38
272.462	9210.77
272.531	9197.82
272.6	9188.58
272.669	9199.02
272.738	9192.38
272.807	9188.48
272.876	9172.4
272.945	9205.38
273.013	9201.34
273.082	9199.65
273.151	9151.26
273.22	9145.91
273.289	9137.63
273.358	9146.88
273.427	9130.51
273.496	9131.66
273.564	9128.82
273.633	9135.8
273.702	9116.74
273.771	9109.95
273.84	9106.1
273.909	9106.1
273.977	9104.84
274.046	9094.88
274.115	9097.86
274.184	9082.27
274.253	9074.66
274.322	9082.17
274.39	9045.82
274.459	9033.49
274.528	9007.74
274.597	9007.4
274.665	9006.2
274.734	9013.04
274.803	9005.24
274.872	9006.87
274.94	8990.65
275.009	9019.4
275.078	9000.1
275.147	8999.33
275.215	8989.12
275.284	8999.52
275.353	8986.09
275.421	8963.32
275.49	8976.27
275.559	8959.66
275.627	8960.81
275.696	8948.73
275.765	8944.93
275.833	8935.69
275.902	8936.46
275.971	8947.29
276.039	8955.52
276.108	8952.54
276.177	8953.55
276.245	8939.88
276.314	8932.56
276.383	8946.04
276.451	8905.64
276.52	8906.5
276.588	8915.21
276.657	8916.95
276.725	8899.86
276.794	8900.1
276.863	8914.49
276.931	8889.7
277	8893.98
277.068	8899.13
277.137	8914.35
277.205	8912.13
277.274	8933.46
277.342	8937.4
277.411	8915.75
277.48	8905.15
277.548	8893.46
277.617	8887.82
277.685	8880.6
277.754	8882.43
277.822	8871.41
277.89	8884.02
277.959	8883.3
278.027	8861.74
278.096	8855.96
278.164	8889.13
278.233	8881
278.301	8863.24
278.37	8866.12
278.438	8859
278.507	8860.4
278.575	8838.3
278.643	8833.78
278.712	8813.08
278.78	8800.8
278.849	8813.65
278.917	8817.99
278.985	8813.56
279.054	8818.13
279.122	8825.93
279.191	8818.08
279.259	8813.37
279.327	8793.29
279.396	8805.9
279.464	8802.49
279.532	8807.25
279.601	8794.97
279.669	8791.65
279.737	8807.01
279.806	8812.16
279.874	8822.12
279.942	8813.84
280.011	8805.23
280.079	8815.91
280.147	8834.4
280.215	8839.84
280.284	8837.53
280.352	8828.52
280.42	8835.02
280.488	8825.83
280.557	8819.86
280.625	8826.26
280.693	8829.77
280.761	8829.58
280.83	8811.29
280.898	8827.32
280.966	8811.05
281.034	8778.56
281.102	8759.65
281.171	8753.34
281.239	8764.12
281.307	8752.09
281.375	8739.58
281.443	8769.32
281.512	8760.66
281.58	8762.39
281.648	8742.9
281.716	8743.77
281.784	8743.33
281.852	8737.7
281.92	8737.84
281.989	8751.85
282.057	8735.25
282.125	8776.22
282.193	8773.57
282.261	8778.1
282.329	8771.55
282.397	8779.39
282.465	8789.36
282.533	8810.63
282.601	8799.65
282.67	8775.88
282.738	8767.84
282.806	8786.9
282.874	8771.11
282.942	8775.54
283.01	8770.87
283.078	8776.11
283.146	8767.16
283.214	8767.79
283.282	8769.47
283.35	8775.97
283.418	8769.37
283.486	8772.89
283.554	8729.27
283.622	8729.56
283.69	8726.52
283.758	8722.39
283.826	8720.8
283.894	8728.93
283.962	8746.89
284.03	8763.59
284.098	8766.86
284.165	8759.16
284.233	8754.54
284.301	8749.25
284.369	8739.91
284.437	8732.11
284.505	8729.66
284.573	8743.18
284.641	8736.54
284.709	8736.11
284.777	8714.16
284.845	8719.21
284.912	8728.21
284.98	8729.7
285.048	8718.35
285.116	8723.74
285.184	8736.88
285.252	8735.58
285.319	8711.51
285.387	8698.23
285.455	8681.14
285.523	8688.07
285.591	8686.48
285.659	8688.65
285.726	8697.84
285.794	8684.51
285.862	8682.54
285.93	8682.39
285.997	8678.11
286.065	8672.82
286.133	8670.03
286.201	8669.98
286.269	8651.35
286.336	8641.39
286.404	8631.86
286.472	8646.49
286.539	8624.35
286.607	8604.52
286.675	8605.53
286.743	8619.1
286.81	8612.9
286.878	8624.49
286.946	8610.49
287.013	8615.25
287.081	8608.08
287.149	8591
287.216	8606.54
287.284	8596.72
287.352	8594.75
287.419	8590.51
287.487	8606.3
287.555	8606.35
287.622	8608.27
287.69	8617.08
287.758	8626.42
287.825	8624.35
287.893	8611.79
287.96	8621.27
288.028	8628.77
288.096	8632.05
288.163	8634.41
288.231	8621.85
288.298	8616.31
288.366	8634.65
288.433	8631.23
288.501	8626.37
288.569	8630.41
288.636	8624.88
288.704	8640.28
288.771	8650.63
288.839	8645.72
288.906	8639.22
288.974	8655.15
289.041	8651.4
289.109	8648.22
289.176	8653.71
289.244	8666.13
289.311	8682.01
289.379	8689.52
289.446	8697.7
289.514	8695.68
289.581	8695.58
289.649	8701.21
289.716	8711.13
289.783	8701.84
289.851	8722.73
289.918	8727.54
289.986	8744.29
290.053	8755.02
290.121	8749.97
290.188	8754.35
290.255	8778.8
290.323	8775.43
290.39	8766.81
290.458	8771.19
290.525	8780.53
290.592	8776
290.66	8774.61
290.727	8764.5
290.794	8773.65
290.862	8767.72
290.929	8769.84
290.996	8766.04
291.064	8780.09
291.131	8785.58
291.198	8794.44
291.266	8792.9
291.333	8789.43
291.4	8790.3
291.468	8798.63
291.535	8797.76
291.602	8797.62
291.669	8791.98
291.737	8795.21
291.804	8794.58
291.871	8814.22
291.938	8820.77
292.006	8851.34
292.073	8858.75
292.14	8870.11
292.207	8866.74
292.275	8876.61
292.342	8888.16
292.409	8916.18
292.476	8937.65
292.543	8929.28
292.611	8934.23
292.678	8946.8
292.745	8971.64
292.812	8979.97
292.879	8983.43
292.946	8991.33
293.014	9010.87
293.081	9019.3
293.148	9032.34
293.215	9053.81
293.282	9047.31
293.349	9058.73
293.416	9040
293.484	9060.41
293.551	9074.18
293.618	9091.8
293.685	9117.12
293.752	9101.81
293.819	9099.12
293.886	9083.9
293.953	9089.2
294.02	9102.05
294.087	9110.67
294.154	9111.73
294.221	9129.93
294.288	9126.32
294.356	9143.85
294.423	9142.55
294.49	9136.82
294.557	9151.4
294.624	9140.76
294.691	9167.77
294.758	9165.32
294.825	9171.43
294.892	9165.56
294.959	9162.19
295.026	9169.36
295.093	9163.05
295.16	9174.12
295.226	9174.56
295.293	9200.61
295.36	9210.19
295.427	9222.13
295.494	9236.96
295.561	9241.73
295.628	9260.94
295.695	9277.36
295.762	9274.28
295.829	9283.04
295.896	9299.13
295.963	9306.73
296.03	9306.3
296.096	9310.54
296.163	9316.85
296.23	9334.04
296.297	9345.54
296.364	9349.4
296.431	9353.97
296.498	9346.7
296.564	9374.82
296.631	9382.52
296.698	9374.24
296.765	9393.12
296.832	9380.31
296.899	9362.73
296.965	9379.87
297.032	9361.28
297.099	9382.33
297.166	9391.91
297.233	9390.66
297.299	9386.71
297.366	9383.96
297.433	9391.52
297.5	9393.4
297.566	9401.59
297.633	9394.27
297.7	9395.67
297.767	9389.89
297.833	9400.15
297.9	9403.71
297.967	9381.65
298.033	9392.97
298.1	9415.51
298.167	9411.95
298.234	9418.64
298.3	9433.52
298.367	9431.74
298.434	9434.05
298.5	9423.16
298.567	9423.65
298.634	9422.92
298.7	9431.69
298.767	9438.81
298.834	9456.78
298.9	9457.74
298.967	9444.74
299.033	9459.38
299.1	9469.83
299.167	9488.7
299.233	9479.17
299.3	9491.74
299.366	9510.32
299.433	9524.05
299.5	9497.9
299.566	9502.18
299.633	9517.98
299.699	9526.99
299.766	9522.7
299.832	9534.26
299.899	9541.58
299.965	9553.52
300.032	9551.55
300.099	9564.89
300.165	9571.82
300.232	9566.86
300.298	9563.88
300.365	9581.89
300.431	9584.92
300.498	9580.97
300.564	9583.91
300.631	9595.28
300.697	9614.3
300.763	9615.79
300.83	9611.84
300.896	9627.06
300.963	9631.78
301.029	9638.33
301.096	9642.42
301.162	9655.96
301.229	9645.84
301.295	9634.53
301.361	9640.26
301.428	9646.76
301.494	9635.63
301.561	9634.62
301.627	9636.64
301.693	9644.83
301.76	9650.51
301.826	9640.59
301.892	9654.42
301.959	9663.28
302.025	9661.16
302.092	9651
302.158	9654.41
302.224	9652.58
302.291	9646.03
302.357	9643.29
302.423	9629.32
302.49	9619.35
302.556	9626.72
302.622	9630.29
302.688	9643.19
302.755	9657.35
302.821	9666.89
302.887	9675.03
302.954	9670.94
303.02	9680.76
303.086	9684.28
303.152	9680.13
303.219	9679.75
303.285	9678.74
303.351	9693.52
303.417	9696.03
303.483	9687.5
303.55	9682.64
303.616	9682.4
303.682	9678.88
303.748	9671.61
303.815	9690.35
303.881	9698.39
303.947	9686.4
304.013	9686.11
304.079	9675.66
304.145	9650.81
304.212	9648.3
304.278	9638.96
304.344	9639.54
304.41	9620.51
304.476	9608.91
304.542	9603.03
304.608	9609.15
304.674	9591.28
304.741	9575.38
304.807	9576.78
304.873	9580.73
304.939	9601.2
305.005	9591.62
305.071	9594.17
305.137	9597.3
305.203	9575.29
305.269	9570.37
305.335	9585.16
305.401	9586.27
305.467	9584.78
305.533	9592.82
305.599	9602.21
305.666	9612.18
305.732	9610.98
305.798	9627.98
305.864	9651.86
305.93	9660.05
305.996	9654.47
306.062	9657.35
306.128	9658.61
306.194	9649.89
306.259	9654.56
306.325	9641.32
306.391	9649.21
306.457	9656.78
306.523	9655.76
306.589	9679.51
306.655	9675.22
306.721	9651.67
306.787	9631.35
306.853	9647.82
306.919	9633.37
306.985	9623.21
307.051	9615.26
307.117	9609.82
307.183	9604.53
307.248	9574.76
307.314	9572.35
307.38	9580.4
307.446	9593.4
307.512	9578.71
307.578	9580.44
307.644	9569.56
307.709	9570.33
307.775	9559.93
307.841	9555.21
307.907	9558.34
307.973	9535.36
308.039	9535.17
308.104	9544.95
308.17	9552.56
308.236	9534.64
308.302	9538.16
308.368	9524.48
308.433	9531.08
308.499	9522.84
308.565	9511.28
308.631	9517.02
308.696	9502.13
308.762	9485.13
308.828	9476.66
308.894	9458.89
308.959	9437.13
309.025	9429.04
309.091	9423.11
309.156	9419.31
309.222	9415.6
309.288	9403.27
309.354	9385.17
309.419	9383.53
309.485	9368.94
309.551	9371.78
309.616	9358.97
309.682	9353.82
309.748	9346.31
309.813	9333.07
309.879	9327.77
309.945	9314.67
310.01	9309.09
310.076	9306.68
310.141	9304.51
310.207	9282.51
310.273	9288
310.338	9288.96
310.404	9273.65
310.469	9253.62
310.535	9243.94
310.601	9225.3
310.666	9228.82
310.732	9237.44
310.797	9226.99
310.863	9210.81
310.928	9200.02
310.994	9205.51
311.059	9204.36
311.125	9203.97
311.191	9212.16
311.256	9201.04
311.322	9206.72
311.387	9185.68
311.453	9505.69
311.518	9478.93
311.584	9479.22
311.649	9479.84
311.715	9472.72
311.78	9478.54
311.846	9477.34
311.911	9483.79
311.976	9488.22
312.042	9473.39
312.107	9454.42
312.173	9441.37
312.238	9439.79
312.304	9441.04
312.369	9428.86
312.434	9415.57
312.5	9404.93
312.565	9375.56
312.631	9379.46
312.696	9369.35
312.761	9375.08
312.827	9042.3
312.892	9080.29
312.958	9078.51
313.023	9078.89
313.088	9075.19
313.154	9060.65
313.219	9051.74
313.284	9036.43
313.35	9028.78
313.415	9019.25
313.48	9017.03
313.546	9023.92
313.611	9029.55
313.676	9019.73
313.741	9006.78
313.807	9006.87
313.872	9013.23
313.937	9021.17
314.003	9031.91
314.068	9036.38
314.133	9038.7
314.198	9028.63
314.264	9004.46
314.329	8996.66
314.394	8986.55
314.459	8986.94
314.525	9002.63
314.59	9003.55
314.655	8992.38
314.72	9003.07
314.785	9004.32
314.851	8997.34
314.916	8975.44
314.981	8959.55
315.046	8942.8
315.111	8937.65
315.176	8925.42
315.242	8929.42
315.307	8923.59
315.372	8904.48
315.437	8891.1
315.502	8884.41
315.567	8898.8
315.632	8881.37
315.698	8881.86
315.763	8880.27
315.828	8872.37
315.893	8869.77
315.958	8860.48
316.023	8852.93
316.088	8824.57
316.153	8804.65
316.218	8800.56
316.283	8786.7
316.348	8771.83
316.413	8771.54
316.479	8749.74
316.544	8723.66
316.609	8689.87
316.674	8659.26
316.739	8622.06
316.804	8591.79
316.869	8557.72
316.934	8515.8
316.999	8491.5
317.064	8440.26
317.129	8395.36
317.194	8355.28
317.259	8301.72
317.324	8250.44
317.389	8205.37
317.454	8172.84
317.518	8141.05
317.583	8112.99
317.648	8087.45
317.713	8049.69
317.778	7988.12
317.843	7961.09
317.908	7914.44
317.973	7875.82
318.038	7839.99
318.103	7807.24
318.168	7777.38
318.233	7737.65
318.297	7685.87
318.362	7645.81
318.427	7614.32
318.492	7590.42
318.557	7540.05
318.622	7516.63
318.687	7491.01
318.751	7457.18
318.816	7427.94
318.881	7390.6
318.946	7334.83
319.011	7289.89
319.075	7247.31
319.14	7214.4
319.205	7176.48
319.27	7145.73
319.335	7100.8
319.399	7059.72
319.464	7026.95
319.529	6967.38
319.594	6932.02
319.658	6902.29
319.723	6862.41
319.788	6830.18
319.853	6778.39
319.917	6757.94
319.982	6704.33
320.047	6666.53
320.112	6639.15
320.176	6584.4
320.241	6554.15
320.306	6527.64
320.37	6485.3
320.435	6452.8
320.5	6428.21
320.564	6387.89
320.629	6350.07
320.694	6318.24
320.758	6280.62
320.823	6237.47
320.888	6215.78
320.952	6166.26
321.017	6127.11
321.082	6086.08
321.146	6045.2
321.211	6009.07
321.275	5969.59
321.34	5922.49
321.405	5877.74
321.469	5828.53
321.534	5784.03
321.598	5730.12
321.663	5697.45
321.727	5665.61
321.792	5621.31
321.857	5577.34
321.921	5534.81
321.986	5491.72
322.05	5431.05
322.115	5391.08
322.179	5345.99
322.244	5291.51
322.308	5258.4
322.373	5213.27
322.437	5174.98
322.502	5148.77
322.566	5103.54
322.631	5063.02
322.695	5024.23
322.76	4979.84
322.824	4943.68
322.889	4905.62
322.953	4860.63
323.018	4793.35
323.082	4729.26
323.146	4675.52
323.211	4618.62
323.275	4574.2
323.34	4527.84
323.404	4496.75
323.468	4452.92
323.533	4409.4
323.597	4364.45
323.662	4313.84
323.726	4280.07
323.79	4232.77
323.855	4170.39
323.919	4122.53
323.983	4079.3
324.048	4015.75
324.112	4173.45
324.177	4043.74
324.241	3832.72
324.305	3628.83
324.37	3428.18
324.434	3235.76
324.498	3196.09
324.562	3148.98
324.627	3090.55
324.691	3038.83
324.755	2975.06
324.82	2900.58
324.884	2827.35
324.948	2755.29
325.012	2664.2
325.077	2539.4
