Data from 20250702_urea_0.5M_MAYP1162681_01-15-00-286.txt Node
Date: Thu Jul 03 01:15:00 BST 2025
User: adleo
Spectrometer: MAYP116268
Trigger mode: 0
Integration Time (sec): 1.000000E0
Scans to average: 1
Electric dark correction enabled: true
Nonlinearity correction enabled: true
Boxcar width: 10
XAxis mode: Wavelengths
Number of Pixels in Spectrum: 2068
>>>>>Begin Spectral Data<<<<<
179.565	1215.63
179.642	1274.34
179.718	1313.8
179.795	1350.12
179.871	1382.14
179.948	1396.74
180.024	1416.02
180.101	1439.31
180.177	1454.06
180.254	1476.96
180.33	1500.58
180.407	1555.09
180.483	1650.77
180.56	1743.51
180.636	1831.02
180.712	1818.32
180.789	1828.68
180.865	1837.66
180.942	1846.12
181.018	1856.06
181.095	1872.27
181.171	1878.03
181.248	1877.17
181.324	1894.29
181.4	1903.84
181.477	1915.97
181.553	1932.89
181.63	1955.28
181.706	1974.21
181.782	1982.38
181.859	1981.95
181.935	1984
182.011	1982.05
182.088	1998.69
182.164	2015.25
182.24	2027.37
182.317	2035.93
182.393	2033.36
182.469	2048.06
182.546	2061.66
182.622	2065.84
182.698	2059.71
182.775	2071.31
182.851	2083.2
182.927	2076.21
183.003	2069.98
183.08	2065.13
183.156	2072.88
183.232	2068.74
183.308	2054.05
183.385	2059.8
183.461	2077.92
183.537	2080.49
183.613	2090.43
183.69	2082.11
183.766	2070.78
183.842	2076.97
183.918	2084.24
183.995	2101.51
184.071	2106.08
184.147	2102.32
184.223	2089.48
184.299	2102.76
184.375	2088.96
184.452	2096.48
184.528	2153.78
184.604	2165.43
184.68	2177.85
184.756	2185.84
184.832	2191.31
184.908	2195.21
184.985	2197.21
185.061	2181.08
185.137	2192.5
185.213	2182.94
185.289	2182.42
185.365	2174.38
185.441	2172.76
185.517	2185.99
185.593	2176.48
185.669	2171.91
185.745	2182.33
185.822	2198.4
185.898	2190.79
185.974	2200.49
186.05	2195.35
186.126	2154.89
186.202	2149.9
186.278	2143.29
186.354	2131.92
186.43	2138.34
186.506	2135.53
186.582	2136.15
186.658	2142.24
186.734	2121.83
186.81	2122.88
186.886	2128.64
186.962	2142.57
187.038	2136.96
187.114	2128.82
187.19	2140.71
187.266	2130.16
187.341	2128.35
187.417	2123.5
187.493	2119.22
187.569	2120.26
187.645	2114.84
187.721	2104.37
187.797	2111.74
187.873	2115.88
187.949	2112.65
188.025	2106.18
188.101	2112.55
188.176	2115.69
188.252	2111.79
188.328	2119.2
188.404	2118.87
188.48	2112.55
188.556	2104.51
188.632	2105.6
188.707	2105.32
188.783	2098.94
188.859	2096.47
188.935	2087.86
189.011	2094.8
189.086	2090.23
189.162	2082.01
189.238	2078.15
189.314	2072.54
189.39	2065.55
189.465	2059.27
189.541	2072.97
189.617	2056.99
189.693	2051.43
189.768	2055.61
189.844	2081.07
189.92	2073.32
189.996	2084.31
190.071	2094.2
190.147	2093.49
190.223	2102.44
190.298	2093.54
190.374	2083.69
190.45	2095.49
190.526	2101.19
190.601	2095.87
190.677	2098.82
190.753	2128.42
190.828	2131.13
190.904	2149.35
190.98	2162.77
191.055	2174.23
191.131	2166.71
191.207	2188.98
191.282	2197.58
191.358	2188.55
191.433	2171.6
191.509	2182.44
191.585	2175.45
191.66	2176.21
191.736	2185.58
191.811	2178.59
191.887	2195.58
191.963	2214.7
192.038	2220.79
192.114	2222.65
192.189	2227.36
192.265	2224.41
192.34	2203.8
192.416	2203.85
192.491	2196.94
192.567	2200.37
192.642	2201.66
192.718	2202.65
192.793	2189.24
192.869	2186.05
192.944	2187.95
193.02	2197.99
193.095	2202.89
193.171	2212.41
193.246	2213.93
193.322	2211.74
193.397	2209.27
193.473	2197.18
193.548	2180.77
193.624	2182.15
193.699	2182.57
193.775	2197.85
193.85	2198.85
193.925	2208.46
194.001	2205.04
194.076	2196.19
194.152	2188
194.227	2181.48
194.302	2171.26
194.378	2173.45
194.453	2172.02
194.529	2182.92
194.604	2165.31
194.679	2159.13
194.755	2138.63
194.83	2148.15
194.905	2148.01
194.981	2159.09
195.056	2151.39
195.131	2158.66
195.207	2159.38
195.282	2146.39
195.357	2128.07
195.433	2144.72
195.508	2130.92
195.583	2142.48
195.659	2158.42
195.734	2165.51
195.809	2163.89
195.884	2172.74
195.96	2176.21
196.035	2190.25
196.11	2186.3
196.185	2199.71
196.261	2204.8
196.336	2235.92
196.411	2221.97
196.486	2225.16
196.561	2217.07
196.637	2228.54
196.712	2245.15
196.787	2248.2
196.862	2264.42
196.937	2276.08
197.013	2282.6
197.088	2291.68
197.163	2310.87
197.238	2328.35
197.313	2326.78
197.388	2340.72
197.464	2369.81
197.539	2380.09
197.614	2372.86
197.689	2387.62
197.764	2402.57
197.839	2422.37
197.914	2418.18
197.989	2442.5
198.065	2457.36
198.14	2509.76
198.215	2535.62
198.29	2544.57
198.365	2558.38
198.44	2568.48
198.515	2593.2
198.59	2604.86
198.665	2633.92
198.74	2642.4
198.815	2641.59
198.89	2665.21
198.965	2697.52
199.04	2694.23
199.115	2709.81
199.19	2755.49
199.265	2754.54
199.34	2767.69
199.415	2802.06
199.49	2825.12
199.565	2836.89
199.64	2858.86
199.715	2854.57
199.79	2861.48
199.865	2868.39
199.94	2864.86
200.015	2897.13
200.09	2905.43
200.165	2910.24
200.24	2917.67
200.315	2958.9
200.39	2974.96
200.464	2981.3
200.539	2982.49
200.614	2999.94
200.689	3023.44
200.764	3028.5
200.839	3049.27
200.914	3052.65
200.989	3040.06
201.063	3052.08
201.138	3034.88
201.213	3034.02
201.288	3014.04
201.363	3017.33
201.438	3018.38
201.512	3035.11
201.587	3018.7
201.662	3021.23
201.737	3035.96
201.812	3043.74
201.886	3010.76
201.961	3018.44
202.036	3003.72
202.111	2999.04
202.186	2969.12
202.26	2953.24
202.335	2929.98
202.41	2922.92
202.485	2904.77
202.559	2888.13
202.634	2858.92
202.709	2868.06
202.784	2851.24
202.858	2850.86
202.933	2831.32
203.008	2825.22
203.082	2808.02
203.157	2808.92
203.232	2765.96
203.306	2745.41
203.381	2712.48
203.456	2686.32
203.53	2666.25
203.605	2646.68
203.68	2621.57
203.754	2615.19
203.829	2599.42
203.904	2579.37
203.978	2568.12
204.053	2572.79
204.127	2559.46
204.202	2560.12
204.277	2538.36
204.351	2531.46
204.426	2525.12
204.5	2517.03
204.575	2482.32
204.65	2490.9
204.724	2482.13
204.799	2488.27
204.873	2483.93
204.948	2483.03
205.022	2473.03
205.097	2463.41
205.171	2476.26
205.246	2483.88
205.32	2484.4
205.395	2483.93
205.469	2474.27
205.544	2481.56
205.618	2464.6
205.693	2476.51
205.767	2464.51
205.842	2489.32
205.916	2482.52
205.991	2474.99
206.065	2483.04
206.14	2496.12
206.214	2491.5
206.289	2485.98
206.363	2502.31
206.438	2507.6
206.512	2513.98
206.586	2536.64
206.661	2545.6
206.735	2528.37
206.81	2531.94
206.884	2547.46
206.958	2536.47
207.033	2554.17
207.107	2563.27
207.181	2599.86
207.256	2594.67
207.33	2616.81
207.405	2631.55
207.479	2652.22
207.553	2661.36
207.628	2645.46
207.702	2662.65
207.776	2660.74
207.851	2664.89
207.925	2680.76
207.999	2679.9
208.073	2680.76
208.148	2685.33
208.222	2680.38
208.296	2717.43
208.371	2741.31
208.445	2761.38
208.519	2799.16
208.593	2824.56
208.668	2831.04
208.742	2840.68
208.816	2854.11
208.89	2879.86
208.965	2892.27
209.039	2915.01
209.113	2945.57
209.187	2984.97
209.261	2998.41
209.336	3038.46
209.41	3078.52
209.484	3102.33
209.558	3148.59
209.632	3189.7
209.707	3229.82
209.781	3278.1
209.855	3325.3
209.929	3372.59
210.003	3409.44
210.077	3443.61
210.151	3528.82
210.226	3599.18
210.3	3669.05
210.374	3734.74
210.448	3782.09
210.522	3838
210.596	3899.26
210.67	3962.23
210.744	4059.7
210.818	4146.28
210.892	4218.81
210.966	4274.79
211.041	4351.64
211.115	4409.41
211.189	4495.75
211.263	4578.76
211.337	4655.26
211.411	4740.38
211.485	4809
211.559	4891.8
211.633	4967.17
211.707	5010.39
211.781	5098.68
211.855	5142.42
211.929	5215.84
212.003	5279.58
212.077	5371.52
212.151	5465.09
212.225	5559.82
212.299	5636.62
212.373	5716.98
212.447	5806.73
212.52	5924.92
212.594	6022.03
212.668	6127.38
212.742	6209.73
212.816	6300.64
212.89	6392.07
212.964	6485.33
213.038	6583.49
213.112	6700.15
213.186	6816.16
213.26	6895.44
213.333	6948.47
213.407	7052.21
213.481	7156.59
213.555	7278.17
213.629	7372.15
213.703	7465.79
213.777	7570.7
213.85	7658.84
213.924	7798.31
213.998	7904.21
214.072	8007.12
214.146	8098.13
214.219	8206.9
214.293	8315.66
214.367	8420.17
214.441	8536.42
214.515	8633.54
214.588	8716.13
214.662	8785.63
214.736	8870.62
214.81	8982.03
214.883	9101
214.957	9199.19
215.031	9294.07
215.105	9371.77
215.178	9463.65
215.252	9559.67
215.326	9633.35
215.4	9715.6
215.473	9761.99
215.547	9839.68
215.621	9921.82
215.694	10023.26
215.768	10095.76
215.842	10173.61
215.915	10254.94
215.989	10324.8
216.063	10411.52
216.136	10505.86
216.21	10595.33
216.284	10702.01
216.357	10801.32
216.431	10886.32
216.504	10988.82
216.578	11102.5
216.652	11200.07
216.725	11282.34
216.799	11375.98
216.873	11473.29
216.946	11567.22
217.02	11653.1
217.093	11740.24
217.167	11800.29
217.24	11868.16
217.314	11947.88
217.387	12027.16
217.461	12106.21
217.535	12199
217.608	12267.16
217.682	12352.43
217.755	12448.35
217.829	12512.27
217.902	12582.84
217.976	12652.5
218.049	12719.36
218.123	12775.37
218.196	12866.77
218.27	12942.74
218.343	13006.28
218.417	13080.08
218.49	13154.03
218.563	13246.92
218.637	13321.84
218.71	13424.71
218.784	13507.81
218.857	13591.93
218.931	13660.19
219.004	13740.89
219.077	13820.82
219.151	13893.7
219.224	13960.86
219.298	14032.01
219.371	14125.14
219.444	14196.53
219.518	14281.13
219.591	14349.78
219.665	14453.08
219.738	14522.06
219.811	14583.14
219.885	14658.05
219.958	14732.43
220.031	14804.01
220.105	14876.56
220.178	14949.78
220.251	15004.87
220.325	15076.41
220.398	15145.24
220.471	15222.08
220.544	15288.55
220.618	15343.31
220.691	15415.95
220.764	15482.99
220.838	15558.19
220.911	15597.57
220.984	15678.01
221.057	15739.52
221.131	15809.79
221.204	15834.62
221.277	15904.22
221.35	15996.81
221.424	16057.87
221.497	16115.47
221.57	16174.56
221.643	16239.68
221.716	16302.96
221.79	16354.87
221.863	16404.47
221.936	16457.48
222.009	16521.49
222.082	16579.9
222.155	16628.2
222.229	16695.91
222.302	16747.05
222.375	16787.87
222.448	16851.58
222.521	16886.43
222.594	16936.98
222.667	16969.08
222.74	17028.8
222.814	17062.1
222.887	17098.73
222.96	17156.94
223.033	17216.37
223.106	17265.96
223.179	17315.35
223.252	17359.21
223.325	17414.78
223.398	17462.29
223.471	17511.35
223.544	17547.93
223.617	17596.27
223.69	17645.33
223.763	17672.27
223.837	17717.81
223.91	17761.42
223.983	17783.74
224.056	17817.13
224.129	17856.03
224.202	17914.92
224.275	17947.16
224.348	17977.66
224.42	18002.34
224.493	18018.58
224.566	18041.66
224.639	18075.87
224.712	18093.03
224.785	18127.1
224.858	18149.08
224.931	18182.18
225.004	18201.36
225.077	18238.28
225.15	18240.98
225.223	18269.46
225.296	18319.24
225.369	18335.62
225.442	18360.29
225.514	18402.61
225.587	18439.42
225.66	18466.94
225.733	18492.34
225.806	18527.08
225.879	18559.18
225.952	18587.13
226.025	18632.42
226.097	18680.52
226.17	18708.61
226.243	18724.47
226.316	18745.57
226.389	18780.85
226.461	18808.36
226.534	18831.83
226.607	18847.16
226.68	18895.97
226.753	18924.5
226.825	18921.27
226.898	18967.63
226.971	18995
227.044	19023
227.117	19047.24
227.189	19084.59
227.262	19117.89
227.335	19147.72
227.407	19162.42
227.48	19186.27
227.553	19207.09
227.626	19224.05
227.698	19242.6
227.771	19274.75
227.844	19288.58
227.916	19310.74
227.989	19312.57
228.062	19334.84
228.134	19384.18
228.207	19404.86
228.28	19423.22
228.352	19447.12
228.425	19455.17
228.498	19482.25
228.57	19484.61
228.643	19518.49
228.716	19530.63
228.788	19539.98
228.861	19548.85
228.934	19588.56
229.006	19600.65
229.079	19622.68
229.151	19619.02
229.224	19623.74
229.296	19652.56
229.369	19696.75
229.442	19718.67
229.514	19724.89
229.587	19749.32
229.659	19738.14
229.732	19760.21
229.804	19779.54
229.877	19823.58
229.949	19846.23
230.022	19871.63
230.094	19894.42
230.167	19905.32
230.239	19900.02
230.312	19915.1
230.384	19950.62
230.457	19961.31
230.529	19977.41
230.602	19985.12
230.674	20009.12
230.747	20031.72
230.819	20048.2
230.892	20019.1
230.964	20040.44
231.037	20068.25
231.109	20079.82
231.181	20102.56
231.254	20084.83
231.326	20086.61
231.399	20086.66
231.471	20095.14
231.544	20085.65
231.616	20107.04
231.688	20112.1
231.761	20120.68
231.833	20117.89
231.905	20097.31
231.978	20103.57
232.05	20113.12
232.122	20108.97
232.195	20101.45
232.267	20118.85
232.339	20103.14
232.412	20125.64
232.484	20111.24
232.556	20109.4
232.629	20134.56
232.701	20140.83
232.773	20153.69
232.846	20150.42
232.918	20151.14
232.99	20146.22
233.062	20148.73
233.135	20138.42
233.207	20128.1
233.279	20139.09
233.351	20147.52
233.424	20135.43
233.496	20126.95
233.568	20136.58
233.64	20116.2
233.713	20108.54
233.785	20094.27
233.857	20100.49
233.929	20083.82
234.001	20106.37
234.074	20117.65
234.146	20080.68
234.218	20065.02
234.29	20047.86
234.362	20033.21
234.434	20001.5
234.507	19975.14
234.579	19958.76
234.651	19948.21
234.723	19939.29
234.795	19926.81
234.867	19902.81
234.939	19908.11
235.012	19901.27
235.084	19896.35
235.156	19895.24
235.228	19883.87
235.3	19869.08
235.372	19853.61
235.444	19856.88
235.516	19810.72
235.588	19793.7
235.66	19786.81
235.732	19762.38
235.804	19811.63
235.876	19812.5
235.948	19816.64
236.02	19810.09
236.092	19784.65
236.164	19762.19
236.236	19741.32
236.308	19720.41
236.38	19711.49
236.452	19691.25
236.524	19671.35
236.596	19655.16
236.668	19641.91
236.74	19618.63
236.812	19605.57
236.884	19586.49
236.956	19557.43
237.028	19529.38
237.1	19501.24
237.172	19493.48
237.244	19497.19
237.316	19435.56
237.388	19402.35
237.46	19378.06
237.532	19368.81
237.604	19347.37
237.675	19349.3
237.747	19345.34
237.819	19316.09
237.891	19288.77
237.963	19259.13
238.035	19235.9
238.107	19178.99
238.178	19173.11
238.25	19151.33
238.322	19149.74
238.394	19110.27
238.466	19091.48
238.538	19075.1
238.609	19061.7
238.681	19016.74
238.753	18977.17
238.825	18955.92
238.897	18940.74
238.968	18928.07
239.04	18896.94
239.112	18901.08
239.184	18854.48
239.255	18819.74
239.327	18801.76
239.399	18785.19
239.471	18770.63
239.542	18736.9
239.614	18728.56
239.686	18667.36
239.758	18652.47
239.829	18611.12
239.901	18605.63
239.973	18577.2
240.044	18552.96
240.116	18519.66
240.188	18493.25
240.259	18469.78
240.331	18426.75
240.403	18401.55
240.474	18356.78
240.546	18325.74
240.618	18270.18
240.689	18242.85
240.761	18212.3
240.833	18189.8
240.904	18152.79
240.976	18115.92
241.048	18091.54
241.119	18066.09
241.191	18057.61
241.262	18047.1
241.334	18015.49
241.405	17971.93
241.477	17924.99
241.549	17887.69
241.62	17850.68
241.692	17829.38
241.763	17808.56
241.835	17781.67
241.906	17750.25
241.978	17704.51
242.049	17679.4
242.121	17657.62
242.192	17639.26
242.264	17595.21
242.335	17562.15
242.407	17535.84
242.478	17505.67
242.55	17481.28
242.621	17451.84
242.693	17412.27
242.764	17368.51
242.836	17336.23
242.907	17311.55
242.979	17299.21
243.05	17278.54
243.122	17269.24
243.193	17235.55
243.264	17180.13
243.336	17143.79
243.407	17122.2
243.479	17110.1
243.55	17087.4
243.622	17059.02
243.693	17030.05
243.764	17017.28
243.836	16971.11
243.907	16935.78
243.978	16900.94
244.05	16869.75
244.121	16814.57
244.192	16794.23
244.264	16747.14
244.335	16713.21
244.407	16674.9
244.478	16641.11
244.549	16611.23
244.62	16561.49
244.692	16526.21
244.763	16505.49
244.834	16472.09
244.906	16433.53
244.977	16417.05
245.048	16397.96
245.119	16350.39
245.191	16310.92
245.262	16261.18
245.333	16246.72
245.405	16229.56
245.476	16201.99
245.547	16173.27
245.618	16152.35
245.689	16118.18
245.761	16096.58
245.832	16055.52
245.903	16024.86
245.974	16000.04
246.045	15961.1
246.117	15948.47
246.188	15905.47
246.259	15869.13
246.33	15843.44
246.401	15807.29
246.473	15750.46
246.544	15710.46
246.615	15703.9
246.686	15665.68
246.757	15647.17
246.828	15604.71
246.899	15580.99
246.97	15539.59
247.042	15499.44
247.113	15476.78
247.184	15467
247.255	15428.97
247.326	15411.42
247.397	15383.37
247.468	15349.05
247.539	15319.79
247.61	15269.9
247.681	15255
247.752	15236.3
247.823	15195.81
247.894	15172.53
247.965	15137
248.037	15094.2
248.108	15046.72
248.179	15017.89
248.25	14986.76
248.321	14958.75
248.392	14916.76
248.463	14917.87
248.534	14886.93
248.605	14868.9
248.675	14833.08
248.746	14814.91
248.817	14793.12
248.888	14767.77
248.959	14722.36
249.03	14703.51
249.101	14678.16
249.172	14645.33
249.243	14594.13
249.314	14580.93
249.385	14555.33
249.456	14536.53
249.527	14507.7
249.598	14485.96
249.669	14460.03
249.739	14435.49
249.81	14423.54
249.881	14374.85
249.952	14336.48
250.023	14310.45
250.094	14264.07
250.165	14222.81
250.235	14190.32
250.306	14162.5
250.377	14126.4
250.448	14113.58
250.519	14060.21
250.59	14051.82
250.66	14026.71
250.731	14022.61
250.802	13993.35
250.873	13971.27
250.944	13948.13
251.014	13924.51
251.085	13918.97
251.156	13890.33
251.227	13879.49
251.297	13863.24
251.368	13861.12
251.439	13850.18
251.51	13837.64
251.58	13809.83
251.651	13787.7
251.722	13772.37
251.792	13725.76
251.863	13700.98
251.934	13691.19
252.005	13697.84
252.075	13672.78
252.146	13657.06
252.217	13644.19
252.287	13629.54
252.358	13599.5
252.429	13596.51
252.499	13560.84
252.57	13547.39
252.641	13538.57
252.711	13512.2
252.782	13472.09
252.852	13464.67
252.923	13433.87
252.994	13413.52
253.064	13400.31
253.135	13370.38
253.205	13344.88
253.276	13347.29
253.347	13340.97
253.417	13302.12
253.488	13279.65
253.558	13247.74
253.629	13224.46
253.699	13201.46
253.77	13186.28
253.841	13160.2
253.911	13136.09
253.982	13120.47
254.052	13098.54
254.123	13078.1
254.193	13051.06
254.264	13061.52
254.334	13030.23
254.405	12994.95
254.475	12959.37
254.546	12937.15
254.616	12929.87
254.687	12910.83
254.757	12890.68
254.827	12867.88
254.898	12855.05
254.968	12822.47
255.039	12793.35
255.109	12777.1
255.18	12744.13
255.25	12697.04
255.321	12684.74
255.391	12644.3
255.461	12645.07
255.532	12597.64
255.602	12569.92
255.673	12528.13
255.743	12494.86
255.813	12446.13
255.884	12437.07
255.954	12425.69
256.024	12420.92
256.095	12395.03
256.165	12359.94
256.235	12337.38
256.306	12305.66
256.376	12296.79
256.446	12292.65
256.517	12279.44
256.587	12272.02
256.657	12250.09
256.728	12231.14
256.798	12204
256.868	12185.01
256.938	12152.38
257.009	12138.45
257.079	12130.98
257.149	12138.83
257.219	12102.68
257.29	12094.34
257.36	12054.82
257.43	12042.24
257.5	11999.43
257.571	11977.31
257.641	11969.02
257.711	11939.28
257.781	11929.21
257.852	11917.15
257.922	11875.61
257.992	11854.16
258.062	11828.56
258.132	11823.26
258.202	11811.93
258.273	11802.15
258.343	11803.74
258.413	11779.5
258.483	11763.83
258.553	11731.2
258.623	11701.65
258.693	11688.54
258.764	11682.76
258.834	11679.77
258.904	11663.24
258.974	11637.31
259.044	11623.43
259.114	11606.75
259.184	11597.35
259.254	11577.06
259.324	11530.84
259.394	11517.49
259.464	11518.41
259.535	11497.54
259.605	11471.32
259.675	11437.78
259.745	11421.44
259.815	11382.16
259.885	11352.47
259.955	11357.24
260.025	11329.34
260.095	11315.99
260.165	11304.08
260.235	11300.28
260.305	11272.66
260.375	11239.36
260.445	11243.12
260.515	11236.76
260.585	11231.17
260.655	11205.05
260.725	11195.45
260.795	11187.84
260.865	11200.47
260.934	11169.96
261.004	11157.57
261.074	11140.61
261.144	11146.35
261.214	11135.6
261.284	11120.56
261.354	11124.23
261.424	11098.39
261.494	11109.23
261.564	11088.99
261.634	11081.04
261.703	11045.96
261.773	11041.04
261.843	11029.05
261.913	11012.85
261.983	10976.18
262.053	10964.33
262.123	10950.26
262.192	10923.08
262.262	10916.96
262.332	10880.86
262.402	10867.51
262.472	10852.24
262.541	10823.76
262.611	10814.75
262.681	10793.4
262.751	10786.75
262.821	10764.44
262.89	10729.84
262.96	10710.04
263.03	10715.58
263.1	10699.24
263.169	10687.68
263.239	10685.32
263.309	10697.46
263.379	10692.16
263.448	10679.35
263.518	10666.48
263.588	10651.25
263.657	10657.08
263.727	10651.5
263.797	10634.87
263.867	10627.45
263.936	10600.61
264.006	10597.68
264.076	10579.99
264.145	10565.15
264.215	10543.95
264.285	10538.75
264.354	10516.3
264.424	10494.14
264.494	10456.94
264.563	10438.2
264.633	10445.95
264.702	10435.84
264.772	10398.59
264.842	10374.89
264.911	10366.12
264.981	10333.4
265.05	10324.2
265.12	10296.02
265.19	10283.59
265.259	10283.92
265.329	10268.7
265.398	10257.86
265.468	10267.21
265.537	10249.19
265.607	10237.24
265.676	10229.44
265.746	10219.95
265.815	10217.83
265.885	10200.97
265.955	10183.67
266.024	10167.49
266.094	10127.55
266.163	10118.83
266.232	10120.37
266.302	10105.92
266.371	10096.38
266.441	10088.29
266.51	10080.97
266.58	10070.51
266.649	10047.34
266.719	10038.52
266.788	10034.57
266.858	10040.69
266.927	10001.48
266.996	9993.15
267.066	9984.67
267.135	9963.14
267.205	9955.48
267.274	9947.72
267.343	9950.37
267.413	9938.62
267.482	9940.26
267.552	9938.86
267.621	9910.01
267.69	9879.57
267.76	9871.38
267.829	9860.49
267.898	9849.51
267.968	9821.53
268.037	9813.58
268.106	9807.65
268.176	9782.75
268.245	9772.06
268.314	9754.43
268.384	9755.63
268.453	9743.25
268.522	9735.74
268.592	9741.42
268.661	9721.48
268.73	9708.33
268.799	9681.08
268.869	9689.99
268.938	9656.75
269.007	9638.4
269.076	9627.38
269.146	9628.72
269.215	9619.43
269.284	9625.11
269.353	9606.33
269.422	9600.07
269.492	9581
269.561	9538.87
269.63	9526.87
269.699	9504.19
269.768	9493.88
269.838	9490.18
269.907	9490.42
269.976	9463.83
270.045	9425.99
270.114	9420.06
270.183	9405.33
270.253	9406.77
270.322	9377.11
270.391	9368.34
270.46	9372.53
270.529	9366.76
270.598	9360.98
270.667	9347.4
270.736	9324.28
270.806	9322.35
270.875	9321.3
270.944	9309.64
271.013	9338.05
271.082	9336.13
271.151	9329.77
271.22	9301.27
271.289	9284.94
271.358	9267.27
271.427	9258.89
271.496	9259.9
271.565	9245.12
271.634	9240.98
271.703	9263.23
271.772	9269.68
271.841	9260.24
271.91	9236.31
271.979	9232.51
272.048	9210.41
272.117	9211.32
272.186	9191.44
272.255	9188.5
272.324	9184.6
272.393	9178.78
272.462	9162.98
272.531	9152.92
272.6	9144.4
272.669	9150.66
272.738	9138.43
272.807	9133.37
272.876	9119.36
272.945	9143.25
273.013	9150.18
273.082	9155.33
273.151	9116.71
273.22	9109.06
273.289	9099.28
273.358	9108.43
273.427	9093.84
273.496	9095.43
273.564	9089.13
273.633	9093.79
273.702	9074.97
273.771	9069.68
273.84	9069.72
273.909	9062.89
273.977	9062.26
274.046	9054.51
274.115	9051.86
274.184	9042.23
274.253	9030.44
274.322	9031.93
274.39	8996.98
274.459	8975.89
274.528	8941.62
274.597	8933.1
274.665	8925.73
274.734	8931.41
274.803	8916.78
274.872	8909.8
274.94	8892.56
275.009	8919.58
275.078	8907.88
275.147	8908.36
275.215	8896.04
275.284	8900.13
275.353	8889.44
275.421	8866.68
275.49	8875.24
275.559	8864.32
275.627	8854.84
275.696	8849.97
275.765	8850.99
275.833	8843
275.902	8844.87
275.971	8861.53
276.039	8868.27
276.108	8874.81
276.177	8876.06
276.245	8865.62
276.314	8865.38
276.383	8872.55
276.451	8835.57
276.52	8835.23
276.588	8846.5
276.657	8853.72
276.725	8842.22
276.794	8843.71
276.863	8850.3
276.931	8828.93
277	8839.42
277.068	8846.16
277.137	8866.23
277.205	8867.05
277.274	8886.02
277.342	8891.46
277.411	8864.07
277.48	8847.03
277.548	8832.98
277.617	8829.08
277.685	8829.8
277.754	8832.74
277.822	8820.08
277.89	8838.9
277.959	8830.58
278.027	8806.6
278.096	8793.85
278.164	8818.45
278.233	8809.26
278.301	8801.03
278.37	8808.39
278.438	8791.4
278.507	8794.19
278.575	8767.19
278.643	8758.95
278.712	8740.13
278.78	8728.68
278.849	8739.46
278.917	8754.23
278.985	8746.68
279.054	8747.64
279.122	8758.57
279.191	8754.23
279.259	8754.14
279.327	8727.28
279.396	8745.81
279.464	8744.12
279.532	8754.42
279.601	8749.61
279.669	8747.25
279.737	8755.82
279.806	8755.91
279.874	8766.45
279.942	8759.57
280.011	8752.5
280.079	8757.7
280.147	8774.3
280.215	8776.18
280.284	8768.19
280.352	8755.63
280.42	8769.49
280.488	8762.37
280.557	8750.04
280.625	8749.61
280.693	8749.32
280.761	8746.1
280.83	8729.11
280.898	8741.62
280.966	8718.71
281.034	8687.71
281.102	8673.03
281.171	8668.51
281.239	8673.23
281.307	8665.28
281.375	8657.68
281.443	8685.98
281.512	8689.5
281.58	8692.96
281.648	8684.3
281.716	8689.06
281.784	8689.93
281.852	8675.01
281.92	8676.74
281.989	8692
282.057	8677.46
282.125	8722.91
282.193	8724.5
282.261	8725.75
282.329	8718
282.397	8725.27
282.465	8728.44
282.533	8744.04
282.601	8733.26
282.67	8712.27
282.738	8700.96
282.806	8714.2
282.874	8697.16
282.942	8698.22
283.01	8691.04
283.078	8694.75
283.146	8688.59
283.214	8694.03
283.282	8699.61
283.35	8706.11
283.418	8696.87
283.486	8706.16
283.554	8667.11
283.622	8661.57
283.69	8659.6
283.758	8655.75
283.826	8658.59
283.894	8668.02
283.962	8686.8
284.03	8703.69
284.098	8706.05
284.165	8708.41
284.233	8702.73
284.301	8698.25
284.369	8685.11
284.437	8679.62
284.505	8672.21
284.573	8692.76
284.641	8679.43
284.709	8687.71
284.777	8671.49
284.845	8682.22
284.912	8683.62
284.98	8681.36
285.048	8678.28
285.116	8687.23
285.184	8702.44
285.252	8700.03
285.319	8683.33
285.387	8672.36
285.455	8650.32
285.523	8657.39
285.591	8653.06
285.659	8659.12
285.726	8668.8
285.794	8658.07
285.862	8649.69
285.93	8645.55
285.997	8636.94
286.065	8635.69
286.133	8626.88
286.201	8627.84
286.269	8611
286.336	8602.33
286.404	8595.74
286.472	8607.39
286.539	8575.48
286.607	8554.69
286.675	8557.05
286.743	8564.8
286.81	8560.32
286.878	8575.53
286.946	8567.92
287.013	8569.08
287.081	8566.43
287.149	8552.04
287.216	8570.52
287.284	8570.86
287.352	8574.75
287.419	8571.24
287.487	8588.38
287.555	8591.17
287.622	8588.18
287.69	8588.81
287.758	8600.79
287.825	8596.37
287.893	8580.72
287.96	8593.81
288.028	8607.24
288.096	8615.81
288.163	8618.02
288.231	8607.29
288.298	8610.51
288.366	8626.78
288.433	8622.35
288.501	8608.59
288.569	8607.19
288.636	8598.34
288.704	8611.53
288.771	8616.72
288.839	8609.46
288.906	8602.67
288.974	8611.86
289.041	8607.24
289.109	8600.99
289.176	8608.3
289.244	8612.49
289.311	8630.83
289.379	8639.87
289.446	8642.91
289.514	8633.57
289.581	8635.01
289.649	8632.13
289.716	8629.43
289.783	8617.93
289.851	8635.59
289.918	8641.12
289.986	8656.72
290.053	8660.71
290.121	8656.19
290.188	8659.41
290.255	8693.1
290.323	8684.87
290.39	8679.72
290.458	8686.75
290.525	8695.27
290.592	8683.86
290.66	8687.76
290.727	8680.06
290.794	8695.89
290.862	8693.77
290.929	8703.54
290.996	8701.43
291.064	8715.29
291.131	8725.68
291.198	8732.85
291.266	8732.52
291.333	8730.69
291.4	8734.44
291.468	8754.76
291.535	8749.85
291.602	8754.04
291.669	8745.95
291.737	8758.7
291.804	8761.73
291.871	8777.71
291.938	8783.15
292.006	8818.06
292.073	8828.36
292.14	8835.48
292.207	8826.09
292.275	8829.94
292.342	8831.1
292.409	8860.27
292.476	8885.79
292.543	8880.68
292.611	8882.42
292.678	8899.46
292.745	8929.06
292.812	8941.72
292.879	8932.82
292.946	8939.51
293.014	8954.14
293.081	8954.43
293.148	8956.79
293.215	8970.17
293.282	8968.15
293.349	8982.25
293.416	8960.3
293.484	8974.88
293.551	8990.63
293.618	9010.7
293.685	9036.7
293.752	9030.87
293.819	9025.14
293.886	9010.32
293.953	9018.98
294.02	9037.76
294.087	9043.73
294.154	9038.24
294.221	9051.14
294.288	9059.42
294.356	9075.74
294.423	9080.36
294.49	9076.08
294.557	9094.57
294.624	9086.33
294.691	9105.88
294.758	9110.55
294.825	9116.09
294.892	9106.55
294.959	9106.31
295.026	9110.12
295.093	9100.58
295.16	9107.61
295.226	9110.45
295.293	9140.06
295.36	9140.16
295.427	9142.66
295.494	9153.31
295.561	9165.92
295.628	9182.97
295.695	9196.02
295.762	9200.64
295.829	9211.38
295.896	9232.94
295.963	9243.39
296.03	9252.93
296.096	9259.09
296.163	9272.52
296.23	9290.48
296.297	9311.28
296.364	9312.05
296.431	9315.09
296.498	9311.23
296.564	9333.81
296.631	9336.94
296.698	9320.91
296.765	9343.39
296.832	9335.06
296.899	9322.4
296.965	9331.31
297.032	9313.39
297.099	9333.38
297.166	9340.36
297.233	9334.97
297.299	9324.52
297.366	9322.83
297.433	9322.16
297.5	9330.93
297.566	9326.5
297.633	9323.94
297.7	9322.26
297.767	9322.11
297.833	9329.14
297.9	9332.8
297.967	9322.84
298.033	9332.51
298.1	9354.91
298.167	9345.61
298.234	9358.18
298.3	9373.3
298.367	9371.28
298.434	9376.86
298.5	9361.79
298.567	9358.08
298.634	9357.55
298.7	9375.8
298.767	9381.77
298.834	9398.72
298.9	9389.43
298.967	9380.81
299.033	9393.19
299.1	9409.7
299.167	9420.78
299.233	9416.54
299.3	9433.92
299.366	9444.66
299.433	9458.43
299.5	9440.71
299.566	9445.34
299.633	9457.76
299.699	9462.67
299.766	9459.25
299.832	9463.78
299.899	9473.32
299.965	9488.48
300.032	9488.48
300.099	9496.82
300.165	9494.07
300.232	9490.27
300.298	9491.61
300.365	9507.75
300.431	9507.22
300.498	9499.08
300.564	9511.31
300.631	9523.88
300.697	9534.62
300.763	9542.56
300.83	9544.3
300.896	9557.54
300.963	9574.54
301.029	9578.1
301.096	9581.38
301.162	9593.37
301.229	9589.9
301.295	9576.8
301.361	9580.22
301.428	9583.84
301.494	9573.48
301.561	9576.71
301.627	9583.64
301.693	9587.64
301.76	9594
301.826	9590.87
301.892	9594.77
301.959	9599.25
302.025	9598.43
302.092	9589.81
302.158	9593.66
302.224	9595.68
302.291	9582.44
302.357	9572.28
302.423	9562.45
302.49	9553.45
302.556	9570.11
302.622	9577.58
302.688	9596.89
302.755	9605.8
302.821	9612.54
302.887	9617.89
302.954	9622.08
303.02	9624.63
303.086	9632.33
303.152	9631.32
303.219	9627.13
303.285	9635.13
303.351	9638.98
303.417	9639.75
303.483	9634.6
303.55	9619.24
303.616	9619.82
303.682	9620.97
303.748	9613.51
303.815	9634.99
303.881	9647.46
303.947	9629.3
304.013	9623.91
304.079	9610.62
304.145	9593.47
304.212	9592.03
304.278	9584.27
304.344	9579.26
304.41	9574.3
304.476	9562.22
304.542	9551.86
304.608	9551.48
304.674	9540.06
304.741	9535.87
304.807	9536.98
304.873	9544.11
304.939	9567.03
305.005	9540.3
305.071	9538.86
305.137	9537.32
305.203	9509.67
305.269	9503.27
305.335	9517.72
305.401	9515.31
305.467	9509.82
305.533	9518.53
305.599	9526.24
305.666	9531.06
305.732	9535.44
305.798	9541.55
305.864	9569.06
305.93	9575.89
305.996	9581.91
306.062	9582.73
306.128	9577.87
306.194	9566.17
306.259	9561.45
306.325	9546.42
306.391	9564.38
306.457	9576.85
306.523	9586.82
306.589	9611.96
306.655	9604.88
306.721	9584.42
306.787	9572.23
306.853	9592.51
306.919	9571.61
306.985	9561.45
307.051	9558.12
307.117	9542.71
307.183	9538.33
307.248	9507.36
307.314	9509.82
307.38	9510.16
307.446	9509.19
307.512	9497.44
307.578	9502.93
307.644	9497.83
307.709	9502.07
307.775	9494.41
307.841	9488.97
307.907	9490.7
307.973	9467.58
308.039	9466.04
308.104	9471.53
308.17	9478.13
308.236	9458.09
308.302	9469.07
308.368	9459.01
308.433	9458
308.499	9458.29
308.565	9445.86
308.631	9449.23
308.696	9426.79
308.762	9415.38
308.828	9416.2
308.894	9402.72
308.959	9381.53
309.025	9370.07
309.091	9363.43
309.156	9358.23
309.222	9356.59
309.288	9343.01
309.354	9323.27
309.419	9327.79
309.485	9313.73
309.551	9315.27
309.616	9303.48
309.682	9297.65
309.748	9294.09
309.813	9285.28
309.879	9274.15
309.945	9260.24
310.01	9255.67
310.076	9263.99
310.141	9255.28
310.207	9237.03
310.273	9243
310.338	9247.19
310.404	9238.57
310.469	9229.23
310.535	9216.23
310.601	9196.2
310.666	9199.91
310.732	9207.99
310.797	9190.95
310.863	9173.86
310.928	9163.02
310.994	9166.73
311.059	9160.81
311.125	9150.75
311.191	9162.83
311.256	9154.94
311.322	9163.03
311.387	9139.82
311.453	9573.72
311.518	9543.83
311.584	9541.32
311.649	9540.65
311.715	9530.83
311.78	9528.52
311.846	9514.8
311.911	9527.12
311.976	9528.38
312.042	9512.15
312.107	9501.22
312.173	9495.49
312.238	9494.34
312.304	9486.54
312.369	9476.81
312.434	9462.27
312.5	9461.17
312.565	9430.59
312.631	9432.37
312.696	9421.06
312.761	9424.09
312.827	8977.39
312.892	9016.96
312.958	9014.65
313.023	9011.61
313.088	9012.67
313.154	8999.77
313.219	8995.49
313.284	8977.91
313.35	8971.61
313.415	8962.17
313.48	8960.3
313.546	8962.65
313.611	8975.46
313.676	8969.11
313.741	8959.53
313.807	8970.6
313.872	8976.18
313.937	8979.74
314.003	8994.81
314.068	8995.97
314.133	9002.71
314.198	8994.96
314.264	8981.04
314.329	8974.88
314.394	8972.52
314.459	8963.42
314.525	8989.95
314.59	8984.99
314.655	8971.46
314.72	8976.76
314.785	8979.46
314.851	8968.39
314.916	8950.77
314.981	8934.78
315.046	8928.72
315.111	8922.65
315.176	8910.33
315.242	8909.56
315.307	8911.82
315.372	8885.3
315.437	8871.24
315.502	8857.76
315.567	8861.76
315.632	8845.63
315.698	8848.86
315.763	8838.51
315.828	8827.05
315.893	8817.23
315.958	8813.29
316.023	8806.79
316.088	8786.33
316.153	8764.58
316.218	8755
316.283	8736.18
316.348	8715.97
316.413	8712.22
316.479	8694.22
316.544	8659.62
316.609	8627.32
316.674	8592.53
316.739	8559.86
316.804	8534.93
316.869	8503.32
316.934	8464.68
316.999	8432.68
317.064	8379.41
317.129	8344.33
317.194	8318.78
317.259	8266.14
317.324	8220.01
317.389	8175.22
317.454	8141.45
317.518	8105.61
317.583	8085.16
317.648	8062.46
317.713	8027.97
317.778	7964.62
317.843	7930.57
317.908	7894.69
317.973	7860.11
318.038	7824.86
318.103	7790.87
318.168	7757.44
318.233	7724.79
318.297	7677.72
318.362	7644.16
318.427	7600.51
318.492	7568.39
318.557	7518.1
318.622	7491.22
318.687	7469.78
318.751	7429.75
318.816	7389.56
318.881	7355.39
318.946	7299.39
319.011	7252.09
319.075	7210.04
319.14	7176.07
319.205	7133.21
319.27	7099
319.335	7055.08
319.399	7020
319.464	6990.6
319.529	6940.44
319.594	6905.71
319.658	6874.24
319.723	6834.75
319.788	6811.03
319.853	6758.57
319.917	6725.92
319.982	6671.16
320.047	6624.05
320.112	6601.09
320.176	6552.5
320.241	6520.14
320.306	6488.3
320.37	6446.92
320.435	6417.49
320.5	6391.28
320.564	6358.11
320.629	6316.64
320.694	6280.84
320.758	6234.09
320.823	6187.11
320.888	6158.41
320.952	6105.35
321.017	6062.69
321.082	6017.25
321.146	5982.61
321.211	5949.17
321.275	5907.59
321.34	5863.71
321.405	5823.66
321.469	5780.78
321.534	5743.14
321.598	5690.25
321.663	5657.97
321.727	5628.96
321.792	5576.12
321.857	5534.84
321.921	5491.45
321.986	5447.46
322.05	5388.52
322.115	5355.83
322.179	5315.01
322.244	5255.55
322.308	5224.27
322.373	5183.73
322.437	5140.57
322.502	5116.37
322.566	5070.61
322.631	5036.56
322.695	4998.98
322.76	4957.17
322.824	4916.22
322.889	4873.81
322.953	4836.18
323.018	4769.3
323.082	4705.5
323.146	4658.51
323.211	4603.52
323.275	4562.98
323.34	4518.35
323.404	4485.63
323.468	4437.88
323.533	4395.31
323.597	4354.48
323.662	4303.54
323.726	4267.72
323.79	4226.54
323.855	4154.45
323.919	4103.77
323.983	4061.17
324.048	3997.2
324.112	4144.06
324.177	4015.84
324.241	3806.69
324.305	3598.96
324.37	3402.38
324.434	3210.91
324.498	3168.18
324.562	3118.98
324.627	3056.68
324.691	3002.82
324.755	2940.79
324.82	2866.46
324.884	2789.19
324.948	2719.48
325.012	2627.62
325.077	2500.81
