Data from 20250702_urea_0.5M_MAYP1162681_02-44-59-857.txt Node
Date: Thu Jul 03 02:44:59 BST 2025
User: adleo
Spectrometer: MAYP116268
Trigger mode: 0
Integration Time (sec): 1.000000E0
Scans to average: 1
Electric dark correction enabled: true
Nonlinearity correction enabled: true
Boxcar width: 10
XAxis mode: Wavelengths
Number of Pixels in Spectrum: 2068
>>>>>Begin Spectral Data<<<<<
179.565	1193.35
179.642	1249.48
179.718	1290.98
179.795	1328.27
179.871	1361.31
179.948	1377.88
180.024	1398.43
180.101	1420.4
180.177	1433.61
180.254	1456.72
180.33	1478.48
180.407	1532.7
180.483	1626.58
180.56	1713.57
180.636	1796.6
180.712	1784.48
180.789	1791.94
180.865	1803.96
180.942	1809.67
181.018	1819.03
181.095	1832.34
181.171	1836.14
181.248	1835.91
181.324	1849.27
181.4	1860.01
181.477	1870.57
181.553	1885.92
181.63	1903.22
181.706	1920.62
181.782	1928.84
181.859	1927.51
181.935	1931.13
182.011	1924.99
182.088	1940.87
182.164	1962.8
182.24	1975.78
182.317	1985.1
182.393	1984.86
182.469	1999.03
182.546	2011.15
182.622	2015.53
182.698	2010.49
182.775	2022.8
182.851	2037.59
182.927	2032.93
183.003	2022.8
183.08	2015.05
183.156	2022.81
183.232	2022.23
183.308	2009.96
183.385	2019.71
183.461	2035.79
183.537	2038.07
183.613	2052.1
183.69	2043.68
183.766	2032.55
183.842	2040.3
183.918	2047.24
183.995	2060.84
184.071	2064.79
184.147	2060.37
184.223	2050.48
184.299	2061.8
184.375	2051.72
184.452	2056.57
184.528	2111.53
184.604	2121.56
184.68	2134.16
184.756	2140.21
184.832	2142.87
184.908	2147.91
184.985	2147.96
185.061	2135.92
185.137	2148.91
185.213	2137.93
185.289	2141.82
185.365	2134.79
185.441	2131.46
185.517	2141.21
185.593	2139.69
185.669	2138.98
185.745	2149.77
185.822	2165.89
185.898	2156.14
185.974	2163.8
186.05	2155.57
186.126	2117.88
186.202	2114.79
186.278	2110.79
186.354	2100.85
186.43	2112.46
186.506	2109.7
186.582	2106.75
186.658	2112.65
186.734	2088.92
186.81	2088.63
186.886	2091.11
186.962	2103.61
187.038	2100.81
187.114	2094.57
187.19	2102.04
187.266	2090.01
187.341	2087.97
187.417	2080.88
187.493	2081.97
187.569	2087.44
187.645	2083.73
187.721	2067.61
187.797	2073.41
187.873	2078.31
187.949	2073.93
188.025	2066.94
188.101	2070.46
188.176	2077.02
188.252	2071.55
188.328	2077.4
188.404	2079.63
188.48	2072.83
188.556	2063.17
188.632	2061.94
188.707	2061.27
188.783	2056.99
188.859	2051.71
188.935	2043.58
189.011	2050.52
189.086	2045.82
189.162	2036.73
189.238	2032.78
189.314	2032.59
189.39	2025.51
189.465	2018.99
189.541	2034.12
189.617	2016.14
189.693	2009.2
189.768	2012.24
189.844	2035.7
189.92	2033.09
189.996	2040.17
190.071	2051.68
190.147	2051.11
190.223	2062.67
190.298	2053.4
190.374	2040.51
190.45	2052.49
190.526	2061.95
190.601	2058.77
190.677	2060.24
190.753	2089.08
190.828	2093.27
190.904	2110.92
190.98	2128.8
191.055	2139.75
191.131	2131.56
191.207	2152.44
191.282	2164.95
191.358	2154.67
191.433	2140.87
191.509	2151.24
191.585	2148.53
191.66	2148.29
191.736	2159.75
191.811	2149.95
191.887	2170.84
191.963	2193.68
192.038	2200.48
192.114	2200
192.189	2202.38
192.265	2200.91
192.34	2177.68
192.416	2178.3
192.491	2172.44
192.567	2176.87
192.642	2179.35
192.718	2179.35
192.793	2168.17
192.869	2161.89
192.944	2164.41
193.02	2170.93
193.095	2174.16
193.171	2181.01
193.246	2181.25
193.322	2177.59
193.397	2179.25
193.473	2161.12
193.548	2144.51
193.624	2146.94
193.699	2145.09
193.775	2159.7
193.85	2160.88
193.925	2169.31
194.001	2166.64
194.076	2158.79
194.152	2147.13
194.227	2138
194.302	2132.81
194.378	2135.53
194.453	2133.34
194.529	2147.23
194.604	2134.53
194.679	2129.91
194.755	2110.46
194.83	2126.31
194.905	2124.22
194.981	2133.16
195.056	2129.74
195.131	2137.45
195.207	2135.26
195.282	2126.27
195.357	2107.71
195.433	2122.89
195.508	2110.95
195.583	2118.22
195.659	2130.74
195.734	2136.83
195.809	2137.35
195.884	2143.82
195.96	2145.29
196.035	2157.61
196.11	2152.23
196.185	2163.94
196.261	2169.22
196.336	2199.28
196.411	2181.81
196.486	2183.91
196.561	2177.25
196.637	2185.14
196.712	2199.23
196.787	2205.85
196.862	2223.16
196.937	2233.39
197.013	2238.82
197.088	2248.04
197.163	2271.75
197.238	2289.89
197.313	2287.75
197.388	2299.17
197.464	2329.12
197.539	2337.92
197.614	2333.73
197.689	2347.49
197.764	2362.34
197.839	2380.53
197.914	2376.01
197.989	2397.76
198.065	2414.47
198.14	2463.96
198.215	2488.52
198.29	2497.19
198.365	2508.95
198.44	2517.14
198.515	2546.24
198.59	2559.77
198.665	2583
198.74	2592.72
198.815	2594.39
198.89	2619.34
198.965	2650.02
199.04	2645.07
199.115	2662.59
199.19	2705.31
199.265	2705.79
199.34	2716.46
199.415	2747.73
199.49	2768.59
199.565	2775.69
199.64	2799.61
199.715	2796.13
199.79	2803.18
199.865	2811.95
199.94	2808.9
200.015	2841.64
200.09	2845.89
200.165	2852.27
200.24	2864.28
200.315	2903.4
200.39	2918.23
200.464	2923.47
200.539	2926
200.614	2943.58
200.689	2966.08
200.764	2972.38
200.839	2990.77
200.914	2994.91
200.989	2982.9
201.063	2999.77
201.138	2985.72
201.213	2985.58
201.288	2968.18
201.363	2975.66
201.438	2977.95
201.512	2996.92
201.587	2980.94
201.662	2984.37
201.737	2997.1
201.812	3005.02
201.886	2971.29
201.961	2979.78
202.036	2968.58
202.111	2963.9
202.186	2933.84
202.26	2916.44
202.335	2893.27
202.41	2887.55
202.485	2869.69
202.559	2854.77
202.634	2825.37
202.709	2832.94
202.784	2816.11
202.858	2814.11
202.933	2794.67
203.008	2783.19
203.082	2762.56
203.157	2759.84
203.232	2717.78
203.306	2696.91
203.381	2664.55
203.456	2638.97
203.53	2617.61
203.605	2597.51
203.68	2575.45
203.754	2569.89
203.829	2555.83
203.904	2536.93
203.978	2523.31
204.053	2529.78
204.127	2515.36
204.202	2516.74
204.277	2500.36
204.351	2488.5
204.426	2482.36
204.5	2474.26
204.575	2442.66
204.65	2450.66
204.724	2440.56
204.799	2449.41
204.873	2445.98
204.948	2444.84
205.022	2432.32
205.097	2423.27
205.171	2436.36
205.246	2445.46
205.32	2444.41
205.395	2443.7
205.469	2435.27
205.544	2444.32
205.618	2425.33
205.693	2438.04
205.767	2423.38
205.842	2445.33
205.916	2440.76
205.991	2432.71
206.065	2437.24
206.14	2453.65
206.214	2452.51
206.289	2449.36
206.363	2460.98
206.438	2461.22
206.512	2468.89
206.586	2492.64
206.661	2498.26
206.735	2478.13
206.81	2479.61
206.884	2494.51
206.958	2482.46
207.033	2500.88
207.107	2505.98
207.181	2539.99
207.256	2533.04
207.33	2552.56
207.405	2565.62
207.479	2591.96
207.553	2598.86
207.628	2588.1
207.702	2599.91
207.776	2596.15
207.851	2602.43
207.925	2623.4
207.999	2626.64
208.073	2627.64
208.148	2631.69
208.222	2629.21
208.296	2666.45
208.371	2686.85
208.445	2708.34
208.519	2743.73
208.593	2764.46
208.668	2772.8
208.742	2782.33
208.816	2797.15
208.89	2824.13
208.965	2835.58
209.039	2854.03
209.113	2886.25
209.187	2920.69
209.261	2938.04
209.336	2975.37
209.41	3014.76
209.484	3032.36
209.558	3076.81
209.632	3116.24
209.707	3154.64
209.781	3203.44
209.855	3247.43
209.929	3294.37
210.003	3327.97
210.077	3359.85
210.151	3441.43
210.226	3509.44
210.3	3575.61
210.374	3639.14
210.448	3684.89
210.522	3739.12
210.596	3791.47
210.67	3847.13
210.744	3941.37
210.818	4017.89
210.892	4089.12
210.966	4131.31
211.041	4198.95
211.115	4249.48
211.189	4330.49
211.263	4402.9
211.337	4466.08
211.411	4542.64
211.485	4598.55
211.559	4675.15
211.633	4745.36
211.707	4784.83
211.781	4863.16
211.855	4900.95
211.929	4967.49
212.003	5023.98
212.077	5110.04
212.151	5202.38
212.225	5293.81
212.299	5366.94
212.373	5437.67
212.447	5515.73
212.52	5632.9
212.594	5724.97
212.668	5823.94
212.742	5895.79
212.816	5982.91
212.89	6067.81
212.964	6150.8
213.038	6245.16
213.112	6351.44
213.186	6457.84
213.26	6526.08
213.333	6572.5
213.407	6672.74
213.481	6770.25
213.555	6878.37
213.629	6960.96
213.703	7040.73
213.777	7135.12
213.85	7210.29
213.924	7338.96
213.998	7438.33
214.072	7523.92
214.146	7609.5
214.219	7703.31
214.293	7796.34
214.367	7892.96
214.441	8001.12
214.515	8096.37
214.588	8175.98
214.662	8237.22
214.736	8319.59
214.81	8423.91
214.883	8534.07
214.957	8622.07
215.031	8705.12
215.105	8781.68
215.178	8862.59
215.252	8943.98
215.326	9008.05
215.4	9082.47
215.473	9127.68
215.547	9200.01
215.621	9286.98
215.694	9387.19
215.768	9451.86
215.842	9525.63
215.915	9601.3
215.989	9667.23
216.063	9747.72
216.136	9836.93
216.21	9923.19
216.284	10016.01
216.357	10109.27
216.431	10191.45
216.504	10284.53
216.578	10390.96
216.652	10483.74
216.725	10562.95
216.799	10660.33
216.873	10745.9
216.946	10835.56
217.02	10924.85
217.093	11006.28
217.167	11067.97
217.24	11129.66
217.314	11208.2
217.387	11287.86
217.461	11360.29
217.535	11452.15
217.608	11515.58
217.682	11589.37
217.755	11679.98
217.829	11749.14
217.902	11825.44
217.976	11896.01
218.049	11957.32
218.123	12012.46
218.196	12086.5
218.27	12162.03
218.343	12222.19
218.417	12308.23
218.49	12381.59
218.563	12460.7
218.637	12532.91
218.71	12615.72
218.784	12694.01
218.857	12778.07
218.931	12851.25
219.004	12929.92
219.077	13005.55
219.151	13079.5
219.224	13148
219.298	13220.65
219.371	13301.06
219.444	13350.23
219.518	13426.73
219.591	13489.88
219.665	13589.57
219.738	13664.39
219.811	13724.65
219.885	13808.19
219.958	13872.06
220.031	13937.09
220.105	14013.74
220.178	14082
220.251	14141.63
220.325	14207.57
220.398	14278.77
220.471	14352.05
220.544	14422.33
220.618	14477.67
220.691	14547.03
220.764	14619.39
220.838	14681.28
220.911	14739.03
220.984	14828.35
221.057	14893.82
221.131	14969.59
221.204	14994.18
221.277	15078.24
221.35	15168.96
221.424	15219.86
221.497	15283.73
221.57	15349.09
221.643	15408.23
221.716	15472.49
221.79	15525.22
221.863	15585.37
221.936	15636.42
222.009	15689.58
222.082	15746.46
222.155	15792.2
222.229	15863.54
222.302	15913.71
222.375	15969.43
222.448	16027.7
222.521	16072.19
222.594	16121.79
222.667	16158.32
222.74	16221.7
222.814	16256.6
222.887	16300.94
222.96	16357.81
223.033	16415.65
223.106	16461.24
223.179	16509.87
223.252	16556.43
223.325	16614.31
223.398	16649.26
223.471	16697.98
223.544	16747.38
223.617	16793.31
223.69	16853.85
223.763	16883.05
223.837	16921.32
223.91	16954.58
223.983	16970.91
224.056	17009.13
224.129	17054.82
224.202	17114.49
224.275	17158.25
224.348	17189.86
224.42	17215.98
224.493	17230.59
224.566	17256.51
224.639	17302.49
224.712	17337.28
224.785	17375.79
224.858	17409.38
224.931	17447.12
225.004	17473.81
225.077	17510.63
225.15	17517.09
225.223	17541.53
225.296	17599.88
225.369	17630.1
225.442	17664.08
225.514	17716.99
225.587	17751.64
225.66	17790.39
225.733	17820.12
225.806	17855.21
225.879	17886.58
225.952	17901.57
226.025	17954.77
226.097	17999.2
226.17	18027.49
226.243	18033.42
226.316	18051.63
226.389	18075.82
226.461	18111.53
226.534	18145.12
226.607	18167.39
226.68	18221.17
226.753	18254.81
226.825	18257.94
226.898	18306.85
226.971	18328.39
227.044	18353.26
227.117	18377.55
227.189	18402.75
227.262	18441.59
227.335	18467.47
227.407	18488.34
227.48	18531.37
227.553	18548.24
227.626	18574.02
227.698	18599.17
227.771	18638.54
227.844	18668.66
227.916	18698.64
227.989	18709.53
228.062	18728.56
228.134	18768.95
228.207	18791.5
228.28	18805.14
228.352	18824.46
228.425	18843.3
228.498	18881.85
228.57	18890.96
228.643	18933.42
228.716	18948.5
228.788	18955.39
228.861	18971.82
228.934	19005.75
229.006	19019.92
229.079	19049.7
229.151	19054.37
229.224	19052.16
229.296	19067.91
229.369	19105.26
229.442	19143.72
229.514	19160.49
229.587	19185.31
229.659	19190.03
229.732	19212.58
229.804	19236.96
229.877	19275.85
229.949	19290.79
230.022	19320.57
230.094	19341.05
230.167	19344.48
230.239	19349.49
230.312	19373.68
230.384	19411.61
230.457	19423.65
230.529	19439.99
230.602	19448.33
230.674	19463.36
230.747	19499.36
230.819	19531.26
230.892	19513.43
230.964	19523.84
231.037	19545.24
231.109	19561.72
231.181	19584.75
231.254	19582.34
231.326	19596.12
231.399	19606.63
231.471	19608.89
231.544	19599.4
231.616	19620.89
231.688	19645.18
231.761	19645.28
231.833	19644.99
231.905	19622.82
231.978	19630.68
232.05	19639.59
232.122	19652.94
232.195	19660.12
232.267	19664.27
232.339	19653.76
232.412	19673.57
232.484	19669.95
232.556	19666.53
232.629	19690.19
232.701	19698.82
232.773	19703.93
232.846	19704.12
232.918	19704.02
232.99	19712.26
233.062	19727.2
233.135	19731.06
233.207	19722.29
233.279	19741.95
233.351	19749.51
233.424	19748.55
233.496	19744.36
233.568	19755.78
233.64	19736.89
233.713	19740.36
233.785	19748.31
233.857	19756.79
233.929	19736.6
234.001	19746.67
234.074	19757.9
234.146	19738.43
234.218	19730.86
234.29	19718.58
234.362	19704.75
234.434	19684.65
234.507	19671.83
234.579	19647.4
234.651	19631.88
234.723	19615.35
234.795	19606.15
234.867	19592.85
234.939	19609.18
235.012	19600.99
235.084	19591.88
235.156	19592.75
235.228	19573.14
235.3	19549.19
235.372	19542.34
235.444	19549.62
235.516	19513.77
235.588	19503.79
235.66	19489.33
235.732	19469.38
235.804	19516.71
235.876	19515.7
235.948	19510.01
236.02	19497.19
236.092	19476.13
236.164	19463.02
236.236	19446.01
236.308	19427.12
236.38	19414.01
236.452	19381.87
236.524	19375.85
236.596	19376.67
236.668	19365.2
236.74	19349.39
236.812	19340.77
236.884	19319.8
236.956	19302.02
237.028	19280.82
237.1	19250.31
237.172	19241.88
237.244	19240.77
237.316	19186.27
237.388	19164.15
237.46	19138.46
237.532	19133.55
237.604	19114.27
237.675	19115
237.747	19108.83
237.819	19075.05
237.891	19043.48
237.963	19021.65
238.035	18985.32
238.107	18927.54
238.178	18928.07
238.25	18906.96
238.322	18904.5
238.394	18874.67
238.466	18853.37
238.538	18843.54
238.609	18834.97
238.681	18796.22
238.753	18760.37
238.825	18747.02
238.897	18722.97
238.968	18721.91
239.04	18689.43
239.112	18698.15
239.184	18659.27
239.255	18626.74
239.327	18618.35
239.399	18605.1
239.471	18581.1
239.542	18562.93
239.614	18560.96
239.686	18507.9
239.758	18483.03
239.829	18443.04
239.901	18427.04
239.973	18400.92
240.044	18378.61
240.116	18344.63
240.188	18316.25
240.259	18294.23
240.331	18259.48
240.403	18238.85
240.474	18196.01
240.546	18162.09
240.618	18110.52
240.689	18084.6
240.761	18064.79
240.833	18059.49
240.904	18028.02
240.976	18003.73
241.048	17977.81
241.119	17948.41
241.191	17923.4
241.262	17920.51
241.334	17888.75
241.405	17867.25
241.477	17830.2
241.549	17789.28
241.62	17762.87
241.692	17744.75
241.763	17719.07
241.835	17680.03
241.906	17644.17
241.978	17599.89
242.049	17576.56
242.121	17559.6
242.192	17538.63
242.264	17496.56
242.335	17443.5
242.407	17428.85
242.478	17393.81
242.55	17364.61
242.621	17333.04
242.693	17297.38
242.764	17255.6
242.836	17226.01
242.907	17190.58
242.979	17171.55
243.05	17148.61
243.122	17127.35
243.193	17100.41
243.264	17046.48
243.336	17007.59
243.407	16984.31
243.479	16976.94
243.55	16946.91
243.622	16924.55
243.693	16890.38
243.764	16870.77
243.836	16822.67
243.907	16778.33
243.978	16744.25
244.05	16719.96
244.121	16670.46
244.192	16653.93
244.264	16606.46
244.335	16569.3
244.407	16528.33
244.478	16499.85
244.549	16466.74
244.62	16425.15
244.692	16387.31
244.763	16373.43
244.834	16343.4
244.906	16303.88
244.977	16271.83
245.048	16259.2
245.119	16210.09
245.191	16169.99
245.262	16116.06
245.333	16108.44
245.405	16079.95
245.476	16060.92
245.547	16026.45
245.618	16008.04
245.689	15979.03
245.761	15953.24
245.832	15928.61
245.903	15903.98
245.974	15869.18
246.045	15835.87
246.117	15818.91
246.188	15776.68
246.259	15733.55
246.33	15710.55
246.401	15679.51
246.473	15637
246.544	15592.18
246.615	15569.14
246.686	15532.98
246.757	15518.96
246.828	15482.57
246.899	15471
246.97	15418.79
247.042	15382.79
247.113	15358.2
247.184	15342.44
247.255	15310
247.326	15282.24
247.397	15241.12
247.468	15219.14
247.539	15190.85
247.61	15140.72
247.681	15124.42
247.752	15107.31
247.823	15061.9
247.894	15036.02
247.965	14991.62
248.037	14964.34
248.108	14921.1
248.179	14894.3
248.25	14864.94
248.321	14841.9
248.392	14798.09
248.463	14794.37
248.534	14762.22
248.605	14743.62
248.675	14711.47
248.746	14691.36
248.817	14672.71
248.888	14658.01
248.959	14611.3
249.03	14587.48
249.101	14555.04
249.172	14516.57
249.243	14469.91
249.314	14463.16
249.385	14435.11
249.456	14419.39
249.527	14385.21
249.598	14366.85
249.669	14344.05
249.739	14324.43
249.81	14301
249.881	14258.91
249.952	14236.31
250.023	14212.49
250.094	14170.7
250.165	14131.32
250.235	14095.16
250.306	14065.61
250.377	14024.59
250.448	14002.46
250.519	13962.69
250.59	13963.61
250.66	13939.89
250.731	13929.77
250.802	13901.37
250.873	13887.01
250.944	13867.63
251.014	13838.37
251.085	13840.29
251.156	13817.88
251.227	13809.54
251.297	13798.79
251.368	13789.24
251.439	13768.76
251.51	13758.68
251.58	13726.72
251.651	13696.83
251.722	13690.9
251.792	13643.52
251.863	13621.49
251.934	13607.7
252.005	13609.92
252.075	13577.47
252.146	13560.36
252.217	13554.96
252.287	13534.71
252.358	13507.19
252.429	13497.35
252.499	13466.98
252.57	13434.3
252.641	13415.35
252.711	13378.52
252.782	13341.45
252.852	13337.07
252.923	13308.05
252.994	13282.4
253.064	13267.99
253.135	13234.39
253.205	13202.52
253.276	13201.51
253.347	13194.95
253.417	13171.48
253.488	13139.56
253.558	13112.81
253.629	13090.68
253.699	13062.77
253.77	13055.83
253.841	13033.22
253.911	13012.01
253.982	12995.91
254.052	12987.28
254.123	12971.23
254.193	12950.11
254.264	12966.7
254.334	12929.05
254.405	12897.96
254.475	12868.5
254.546	12845.85
254.616	12840.01
254.687	12822.85
254.757	12808.44
254.827	12782.45
254.898	12760.52
254.968	12741.38
255.039	12715.06
255.109	12702.63
255.18	12667.97
255.25	12613.4
255.321	12596.34
255.391	12558.01
255.461	12557.29
255.532	12502.53
255.602	12472.88
255.673	12432.49
255.743	12394.17
255.813	12353.87
255.884	12345.96
255.954	12328.75
256.024	12325.14
256.095	12303.4
256.165	12270.24
256.235	12247.19
256.306	12221.98
256.376	12214.22
256.446	12201.06
256.517	12191.42
256.587	12183.81
256.657	12168.14
256.728	12156.62
256.798	12131.07
256.868	12108.95
256.938	12087.06
257.009	12079.35
257.079	12070.1
257.149	12084.99
257.219	12050.33
257.29	12040.45
257.36	11998.66
257.43	11991.38
257.5	11945.79
257.571	11923.28
257.641	11913.64
257.711	11887.71
257.781	11875.46
257.852	11860.95
257.922	11819.41
257.992	11794.53
258.062	11765.04
258.132	11753.81
258.202	11736.36
258.273	11724.79
258.343	11724.36
258.413	11689.56
258.483	11677.12
258.553	11646.18
258.623	11608.1
258.693	11591.04
258.764	11583.37
258.834	11581.78
258.904	11563.37
258.974	11544.34
259.044	11524.82
259.114	11508.86
259.184	11491.32
259.254	11463.85
259.324	11421.24
259.394	11412.57
259.464	11420.47
259.535	11397.39
259.605	11373.87
259.675	11349.05
259.745	11327.94
259.815	11295.07
259.885	11275.07
259.955	11281.96
260.025	11252.32
260.095	11238.2
260.165	11222.35
260.235	11223.74
260.305	11196.61
260.375	11167.17
260.445	11171.36
260.515	11169
260.585	11166.78
260.655	11143.5
260.725	11143.65
260.795	11141.67
260.865	11142.92
260.934	11108.32
261.004	11104.42
261.074	11084.8
261.144	11082.49
261.214	11078.2
261.284	11067.31
261.354	11060.23
261.424	11032.37
261.494	11036.47
261.564	11021.53
261.634	11007.12
261.703	10969
261.773	10954.01
261.843	10946.93
261.913	10932.52
261.983	10895.42
262.053	10884.48
262.123	10865.25
262.192	10832.24
262.262	10819.96
262.332	10790.08
262.402	10781.16
262.472	10764.3
262.541	10734.57
262.611	10729.66
262.681	10701.56
262.751	10690.29
262.821	10667.26
262.89	10629.33
262.96	10619.46
263.03	10625.62
263.1	10615.41
263.169	10600.52
263.239	10598.4
263.309	10599.36
263.379	10581.63
263.448	10569.06
263.518	10552.82
263.588	10544.53
263.657	10549.2
263.727	10541.83
263.797	10526.7
263.867	10505.7
263.936	10477.61
264.006	10475.25
264.076	10455.49
264.145	10438.68
264.215	10417
264.285	10413.43
264.354	10387.08
264.424	10366.46
264.494	10326.37
264.563	10304.89
264.633	10304.16
264.702	10291.97
264.772	10253.57
264.842	10235.17
264.911	10228.72
264.981	10198.17
265.05	10188.34
265.12	10171.77
265.19	10160.35
265.259	10155.68
265.329	10150.04
265.398	10140.84
265.468	10156.45
265.537	10138.72
265.607	10131.35
265.676	10133.42
265.746	10125.33
265.815	10127.01
265.885	10110.3
265.955	10091.27
266.024	10072.97
266.094	10044.74
266.163	10044.98
266.232	10050.09
266.302	10032.31
266.371	10021.86
266.441	10011.21
266.51	10003.46
266.58	9985.06
266.649	9965.11
266.719	9961.26
266.788	9958.32
266.858	9961.36
266.927	9920.84
266.996	9911.69
267.066	9908.66
267.135	9879.95
267.205	9875.13
267.274	9866.32
267.343	9868.58
267.413	9860.01
267.482	9864.1
267.552	9868.58
267.621	9835.3
267.69	9803.17
267.76	9797.06
267.829	9786.03
267.898	9774.71
267.968	9751.35
268.037	9740.47
268.106	9728.18
268.176	9703.67
268.245	9681.99
268.314	9665.9
268.384	9667.69
268.453	9653.43
268.522	9639.32
268.592	9636.52
268.661	9619.09
268.73	9612.49
268.799	9587.4
268.869	9593.95
268.938	9562.89
269.007	9538.42
269.076	9527.39
269.146	9526.33
269.215	9525.37
269.284	9529.8
269.353	9507.75
269.422	9495.9
269.492	9478.86
269.561	9443.85
269.63	9436
269.699	9417.32
269.768	9403.3
269.838	9394.63
269.907	9391.74
269.976	9374.99
270.045	9348.41
270.114	9337.52
270.183	9317.2
270.253	9314.51
270.322	9283.69
270.391	9272.9
270.46	9280.08
270.529	9278.78
270.598	9277.24
270.667	9254.37
270.736	9233.03
270.806	9234.29
270.875	9237.03
270.944	9228.99
271.013	9252.39
271.082	9245.31
271.151	9245.41
271.22	9221.34
271.289	9203.86
271.358	9190.28
271.427	9178.53
271.496	9165.34
271.565	9151.81
271.634	9146.08
271.703	9170.79
271.772	9173.87
271.841	9163.62
271.91	9137.47
271.979	9129
272.048	9103.87
272.117	9112.44
272.186	9096.31
272.255	9091.44
272.324	9087.35
272.393	9088.41
272.462	9069.68
272.531	9065.4
272.6	9054.56
272.669	9054.85
272.738	9047.97
272.807	9042.72
272.876	9025.3
272.945	9056.25
273.013	9055.67
273.082	9059.48
273.151	9016.48
273.22	9012.24
273.289	9003.53
273.358	9015.42
273.427	9006.9
273.496	9011.09
273.564	9000.06
273.633	9003
273.702	8985.67
273.771	8975.22
273.84	8967.37
273.909	8962.37
273.977	8953.36
274.046	8941.43
274.115	8948.17
274.184	8930.93
274.253	8925.16
274.322	8932.04
274.39	8894.88
274.459	8880.2
274.528	8847.27
274.597	8840.2
274.665	8831.48
274.734	8839.81
274.803	8833.65
274.872	8825.51
274.94	8809.05
275.009	8866.99
275.078	8859
275.147	8856.64
275.215	8848.17
275.284	8846.43
275.353	8840.75
275.421	8820.59
275.49	8838.3
275.559	8820.54
275.627	8812.99
275.696	8804.85
275.765	8800.9
275.833	8795.8
275.902	8796.48
275.971	8810.87
276.039	8822.9
276.108	8831.23
276.177	8830.41
276.245	8808.46
276.314	8803.94
276.383	8803.46
276.451	8738.01
276.52	8733.44
276.588	8742.39
276.657	8749.66
276.725	8738.01
276.794	8736.76
276.863	8742.87
276.931	8720.39
277	8730.55
277.068	8742.63
277.137	8759.42
277.205	8758.61
277.274	8777.52
277.342	8786.23
277.411	8769.1
277.48	8752.06
277.548	8740.8
277.617	8737.14
277.685	8737.33
277.754	8741.71
277.822	8737.19
277.89	8745.47
277.959	8741.76
278.027	8725.69
278.096	8711.25
278.164	8738.49
278.233	8733.2
278.301	8726.56
278.37	8723.48
278.438	8712.5
278.507	8711.4
278.575	8678.86
278.643	8675.15
278.712	8653.88
278.78	8638.24
278.849	8646.71
278.917	8657.78
278.985	8646.47
279.054	8651.09
279.122	8661.15
279.191	8659.27
279.259	8657.3
279.327	8640.98
279.396	8658.21
279.464	8659.17
279.532	8668.51
279.601	8666.2
279.669	8660.23
279.737	8672.17
279.806	8678.04
279.874	8684.3
279.942	8682.52
280.011	8682.52
280.079	8689.69
280.147	8709.42
280.215	8713.9
280.284	8716.59
280.352	8702.97
280.42	8717.89
280.488	8708.6
280.557	8699.79
280.625	8700.76
280.693	8703.35
280.761	8705.52
280.83	8682.08
280.898	8685.16
280.966	8666.15
281.034	8630.29
281.102	8616.72
281.171	8611.04
281.239	8618.41
281.307	8613.55
281.375	8606.57
281.443	8630.05
281.512	8629.24
281.58	8633.04
281.648	8617.54
281.716	8612.83
281.784	8609.51
281.852	8600.99
281.92	8601.52
281.989	8616.24
282.057	8599.83
282.125	8643.69
282.193	8634.59
282.261	8635.61
282.329	8633.01
282.397	8640.13
282.465	8647.25
282.533	8663.13
282.601	8651.48
282.67	8627.08
282.738	8618.37
282.806	8629.1
282.874	8617.99
282.942	8617.31
283.01	8608.84
283.078	8619.23
283.146	8617.79
283.214	8626.26
283.282	8629.92
283.35	8638.05
283.418	8626.89
283.486	8631.7
283.554	8583.94
283.622	8586.06
283.69	8589.05
283.758	8583.85
283.826	8585
283.894	8594.97
283.962	8616
284.03	8621.05
284.098	8624.13
284.165	8615.23
284.233	8614.65
284.301	8609.12
284.369	8604.35
284.437	8596.32
284.505	8586.6
284.573	8601.66
284.641	8589.82
284.709	8590.74
284.777	8571.2
284.845	8577.12
284.912	8574.09
284.98	8577.21
285.048	8570.91
285.116	8571.73
285.184	8589.1
285.252	8587.51
285.319	8574.04
285.387	8555.89
285.455	8549.3
285.523	8555.22
285.591	8557.72
285.659	8559.93
285.726	8573.22
285.794	8554.55
285.862	8549.64
285.93	8554.16
285.997	8547.86
286.065	8547.9
286.133	8540.73
286.201	8540.64
286.269	8526.82
286.336	8522.54
286.404	8519.8
286.472	8529.28
286.539	8513.83
286.607	8498.48
286.675	8497.37
286.743	8496.94
286.81	8493.81
286.878	8505.41
286.946	8498.72
287.013	8500.45
287.081	8495.16
287.149	8478.89
287.216	8498.38
287.284	8497.71
287.352	8498.52
287.419	8498.33
287.487	8510.12
287.555	8510.03
287.622	8505.41
287.69	8516.86
287.758	8533.32
287.825	8530.72
287.893	8525.23
287.96	8531.63
288.028	8538.61
288.096	8538.47
288.163	8543.33
288.231	8534.23
288.298	8536.78
288.366	8550.45
288.433	8544.92
288.501	8534.52
288.569	8536.59
288.636	8533.03
288.704	8540.49
288.771	8545.3
288.839	8529.18
288.906	8524.9
288.974	8540.01
289.041	8542.27
289.109	8530.39
289.176	8533.47
289.244	8534
289.311	8543.33
289.379	8554.5
289.446	8562.34
289.514	8570.62
289.581	8580.24
289.649	8579.04
289.716	8571.92
289.783	8562.49
289.851	8581.54
289.918	8585.25
289.986	8600.07
290.053	8598.29
290.121	8598.58
290.188	8599.88
290.255	8628.13
290.323	8621.39
290.39	8612.97
290.458	8619.99
290.525	8626.97
290.592	8625.19
290.66	8629.33
290.727	8623.36
290.794	8632.75
290.862	8624.76
290.929	8624.37
290.996	8620.57
291.064	8636.31
291.131	8654.69
291.198	8666.05
291.266	8661.43
291.333	8660.42
291.4	8659.22
291.468	8682.71
291.535	8679.48
291.602	8678.37
291.669	8670.29
291.737	8677.22
291.804	8675.53
291.871	8692.67
291.938	8704.89
292.006	8732.43
292.073	8741.43
292.14	8750.28
292.207	8739.07
292.275	8742.87
292.342	8755.43
292.409	8778.88
292.476	8796.59
292.543	8785.67
292.611	8785.09
292.678	8806.36
292.745	8839.38
292.812	8849.3
292.879	8842.51
292.946	8850.74
293.014	8861.04
293.081	8869.85
293.148	8880.82
293.215	8901.86
293.282	8898.78
293.349	8909.71
293.416	8886.94
293.484	8903.49
293.551	8917.26
293.618	8942.34
293.685	8962.61
293.752	8957.84
293.819	8957.36
293.886	8948.41
293.953	8957.17
294.02	8971.8
294.087	8976.81
294.154	8964.39
294.221	8982.35
294.288	8983.36
294.356	9001.36
294.423	9014.5
294.49	9005.84
294.557	9018.45
294.624	9010.12
294.691	9031.4
294.758	9022.54
294.825	9034.14
294.892	9025.72
294.959	9018.83
295.026	9020.81
295.093	9019.03
295.16	9022.25
295.226	9018.59
295.293	9045.99
295.36	9050.32
295.427	9056
295.494	9070.74
295.561	9081.91
295.628	9100.01
295.695	9111.76
295.762	9114.75
295.829	9125.19
295.896	9149.7
295.963	9158.51
296.03	9164.09
296.096	9165.25
296.163	9179.93
296.23	9194.76
296.297	9205.83
296.364	9216.33
296.431	9218.3
296.498	9216.96
296.564	9237.03
296.631	9244.01
296.698	9228.99
296.765	9251.96
296.832	9245.89
296.899	9234.62
296.965	9253.74
297.032	9234.33
297.099	9254.46
297.166	9262.16
297.233	9257.4
297.299	9244.93
297.366	9248.63
297.433	9250.7
297.5	9260.29
297.566	9265.15
297.633	9262.07
297.7	9272.03
297.767	9268.47
297.833	9280.08
297.9	9282.29
297.967	9266.88
298.033	9284.08
298.1	9310.99
298.167	9302.71
298.234	9308.97
298.3	9315.86
298.367	9303.48
298.434	9305.5
298.5	9294.52
298.567	9287.45
298.634	9286.43
298.7	9309.74
298.767	9313.98
298.834	9329.96
298.9	9326.69
298.967	9316.67
299.033	9329.92
299.1	9343.4
299.167	9360.78
299.233	9353.56
299.3	9366.41
299.366	9380.23
299.433	9390.59
299.5	9367.38
299.566	9368.1
299.633	9389.43
299.699	9397.13
299.766	9402.38
299.832	9410.09
299.899	9418.08
299.965	9430.46
300.032	9431.52
300.099	9438.74
300.165	9439.46
300.232	9439.13
300.298	9436.19
300.365	9453.91
300.431	9452.99
300.498	9449.33
300.564	9453.18
300.631	9467.82
300.697	9481.74
300.763	9487.86
300.83	9480.39
300.896	9496.48
300.963	9508.56
301.029	9507.79
301.096	9510.25
301.162	9517.57
301.229	9516.32
301.295	9505.72
301.361	9516.27
301.428	9518.72
301.494	9507.02
301.561	9514.2
301.627	9515.98
301.693	9523.35
301.76	9526.43
301.826	9526.81
301.892	9537.7
301.959	9546.95
302.025	9545.93
302.092	9539.38
302.158	9548.77
302.224	9555.81
302.291	9539.24
302.357	9535.29
302.423	9530.57
302.49	9525.08
302.556	9534.43
302.622	9534.09
302.688	9545.98
302.755	9557.01
302.821	9561.44
302.887	9567.22
302.954	9559.95
303.02	9566.11
303.086	9566.6
303.152	9564.38
303.219	9557.93
303.285	9558.46
303.351	9556
303.417	9554.6
303.483	9541.65
303.55	9528.99
303.616	9520.65
303.682	9526.09
303.748	9521.23
303.815	9544.83
303.881	9550.9
303.947	9541.46
304.013	9538.76
304.079	9539
304.145	9520.65
304.212	9520.46
304.278	9509.39
304.344	9509.24
304.41	9499.56
304.476	9493.21
304.542	9489.26
304.608	9492.1
304.674	9472.64
304.741	9476.88
304.807	9475.29
304.873	9484.3
304.939	9499.71
305.005	9485.02
305.071	9480.35
305.137	9479.58
305.203	9442.2
305.269	9443.26
305.335	9459.83
305.401	9464.94
305.467	9455.84
305.533	9456.61
305.599	9463.35
305.666	9471.58
305.732	9468.64
305.798	9476.4
305.864	9505.44
305.93	9507.03
305.996	9509.77
306.062	9511.84
306.128	9502.89
306.194	9496.1
306.259	9494.99
306.325	9485.6
306.391	9496.48
306.457	9508.71
306.523	9517.09
306.589	9546.47
306.655	9537.51
306.721	9513.96
306.787	9491.91
306.853	9511.94
306.919	9499.71
306.985	9500.09
307.051	9494.65
307.117	9490.61
307.183	9488.15
307.248	9450.68
307.314	9460.8
307.38	9454.68
307.446	9464.51
307.512	9453.04
307.578	9448.47
307.644	9446.98
307.709	9445.44
307.775	9447.7
307.841	9443.9
307.907	9443.8
307.973	9425.59
308.039	9424.1
308.104	9430.12
308.17	9437.29
308.236	9412.16
308.302	9408.98
308.368	9384.18
308.433	9381.05
308.499	9374.07
308.565	9365.59
308.631	9373.2
308.696	9346.19
308.762	9336.46
308.828	9326.06
308.894	9312.19
308.959	9299.19
309.025	9284.99
309.091	9286.63
309.156	9270.49
309.222	9266.45
309.288	9250.9
309.354	9225.67
309.419	9227.16
309.485	9210.26
309.551	9220.42
309.616	9212.19
309.682	9214.69
309.748	9211.56
309.813	9208.38
309.879	9205.49
309.945	9192.73
310.01	9186.72
310.076	9192.83
310.141	9188.69
310.207	9175.74
310.273	9176.75
310.338	9177.62
310.404	9162.93
310.469	9145.65
310.535	9139.39
310.601	9114.45
310.666	9120.37
310.732	9132.98
310.797	9113.92
310.863	9105.83
310.928	9095.38
310.994	9102.65
311.059	9101.21
311.125	9099.18
311.191	9113.34
311.256	9096.64
311.322	9098.47
311.387	9079.88
311.453	9353.48
311.518	9330.71
311.584	9327
311.649	9330.86
311.715	9327.2
311.78	9328.69
311.846	9319.45
311.911	9327.92
311.976	9335.62
312.042	9315.5
312.107	9295.42
312.173	9297.35
312.238	9293.79
312.304	9282.62
312.369	9266.2
312.434	9252.77
312.5	9253.78
312.565	9218.15
312.631	9227.83
312.696	9218.68
312.761	9220.32
312.827	8932.9
312.892	8974.93
312.958	8971.71
313.023	8964.2
313.088	8956.49
313.154	8947.45
313.219	8935.8
313.284	8920.87
313.35	8919.43
313.415	8911.87
313.48	8909.71
313.546	8908.74
313.611	8919.38
313.676	8912.88
313.741	8905.47
313.807	8910.81
313.872	8910.86
313.937	8913.56
314.003	8924.92
314.068	8924.34
314.133	8931.95
314.198	8915.63
314.264	8888.38
314.329	8877.45
314.394	8879.14
314.459	8876.54
314.525	8895.26
314.59	8891.94
314.655	8879.23
314.72	8881.45
314.785	8885.25
314.851	8882.51
314.916	8866.33
314.981	8848.04
315.046	8842.31
315.111	8838.08
315.176	8828.59
315.242	8831.96
315.307	8833.26
315.372	8805.58
315.437	8796.82
315.502	8782.58
315.567	8802.98
315.632	8790.28
315.698	8794.13
315.763	8791.38
315.828	8783.68
315.893	8777.23
315.958	8776.61
316.023	8763.08
316.088	8733.92
316.153	8711.2
316.218	8699.89
316.283	8679.25
316.348	8659.62
316.413	8654.85
316.479	8635.79
316.544	8597.3
316.609	8565.1
316.674	8526.32
316.739	8491.05
316.804	8458.33
316.869	8427.68
316.934	8386.78
316.999	8353.96
317.064	8303.16
317.129	8254.75
317.194	8221.17
317.259	8170.4
317.324	8116.68
317.389	8078.2
317.454	8048.47
317.518	8016
317.583	7994.06
317.648	7970.78
317.713	7934.37
317.778	7871.65
317.843	7839.09
317.908	7802.31
317.973	7761.82
318.038	7735.27
318.103	7709.12
318.168	7675.94
318.233	7643.72
318.297	7591.79
318.362	7552.99
318.427	7515.41
318.492	7487.38
318.557	7444.07
318.622	7417.38
318.687	7399.17
318.751	7357.26
318.816	7321.98
318.881	7286.75
318.946	7231.91
319.011	7188.22
319.075	7147.56
319.14	7115.52
319.205	7080.44
319.27	7048.11
319.335	7005.25
319.399	6964.7
319.464	6927.42
319.529	6872.76
319.594	6833.61
319.658	6805.22
319.723	6761.99
319.788	6734.28
319.853	6684.62
319.917	6650.24
319.982	6596.16
320.047	6558.99
320.112	6538.2
320.176	6489.99
320.241	6452.88
320.306	6421.19
320.37	6376.59
320.435	6343.95
320.5	6312.7
320.564	6270.03
320.629	6231.01
320.694	6204.04
320.758	6165.21
320.823	6125.48
320.888	6103.7
320.952	6054.76
321.017	6012.88
321.082	5979.58
321.146	5943.51
321.211	5905.23
321.275	5867.1
321.34	5823.22
321.405	5771.76
321.469	5723.28
321.534	5679.46
321.598	5629.93
321.663	5599.91
321.727	5567.93
321.792	5520.33
321.857	5476.99
321.921	5434.62
321.986	5390.53
322.05	5325.79
322.115	5288.79
322.179	5241.89
322.244	5190.68
322.308	5155.32
322.373	5107.51
322.437	5067.27
322.502	5042.35
322.566	4996.47
322.631	4958.58
322.695	4920.95
322.76	4880.88
322.824	4845.4
322.889	4804.86
322.953	4763.23
323.018	4693.24
323.082	4633.56
323.146	4584.71
323.211	4534.09
323.275	4488.97
323.34	4443.77
323.404	4413.78
323.468	4367.8
323.533	4327
323.597	4283.07
323.662	4232.66
323.726	4201.15
323.79	4151.42
323.855	4083.02
323.919	4041.81
323.983	3998.5
324.048	3935.06
324.112	4087.12
324.177	3959.34
324.241	3756.17
324.305	3555.33
324.37	3361.76
324.434	3172.16
324.498	3131.16
324.562	3083.68
324.627	3026.97
324.691	2976.81
324.755	2912.48
324.82	2836.49
324.884	2763.27
324.948	2689.28
325.012	2599.94
325.077	2477.31
