Data from 20250702_urea_0.5M_MAYP1162681_18-25-00-240.txt Node
Date: Wed Jul 02 18:25:00 BST 2025
User: adleo
Spectrometer: MAYP116268
Trigger mode: 0
Integration Time (sec): 1.000000E0
Scans to average: 1
Electric dark correction enabled: true
Nonlinearity correction enabled: true
Boxcar width: 10
XAxis mode: Wavelengths
Number of Pixels in Spectrum: 2068
>>>>>Begin Spectral Data<<<<<
179.565	1139.05
179.642	1187.61
179.718	1229.53
179.795	1262.62
179.871	1293.29
179.948	1312.02
180.024	1331.01
180.101	1352.21
180.177	1367.2
180.254	1387.41
180.33	1406.94
180.407	1454.55
180.483	1544.77
180.56	1629.15
180.636	1708.19
180.712	1694.84
180.789	1700.58
180.865	1711.8
180.942	1717.16
181.018	1728.38
181.095	1740.31
181.171	1744.97
181.248	1746.49
181.324	1760.75
181.4	1771.25
181.477	1782.71
181.553	1794.2
181.63	1812.12
181.706	1828.76
181.782	1832.47
181.859	1832.89
181.935	1840.5
182.011	1836.46
182.088	1850.82
182.164	1868.69
182.24	1883.81
182.317	1893.36
182.393	1893.74
182.469	1907.1
182.546	1921.17
182.622	1925.73
182.698	1923.02
182.775	1934.19
182.851	1948.6
182.927	1939.8
183.003	1932.91
183.08	1926.97
183.156	1935.29
183.232	1935
183.308	1920.88
183.385	1931.86
183.461	1948.46
183.537	1948.03
183.613	1959.87
183.69	1953.21
183.766	1942.94
183.842	1948.12
183.918	1955.92
183.995	1970.08
184.071	1971.04
184.147	1963.76
184.223	1953.73
184.299	1963.82
184.375	1953.93
184.452	1962.01
184.528	2018.57
184.604	2028.22
184.68	2041.01
184.756	2047.67
184.832	2051.67
184.908	2057.18
184.985	2057.04
185.061	2042.53
185.137	2051.19
185.213	2040.73
185.289	2041.11
185.365	2035.69
185.441	2033.46
185.517	2046.49
185.593	2040.74
185.669	2039.64
185.745	2052.39
185.822	2067.55
185.898	2059.75
185.974	2068.31
186.05	2060.56
186.126	2020.64
186.202	2016.27
186.278	2011.08
186.354	2003.28
186.43	2008.42
186.506	2010.46
186.582	2008.37
186.658	2013.27
186.734	1995.63
186.81	1999.19
186.886	2001.43
186.962	2011.22
187.038	2009.37
187.114	2001.42
187.19	2010.65
187.266	2002.85
187.341	2001
187.417	1994.2
187.493	1994.39
187.569	1997.05
187.645	1990.49
187.721	1978.69
187.797	1985.16
187.873	1987.82
187.949	1981.4
188.025	1975.46
188.101	1974.75
188.176	1981.35
188.252	1980.88
188.328	1987.01
188.404	1988.15
188.48	1984.54
188.556	1979.88
188.632	1978.4
188.707	1977.88
188.783	1974.55
188.859	1968.61
188.935	1961.67
189.011	1964.85
189.086	1958.1
189.162	1947.83
189.238	1945.03
189.314	1943.17
189.39	1939.75
189.465	1934.04
189.541	1949.16
189.617	1936.19
189.693	1930.77
189.768	1932.91
189.844	1953.31
189.92	1943.1
189.996	1947.95
190.071	1957.36
190.147	1955.27
190.223	1962.83
190.298	1954.32
190.374	1942.57
190.45	1953.98
190.526	1961.31
190.601	1958.26
190.677	1960.92
190.753	1986.42
190.828	1989.8
190.904	2002.59
190.98	2016.29
191.055	2027.18
191.131	2018.62
191.207	2036.78
191.282	2047.43
191.358	2039.49
191.433	2023.74
191.509	2040.66
191.585	2039.47
191.66	2043.09
191.736	2050.08
191.811	2041.85
191.887	2058.5
191.963	2079.76
192.038	2084.66
192.114	2083.8
192.189	2088.89
192.265	2083.9
192.34	2066.11
192.416	2066.58
192.491	2067.72
192.567	2066.53
192.642	2068.67
192.718	2067.53
192.793	2055.88
192.869	2050.84
192.944	2054.45
193.02	2061.92
193.095	2064.49
193.171	2070.24
193.246	2067.82
193.322	2066.39
193.397	2067.3
193.473	2053.5
193.548	2037.56
193.624	2044.46
193.699	2043.8
193.775	2060.35
193.85	2062.49
193.925	2070.91
194.001	2069.63
194.076	2058.02
194.152	2051.08
194.227	2043.89
194.302	2037.43
194.378	2041.71
194.453	2039.95
194.529	2049.32
194.604	2037.24
194.679	2030.44
194.755	2012.61
194.83	2022.7
194.905	2020.03
194.981	2028.55
195.056	2022.79
195.131	2025.41
195.207	2022.03
195.282	2015.04
195.357	1996.49
195.433	2013.66
195.508	1999.91
195.583	2004.48
195.659	2018.55
195.734	2024.88
195.809	2027.35
195.884	2034.77
195.96	2036.53
196.035	2052.37
196.11	2050.23
196.185	2062.45
196.261	2067.92
196.336	2098.02
196.411	2086.65
196.486	2090.79
196.561	2085.51
196.637	2091.5
196.712	2109.63
196.787	2114.05
196.862	2125.18
196.937	2133.93
197.013	2137.55
197.088	2149.53
197.163	2169.76
197.238	2186.37
197.313	2187.04
197.388	2197.27
197.464	2227.49
197.539	2236.34
197.614	2227.39
197.689	2238.43
197.764	2252.81
197.839	2268.56
197.914	2264.23
197.989	2286.21
198.065	2301.34
198.14	2349.68
198.215	2376.47
198.29	2387.04
198.365	2400.23
198.44	2410.84
198.515	2438.27
198.59	2449.93
198.665	2475.4
198.74	2487.21
198.815	2490.88
198.89	2510.59
198.965	2538.88
199.04	2533.83
199.115	2548.49
199.19	2589.25
199.265	2590.01
199.34	2599.15
199.415	2636.08
199.49	2656.27
199.565	2663.28
199.64	2687.09
199.715	2680.37
199.79	2686.47
199.865	2694.38
199.94	2693.33
200.015	2726.39
200.09	2731.06
200.165	2740.21
200.24	2747.45
200.315	2783.74
200.39	2795.42
200.464	2805.14
200.539	2802.94
200.614	2818.76
200.689	2845.07
200.764	2852.7
200.839	2870.46
200.914	2878.08
200.989	2864.4
201.063	2877.75
201.138	2862.46
201.213	2863.41
201.288	2849.36
201.363	2856.46
201.438	2855.69
201.512	2871.13
201.587	2852.21
201.662	2853.45
201.737	2864.55
201.812	2872.75
201.886	2839.6
201.961	2847.33
202.036	2833.46
202.111	2832.08
202.186	2805.46
202.26	2788.92
202.335	2767.52
202.41	2761.76
202.485	2743.42
202.559	2723.55
202.634	2696.25
202.709	2704.63
202.784	2684.43
202.858	2683.05
202.933	2664.66
203.008	2657.37
203.082	2637.84
203.157	2638.42
203.232	2600.33
203.306	2578.89
203.381	2548.25
203.456	2529.58
203.53	2509.99
203.605	2491.05
203.68	2470
203.754	2461.39
203.829	2444.81
203.904	2428.29
203.978	2417.2
204.053	2422.05
204.127	2410.06
204.202	2410.82
204.277	2391.83
204.351	2385.55
204.426	2379.97
204.5	2369.79
204.575	2338.95
204.65	2347.71
204.724	2339.04
204.799	2345.61
204.873	2346.56
204.948	2342.42
205.022	2328.53
205.097	2318.95
205.171	2332.28
205.246	2340.94
205.32	2342.47
205.395	2339.61
205.469	2330.33
205.544	2334.81
205.618	2315.2
205.693	2329.24
205.767	2317.06
205.842	2343.05
205.916	2339.1
205.991	2330.39
206.065	2337.19
206.14	2350.61
206.214	2347.7
206.289	2341.89
206.363	2355.08
206.438	2354.13
206.512	2363.03
206.586	2384.73
206.661	2392.59
206.735	2371.75
206.81	2373.56
206.884	2391.12
206.958	2381.22
207.033	2399.73
207.107	2410.88
207.181	2446.78
207.256	2443.93
207.33	2464.78
207.405	2478.69
207.479	2499.45
207.553	2511.07
207.628	2499.98
207.702	2514.07
207.776	2514.55
207.851	2525.16
207.925	2545.75
207.999	2549.27
208.073	2557.18
208.148	2567.8
208.222	2569.89
208.296	2613.84
208.371	2640.1
208.445	2663.64
208.519	2707.08
208.593	2735.28
208.668	2747.58
208.742	2767.61
208.816	2786.48
208.89	2821.42
208.965	2842.75
209.039	2871.69
209.113	2911.92
209.187	2961.32
209.261	2988.44
209.336	3039.28
209.41	3092.84
209.484	3132.07
209.558	3192.51
209.632	3245.98
209.707	3300.33
209.781	3365.47
209.855	3430.12
209.929	3497.58
210.003	3558.51
210.077	3615.91
210.151	3722.86
210.226	3819.92
210.3	3913.08
210.374	4005.42
210.448	4076.98
210.522	4155.16
210.596	4244.62
210.67	4337.69
210.744	4467.21
210.818	4591.28
210.892	4699.8
210.966	4785.26
211.041	4895
211.115	4996.41
211.189	5113.5
211.263	5234.64
211.337	5350.16
211.411	5467.98
211.485	5569.38
211.559	5690.85
211.633	5809.58
211.707	5896.25
211.781	6024.46
211.855	6112.61
211.929	6230.53
212.003	6336.59
212.077	6486.88
212.151	6632.53
212.225	6772.96
212.299	6899.16
212.373	7019.78
212.447	7153.72
212.52	7325.38
212.594	7465.65
212.668	7617.03
212.742	7754.77
212.816	7893.61
212.89	8034.86
212.964	8179.75
213.038	8334.86
213.112	8498.12
213.186	8665.28
213.26	8797.94
213.333	8901.08
213.407	9060
213.481	9218.02
213.555	9387.39
213.629	9522.42
213.703	9663.34
213.777	9823.39
213.85	9958.69
213.924	10151.47
213.998	10311.74
214.072	10461.88
214.146	10606.8
214.219	10757.9
214.293	10904.85
214.367	11063.19
214.441	11228.05
214.515	11376.76
214.588	11507.22
214.662	11629.4
214.736	11759.48
214.81	11916.93
214.883	12081.99
214.957	12218.88
215.031	12353.69
215.105	12480.69
215.178	12617.69
215.252	12752.61
215.326	12869.98
215.4	12995.89
215.473	13088.59
215.547	13208.48
215.621	13334.92
215.694	13476.12
215.768	13590.41
215.842	13720.66
215.915	13836.55
215.989	13940.92
216.063	14061.53
216.136	14199.92
216.21	14328.34
216.284	14464.18
216.357	14590.62
216.431	14715.32
216.504	14847.02
216.578	14994.95
216.652	15126.07
216.725	15243.54
216.799	15374.98
216.873	15492.45
216.946	15607.46
217.02	15723.24
217.093	15830.1
217.167	15919.8
217.24	16013.11
217.314	16117.61
217.387	16207.84
217.461	16310.45
217.535	16428.24
217.608	16518.85
217.682	16609.8
217.755	16716.07
217.829	16810.68
217.902	16912.8
217.976	17003.89
218.049	17094.79
218.123	17175.13
218.196	17274.84
218.27	17361.83
218.343	17427.52
218.417	17519.18
218.49	17612.09
218.563	17707.9
218.637	17789.83
218.71	17894.5
218.784	17993.15
218.857	18083.02
218.931	18180.32
219.004	18260.08
219.077	18340.22
219.151	18422.63
219.224	18500.45
219.298	18575.2
219.371	18652.2
219.444	18710.47
219.518	18780.15
219.591	18853.01
219.665	18943.37
219.738	19011.41
219.811	19077.43
219.885	19158.68
219.958	19223.93
220.031	19292.99
220.105	19364.65
220.178	19443.24
220.251	19495.63
220.325	19565.36
220.398	19625.79
220.471	19692.77
220.544	19768.67
220.618	19817.73
220.691	19883.71
220.764	19940.91
220.838	20005
220.911	20059.99
220.984	20142.16
221.057	20203.79
221.131	20257.09
221.204	20283.12
221.277	20351.79
221.35	20433.38
221.424	20485.57
221.497	20541.96
221.57	20589.91
221.643	20632.08
221.716	20680.66
221.79	20717.38
221.863	20752.71
221.936	20804.04
222.009	20842.3
222.082	20877.2
222.155	20906.84
222.229	20964.24
222.302	21014.17
222.375	21043.52
222.448	21085.55
222.521	21111.14
222.594	21151.24
222.667	21177.6
222.74	21226.57
222.814	21254.29
222.887	21274.67
222.96	21314.05
223.033	21348.85
223.106	21381.58
223.179	21422.98
223.252	21450.94
223.325	21486.85
223.398	21514.56
223.471	21550.85
223.544	21580.06
223.617	21601.51
223.69	21641.42
223.763	21658.58
223.837	21683.02
223.91	21714.59
223.983	21717.92
224.056	21726.93
224.129	21742.98
224.202	21770.45
224.275	21778.65
224.348	21792.48
224.42	21792.1
224.493	21783.81
224.566	21796.68
224.639	21808.68
224.712	21803.76
224.785	21824.88
224.858	21841.26
224.931	21845.41
225.004	21842.57
225.077	21859.24
225.15	21856.45
225.223	21865.41
225.296	21885.42
225.369	21876.94
225.442	21874.62
225.514	21886.82
225.587	21903.64
225.66	21917.23
225.733	21930.92
225.806	21934.59
225.879	21927.89
225.952	21934.39
226.025	21963.36
226.097	21976.09
226.17	21985.68
226.243	21981.59
226.316	21966.21
226.389	21972.28
226.461	21985.59
226.534	21990.79
226.607	21983.37
226.68	22000.58
226.753	22012.82
226.825	21988.04
226.898	22008.92
226.971	22015.04
227.044	22018.61
227.117	22016.24
227.189	22029.79
227.262	22042.18
227.335	22049.7
227.407	22056.69
227.48	22052.78
227.553	22046.76
227.626	22043.19
227.698	22048.88
227.771	22053.17
227.844	22059
227.916	22060.5
227.989	22039.24
228.062	22031.43
228.134	22044.97
228.207	22047.09
228.28	22029.26
228.352	22024.05
228.425	22009.01
228.498	22016.68
228.57	22015.62
228.643	22025.69
228.716	22010.17
228.788	21996.09
228.861	21986.74
228.934	21988.24
229.006	21993.01
229.079	21983.61
229.151	21976.86
229.224	21948.85
229.296	21952.95
229.369	21965.44
229.442	21965.63
229.514	21962.93
229.587	21972.72
229.659	21953.43
229.732	21949.24
229.804	21950.78
229.877	21972.76
229.949	21990.31
230.022	21994.99
230.094	21995.71
230.167	21994.07
230.239	21979.27
230.312	21973.05
230.384	21994.46
230.457	21991.56
230.529	21983.18
230.602	21978.74
230.674	21972.77
230.747	21986.5
230.819	21992.19
230.892	21959.94
230.964	21955.36
231.037	21947.84
231.109	21930.68
231.181	21934.88
231.254	21921.72
231.326	21909.43
231.399	21896.22
231.471	21868.4
231.544	21828.69
231.616	21810.13
231.688	21797.88
231.761	21774.75
231.833	21747.56
231.905	21707.22
231.978	21697.33
232.05	21676.71
232.122	21658.73
232.195	21634.05
232.267	21633.71
232.339	21601.13
232.412	21596.21
232.484	21571.72
232.556	21553.79
232.629	21571.19
232.701	21554.61
232.773	21535.33
232.846	21520.05
232.918	21506.22
232.99	21488.87
233.062	21484.87
233.135	21477.06
233.207	21444.33
233.279	21438.64
233.351	21429.05
233.424	21402.4
233.496	21372.81
233.568	21381.72
233.64	21361.62
233.713	21349.33
233.785	21322.63
233.857	21309.33
233.929	21270.24
234.001	21263.93
234.074	21255.88
234.146	21200.79
234.218	21180.88
234.29	21162.37
234.362	21132.25
234.434	21094.85
234.507	21069.06
234.579	21031.42
234.651	21002.99
234.723	20982.74
234.795	20956.38
234.867	20936.19
234.939	20926.55
235.012	20899.13
235.084	20869.15
235.156	20837.39
235.228	20801.24
235.3	20762.64
235.372	20750.78
235.444	20741.09
235.516	20686.92
235.588	20664.99
235.66	20646.49
235.732	20606.78
235.804	20631.5
235.876	20610.92
235.948	20598.78
236.02	20571.45
236.092	20531.45
236.164	20502.92
236.236	20472.51
236.308	20449.33
236.38	20423.16
236.452	20384.9
236.524	20366.97
236.596	20356.42
236.668	20341.19
236.74	20313.62
236.812	20289
236.884	20253.43
236.956	20222.97
237.028	20185.48
237.1	20147.41
237.172	20130.83
237.244	20116.33
237.316	20041.34
237.388	20006.83
237.46	19962.06
237.532	19942.98
237.604	19923.32
237.675	19917.15
237.747	19899.85
237.819	19851.13
237.891	19814.55
237.963	19786.17
238.035	19752.14
238.107	19681.59
238.178	19661.21
238.25	19624.24
238.322	19608.49
238.394	19555.57
238.466	19517.94
238.538	19502.85
238.609	19478.23
238.681	19424.06
238.753	19389.99
238.825	19354.28
238.897	19323.92
238.968	19307.49
239.04	19261.57
239.112	19257.86
239.184	19201.14
239.255	19154.01
239.327	19133.62
239.399	19106.11
239.471	19080.52
239.542	19048.37
239.614	19035.12
239.686	18976.96
239.758	18959.66
239.829	18918.98
239.901	18910.12
239.973	18882.7
240.044	18853.06
240.116	18818.65
240.188	18787.86
240.259	18742.47
240.331	18711.72
240.403	18690.61
240.474	18639
240.546	18609.65
240.618	18550.62
240.689	18506.67
240.761	18477.71
240.833	18464.46
240.904	18432.99
240.976	18391.16
241.048	18355.31
241.119	18317.43
241.191	18290.97
241.262	18267.94
241.334	18231.6
241.405	18196.33
241.477	18158.98
241.549	18125.63
241.62	18096.38
241.692	18070.65
241.763	18056.53
241.835	18017.35
241.906	17977.49
241.978	17930.79
242.049	17908.67
242.121	17879.62
242.192	17863.09
242.264	17813.64
242.335	17758.65
242.407	17717.5
242.478	17682.9
242.55	17654.46
242.621	17618.85
242.693	17589.11
242.764	17555.38
242.836	17518.03
242.907	17477.4
242.979	17446.71
243.05	17418.37
243.122	17385.45
243.193	17342.66
243.264	17276.73
243.336	17239.77
243.407	17207.33
243.479	17196.73
243.55	17160.97
243.622	17145.26
243.693	17109.21
243.764	17096.15
243.836	17048.24
243.907	17016.34
243.978	16983.81
244.05	16952.82
244.121	16905.78
244.192	16878.6
244.264	16820.18
244.335	16781.63
244.407	16731.41
244.478	16701.24
244.549	16656.42
244.62	16597.28
244.692	16559.01
244.763	16533.71
244.834	16498.96
244.906	16463.68
244.977	16428.45
245.048	16413.84
245.119	16362.85
245.191	16313.88
245.262	16262.26
245.333	16249.25
245.405	16214.26
245.476	16181.05
245.547	16147.99
245.618	16125.91
245.689	16092.12
245.761	16071.59
245.832	16043.11
245.903	16024.16
245.974	15987.63
246.045	15954.13
246.117	15951.29
246.188	15914.56
246.259	15881.98
246.33	15846.55
246.401	15808.95
246.473	15760.95
246.544	15710.43
246.615	15678.77
246.686	15645.46
246.757	15617.41
246.828	15571.42
246.899	15545.2
246.97	15496.13
247.042	15452.37
247.113	15421.81
247.184	15412.74
247.255	15373.46
247.326	15343.48
247.397	15305.3
247.468	15276.38
247.539	15241.53
247.61	15198.34
247.681	15180.56
247.752	15159.49
247.823	15119.63
247.894	15098.76
247.965	15061.78
248.037	15024.62
248.108	14988.32
248.179	14962
248.25	14936.89
248.321	14920.5
248.392	14883.96
248.463	14883.29
248.534	14857.3
248.605	14838.55
248.675	14792.57
248.746	14768.76
248.817	14744.8
248.888	14717.08
248.959	14674.56
249.03	14657.11
249.101	14621.06
249.172	14589.48
249.243	14538.77
249.314	14527.83
249.385	14500.79
249.456	14484.11
249.527	14451.42
249.598	14426.55
249.669	14404.04
249.739	14379.55
249.81	14347.69
249.881	14315.44
249.952	14287.77
250.023	14263.66
250.094	14215.84
250.165	14177.09
250.235	14152.79
250.306	14124.74
250.377	14091.76
250.448	14066.26
250.519	14016.18
250.59	14006.24
250.66	13967.78
250.731	13962.52
250.802	13938.32
250.873	13905.54
250.944	13878.74
251.014	13848.03
251.085	13851.94
251.156	13832.17
251.227	13820.94
251.297	13818.1
251.368	13798.67
251.439	13778.04
251.51	13758.56
251.58	13729.25
251.651	13705.68
251.722	13689.77
251.792	13641.61
251.863	13616.64
251.934	13615.97
252.005	13620.01
252.075	13594.08
252.146	13585.5
252.217	13566.22
252.287	13549.39
252.358	13523.12
252.429	13513.43
252.499	13490.34
252.57	13459.68
252.641	13433.55
252.711	13403.66
252.782	13359.31
252.852	13350.35
252.923	13321.42
252.994	13296.98
253.064	13280.35
253.135	13247.76
253.205	13214.84
253.276	13219.71
253.347	13212.62
253.417	13175.36
253.488	13151.98
253.558	13122.67
253.629	13100.3
253.699	13084.73
253.77	13070.17
253.841	13050.65
253.911	13030.79
253.982	13009.87
254.052	12986.58
254.123	12980.46
254.193	12959.73
254.264	12976.65
254.334	12944.16
254.405	12907.91
254.475	12874.41
254.546	12860.38
254.616	12858.69
254.687	12838.01
254.757	12812.22
254.827	12794.05
254.898	12779.01
254.968	12746.9
255.039	12716.92
255.109	12699.52
255.18	12669.2
255.25	12620.75
255.321	12603.64
255.391	12567.2
255.461	12568.4
255.532	12527.28
255.602	12495.52
255.673	12458.54
255.743	12420.22
255.813	12384.26
255.884	12383.39
255.954	12375.97
256.024	12372.64
256.095	12351.63
256.165	12322.9
256.235	12310.6
256.306	12273.2
256.376	12256.18
256.446	12243.79
256.517	12230.64
256.587	12219.31
256.657	12199.54
256.728	12189.18
256.798	12174.14
256.868	12154.48
256.938	12120.06
257.009	12111.24
257.079	12101.55
257.149	12104.49
257.219	12068.34
257.29	12054.02
257.36	12013.58
257.43	12003.03
257.5	11961.19
257.571	11931.98
257.641	11926.77
257.711	11891.44
257.781	11882.62
257.852	11873.85
257.922	11845.31
257.992	11822.8
258.062	11796.24
258.132	11783.37
258.202	11758.79
258.273	11736.24
258.343	11728.72
258.413	11708.28
258.483	11688.71
258.553	11650.64
258.623	11624.37
258.693	11610.34
258.764	11609.42
258.834	11607.45
258.904	11578.82
258.974	11547.59
259.044	11530.82
259.114	11510.52
259.184	11492.45
259.254	11466.96
259.324	11423.92
259.394	11409.36
259.464	11413.7
259.535	11402.85
259.605	11382.37
259.675	11358.13
259.745	11344.44
259.815	11318.03
259.885	11288.01
259.955	11300.35
260.025	11281.7
260.095	11261.74
260.165	11244.88
260.235	11234.03
260.305	11209.41
260.375	11189.98
260.445	11195.86
260.515	11192.3
260.585	11184.54
260.655	11170.42
260.725	11168.06
260.795	11162.9
260.865	11166.9
260.934	11134.71
261.004	11116.15
261.074	11089.94
261.144	11084.83
261.214	11073.7
261.284	11059.77
261.354	11064.25
261.424	11030.18
261.494	11028.06
261.564	11010.95
261.634	11004.11
261.703	10969.55
261.773	10954.28
261.843	10940.69
261.913	10920.64
261.983	10885.42
262.053	10877.56
262.123	10859.4
262.192	10831.78
262.262	10828.27
262.332	10794.58
262.402	10788.46
262.472	10768.71
262.541	10733.73
262.611	10733.2
262.681	10713.54
262.751	10701.78
262.821	10674.85
262.89	10647.91
262.96	10637.84
263.03	10642.71
263.1	10628.2
263.169	10620.3
263.239	10619.38
263.309	10625.65
263.379	10620.25
263.448	10605.65
263.518	10587.15
263.588	10573.51
263.657	10580.93
263.727	10572.16
263.797	10563.11
263.867	10544.6
263.936	10518.15
264.006	10519.74
264.076	10496.62
264.145	10474.36
264.215	10449.74
264.285	10446.08
264.354	10415.05
264.424	10390.72
264.494	10359.07
264.563	10339.89
264.633	10345.91
264.702	10327.56
264.772	10291.56
264.842	10269.64
264.911	10265.4
264.981	10240.21
265.05	10224.79
265.12	10196.41
265.19	10178.59
265.259	10173
265.329	10168.95
265.398	10163.89
265.468	10177.19
265.537	10153.25
265.607	10147.56
265.676	10151.51
265.746	10140.91
265.815	10142.07
265.885	10125.21
265.955	10099.87
266.024	10081.23
266.094	10039.85
266.163	10041.2
266.232	10034.7
266.302	10012.4
266.371	9997.9
266.441	9982.19
266.51	9979.83
266.58	9963.94
266.649	9942.35
266.719	9934.45
266.788	9923.23
266.858	9921.35
266.927	9886.04
266.996	9882.77
267.066	9870.2
267.135	9841.15
267.205	9833.69
267.274	9821.35
267.343	9823.81
267.413	9812.69
267.482	9817.79
267.552	9823.67
267.621	9791.2
267.69	9769
267.76	9761.25
267.829	9746.7
267.898	9729.75
267.968	9707.45
268.037	9700.03
268.106	9693.34
268.176	9664
268.245	9651.43
268.314	9630.53
268.384	9630.38
268.453	9618.63
268.522	9611.65
268.592	9605.39
268.661	9584.63
268.73	9578.37
268.799	9554.05
268.869	9558.82
268.938	9522.65
269.007	9500.5
269.076	9490.91
269.146	9489.71
269.215	9490.38
269.284	9498.67
269.353	9488.36
269.422	9478.59
269.492	9464.91
269.561	9428.08
269.63	9421.86
269.699	9404.57
269.768	9399.52
269.838	9392.87
269.907	9393.59
269.976	9369.08
270.045	9346.74
270.114	9345.2
270.183	9334.47
270.253	9328.49
270.322	9302.4
270.391	9291.71
270.46	9297.73
270.529	9297.2
270.598	9290.55
270.667	9275.29
270.736	9249.67
270.806	9246.49
270.875	9246.88
270.944	9232.53
271.013	9256.46
271.082	9250.87
271.151	9243.07
271.22	9216.21
271.289	9204.12
271.358	9186.31
271.427	9187.03
271.496	9181.01
271.565	9167.43
271.634	9152.85
271.703	9173.75
271.772	9177.74
271.841	9171.44
271.91	9146.59
271.979	9138.55
272.048	9116.45
272.117	9115.2
272.186	9108.27
272.255	9100.71
272.324	9100.76
272.393	9096.91
272.462	9077.02
272.531	9075.09
272.6	9063.3
272.669	9063.92
272.738	9043.22
272.807	9034.08
272.876	9009.67
272.945	9032.78
273.013	9029.7
273.082	9039.18
273.151	8999.22
273.22	8991.57
273.289	8979.68
273.358	8988.1
273.427	8973.13
273.496	8975.54
273.564	8964.22
273.633	8959.94
273.702	8950.6
273.771	8934.38
273.84	8927.11
273.909	8924.08
273.977	8918.06
274.046	8909.68
274.115	8914.35
274.184	8904.48
274.253	8904.2
274.322	8915.51
274.39	8887.97
274.459	8873.72
274.528	8845.8
274.597	8835.55
274.665	8832.32
274.734	8842.96
274.803	8834.92
274.872	8827.56
274.94	8811.87
275.009	8849.42
275.078	8836.24
275.147	8823.24
275.215	8812.12
275.284	8820.88
275.353	8810.92
275.421	8784.25
275.49	8797.3
275.559	8789.84
275.627	8782.47
275.696	8770.58
275.765	8766.54
275.833	8750.71
275.902	8747.15
275.971	8752.01
276.039	8770.92
276.108	8777.04
276.177	8773.86
276.245	8762.64
276.314	8761.49
276.383	8767.22
276.451	8725.04
276.52	8728.65
276.588	8743.91
276.657	8751.51
276.725	8743.76
276.794	8743.52
276.863	8751.99
276.931	8722.73
277	8728.31
277.068	8738.94
277.137	8753.96
277.205	8753.96
277.274	8775.47
277.342	8780.43
277.411	8766
277.48	8752.71
277.548	8742.41
277.617	8743.85
277.685	8735.91
277.754	8737.79
277.822	8728.07
277.89	8740.2
277.959	8735.05
278.027	8715.7
278.096	8705.88
278.164	8726.82
278.233	8717.24
278.301	8708.25
278.37	8720.13
278.438	8708.58
278.507	8707.91
278.575	8679.13
278.643	8670.99
278.712	8650.39
278.78	8639.9
278.849	8647.22
278.917	8653.67
278.985	8644.38
279.054	8644.09
279.122	8650.78
279.191	8647.02
279.259	8646.16
279.327	8622.96
279.396	8635.81
279.464	8634.12
279.532	8641.63
279.601	8632.87
279.669	8630.46
279.737	8642.64
279.806	8643.12
279.874	8647.36
279.942	8647.02
280.011	8649.62
280.079	8651.93
280.147	8663.33
280.215	8671.27
280.284	8666.94
280.352	8654.53
280.42	8660.69
280.488	8648.61
280.557	8641.68
280.625	8644.85
280.693	8641.39
280.761	8642.54
280.83	8619.15
280.898	8631.81
280.966	8616.02
281.034	8585.65
281.102	8573.24
281.171	8557.79
281.239	8567.42
281.307	8559.81
281.375	8550.57
281.443	8574.69
281.512	8571.94
281.58	8578.3
281.648	8561.07
281.716	8559.67
281.784	8559.05
281.852	8552.36
281.92	8553.9
281.989	8563.52
282.057	8546.97
282.125	8593.33
282.193	8599.2
282.261	8605.02
282.329	8599.63
282.397	8598.91
282.465	8606.41
282.533	8620.37
282.601	8617.43
282.67	8593.95
282.738	8583.46
282.806	8597.27
282.874	8581.09
282.942	8591.88
283.01	8594.23
283.078	8598.71
283.146	8597.17
283.214	8606.07
283.282	8607.81
283.35	8615.84
283.418	8611.46
283.486	8619.31
283.554	8575.89
283.622	8567.42
283.69	8566.02
283.758	8557.12
283.826	8563.23
283.894	8569.24
283.962	8588.88
284.03	8600.58
284.098	8605.82
284.165	8606.06
284.233	8597.01
284.301	8588.98
284.369	8573.48
284.437	8557.5
284.505	8551.25
284.573	8562.22
284.641	8551.87
284.709	8562.27
284.777	8548.74
284.845	8554.52
284.912	8555.53
284.98	8561.02
285.048	8556.4
285.116	8559.96
285.184	8574.83
285.252	8572.81
285.319	8558.08
285.387	8546.77
285.455	8530.99
285.523	8533.34
285.591	8529.74
285.659	8535.46
285.726	8548.84
285.794	8533.54
285.862	8537.1
285.93	8539.22
285.997	8536.38
286.065	8526.56
286.133	8513.81
286.201	8510.97
286.269	8499.47
286.336	8485.85
286.404	8481.23
286.472	8495.04
286.539	8476.33
286.607	8457.56
286.675	8455.15
286.743	8464.97
286.81	8461.6
286.878	8475.99
286.946	8470.21
287.013	8474.06
287.081	8476.08
287.149	8467.42
287.216	8493.84
287.284	8486.57
287.352	8490.23
287.419	8489.41
287.487	8504.28
287.555	8511.02
287.622	8515.01
287.69	8518.38
287.758	8541.28
287.825	8536.71
287.893	8521.46
287.96	8534.64
288.028	8548.16
288.096	8550.71
288.163	8556.58
288.231	8543.35
288.298	8542.44
288.366	8555.19
288.433	8550.23
288.501	8538.54
288.569	8537.72
288.636	8529.78
288.704	8544.8
288.771	8553.65
288.839	8542.2
288.906	8538.16
288.974	8540.03
289.041	8535.22
289.109	8522.9
289.176	8524.59
289.244	8525.41
289.311	8540.28
289.379	8545.67
289.446	8548.99
289.514	8555.92
289.581	8548.89
289.649	8554.47
289.716	8558.32
289.783	8547.01
289.851	8564.34
289.918	8564.53
289.986	8568.23
290.053	8575.89
290.121	8572.61
290.188	8572.66
290.255	8604.91
290.323	8599.32
290.39	8596.97
290.458	8599.42
290.525	8615.88
290.592	8613.66
290.66	8621.94
290.727	8612.27
290.794	8624.88
290.862	8617.42
290.929	8617.9
290.996	8617.18
291.064	8625.07
291.131	8633.64
291.198	8645.72
291.266	8643.7
291.333	8645.67
291.4	8653.22
291.468	8666.37
291.535	8665.21
291.602	8673.01
291.669	8659.92
291.737	8665.98
291.804	8661.89
291.871	8684.36
291.938	8694.09
292.006	8717.82
292.073	8723.11
292.14	8734.38
292.207	8725.28
292.275	8731.63
292.342	8736.54
292.409	8763.59
292.476	8787.61
292.543	8781.84
292.611	8785.88
292.678	8804.41
292.745	8824.96
292.812	8837.04
292.879	8834.4
292.946	8835.07
293.014	8845.18
293.081	8852.98
293.148	8863.28
293.215	8883.49
293.282	8874.93
293.349	8880.12
293.416	8858.12
293.484	8871.02
293.551	8885.95
293.618	8901.35
293.685	8926.09
293.752	8926.05
293.819	8924.41
293.886	8910.54
293.953	8916.03
294.02	8922.14
294.087	8926.81
294.154	8920.41
294.221	8929.8
294.288	8928.21
294.356	8946.02
294.423	8947.51
294.49	8942.08
294.557	8957.77
294.624	8950.6
294.691	8966.43
294.758	8972.59
294.825	8980.87
294.892	8975.29
294.959	8972.5
295.026	8976.69
295.093	8970.76
295.16	8969.66
295.226	8968.02
295.293	8994.98
295.36	9005.96
295.427	9017.42
295.494	9027.82
295.561	9042.93
295.628	9064.5
295.695	9082.03
295.762	9085.64
295.829	9096.76
295.896	9114.57
295.963	9120.78
296.03	9127.91
296.096	9134.26
296.163	9143.94
296.23	9158.14
296.297	9174.46
296.364	9172.39
296.431	9186.65
296.498	9184.86
296.564	9212.93
296.631	9221.5
296.698	9202.77
296.765	9215.39
296.832	9210.67
296.899	9201.38
296.965	9217.07
297.032	9201.57
297.099	9208.74
297.166	9218.66
297.233	9215.48
297.299	9200.61
297.366	9202.87
297.433	9203.4
297.5	9213.99
297.566	9211.1
297.633	9210.81
297.7	9208.79
297.767	9209.8
297.833	9206.87
297.9	9210.09
297.967	9190.35
298.033	9200.75
298.1	9234.12
298.167	9227.72
298.234	9237.25
298.3	9244.38
298.367	9235.08
298.434	9240.53
298.5	9233.88
298.567	9222.37
298.634	9222.13
298.7	9251.36
298.767	9257.91
298.834	9275.62
298.9	9271
298.967	9267.54
299.033	9282.08
299.1	9303.27
299.167	9320.79
299.233	9318.86
299.3	9327.48
299.366	9349.15
299.433	9364.37
299.5	9331.29
299.566	9334.56
299.633	9345.97
299.699	9356.08
299.766	9360.56
299.832	9365.19
299.899	9374.58
299.965	9391.91
300.032	9391.57
300.099	9390.99
300.165	9393.74
300.232	9387.24
300.298	9388.2
300.365	9402.5
300.431	9394.7
300.498	9387.62
300.564	9386.71
300.631	9399.56
300.697	9417.77
300.763	9410.93
300.83	9403.99
300.896	9417.57
300.963	9429.47
301.029	9431.54
301.096	9440.01
301.162	9446.66
301.229	9441.6
301.295	9433.37
301.361	9436.74
301.428	9437.22
301.494	9429.66
301.561	9432.36
301.627	9442.61
301.693	9444.06
301.76	9445.31
301.826	9445.94
301.892	9452.82
301.959	9461.73
302.025	9459.9
302.092	9453.45
302.158	9460.82
302.224	9465.73
302.291	9464.43
302.357	9454.12
302.423	9446.9
302.49	9429.32
302.556	9442.28
302.622	9441.6
302.688	9455.71
302.755	9468.52
302.821	9477.58
302.887	9487.88
302.954	9486.34
303.02	9493.08
303.086	9500.64
303.152	9498.38
303.219	9497.61
303.285	9502.47
303.351	9514.22
303.417	9515.48
303.483	9506.09
303.55	9500.16
303.616	9498.72
303.682	9494.29
303.748	9492.03
303.815	9503.49
303.881	9520.49
303.947	9506.81
304.013	9506.28
304.079	9498.09
304.145	9474.11
304.212	9473.53
304.278	9461.11
304.344	9459.81
304.41	9445.99
304.476	9434.24
304.542	9428.17
304.608	9428.03
304.674	9410.16
304.741	9402.94
304.807	9402.65
304.873	9414.2
304.939	9431.97
305.005	9411.31
305.071	9409.05
305.137	9407.37
305.203	9381.94
305.269	9378.09
305.335	9387.05
305.401	9389.12
305.467	9384.01
305.533	9396.1
305.599	9405.34
305.666	9415.17
305.732	9411.84
305.798	9414.64
305.864	9439.73
305.93	9441.8
305.996	9438.04
306.062	9442.57
306.128	9434.19
306.194	9422.87
306.259	9413.63
306.325	9398.07
306.391	9409.05
306.457	9422.63
306.523	9427.59
306.589	9458.6
306.655	9451.52
306.721	9434.53
306.787	9415.65
306.853	9433.18
306.919	9415.12
306.985	9400.63
307.051	9390.47
307.117	9383.1
307.183	9385.94
307.248	9351.94
307.314	9361.53
307.38	9366.68
307.446	9362.59
307.512	9355.17
307.578	9364.27
307.644	9366.29
307.709	9370.15
307.775	9367.98
307.841	9359.02
307.907	9363.79
307.973	9342.02
308.039	9334.37
308.104	9347.95
308.17	9355.26
308.236	9335.9
308.302	9336.15
308.368	9321.94
308.433	9321.56
308.499	9313.66
308.565	9295.6
308.631	9307.16
308.696	9283.52
308.762	9274.99
308.828	9278.22
308.894	9262.04
308.959	9243.75
309.025	9229.74
309.091	9226.46
309.156	9214.38
309.222	9218.04
309.288	9202.43
309.354	9181.68
309.419	9182.5
309.485	9164.06
309.551	9166.03
309.616	9153.9
309.682	9154.86
309.748	9154.48
309.813	9155.25
309.879	9150.1
309.945	9143.07
310.01	9130.26
310.076	9128.34
310.141	9118.76
310.207	9101.04
310.273	9104.55
310.338	9104.45
310.404	9088.18
310.469	9070.18
310.535	9063.53
310.601	9042.06
310.666	9047.6
310.732	9054.96
310.797	9045.38
310.863	9032.14
310.928	9021.6
310.994	9024.29
311.059	9023.91
311.125	9019.05
311.191	9026.37
311.256	9016.98
311.322	9024.63
311.387	9007.88
311.453	9330.87
311.518	9308.83
311.584	9308.59
311.649	9310.71
311.715	9299.88
311.78	9306.33
311.846	9295.5
311.911	9297.81
311.976	9294.87
312.042	9282.06
312.107	9266.56
312.173	9253.52
312.238	9250.2
312.304	9248.9
312.369	9237.25
312.434	9222.85
312.5	9219.43
312.565	9184.44
312.631	9186.27
312.696	9169.75
312.761	9176.3
312.827	8849.84
312.892	8885.66
312.958	8876.7
313.023	8872.56
313.088	8872.37
313.154	8850.52
313.219	8844.79
313.284	8837.52
313.35	8832.47
313.415	8816.83
313.48	8811.58
313.546	8816.97
313.611	8828.86
313.676	8820.58
313.741	8811.82
313.807	8813.7
313.872	8809.99
313.937	8821.35
314.003	8828.57
314.068	8834.4
314.133	8838.78
314.198	8825.11
314.264	8807.25
314.329	8807.39
314.394	8797.71
314.459	8790.98
314.525	8810.42
314.59	8809.17
314.655	8798.92
314.72	8804.36
314.785	8815.62
314.851	8811.58
314.916	8792.42
314.981	8776.58
315.046	8768.74
315.111	8762.82
315.176	8752.04
315.242	8758.53
315.307	8753.48
315.372	8739.71
315.437	8725.56
315.502	8712.33
315.567	8717.28
315.632	8697.65
315.698	8697.55
315.763	8700.2
315.828	8688.21
315.893	8685.9
315.958	8679.07
316.023	8668.68
316.088	8655.1
316.153	8628.87
316.218	8622.76
316.283	8607.99
316.348	8588.21
316.413	8580.47
316.479	8562.42
316.544	8533.5
316.609	8503.04
316.674	8464.45
316.739	8428.61
316.804	8404.22
316.869	8367.26
316.934	8331.56
316.999	8298.37
317.064	8243.52
317.129	8197.76
317.194	8166.88
317.259	8109.87
317.324	8063.22
317.389	8019.01
317.454	7980.29
317.518	7943.49
317.583	7916.65
317.648	7894.77
317.713	7852.78
317.778	7796.08
317.843	7767.37
317.908	7728.13
317.973	7689.75
318.038	7660.95
318.103	7622.93
318.168	7586.34
318.233	7553.79
318.297	7505.57
318.362	7474.75
318.427	7436.49
318.492	7409.62
318.557	7362.52
318.622	7341.51
318.687	7320.46
318.751	7281.68
318.816	7245.2
318.881	7216.65
318.946	7159.99
319.011	7111.84
319.075	7074.7
319.14	7040.49
319.205	6997.68
319.27	6965.73
319.335	6922.01
319.399	6885.17
319.464	6856.35
319.529	6807.83
319.594	6778.19
319.658	6748.27
319.723	6702.31
319.788	6675.56
319.853	6622.64
319.917	6592.01
319.982	6539.23
320.047	6497.89
320.112	6471.63
320.176	6417.28
320.241	6376.43
320.306	6348.1
320.37	6303.04
320.435	6275.82
320.5	6250.48
320.564	6210.88
320.629	6169.04
320.694	6135.88
320.758	6089.29
320.823	6046.49
320.888	6012.82
320.952	5958.07
321.017	5913.03
321.082	5878.02
321.146	5840.93
321.211	5802.81
321.275	5761.9
321.34	5717.36
321.405	5672.43
321.469	5621.65
321.534	5587.76
321.598	5544.61
321.663	5511.53
321.727	5483.34
321.792	5429.27
321.857	5381.71
321.921	5342.61
321.986	5298.33
322.05	5239.93
322.115	5207.97
322.179	5165.05
322.244	5111.6
322.308	5074.67
322.373	5033.15
322.437	4991.67
322.502	4968
322.566	4926.24
322.631	4890.04
322.695	4853.28
322.76	4812.35
322.824	4779.27
322.889	4737.48
322.953	4686.42
323.018	4623.19
323.082	4564.2
323.146	4517.12
323.211	4465.5
323.275	4421.67
323.34	4377.48
323.404	4345.2
323.468	4295.17
323.533	4251.18
323.597	4210.88
323.662	4164.17
323.726	4131.04
323.79	4082.04
323.855	4013.45
323.919	3966.47
323.983	3923.17
324.048	3857.74
324.112	3998.78
324.177	3870.27
324.241	3667
324.305	3472.66
324.37	3279.76
324.434	3092.4
324.498	3049.96
324.562	3001.72
324.627	2942.49
324.691	2889.22
324.755	2825.15
324.82	2755.75
324.884	2682.46
324.948	2611.01
325.012	2521.38
325.077	2396.57
