Data from 20250702_urea_0.5M_MAYP1162681_18-45-00-154.txt Node
Date: Wed Jul 02 18:45:00 BST 2025
User: adleo
Spectrometer: MAYP116268
Trigger mode: 0
Integration Time (sec): 1.000000E0
Scans to average: 1
Electric dark correction enabled: true
Nonlinearity correction enabled: true
Boxcar width: 10
XAxis mode: Wavelengths
Number of Pixels in Spectrum: 2068
>>>>>Begin Spectral Data<<<<<
179.565	1139.96
179.642	1191.51
179.718	1229.45
179.795	1267.18
179.871	1299.54
179.948	1312.39
180.024	1330.43
180.101	1351.66
180.177	1364.26
180.254	1387.27
180.33	1410.84
180.407	1458.69
180.483	1549.86
180.56	1635.09
180.636	1715.7
180.712	1705.01
180.789	1714.56
180.865	1723.39
180.942	1731.8
181.018	1743.73
181.095	1754.47
181.171	1762.03
181.248	1763.55
181.324	1779.43
181.4	1785.94
181.477	1793.97
181.553	1808.65
181.63	1829.28
181.706	1846.25
181.782	1854.99
181.859	1853.9
181.935	1854.52
182.011	1852.04
182.088	1864.83
182.164	1881.9
182.24	1894.59
182.317	1903.86
182.393	1905.24
182.469	1919.83
182.546	1934.95
182.622	1936.38
182.698	1931.43
182.775	1940.37
182.851	1953.59
182.927	1951.97
183.003	1947.12
183.08	1943.7
183.156	1951.07
183.232	1949.12
183.308	1936.14
183.385	1943.41
183.461	1958.82
183.537	1960.1
183.613	1971.85
183.69	1964.57
183.766	1955.01
183.842	1961.15
183.918	1965.38
183.995	1976.31
184.071	1978.26
184.147	1972.18
184.223	1962.48
184.299	1975.08
184.375	1966
184.452	1970.71
184.528	2023.28
184.604	2032.41
184.68	2043.06
184.756	2052.24
184.832	2056.38
184.908	2060.94
184.985	2061.27
185.061	2048.29
185.137	2058.57
185.213	2046.39
185.289	2048.68
185.365	2042.64
185.441	2041.59
185.517	2054.1
185.593	2047.25
185.669	2046.64
185.745	2056.58
185.822	2074.17
185.898	2065.13
185.974	2073.21
186.05	2067.79
186.126	2025.25
186.202	2020.92
186.278	2015.69
186.354	2005.18
186.43	2012.03
186.506	2010.32
186.582	2009.42
186.658	2013.84
186.734	1997.25
186.81	2002.86
186.886	2005.95
186.962	2015.6
187.038	2012.13
187.114	2005.18
187.19	2015.31
187.266	2004.37
187.341	2003.52
187.417	1995.48
187.493	1996.2
187.569	1999.29
187.645	1994.86
187.721	1983.45
187.797	1991.01
187.873	1997.19
187.949	1994.34
188.025	1985.4
188.101	1989.34
188.176	1994.24
188.252	1990.34
188.328	1992.48
188.404	1992.24
188.48	1986.68
188.556	1980.17
188.632	1980.26
188.707	1983.54
188.783	1978.98
188.859	1973.94
188.935	1962.62
189.011	1968.75
189.086	1964.62
189.162	1957.29
189.238	1950.92
189.314	1949.88
189.39	1942.75
189.465	1937.28
189.541	1949.21
189.617	1933.48
189.693	1927.63
189.768	1931.53
189.844	1954.17
189.92	1951.51
189.996	1959.5
190.071	1970.29
190.147	1972.58
190.223	1981.47
190.298	1971.67
190.374	1959.36
190.45	1972.34
190.526	1981.94
190.601	1976.14
190.677	1976.24
190.753	2001.74
190.828	2007.39
190.904	2021.14
190.98	2036.31
191.055	2043.54
191.131	2037.07
191.207	2061.47
191.282	2071.97
191.358	2064.22
191.433	2051.57
191.509	2060.64
191.585	2056.7
191.66	2058.93
191.736	2065.16
191.811	2055.79
191.887	2073.54
191.963	2097.94
192.038	2101.07
192.114	2102.6
192.189	2106.92
192.265	2102.6
192.34	2079
192.416	2080
192.491	2076.33
192.567	2077.33
192.642	2079.42
192.718	2081.04
192.793	2066.73
192.869	2062.97
192.944	2064.63
193.02	2071.1
193.095	2076.9
193.171	2080.95
193.246	2081.66
193.322	2079.66
193.397	2079.81
193.473	2063.01
193.548	2044.75
193.624	2052.69
193.699	2051.45
193.775	2066.3
193.85	2071.34
193.925	2082.28
194.001	2079.99
194.076	2070.29
194.152	2059.83
194.227	2053.45
194.302	2044.13
194.378	2050.12
194.453	2047.7
194.529	2058.02
194.604	2043.42
194.679	2037.43
194.755	2023.31
194.83	2032.02
194.905	2027.12
194.981	2036.01
195.056	2033.02
195.131	2037.82
195.207	2035.2
195.282	2025.26
195.357	2006.9
195.433	2021.88
195.508	2011.89
195.583	2020.31
195.659	2037.72
195.734	2047.47
195.809	2047
195.884	2054.89
195.96	2054.98
196.035	2069.35
196.11	2064.78
196.185	2078.05
196.261	2082.47
196.336	2108.3
196.411	2093.88
196.486	2101.92
196.561	2094.26
196.637	2100.4
196.712	2120.38
196.787	2122.95
196.862	2141.07
196.937	2152.68
197.013	2157.67
197.088	2166.38
197.163	2187.8
197.238	2202.27
197.313	2202.41
197.388	2218.64
197.464	2250.86
197.539	2262.42
197.614	2256.28
197.689	2270.42
197.764	2286.6
197.839	2303.82
197.914	2300.16
197.989	2321.86
198.065	2335.47
198.14	2384.33
198.215	2410.46
198.29	2416.69
198.365	2429.59
198.44	2433.59
198.515	2457.68
198.59	2469.06
198.665	2494.68
198.74	2500.25
198.815	2504.44
198.89	2526.53
198.965	2554.64
199.04	2547.64
199.115	2559.73
199.19	2601.4
199.265	2600.02
199.34	2607.78
199.415	2640.75
199.49	2661.75
199.565	2670.99
199.64	2695.14
199.715	2694.57
199.79	2703.24
199.865	2713.25
199.94	2712.68
200.015	2743.93
200.09	2751.6
200.165	2759.37
200.24	2764.04
200.315	2804.33
200.39	2816.25
200.464	2821.15
200.539	2820.73
200.614	2836.45
200.689	2860.85
200.764	2866.14
200.839	2889.15
200.914	2893.86
200.989	2885.61
201.063	2900.58
201.138	2886.58
201.213	2884.29
201.288	2864.51
201.363	2866.94
201.438	2867.09
201.512	2882.24
201.587	2867.46
201.662	2871.13
201.737	2882.19
201.812	2891.53
201.886	2856.14
201.961	2864.39
202.036	2852.1
202.111	2847.19
202.186	2820.8
202.26	2804.93
202.335	2786.06
202.41	2777.53
202.485	2761.14
202.559	2742.56
202.634	2717.5
202.709	2727.78
202.784	2711.49
202.858	2712.87
202.933	2695.91
203.008	2688.81
203.082	2668.81
203.157	2668.66
203.232	2625.38
203.306	2604.8
203.381	2575.02
203.456	2553.26
203.53	2532.86
203.605	2515.53
203.68	2493.52
203.754	2487.05
203.829	2471.24
203.904	2450.29
203.978	2436.91
204.053	2441.34
204.127	2428.44
204.202	2425.58
204.277	2406.68
204.351	2397.02
204.426	2387.21
204.5	2378.54
204.575	2345.66
204.65	2359.18
204.724	2351.28
204.799	2361.55
204.873	2359.79
204.948	2357.98
205.022	2349.7
205.097	2339.37
205.171	2352.26
205.246	2361.45
205.32	2358.46
205.395	2358.88
205.469	2351.56
205.544	2358.84
205.618	2344.61
205.693	2355.61
205.767	2343.42
205.842	2363.51
205.916	2361.04
205.991	2354.71
206.065	2361.32
206.14	2374.74
206.214	2365.97
206.289	2359.02
206.363	2371.49
206.438	2373.35
206.512	2381.11
206.586	2401.48
206.661	2410.39
206.735	2390.78
206.81	2392.93
206.884	2409.77
206.958	2396.83
207.033	2414.2
207.107	2423.49
207.181	2455.49
207.256	2451.35
207.33	2471.25
207.405	2486.74
207.479	2508.59
207.553	2517.68
207.628	2506.02
207.702	2522.16
207.776	2523.69
207.851	2534.69
207.925	2553.6
207.999	2560.84
208.073	2569.03
208.148	2578.18
208.222	2575.61
208.296	2617.22
208.371	2645.3
208.445	2668.02
208.519	2712.32
208.593	2737.33
208.668	2751.39
208.742	2770.95
208.816	2791.43
208.89	2828.04
208.965	2850.23
209.039	2880.6
209.113	2922.88
209.187	2970.33
209.261	2993.35
209.336	3046.05
209.41	3097.28
209.484	3133.49
209.558	3192.08
209.632	3240.6
209.707	3295.23
209.781	3362.8
209.855	3424.67
209.929	3491.57
210.003	3546.75
210.077	3599.76
210.151	3704.63
210.226	3794.18
210.3	3883.98
210.374	3974.55
210.448	4045.73
210.522	4126.16
210.596	4209.41
210.67	4296.45
210.744	4419.34
210.818	4537.84
210.892	4639.45
210.966	4721.37
211.041	4828.45
211.115	4917.98
211.189	5035.77
211.263	5148.52
211.337	5258.51
211.411	5376.13
211.485	5481.24
211.559	5606.7
211.633	5723.78
211.707	5810.43
211.781	5936.45
211.855	6024.07
211.929	6142.23
212.003	6247.62
212.077	6379.59
212.151	6521.81
212.225	6659.09
212.299	6780.16
212.373	6899.7
212.447	7035.31
212.52	7203.82
212.594	7345.31
212.668	7495.07
212.742	7623.81
212.816	7764.74
212.89	7900.57
212.964	8044.69
213.038	8191.82
213.112	8355.69
213.186	8513.97
213.26	8647.53
213.333	8763.14
213.407	8919.44
213.481	9071.82
213.555	9241.72
213.629	9387.23
213.703	9526.01
213.777	9682.77
213.85	9823.93
213.924	10017.13
213.998	10172.82
214.072	10320.19
214.146	10465.01
214.219	10619.14
214.293	10772.97
214.367	10924.31
214.441	11094.21
214.515	11238.06
214.588	11364.32
214.662	11479.31
214.736	11612.42
214.81	11761.43
214.883	11917.58
214.957	12053.4
215.031	12187.92
215.105	12313
215.178	12444.06
215.252	12577.82
215.326	12696.35
215.4	12820.81
215.473	12915.54
215.547	13033.64
215.621	13151.36
215.694	13290.53
215.768	13402.17
215.842	13519.12
215.915	13635.97
215.989	13731.22
216.063	13844.65
216.136	13972.25
216.21	14089.68
216.284	14230.58
216.357	14354.37
216.431	14462.64
216.504	14598.67
216.578	14743.72
216.652	14868.33
216.725	14982.04
216.799	15115.07
216.873	15233.51
216.946	15347.75
217.02	15450.18
217.093	15557.38
217.167	15647.47
217.24	15743.82
217.314	15855.74
217.387	15963.8
217.461	16059.96
217.535	16185.32
217.608	16280.66
217.682	16382.69
217.755	16493.36
217.829	16577.12
217.902	16682
217.976	16774.78
218.049	16850.68
218.123	16921.09
218.196	17021.87
218.27	17106.74
218.343	17167.85
218.417	17249.25
218.49	17339.81
218.563	17441.35
218.637	17525.93
218.71	17643.32
218.784	17730.17
218.857	17812.53
218.931	17891.56
219.004	17980.72
219.077	18066.83
219.151	18151.55
219.224	18220.8
219.298	18304.7
219.371	18392.89
219.444	18447.2
219.518	18529.13
219.591	18601.51
219.665	18703.43
219.738	18766.75
219.811	18830.8
219.885	18911.8
219.958	18988.23
220.031	19048.71
220.105	19115.7
220.178	19178.49
220.251	19231.3
220.325	19295.73
220.398	19359.97
220.471	19438.14
220.544	19505.51
220.618	19553.94
220.691	19616.39
220.764	19682.99
220.838	19740.39
220.911	19781.54
220.984	19861.78
221.057	19920.47
221.131	19978.69
221.204	20001.34
221.277	20078.69
221.35	20161.38
221.424	20206.97
221.497	20260.8
221.57	20311.4
221.643	20369.04
221.716	20430.73
221.79	20470.68
221.863	20513.24
221.936	20557.28
222.009	20591.07
222.082	20630.39
222.155	20659.6
222.229	20702.78
222.302	20737.05
222.375	20772.52
222.448	20824.52
222.521	20854.98
222.594	20897.49
222.667	20917.63
222.74	20960.81
222.814	20978.74
222.887	21003.81
222.96	21047.13
223.033	21081.98
223.106	21115.72
223.179	21144.01
223.252	21173.36
223.325	21204.45
223.398	21235.87
223.471	21267.44
223.544	21295.98
223.617	21325.57
223.69	21360.75
223.763	21383.6
223.837	21415.36
223.91	21441.39
223.983	21442.98
224.056	21453.97
224.129	21470.98
224.202	21507.95
224.275	21523.38
224.348	21534.75
224.42	21548.73
224.493	21554.75
224.566	21570.03
224.639	21590.57
224.712	21598.42
224.785	21612.74
224.858	21622.52
224.931	21628.84
225.004	21629.03
225.077	21641.85
225.15	21629.66
225.223	21638.58
225.296	21673.33
225.369	21671.26
225.442	21672.41
225.514	21691.31
225.587	21709.82
225.66	21720.28
225.733	21733.48
225.806	21749.54
225.879	21750.64
225.952	21741.78
226.025	21762.6
226.097	21782.36
226.17	21795.81
226.243	21793.11
226.316	21787.33
226.389	21792.15
226.461	21804.05
226.534	21815.53
226.607	21813.55
226.68	21847.68
226.753	21849.65
226.825	21829.26
226.898	21854.18
226.971	21863.29
227.044	21867.58
227.117	21870.09
227.189	21884.26
227.262	21896.02
227.335	21894.38
227.407	21897.13
227.48	21904.84
227.553	21900.17
227.626	21891.68
227.698	21880.6
227.771	21877.51
227.844	21880.02
227.916	21874.09
227.989	21863.73
228.062	21857.22
228.134	21883.11
228.207	21872.79
228.28	21864.26
228.352	21863.63
228.425	21856.98
228.498	21862.81
228.57	21854.91
228.643	21868.64
228.716	21861.99
228.788	21846.86
228.861	21838.42
228.934	21853.51
229.006	21848.01
229.079	21842.95
229.151	21834.23
229.224	21825.17
229.296	21831.43
229.369	21845.17
229.442	21862.67
229.514	21848.16
229.587	21868.26
229.659	21840.06
229.732	21844.69
229.804	21856.88
229.877	21869.32
229.949	21876.41
230.022	21885.56
230.094	21888.26
230.167	21870.04
230.239	21847.92
230.312	21842.66
230.384	21860.55
230.457	21855.49
230.529	21862.43
230.602	21858.33
230.674	21851
230.747	21859.49
230.819	21867.34
230.892	21832.4
230.964	21821.84
231.037	21822.8
231.109	21801.6
231.181	21796.68
231.254	21783.18
231.326	21775.71
231.399	21770.79
231.471	21746.02
231.544	21715.36
231.616	21710.97
231.688	21709.96
231.761	21690.01
231.833	21667.79
231.905	21635.3
231.978	21614.67
232.05	21595.05
232.122	21589.41
232.195	21574.37
232.267	21576.49
232.339	21548.73
232.412	21551.19
232.484	21535.76
232.556	21520.87
232.629	21530.66
232.701	21525.35
232.773	21499.04
232.846	21478.55
232.918	21449.83
232.99	21436.43
233.062	21427.75
233.135	21415.07
233.207	21386.15
233.279	21385.58
233.351	21382.92
233.424	21351.84
233.496	21330.82
233.568	21327.21
233.64	21286.24
233.713	21269.13
233.785	21236.45
233.857	21221.66
233.929	21185.85
234.001	21181.17
234.074	21166.23
234.146	21118.61
234.218	21100.1
234.29	21085.26
234.362	21048
234.434	21017.59
234.507	20979.37
234.579	20949.39
234.651	20923.13
234.723	20906.55
234.795	20881.1
234.867	20854.88
234.939	20858.01
235.012	20836.42
235.084	20819.22
235.156	20809.24
235.228	20783.17
235.3	20755.55
235.372	20732.42
235.444	20718.35
235.516	20668.75
235.588	20648.22
235.66	20619.02
235.732	20586.58
235.804	20610.87
235.876	20598.73
235.948	20590.1
236.02	20570.25
236.092	20543.16
236.164	20510.2
236.236	20471.64
236.308	20437.52
236.38	20416.32
236.452	20376.42
236.524	20349.62
236.596	20330.97
236.668	20311.36
236.74	20279.55
236.812	20252.47
236.884	20219.6
236.956	20192.71
237.028	20155.21
237.1	20111.84
237.172	20104.13
237.244	20091.22
237.316	20020.28
237.388	19983.31
237.46	19931.94
237.532	19922.21
237.604	19877.34
237.675	19867.08
237.747	19854.69
237.819	19826.55
237.891	19792.04
237.963	19756.67
238.035	19726.65
238.107	19660.53
238.178	19643.13
238.25	19609.88
238.322	19599.67
238.394	19564.2
238.466	19526.27
238.538	19506.32
238.609	19479.14
238.681	19430.38
238.753	19386.47
238.825	19364.98
238.897	19326.53
238.968	19318.96
239.04	19271.35
239.112	19272.12
239.184	19216.75
239.255	19178.92
239.327	19148.18
239.399	19117.62
239.471	19087.36
239.542	19059.6
239.614	19048.09
239.686	18981.49
239.758	18955.66
239.829	18914.79
239.901	18895.66
239.973	18867.13
240.044	18832.34
240.116	18807.62
240.188	18772.2
240.259	18739
240.331	18695.58
240.403	18682.32
240.474	18634.66
240.546	18588.59
240.618	18541.95
240.689	18511.11
240.761	18475.88
240.833	18457.37
240.904	18412.22
240.976	18383.26
241.048	18347.89
241.119	18319.93
241.191	18296.9
241.262	18274.59
241.334	18230.2
241.405	18188.47
241.477	18146.35
241.549	18108.04
241.62	18082.11
241.692	18050.16
241.763	18025.35
241.835	17994.55
241.906	17958.55
241.978	17910.65
242.049	17900.39
242.121	17872.34
242.192	17843.28
242.264	17795.23
242.335	17744.34
242.407	17726.99
242.478	17684.73
242.55	17654.85
242.621	17602.9
242.693	17559.96
242.764	17527.96
242.836	17489.07
242.907	17459.53
242.979	17434.08
243.05	17413.07
243.122	17381.98
243.193	17354.71
243.264	17302.13
243.336	17256.44
243.407	17229.02
243.479	17217.64
243.55	17179.09
243.622	17147.14
243.693	17113.55
243.764	17095.18
243.836	17051.09
243.907	17017.16
243.978	16978.22
244.05	16938.7
244.121	16895.8
244.192	16876.43
244.264	16829.25
244.335	16799.8
244.407	16746.83
244.478	16716.71
244.549	16681.19
244.62	16624.32
244.692	16590.53
244.763	16560.41
244.834	16520.84
244.906	16470.09
244.977	16437.07
245.048	16419
245.119	16368.59
245.191	16329.35
245.262	16268.48
245.333	16250.65
245.405	16213.29
245.476	16192.28
245.547	16162.78
245.618	16140.66
245.689	16104.22
245.761	16073.47
245.832	16041.42
245.903	16022.43
245.974	15982.71
246.045	15936.25
246.117	15924.25
246.188	15879.42
246.259	15831.51
246.33	15799.36
246.401	15771.6
246.473	15727.64
246.544	15693.32
246.615	15678.86
246.686	15644.16
246.757	15643.92
246.828	15604.63
246.899	15590.66
246.97	15539.71
247.042	15500.42
247.113	15472.61
247.184	15467.07
247.255	15424.07
247.326	15394.86
247.397	15360.88
247.468	15338.42
247.539	15317.02
247.61	15280
247.681	15252.96
247.752	15252.23
247.823	15223.99
247.894	15197.14
247.965	15151.34
248.037	15107
248.108	15054.36
248.179	15027.17
248.25	14989.57
248.321	14968.65
248.392	14924.07
248.463	14922.81
248.534	14891.24
248.605	14871.43
248.675	14826.17
248.746	14804.81
248.817	14781.58
248.888	14765.14
248.959	14720.79
249.03	14691.92
249.101	14647.18
249.172	14615.27
249.243	14559.5
249.314	14542.72
249.385	14515.01
249.456	14492.49
249.527	14458.32
249.598	14430.89
249.669	14400.57
249.739	14374.1
249.81	14352.12
249.881	14310.04
249.952	14277.16
250.023	14251.56
250.094	14208.76
250.165	14178.2
250.235	14152.31
250.306	14127.77
250.377	14080.92
250.448	14060.57
250.519	14018.01
250.59	14015.11
250.66	13986.09
250.731	13976.94
250.802	13942.76
250.873	13919.47
250.944	13893.35
251.014	13875.8
251.085	13885.68
251.156	13866.78
251.227	13852.85
251.297	13830.39
251.368	13816.99
251.439	13805.03
251.51	13791.97
251.58	13760.34
251.651	13731.56
251.722	13720.33
251.792	13678.44
251.863	13656.27
251.934	13644.84
252.005	13646.34
252.075	13617.07
252.146	13604.88
252.217	13594.13
252.287	13586.03
252.358	13561.97
252.429	13565.64
252.499	13532.57
252.57	13500.13
252.641	13480.5
252.711	13457.08
252.782	13424.92
252.852	13416.97
252.923	13387.03
252.994	13369.63
253.064	13351.46
253.135	13315.16
253.205	13278.91
253.276	13273.17
253.347	13263.48
253.417	13238.94
253.488	13208.19
253.558	13183.84
253.629	13152.07
253.699	13122.81
253.77	13092.2
253.841	13059.86
253.911	13035.66
253.982	13014.64
254.052	13000.08
254.123	12985.23
254.193	12963.3
254.264	12976.17
254.334	12950.72
254.405	12919
254.475	12885.06
254.546	12867.95
254.616	12860.91
254.687	12845.15
254.757	12823.07
254.827	12794.63
254.898	12769.46
254.968	12752.78
255.039	12722.56
255.109	12709.45
255.18	12680.48
255.25	12644.42
255.321	12634.39
255.391	12596.12
255.461	12592.89
255.532	12544.97
255.602	12508
255.673	12463.51
255.743	12428.75
255.813	12377.42
255.884	12366.86
255.954	12351.34
256.024	12346.32
256.095	12326.27
256.165	12294.22
256.235	12275.17
256.306	12250.25
256.376	12236.56
256.446	12222.1
256.517	12213.09
256.587	12207.11
256.657	12190.1
256.728	12174.24
256.798	12149.85
256.868	12129.94
256.938	12099.19
257.009	12090.9
257.079	12077.21
257.149	12078.65
257.219	12040.52
257.29	12028.19
257.36	11990.11
257.43	11974.83
257.5	11932.65
257.571	11917.76
257.641	11909.95
257.711	11873.94
257.781	11867
257.852	11853.02
257.922	11823.81
257.992	11800.77
258.062	11780.82
258.132	11774.26
258.202	11760.19
258.273	11747.9
258.343	11747.66
258.413	11717.87
258.483	11699.89
258.553	11674.98
258.623	11651.16
258.693	11637.48
258.764	11632.46
258.834	11630.2
258.904	11610.73
258.974	11582.77
259.044	11555.25
259.114	11535.25
259.184	11522.86
259.254	11501.71
259.324	11463.1
259.394	11444.06
259.464	11443.53
259.535	11419.63
259.605	11387.48
259.675	11355.1
259.745	11338.85
259.815	11305.69
259.885	11287.72
259.955	11292.92
260.025	11279.48
260.095	11258.85
260.165	11243.09
260.235	11245.45
260.305	11213.07
260.375	11187.04
260.445	11192.44
260.515	11189.36
260.585	11184.97
260.655	11171.81
260.725	11162.8
260.795	11163.24
260.865	11160.05
260.934	11129.11
261.004	11119.52
261.074	11108.2
261.144	11113.16
261.214	11102.08
261.284	11086.27
261.354	11080.78
261.424	11057.45
261.494	11054.56
261.564	11039.67
261.634	11030.13
261.703	10989.89
261.773	10980.25
261.843	10971.92
261.913	10958.04
261.983	10925.46
262.053	10917.75
262.123	10898.48
262.192	10860.89
262.262	10847.16
262.332	10817.91
262.402	10812.51
262.472	10788.46
262.541	10748.28
262.611	10733.58
262.681	10711.47
262.751	10701.3
262.821	10681.69
262.89	10650.61
262.96	10629.02
263.03	10633.55
263.1	10618.71
263.169	10605.65
263.239	10604.78
263.309	10608.16
263.379	10595.1
263.448	10579.39
263.518	10557.13
263.588	10542.87
263.657	10550.67
263.727	10544.6
263.797	10532.56
263.867	10507.65
263.936	10485.68
264.006	10487.31
264.076	10477.68
264.145	10455.42
264.215	10433.4
264.285	10422.27
264.354	10393.17
264.424	10372.07
264.494	10330.2
264.563	10315.51
264.633	10320.91
264.702	10305.58
264.772	10268.53
264.842	10250.23
264.911	10242.52
264.981	10220.26
265.05	10206.48
265.12	10193.09
265.19	10180.7
265.259	10173.33
265.329	10169.19
265.398	10160.66
265.468	10174.39
265.537	10149.97
265.607	10150.74
265.676	10148.91
265.746	10140.72
265.815	10139.08
265.885	10131.62
265.955	10118.85
266.024	10098.81
266.094	10059.22
266.163	10053.29
266.232	10057.53
266.302	10040.14
266.371	10032.19
266.441	10014.71
266.51	10007.77
266.58	9984.26
266.649	9954.88
266.719	9950.73
266.788	9939.85
266.858	9942.79
266.927	9904.59
266.996	9899.72
267.066	9885.75
267.135	9857.58
267.205	9855.5
267.274	9841.3
267.343	9836.19
267.413	9833.11
267.482	9827.52
267.552	9831.52
267.621	9806.66
267.69	9774.44
267.76	9766.64
267.829	9756.86
267.898	9749.15
267.968	9727.43
268.037	9723.15
268.106	9725.51
268.176	9698.82
268.245	9686.35
268.314	9667.42
268.384	9664.87
268.453	9650.32
268.522	9641.84
268.592	9645.36
268.661	9625.81
268.73	9619.69
268.799	9605.43
268.869	9600.76
268.938	9577.36
269.007	9559.06
269.076	9551.98
269.146	9556.79
269.215	9544.85
269.284	9547.07
269.353	9531.56
269.422	9521.74
269.492	9502.67
269.561	9463.28
269.63	9459.62
269.699	9440.45
269.768	9430.92
269.838	9421.53
269.907	9421
269.976	9395.52
270.045	9363.5
270.114	9359.79
270.183	9343.37
270.253	9330.76
270.322	9303.17
270.391	9293.78
270.46	9297.63
270.529	9288.72
270.598	9277.74
270.667	9266.38
270.736	9241.53
270.806	9233.35
270.875	9231.47
270.944	9224.3
271.013	9246.01
271.082	9240.09
271.151	9238.74
271.22	9206.58
271.289	9190.45
271.358	9180.58
271.427	9178.85
271.496	9173.17
271.565	9154.77
271.634	9151.21
271.703	9153.52
271.772	9158.96
271.841	9146.88
271.91	9123
271.979	9117.32
272.048	9094.35
272.117	9093.87
272.186	9076.15
272.255	9078.8
272.324	9075.82
272.393	9068.06
272.462	9046.88
272.531	9040.14
272.6	9032.1
272.669	9042.01
272.738	9032.96
272.807	9019.48
272.876	8999.75
272.945	9025.89
273.013	9027.09
273.082	9026.03
273.151	9003.46
273.22	8997.15
273.289	8988
273.358	8997.29
273.427	8981.6
273.496	8979.24
273.564	8974.72
273.633	8979.34
273.702	8957.15
273.771	8948.19
273.84	8945.35
273.909	8945.4
273.977	8937.02
274.046	8926.58
274.115	8926.58
274.184	8911.37
274.253	8904.39
274.322	8911.75
274.39	8880.65
274.459	8861.25
274.528	8838.05
274.597	8825.59
274.665	8824.53
274.734	8831.7
274.803	8822.98
274.872	8821.2
274.94	8812.3
275.009	8836.33
275.078	8823.43
275.147	8823.52
275.215	8820.63
275.284	8826.27
275.353	8817.65
275.421	8797.39
275.49	8807.35
275.559	8798.21
275.627	8796.67
275.696	8789.59
275.765	8789.73
275.833	8776.26
275.902	8774.91
275.971	8784.01
276.039	8807.06
276.108	8802.68
276.177	8803.74
276.245	8788.92
276.314	8784.87
276.383	8791.66
276.451	8756.66
276.52	8754.3
276.588	8763.45
276.657	8763.4
276.725	8750.21
276.794	8742.32
276.863	8753.34
276.931	8726.86
277	8728.11
277.068	8734.13
277.137	8750.3
277.205	8749.87
277.274	8768.11
277.342	8779.86
277.411	8761.81
277.48	8746.65
277.548	8740.63
277.617	8736.25
277.685	8730.38
277.754	8733.84
277.822	8720.37
277.89	8735.87
277.959	8732.26
278.027	8709.06
278.096	8695.68
278.164	8719.56
278.233	8716.72
278.301	8706.03
278.37	8716.77
278.438	8714.26
278.507	8715.61
278.575	8689.52
278.643	8681.97
278.712	8668.01
278.78	8655.59
278.849	8668.01
278.917	8669.93
278.985	8664.88
279.054	8667.86
279.122	8682.44
279.191	8676.57
279.259	8678.98
279.327	8654.77
279.396	8670.22
279.464	8674.79
279.532	8680.95
279.601	8676.81
279.669	8675.56
279.737	8686.96
279.806	8686.24
279.874	8691.87
279.942	8687.59
280.011	8681.19
280.079	8692.12
280.147	8710.41
280.215	8714.35
280.284	8709.59
280.352	8701.6
280.42	8705.93
280.488	8698.37
280.557	8688.02
280.625	8694.38
280.693	8686.78
280.761	8687.64
280.83	8670.94
280.898	8677.73
280.966	8661.46
281.034	8625.75
281.102	8613.09
281.171	8605.73
281.239	8614.73
281.307	8602.46
281.375	8595.77
281.443	8620.94
281.512	8613.77
281.58	8618.77
281.648	8604.67
281.716	8599.86
281.784	8596.01
281.852	8591.77
281.92	8590.19
281.989	8600.87
282.057	8583.3
282.125	8631.06
282.193	8634.04
282.261	8632.88
282.329	8632.69
282.397	8640.34
282.465	8647.37
282.533	8660.55
282.601	8651.65
282.67	8624.46
282.738	8616.86
282.806	8629.03
282.874	8612.04
282.942	8612.09
283.01	8600.78
283.078	8600.78
283.146	8592.69
283.214	8601.21
283.282	8598.32
283.35	8603.86
283.418	8599.67
283.486	8604
283.554	8558.66
283.622	8557.79
283.69	8561.64
283.758	8552.5
283.826	8552.45
283.894	8561.88
283.962	8578.82
284.03	8587.25
284.098	8588.59
284.165	8582.82
284.233	8573.15
284.301	8570.16
284.369	8561.98
284.437	8554.76
284.505	8553.41
284.573	8571.12
284.641	8561.26
284.709	8575.21
284.777	8560.68
284.845	8562.75
284.912	8565.88
284.98	8572.37
285.048	8561.26
285.116	8560.2
285.184	8575.98
285.252	8576.8
285.319	8563.09
285.387	8554.18
285.455	8542.83
285.523	8552.4
285.591	8550.67
285.659	8560.2
285.726	8575.7
285.794	8562.17
285.862	8556.5
285.93	8562.03
285.997	8561.45
286.065	8559.14
286.133	8542.34
286.201	8539.36
286.269	8521.46
286.336	8514.34
286.404	8509.19
286.472	8518.43
286.539	8500.24
286.607	8484.36
286.675	8484.89
286.743	8490.32
286.81	8485.03
286.878	8495.28
286.946	8485.13
287.013	8487.05
287.081	8474.68
287.149	8457.07
287.216	8475.5
287.284	8475.93
287.352	8469.29
287.419	8460
287.487	8470.54
287.555	8476.13
287.622	8476.46
287.69	8487.48
287.758	8497.59
287.825	8490.08
287.893	8480.41
287.96	8488.4
288.028	8496.91
288.096	8499.51
288.163	8502.74
288.231	8487.77
288.298	8484.79
288.366	8501.34
288.433	8500.04
288.501	8501.58
288.569	8503.17
288.636	8491.72
288.704	8496.72
288.771	8507.89
288.839	8504.18
288.906	8502.54
288.974	8517.8
289.041	8518.04
289.109	8506.54
289.176	8515.83
289.244	8522.28
289.311	8534.55
289.379	8545.23
289.446	8545.76
289.514	8545.04
289.581	8540.61
289.649	8543.64
289.716	8548.31
289.783	8540.95
289.851	8557.84
289.918	8559.09
289.986	8572.18
290.053	8581.95
290.121	8582.05
290.188	8583.59
290.255	8611.31
290.323	8606.54
290.39	8597.06
290.458	8602.5
290.525	8617.9
290.592	8606.83
290.66	8608.32
290.727	8606.54
290.794	8620.64
290.862	8618.91
290.929	8622.08
290.996	8626.66
291.064	8640.76
291.131	8653.13
291.198	8666.51
291.266	8665.74
291.333	8665.11
291.4	8670.41
291.468	8687.64
291.535	8687.01
291.602	8693.75
291.669	8687.83
291.737	8693.46
291.804	8691.05
291.871	8708.96
291.938	8715.41
292.006	8752.67
292.073	8765.86
292.14	8775.67
292.207	8765.81
292.275	8768.5
292.342	8780.78
292.409	8809.27
292.476	8829.64
292.543	8821.74
292.611	8818.71
292.678	8833.1
292.745	8857.17
292.812	8864.48
292.879	8859.28
292.946	8866.12
293.014	8874.74
293.081	8878.49
293.148	8890.86
293.215	8909.15
293.282	8897.65
293.349	8903.42
293.416	8874.88
293.484	8888.98
293.551	8900.34
293.618	8918.82
293.685	8946.02
293.752	8938.9
293.819	8930.33
293.886	8920.36
293.953	8925.71
294.02	8941.83
294.087	8953.2
294.154	8947.42
294.221	8956.9
294.288	8957.96
294.356	8969.61
294.423	8977.7
294.49	8971.06
294.557	8985.55
294.624	8977.17
294.691	9001
294.758	9007.93
294.825	9018.09
294.892	9007.02
294.959	9003.36
295.026	9004.66
295.093	8996.38
295.16	8997.15
295.226	9001.72
295.293	9022.71
295.36	9034.7
295.427	9041.01
295.494	9044.52
295.561	9056.7
295.628	9083.47
295.695	9096.71
295.762	9102.88
295.829	9110
295.896	9130.17
295.963	9139.13
296.03	9143.7
296.096	9148.85
296.163	9153.19
296.23	9169.07
296.297	9185.54
296.364	9189.68
296.431	9199.89
296.498	9197.38
296.564	9215.48
296.631	9217.65
296.698	9208.79
296.765	9224.1
296.832	9215.48
296.899	9207.59
296.965	9227.57
297.032	9208.74
297.099	9230.8
297.166	9237.44
297.233	9230.17
297.299	9217.27
297.366	9216.64
297.433	9224.01
297.5	9233.2
297.566	9235.27
297.633	9231.62
297.7	9237.78
297.767	9238.93
297.833	9242.55
297.9	9243.56
297.967	9231.95
298.033	9246.01
298.1	9276.11
298.167	9269.32
298.234	9275.58
298.3	9284.92
298.367	9275.53
298.434	9275.87
298.5	9256.37
298.567	9257.18
298.634	9257.86
298.7	9283.71
298.767	9278.9
298.834	9296.67
298.9	9290.69
298.967	9281.35
299.033	9296.43
299.1	9310.49
299.167	9325.17
299.233	9323.06
299.3	9337.74
299.366	9353.77
299.433	9364.66
299.5	9331.57
299.566	9331.24
299.633	9349.34
299.699	9358.68
299.766	9351.9
299.832	9358.35
299.899	9370.58
299.965	9386.13
300.032	9383.49
300.099	9389.5
300.165	9397.88
300.232	9389.17
300.298	9386.66
300.365	9408.28
300.431	9405.54
300.498	9400.43
300.564	9400.48
300.631	9411.89
300.697	9425.81
300.763	9427.64
300.83	9426
300.896	9449.98
300.963	9460.63
301.029	9460.82
301.096	9463.8
301.162	9474.93
301.229	9471.65
301.295	9465.92
301.361	9461.44
301.428	9470.64
301.494	9450.8
301.561	9457.93
301.627	9464.52
301.693	9470.98
301.76	9471.94
301.826	9468.62
301.892	9479.69
301.959	9485.14
302.025	9480.75
302.092	9477.09
302.158	9486.24
302.224	9488.02
302.291	9471.46
302.357	9474.25
302.423	9473.19
302.49	9464.19
302.556	9483.55
302.622	9483.02
302.688	9489.04
302.755	9499.1
302.821	9510.23
302.887	9523.47
302.954	9518.99
303.02	9525.44
303.086	9534.11
303.152	9531.99
303.219	9531.17
303.285	9533.05
303.351	9542.78
303.417	9545.57
303.483	9536.14
303.55	9525.25
303.616	9525.49
303.682	9527.08
303.748	9519.47
303.815	9528.67
303.881	9536.91
303.947	9520.15
304.013	9521.21
304.079	9515.24
304.145	9496.07
304.212	9487.5
304.278	9481.14
304.344	9475.22
304.41	9461.97
304.476	9450.37
304.542	9450.32
304.608	9455.14
304.674	9435.44
304.741	9423.01
304.807	9424.6
304.873	9427.11
304.939	9450.9
305.005	9430.43
305.071	9428.22
305.137	9424.94
305.203	9399.52
305.269	9399.27
305.335	9413.58
305.401	9415.89
305.467	9412.42
305.533	9426.68
305.599	9434.53
305.666	9448.59
305.732	9450.95
305.798	9461.3
305.864	9483.5
305.93	9481.38
305.996	9478.25
306.062	9480.9
306.128	9478.88
306.194	9465.44
306.259	9467.08
306.325	9454.41
306.391	9467.75
306.457	9475.22
306.523	9480.85
306.589	9510.8
306.655	9508.4
306.721	9488.03
306.787	9470.88
306.853	9486.73
306.919	9468.09
306.985	9463.9
307.051	9450.27
307.117	9445.17
307.183	9436.21
307.248	9410.69
307.314	9412.57
307.38	9410.11
307.446	9412.42
307.512	9404.62
307.578	9410.21
307.644	9406.74
307.709	9404.48
307.775	9398.94
307.841	9393.74
307.907	9393.4
307.973	9364.07
308.039	9363.11
308.104	9370.67
308.17	9375.48
308.236	9365.03
308.302	9364.41
308.368	9351.7
308.433	9349.34
308.499	9345.05
308.565	9335.71
308.631	9337.2
308.696	9323.67
308.762	9312.21
308.828	9312.55
308.894	9297.67
308.959	9277.4
309.025	9268.21
309.091	9261.8
309.156	9253.42
309.222	9260.17
309.288	9249.38
309.354	9232.72
309.419	9221.94
309.485	9204.6
309.551	9204.12
309.616	9189.39
309.682	9187.41
309.748	9179.66
309.813	9172.15
309.879	9160.6
309.945	9152.7
310.01	9146.87
310.076	9141.67
310.141	9137.92
310.207	9119.86
310.273	9122.08
310.338	9123.33
310.404	9108.98
310.469	9095.79
310.535	9087.22
310.601	9060.69
310.666	9062.66
310.732	9072.92
310.797	9062.13
310.863	9050.97
310.928	9046.54
310.994	9045.14
311.059	9041.67
311.125	9041.96
311.191	9058.19
311.256	9049.91
311.322	9052.12
311.387	9033.64
311.453	9372.1
311.518	9349.96
311.584	9346.25
311.649	9352.56
311.715	9343.08
311.78	9334.89
311.846	9327.72
311.911	9329.5
311.976	9328.15
312.042	9309.57
312.107	9295.18
312.173	9286.56
312.238	9275.25
312.304	9273.71
312.369	9261.05
312.434	9251.76
312.5	9239.92
312.565	9204.63
312.631	9208.09
312.696	9197.89
312.761	9196.73
312.827	8852.49
312.892	8891.2
312.958	8884.55
313.023	8878.54
313.088	8879.07
313.154	8867.52
313.219	8857.17
313.284	8850.33
313.35	8847.11
313.415	8837.38
313.48	8831.99
313.546	8838.06
313.611	8853.75
313.676	8836.47
313.741	8831.51
313.807	8835.22
313.872	8841.23
313.937	8844.07
314.003	8853.7
314.068	8854.57
314.133	8857.17
314.198	8844.41
314.264	8818.94
314.329	8813.94
314.394	8804.07
314.459	8800.07
314.525	8819.42
314.59	8811.19
314.655	8798.53
314.72	8805.17
314.785	8809.84
314.851	8804.93
314.916	8790.98
314.981	8771.29
315.046	8768.55
315.111	8759.88
315.176	8742.79
315.242	8739.47
315.307	8742.17
315.372	8720.46
315.437	8712.04
315.502	8708.47
315.567	8714.01
315.632	8699.33
315.698	8700.73
315.763	8698.37
315.828	8691.44
315.893	8687.73
315.958	8691.1
316.023	8684.22
316.088	8660.15
316.153	8638.93
316.218	8629.35
316.283	8603.71
316.348	8585.18
316.413	8578.49
316.479	8564.83
316.544	8540
316.609	8508.72
316.674	8469.65
316.739	8438.95
316.804	8405.85
316.869	8367.36
316.934	8329.97
316.999	8302.11
317.064	8250.44
317.129	8206.42
317.194	8170.92
317.259	8119.63
317.324	8066.48
317.389	8014.34
317.454	7982.35
317.518	7952.1
317.583	7926.94
317.648	7900.34
317.713	7865.72
317.778	7811.03
317.843	7783.62
317.908	7744.09
317.973	7706.15
318.038	7678.41
318.103	7641.29
318.168	7607.73
318.233	7574.22
318.297	7527.2
318.362	7486.53
318.427	7444.52
318.492	7422.5
318.557	7373.53
318.622	7353.67
318.687	7331.81
318.751	7297.45
318.816	7260.34
318.881	7222.09
318.946	7169.17
319.011	7129.53
319.075	7089.74
319.14	7052.65
319.205	7001.67
319.27	6964.49
319.335	6921.02
319.399	6878.21
319.464	6850.4
319.529	6805.97
319.594	6767.68
319.658	6740.5
319.723	6697.85
319.788	6674.08
319.853	6620.24
319.917	6591.1
319.982	6533.51
320.047	6495.24
320.112	6471.67
320.176	6423.18
320.241	6387.6
320.306	6358.51
320.37	6319.01
320.435	6291.84
320.5	6264.72
320.564	6228.58
320.629	6191.78
320.694	6162.36
320.758	6120.33
320.823	6076.47
320.888	6042.03
320.952	5997.65
321.017	5953.8
321.082	5915.91
321.146	5878.63
321.211	5839.69
321.275	5800.32
321.34	5756.64
321.405	5711.61
321.469	5661.11
321.534	5620.65
321.598	5570.27
321.663	5538.33
321.727	5503.91
321.792	5453.67
321.857	5407.89
321.921	5368.3
321.986	5322.16
322.05	5261.6
322.115	5222.98
322.179	5172.59
322.244	5120.76
322.308	5086.37
322.373	5041.01
322.437	4999.29
322.502	4974.61
322.566	4930.32
322.631	4891
322.695	4849.55
322.76	4803.78
322.824	4775.58
322.889	4734.28
322.953	4689.54
323.018	4618.65
323.082	4561.33
323.146	4510.23
323.211	4459.9
323.275	4413.39
323.34	4369.87
323.404	4338.94
323.468	4296.65
323.533	4258.26
323.597	4213.76
323.662	4161.83
323.726	4127.4
323.79	4080.93
323.855	4012.69
323.919	3970.29
323.983	3926.42
324.048	3865
324.112	4007.76
324.177	3873.93
324.241	3671.95
324.305	3476.08
324.37	3286.96
324.434	3098.6
324.498	3056.96
324.562	3006.77
324.627	2950.44
324.691	2898.4
324.755	2835.41
324.82	2762.42
324.884	2686.38
324.948	2617.23
325.012	2528.53
325.077	2407.03
