Data from 20250702_urea_0.5M_MAYP1162681_14-45-00-340.txt Node
Date: Wed Jul 02 14:45:00 BST 2025
User: adleo
Spectrometer: MAYP116268
Trigger mode: 0
Integration Time (sec): 1.000000E0
Scans to average: 1
Electric dark correction enabled: true
Nonlinearity correction enabled: true
Boxcar width: 10
XAxis mode: Wavelengths
Number of Pixels in Spectrum: 2068
>>>>>Begin Spectral Data<<<<<
179.565	1114.88
179.642	1164.83
179.718	1204.24
179.795	1238.39
179.871	1270.84
179.948	1285.27
180.024	1303.75
180.101	1327.72
180.177	1338.82
180.254	1358.04
180.33	1377.94
180.407	1424.03
180.483	1510.59
180.56	1593.16
180.636	1669.93
180.712	1656.71
180.789	1666.07
180.865	1677.42
180.942	1685.22
181.018	1693.48
181.095	1706.36
181.171	1712.83
181.248	1714.16
181.324	1728.08
181.4	1735.59
181.477	1745
181.553	1758.3
181.63	1777.93
181.706	1790.67
181.782	1801.12
181.859	1799.79
181.935	1803.93
182.011	1800.55
182.088	1817.42
182.164	1834.78
182.24	1846.61
182.317	1857.78
182.393	1854.55
182.469	1867.9
182.546	1880.83
182.622	1887.15
182.698	1882.25
182.775	1891.95
182.851	1906.36
182.927	1901.98
183.003	1896.75
183.08	1889.63
183.156	1898.47
183.232	1894.28
183.308	1884.44
183.385	1891.57
183.461	1912.44
183.537	1914.49
183.613	1927.42
183.69	1919.52
183.766	1909.25
183.842	1918.48
183.918	1924.23
183.995	1940.01
184.071	1943.58
184.147	1939.3
184.223	1930.46
184.299	1941.49
184.375	1929.18
184.452	1933.99
184.528	1985.73
184.604	1997.85
184.68	2007.88
184.756	2013.5
184.832	2020.11
184.908	2022.53
184.985	2020.77
185.061	2003.08
185.137	2011.31
185.213	1998.62
185.289	1997.24
185.365	1990.54
185.441	1987.97
185.517	1999.62
185.593	1993.25
185.669	1992.35
185.745	2000.34
185.822	2013.12
185.898	2003.09
185.974	2012.55
186.05	2004.79
186.126	1965.6
186.202	1957.47
186.278	1956.04
186.354	1947.34
186.43	1952.86
186.506	1952.95
186.582	1955.09
186.658	1963.41
186.734	1945.92
186.81	1951.43
186.886	1956.19
186.962	1969.12
187.038	1968.02
187.114	1957.84
187.19	1967.35
187.266	1956.85
187.341	1958.37
187.417	1953.62
187.493	1954.38
187.569	1957.89
187.645	1952.09
187.721	1940.35
187.797	1948.05
187.873	1953.42
187.949	1951.09
188.025	1942.77
188.101	1943.48
188.176	1947.95
188.252	1941.25
188.328	1948.14
188.404	1946.29
188.48	1942.96
188.556	1937.44
188.632	1935.87
188.707	1937.11
188.783	1930.5
188.859	1925.7
188.935	1916.52
189.011	1923.13
189.086	1917.81
189.162	1909.82
189.238	1909.87
189.314	1909.54
189.39	1904.4
189.465	1897.41
189.541	1909.92
189.617	1897.18
189.693	1893.85
189.768	1895.9
189.844	1923.43
189.92	1915.45
189.996	1923.34
190.071	1929.95
190.147	1926.29
190.223	1930.95
190.298	1924.86
190.374	1917.21
190.45	1930.19
190.526	1936.7
190.601	1930.42
190.677	1930.95
190.753	1956.82
190.828	1958.58
190.904	1971.33
190.98	1984.07
191.055	1991.54
191.131	1983.26
191.207	2005.47
191.282	2014.74
191.358	2006.84
191.433	1988.96
191.509	2003.74
191.585	2000.5
191.66	2002.64
191.736	2009.78
191.811	2003.02
191.887	2017.82
191.963	2037.03
192.038	2039.5
192.114	2040.02
192.189	2046.35
192.265	2043.97
192.34	2023.28
192.416	2022.23
192.491	2019.95
192.567	2023.61
192.642	2027.8
192.718	2028.8
192.793	2015
192.869	2011.2
192.944	2011.86
193.02	2019.28
193.095	2021.66
193.171	2026.42
193.246	2025.32
193.322	2021.61
193.397	2021.52
193.473	2008.53
193.548	1991.32
193.624	1999.4
193.699	1997.6
193.775	2011.16
193.85	2011.92
193.925	2019.67
194.001	2020.33
194.076	2012.63
194.152	2001.59
194.227	1990.94
194.302	1980.91
194.378	1986.66
194.453	1983.43
194.529	1998.18
194.604	1985.1
194.679	1980.01
194.755	1963.85
194.83	1978.26
194.905	1977.74
194.981	1989.15
195.056	1983.88
195.131	1991.2
195.207	1988.63
195.282	1978.45
195.357	1959.33
195.433	1974.31
195.508	1965.51
195.583	1972.36
195.659	1986.01
195.734	1992.05
195.809	1993.52
195.884	2002.13
195.96	2000.08
196.035	2013.59
196.11	2008.21
196.185	2018.43
196.261	2020.86
196.336	2049.54
196.411	2035.55
196.486	2042.21
196.561	2036.26
196.637	2042.92
196.712	2057.38
196.787	2060.76
196.862	2077.11
196.937	2086.72
197.013	2091.05
197.088	2100.42
197.163	2119.31
197.238	2135.11
197.313	2137.87
197.388	2152.05
197.464	2182.12
197.539	2194.11
197.614	2189.49
197.689	2200.82
197.764	2219.38
197.839	2237.74
197.914	2233.13
197.989	2253.73
198.065	2266.86
198.14	2315.1
198.215	2339.65
198.29	2351.32
198.365	2361.6
198.44	2371.26
198.515	2397.53
198.59	2413.53
198.665	2437.04
198.74	2448.24
198.815	2448.24
198.89	2466.99
198.965	2495.04
199.04	2491.18
199.115	2505.42
199.19	2547.41
199.265	2548.98
199.34	2558.46
199.415	2590.95
199.49	2611.14
199.565	2619
199.64	2639.86
199.715	2635.18
199.79	2642.09
199.865	2646.19
199.94	2645.66
200.015	2674.15
200.09	2676.77
200.165	2682.25
200.24	2687.58
200.315	2724.3
200.39	2739.45
200.464	2744.93
200.539	2746.74
200.614	2762.6
200.689	2785.71
200.764	2791.2
200.839	2810.82
200.914	2812.87
200.989	2802.76
201.063	2813.82
201.138	2799.2
201.213	2800.82
201.288	2784
201.363	2787.86
201.438	2789.62
201.512	2807.15
201.587	2793.42
201.662	2802.43
201.737	2814.58
201.812	2825.21
201.886	2791.26
201.961	2799.7
202.036	2791.98
202.111	2787.98
202.186	2758.64
202.26	2739.72
202.335	2717.8
202.41	2707.47
202.485	2692.08
202.559	2671.79
202.634	2646.31
202.709	2656.07
202.784	2636.54
202.858	2636.25
202.933	2620.39
203.008	2614.53
203.082	2595.15
203.157	2592.24
203.232	2548.49
203.306	2527.48
203.381	2493.76
203.456	2472
203.53	2447.22
203.605	2426.28
203.68	2407.13
203.754	2402.28
203.829	2390.42
203.904	2371.81
203.978	2363.14
204.053	2366.05
204.127	2358.29
204.202	2361.29
204.277	2344.06
204.351	2338.92
204.426	2330.87
204.5	2325.54
204.575	2293.52
204.65	2301.09
204.724	2296.56
204.799	2306.55
204.873	2303.55
204.948	2304.55
205.022	2294.7
205.097	2290.13
205.171	2304.88
205.246	2309.64
205.32	2309.07
205.395	2308.45
205.469	2302.41
205.544	2309.22
205.618	2293.23
205.693	2301.99
205.767	2287.14
205.842	2307.47
205.916	2302.28
205.991	2294.95
206.065	2298.09
206.14	2313.17
206.214	2310.07
206.289	2302.88
206.363	2314.59
206.438	2317.93
206.512	2331.78
206.586	2348.34
206.661	2360.39
206.735	2342.4
206.81	2344.16
206.884	2359.58
206.958	2351.02
207.033	2367.19
207.107	2376.48
207.181	2411.15
207.256	2407.15
207.33	2429.14
207.405	2444.43
207.479	2466.14
207.553	2473.56
207.628	2463.38
207.702	2478.66
207.776	2479.28
207.851	2490.18
207.925	2512.38
207.999	2520.05
208.073	2523.29
208.148	2540.67
208.222	2539.15
208.296	2583.67
208.371	2614.89
208.445	2644.19
208.519	2688.01
208.593	2720.51
208.668	2738.19
208.742	2761.08
208.816	2790
208.89	2831.38
208.965	2858.43
209.039	2898.49
209.113	2949.25
209.187	3008.29
209.261	3043.47
209.336	3104.18
209.41	3164.48
209.484	3211.06
209.558	3280.5
209.632	3344.86
209.707	3412.03
209.781	3493.99
209.855	3569.41
209.929	3652.49
210.003	3727.92
210.077	3797.76
210.151	3918.04
210.226	4026.77
210.3	4140.78
210.374	4251.64
210.448	4345.01
210.522	4448.74
210.596	4554.73
210.67	4668.91
210.744	4819.46
210.818	4960.46
210.892	5091.9
210.966	5206.79
211.041	5345.56
211.115	5463.4
211.189	5616.36
211.263	5765.01
211.337	5898.85
211.411	6051.04
211.485	6181.88
211.559	6333.6
211.633	6487.1
211.707	6607.62
211.781	6770.53
211.855	6883.85
211.929	7036.55
212.003	7180.7
212.077	7353.1
212.151	7528.65
212.225	7702.44
212.299	7857.09
212.373	8012.99
212.447	8178.42
212.52	8381.24
212.594	8560.02
212.668	8749.07
212.742	8913.34
212.816	9091.46
212.89	9271.83
212.964	9447.35
213.038	9637.18
213.112	9837.62
213.186	10036.72
213.26	10202.88
213.333	10346.24
213.407	10545.13
213.481	10738.99
213.555	10941.57
213.629	11126.71
213.703	11308.82
213.777	11494.11
213.85	11670.75
213.924	11904.54
213.998	12102.97
214.072	12286.71
214.146	12462.16
214.219	12654.77
214.293	12833.93
214.367	13013.3
214.441	13207.36
214.515	13384.61
214.588	13551.06
214.662	13702.67
214.736	13867.91
214.81	14056.54
214.883	14244.53
214.957	14417.25
215.031	14577.24
215.105	14726.67
215.178	14881.36
215.252	15036.19
215.326	15190.48
215.4	15344.06
215.473	15455.3
215.547	15605.3
215.621	15755.83
215.694	15914.69
215.768	16046.61
215.842	16201.28
215.915	16349.01
215.989	16472.01
216.063	16618.33
216.136	16766.97
216.21	16907.94
216.284	17060.86
216.357	17208.43
216.431	17337.59
216.504	17473.07
216.578	17639.28
216.652	17788.63
216.725	17926.03
216.799	18072.92
216.873	18207.04
216.946	18335.8
217.02	18462.59
217.093	18578.35
217.167	18675.6
217.24	18786.19
217.314	18904.45
217.387	19004.79
217.461	19111.48
217.535	19247.38
217.608	19342.12
217.682	19446.59
217.755	19566.01
217.829	19656.03
217.902	19758.34
217.976	19871.49
218.049	19967.97
218.123	20043.73
218.196	20145.42
218.27	20229.61
218.343	20310.86
218.417	20401.75
218.49	20495.01
218.563	20600.74
218.637	20688.8
218.71	20795.11
218.784	20885.53
218.857	20983.85
218.931	21089.06
219.004	21176.78
219.077	21262.28
219.151	21347.74
219.224	21421.19
219.298	21509.59
219.371	21601.27
219.444	21668.65
219.518	21744.09
219.591	21815.08
219.665	21917.04
219.738	21993.68
219.811	22059.91
219.885	22136.95
219.958	22208.68
220.031	22266.38
220.105	22330.64
220.178	22395.77
220.251	22449.66
220.325	22512.92
220.398	22571.88
220.471	22625.2
220.544	22682.62
220.618	22720.56
220.691	22780.34
220.764	22838.97
220.838	22879.37
220.911	22921.37
220.984	22987.57
221.057	23042.63
221.131	23100.73
221.204	23112.98
221.277	23154.25
221.35	23221.91
221.424	23253.78
221.497	23291.54
221.57	23329.82
221.643	23359.19
221.716	23410.06
221.79	23431.76
221.863	23456.64
221.936	23480.85
222.009	23499.9
222.082	23532.3
222.155	23568.09
222.229	23608.11
222.302	23630.01
222.375	23651.08
222.448	23683.15
222.521	23701.43
222.594	23712.14
222.667	23707.75
222.74	23730.03
222.814	23762.54
222.887	23770.93
222.96	23795.33
223.033	23822.1
223.106	23846.22
223.179	23877.32
223.252	23886.39
223.325	23913.16
223.398	23925.31
223.471	23944.31
223.544	23957.58
223.617	23981.6
223.69	23992.5
223.763	23985.26
223.837	24003.06
223.91	24020.91
223.983	24019.03
224.056	24003.69
224.129	24015.17
224.202	24041.4
224.275	24049.94
224.348	24031.03
224.42	24027.95
224.493	24008.89
224.566	24000.65
224.639	24002.82
224.712	23990.9
224.785	23990.57
224.858	23991.48
224.931	23994.33
225.004	23984.05
225.077	23987.43
225.15	23955.07
225.223	23939.2
225.296	23960.32
225.369	23937.37
225.442	23918.75
225.514	23908.14
225.587	23915.61
225.66	23906.26
225.733	23899.94
225.806	23901.29
225.879	23895.79
225.952	23880.46
226.025	23896.18
226.097	23897
226.17	23888.41
226.243	23859.81
226.316	23835.51
226.389	23824.7
226.461	23821.18
226.534	23817.08
226.607	23795.57
226.68	23806.09
226.753	23802.04
226.825	23767.21
226.898	23777.05
226.971	23761.18
227.044	23755.4
227.117	23746.67
227.189	23740.01
227.262	23723.66
227.335	23708.04
227.407	23691.74
227.48	23685.56
227.553	23670.47
227.626	23653.01
227.698	23640.08
227.771	23644.18
227.844	23627.3
227.916	23613.13
227.989	23581.44
228.062	23563.21
228.134	23574.45
228.207	23547.44
228.28	23525.6
228.352	23500.28
228.425	23483.5
228.498	23490.93
228.57	23467.01
228.643	23460.74
228.716	23449.41
228.788	23435.57
228.861	23403.16
228.934	23397.81
229.006	23373.46
229.079	23351.76
229.151	23322.05
229.224	23279.81
229.296	23257.15
229.369	23272.63
229.442	23255.61
229.514	23236.9
229.587	23227.21
229.659	23188.97
229.732	23177.15
229.804	23171.18
229.877	23182.6
229.949	23170.4
230.022	23158.4
230.094	23139.69
230.167	23120.3
230.239	23081.83
230.312	23063.36
230.384	23069.63
230.457	23057.62
230.529	23044.07
230.602	23029.85
230.674	23010.76
230.747	23021.7
230.819	23018.32
230.892	22963.31
230.964	22955.88
231.037	22935.25
231.109	22905.02
231.181	22890.41
231.254	22855.45
231.326	22823.63
231.399	22795.86
231.471	22768.57
231.544	22725.8
231.616	22707.34
231.688	22685.88
231.761	22661.25
231.833	22635.26
231.905	22583.05
231.978	22557.4
232.05	22523.12
232.122	22490
232.195	22469.85
232.267	22451.53
232.339	22408.58
232.412	22397.25
232.484	22355.84
232.556	22322.43
232.629	22315.92
232.701	22300.93
232.773	22272.63
232.846	22251.37
232.918	22231.08
232.99	22212.37
233.062	22197.33
233.135	22177.61
233.207	22134.37
233.279	22118.71
233.351	22093.16
233.424	22067.8
233.496	22029.24
233.568	22031.84
233.64	21994.39
233.713	21967.06
233.785	21932.49
233.857	21907.91
233.929	21865.44
234.001	21863.03
234.074	21868.38
234.146	21823.36
234.218	21805.72
234.29	21780.75
234.362	21743.15
234.434	21686.61
234.507	21638.8
234.579	21588.67
234.651	21552.61
234.723	21531.07
234.795	21499.5
234.867	21460.8
234.939	21450.67
235.012	21418.09
235.084	21378.95
235.156	21359.38
235.228	21318.22
235.3	21278.12
235.372	21246.12
235.444	21222.55
235.516	21157.58
235.588	21113.77
235.66	21084.37
235.732	21025.23
235.804	21050.48
235.876	21027.11
235.948	21009.9
236.02	20976.6
236.092	20945.9
236.164	20905.42
236.236	20868.5
236.308	20834.28
236.38	20811.29
236.452	20754.38
236.524	20723.39
236.596	20693.31
236.668	20666.42
236.74	20641.99
236.812	20606.66
236.884	20575
236.956	20549.07
237.028	20518.95
237.1	20477.94
237.172	20447.82
237.244	20432.54
237.316	20363.04
237.388	20321.31
237.46	20281.64
237.532	20252.53
237.604	20202.75
237.675	20187.52
237.747	20154.27
237.819	20111.96
237.891	20068.4
237.963	20028.78
238.035	19993.84
238.107	19929.56
238.178	19897.99
238.25	19855.2
238.322	19842.28
238.394	19798.62
238.466	19748.46
238.538	19712.26
238.609	19681.71
238.681	19632.22
238.753	19587.64
238.825	19539.5
238.897	19497.58
238.968	19481
239.04	19445.34
239.112	19445.96
239.184	19395.7
239.255	19351.95
239.327	19320.38
239.399	19290.07
239.471	19263.9
239.542	19227.42
239.614	19210.51
239.686	19154.22
239.758	19135.67
239.829	19094.71
239.901	19072.49
239.973	19034.91
240.044	19006.38
240.116	18967.1
240.188	18928.6
240.259	18888.17
240.331	18857.52
240.403	18829.62
240.474	18774.68
240.546	18730.73
240.618	18663.8
240.689	18627.8
240.761	18602.74
240.833	18580.38
240.904	18538.6
240.976	18498.26
241.048	18462.51
241.119	18434.65
241.191	18406.17
241.262	18375.91
241.334	18329.36
241.405	18288.88
241.477	18250.28
241.549	18204.83
241.62	18164.11
241.692	18136.55
241.763	18108.45
241.835	18068.6
241.906	18032.55
241.978	17977.95
242.049	17947.06
242.121	17926.19
242.192	17904.46
242.264	17847.25
242.335	17791.21
242.407	17767.93
242.478	17737.47
242.55	17701.38
242.621	17662.25
242.693	17623.5
242.764	17576.46
242.836	17543.16
242.907	17514.88
242.979	17482.06
243.05	17451.65
243.122	17425.19
243.193	17388.47
243.264	17329.14
243.336	17289.91
243.407	17267.74
243.479	17251.98
243.55	17213.81
243.622	17177.09
243.693	17130.82
243.764	17116.99
243.836	17073.62
243.907	17038.43
243.978	16997.61
244.05	16971.78
244.121	16915.78
244.192	16883.68
244.264	16830.04
244.335	16786.23
244.407	16733.75
244.478	16709.84
244.549	16678.71
244.62	16630.61
244.692	16588.29
244.763	16572.63
244.834	16528.05
244.906	16486.31
244.977	16462.31
245.048	16453.68
245.119	16416.66
245.191	16379.17
245.262	16315.69
245.333	16295.45
245.405	16255.44
245.476	16229.9
245.547	16192.11
245.618	16162.95
245.689	16135
245.761	16120.83
245.832	16085.26
245.903	16057.4
245.974	16022.07
246.045	15985.48
246.117	15966.49
246.188	15926.83
246.259	15880.22
246.33	15854
246.401	15820.26
246.473	15771.33
246.544	15725.06
246.615	15704.72
246.686	15659.08
246.757	15648.09
246.828	15613.96
246.899	15596.56
246.97	15549.56
247.042	15507.68
247.113	15487.53
247.184	15470.95
247.255	15422.17
247.326	15394.26
247.397	15360.66
247.468	15326.63
247.539	15292.6
247.61	15247.39
247.681	15225.12
247.752	15209.36
247.823	15161.01
247.894	15129.34
247.965	15081.33
248.037	15038.19
248.108	14988.11
248.179	14965.93
248.25	14928.86
248.321	14898.59
248.392	14859.16
248.463	14847.16
248.534	14817.42
248.605	14796.11
248.675	14762.18
248.746	14744.34
248.817	14718.94
248.888	14695.94
248.959	14651.79
249.03	14633.18
249.101	14606.04
249.172	14575.05
249.243	14525.06
249.314	14519.13
249.385	14486.59
249.456	14469.48
249.527	14451.06
249.598	14432.07
249.669	14406.62
249.739	14386.47
249.81	14361.11
249.881	14321.25
249.952	14297.38
250.023	14276.75
250.094	14232.16
250.165	14196.01
250.235	14163.57
250.306	14133.82
250.377	14092.41
250.448	14075.4
250.519	14031.1
250.59	14015.96
250.66	13983.18
250.731	13965.29
250.802	13935.16
250.873	13916.89
250.944	13893.32
251.014	13857.12
251.085	13850.13
251.156	13828.48
251.227	13816.14
251.297	13804.72
251.368	13785.68
251.439	13761.86
251.51	13739.54
251.58	13704.93
251.651	13671.57
251.722	13655.81
251.792	13614.4
251.863	13592.18
251.934	13580.17
252.005	13578.24
252.075	13547.63
252.146	13538.23
252.217	13526.61
252.287	13512.78
252.358	13484.19
252.429	13480.29
252.499	13451.41
252.57	13429.38
252.641	13415.69
252.711	13383.2
252.782	13343.24
252.852	13340.68
252.923	13312.91
252.994	13292.67
253.064	13276.62
253.135	13244.41
253.205	13214.04
253.276	13221.61
253.347	13212.69
253.417	13182.47
253.488	13150.36
253.558	13131.95
253.629	13098.2
253.699	13077.81
253.77	13062.72
253.841	13040.07
253.911	13017.46
253.982	12994.85
254.052	12979.13
254.123	12946.88
254.193	12931.75
254.264	12953.01
254.334	12918.92
254.405	12895.3
254.475	12862.24
254.546	12841.56
254.616	12837.89
254.687	12823.86
254.757	12797.16
254.827	12772.62
254.898	12753.44
254.968	12731.36
255.039	12702
255.109	12697.81
255.18	12671.2
255.25	12623.72
255.321	12605.49
255.391	12566.79
255.461	12566.4
255.532	12513.81
255.602	12489.85
255.673	12446.37
255.743	12410.51
255.813	12366.83
255.884	12350.93
255.954	12335.74
256.024	12330.73
256.095	12313.09
256.165	12279.83
256.235	12267.58
256.306	12242.81
256.376	12231.62
256.446	12216.97
256.517	12200
256.587	12193.4
256.657	12174.65
256.728	12152.48
256.798	12130.83
256.868	12116.71
256.938	12090.92
257.009	12087.26
257.079	12083.79
257.149	12090.15
257.219	12049.66
257.29	12042.38
257.36	12008.11
257.43	12002.28
257.5	11961.98
257.571	11931.28
257.641	11919.61
257.711	11888.43
257.781	11874.45
257.852	11861.19
257.922	11832.52
257.992	11815.84
258.062	11786.44
258.132	11779.4
258.202	11767.64
258.273	11751.15
258.343	11744.12
258.413	11717.61
258.483	11698.09
258.553	11661.89
258.623	11634.22
258.693	11616.15
258.764	11612.73
258.834	11607.52
258.904	11584.72
258.974	11563.71
259.044	11544.58
259.114	11531.13
259.184	11512.28
259.254	11496.33
259.324	11458.4
259.394	11444.66
259.464	11442.4
259.535	11422.4
259.605	11391.89
259.675	11365.87
259.745	11350.92
259.815	11315.84
259.885	11291.41
259.955	11297.33
260.025	11274.3
260.095	11257.33
260.165	11241.19
260.235	11233.14
260.305	11204.47
260.375	11176.71
260.445	11176.03
260.515	11180.27
260.585	11176.71
260.655	11161.38
260.725	11149.28
260.795	11133
260.865	11130.35
260.934	11105.04
261.004	11090.73
261.074	11077.09
261.144	11073.24
261.214	11074.2
261.284	11067.26
261.354	11057.43
261.424	11024.23
261.494	11024.51
261.564	11005.48
261.634	10999.84
261.703	10968.18
261.773	10963.89
261.843	10955.7
261.913	10943.89
261.983	10897.01
262.053	10880.04
262.123	10860.29
262.192	10832.82
262.262	10827.42
262.332	10796.82
262.402	10783.96
262.472	10771.28
262.541	10736.02
262.611	10733.85
262.681	10699.68
262.751	10687.15
262.821	10670.63
262.89	10649.33
262.96	10634.39
263.03	10642.63
263.1	10627.84
263.169	10610.2
263.239	10605.34
263.309	10603.02
263.379	10593.53
263.448	10587.32
263.518	10574.74
263.588	10558.45
263.657	10554.89
263.727	10552.72
263.797	10537.25
263.867	10517.07
263.936	10484.45
264.006	10484.83
264.076	10464.02
264.145	10450.19
264.215	10429.76
264.285	10422.88
264.354	10390.21
264.424	10374.22
264.494	10336.25
264.563	10314.91
264.633	10318.37
264.702	10298.33
264.772	10263.4
264.842	10244.18
264.911	10237.34
264.981	10210.84
265.05	10198.27
265.12	10181.21
265.19	10165.79
265.259	10166.8
265.329	10163.91
265.398	10161.55
265.468	10177.74
265.537	10151.92
265.607	10144.55
265.676	10135.83
265.746	10131.16
265.815	10131.5
265.885	10113.53
265.955	10091.8
266.024	10075.67
266.094	10037.9
266.163	10040.6
266.232	10043.97
266.302	10028.17
266.371	10019.07
266.441	10007.31
266.51	10003.7
266.58	9989.78
266.649	9970.27
266.719	9957.74
266.788	9942.04
266.858	9941.94
266.927	9897.53
266.996	9891.08
267.066	9878.07
267.135	9855.91
267.205	9848.69
267.274	9840.21
267.343	9838.09
267.413	9828.89
267.482	9830.82
267.552	9832.89
267.621	9798.64
267.69	9765.31
267.76	9751.49
267.829	9738.63
267.898	9725.44
267.968	9701.64
268.037	9694.03
268.106	9696.92
268.176	9676.74
268.245	9668.36
268.314	9648.71
268.384	9648.9
268.453	9638.84
268.522	9635.18
268.592	9637.01
268.661	9613.65
268.73	9603.49
268.799	9587.83
268.869	9597.61
268.938	9568.33
269.007	9550.13
269.076	9547.81
269.146	9553.02
269.215	9548.15
269.284	9555.38
269.353	9538.86
269.422	9528.99
269.492	9514.4
269.561	9469.42
269.63	9464.22
269.699	9444.95
269.768	9435.47
269.838	9426.65
269.907	9428.77
269.976	9402.91
270.045	9368.92
270.114	9360.83
270.183	9346.58
270.253	9340.17
270.322	9307.81
270.391	9299.97
270.46	9305.31
270.529	9300.5
270.598	9293.42
270.667	9281.38
270.736	9256.77
270.806	9251.52
270.875	9251.57
270.944	9239.05
271.013	9254.17
271.082	9246.95
271.151	9240.02
271.22	9213.29
271.289	9198.99
271.358	9180.99
271.427	9173.76
271.496	9172.42
271.565	9162.16
271.634	9151.28
271.703	9166.4
271.772	9166.74
271.841	9159.13
271.91	9132.31
271.979	9118.06
272.048	9098.8
272.117	9093.51
272.186	9080.89
272.255	9078.49
272.324	9072.47
272.393	9066.93
272.462	9053.59
272.531	9044.16
272.6	9033.09
272.669	9036.36
272.738	9023.41
272.807	9019.08
272.876	9001.36
272.945	9022.26
273.013	9023.17
273.082	9029.48
273.151	8990.77
273.22	8987.3
273.289	8974.88
273.358	8984.17
273.427	8970.5
273.496	8969.35
273.564	8961.89
273.633	8957.6
273.702	8937.86
273.771	8931.37
273.84	8925.73
273.909	8924.77
273.977	8921.69
274.046	8914.57
274.115	8920.73
274.184	8910.76
274.253	8902.29
274.322	8908.16
274.39	8883.32
274.459	8866.47
274.528	8835.86
274.597	8829.46
274.665	8828.02
274.734	8833.12
274.803	8819.69
274.872	8816.27
274.94	8798.17
275.009	8851.58
275.078	8838.92
275.147	8835.45
275.215	8828.33
275.284	8834.78
275.353	8824.43
275.421	8799.59
275.49	8815
275.559	8801.42
275.627	8795.02
275.696	8785.54
275.765	8791.12
275.833	8778.27
275.902	8781.16
275.971	8794.73
276.039	8803.2
276.108	8803.64
276.177	8802.24
276.245	8794.49
276.314	8789.44
276.383	8796.85
276.451	8736.95
276.52	8741.71
276.588	8756.63
276.657	8758.8
276.725	8748.64
276.794	8747.1
276.863	8757.64
276.931	8730.59
277	8737.52
277.068	8743.78
277.137	8758.27
277.205	8747.44
277.274	8766.98
277.342	8770.68
277.411	8747.73
277.48	8737.29
277.548	8729.1
277.617	8725.06
277.685	8721.5
277.754	8726.74
277.822	8719.86
277.89	8728
277.959	8717.31
278.027	8693.15
278.096	8681.89
278.164	8703.65
278.233	8697.39
278.301	8687.38
278.37	8691.62
278.438	8680.21
278.507	8683.43
278.575	8658.02
278.643	8651.33
278.712	8632.18
278.78	8618.89
278.849	8634.67
278.917	8645.26
278.985	8634.19
279.054	8638.33
279.122	8650.8
279.191	8639.63
279.259	8636.07
279.327	8617.16
279.396	8631.74
279.464	8634.15
279.532	8643.1
279.601	8641.46
279.669	8631.55
279.737	8645.6
279.806	8649.5
279.874	8658.26
279.942	8654.26
280.011	8654.7
280.079	8662.01
280.147	8672.65
280.215	8680.54
280.284	8670.87
280.352	8660.28
280.42	8665.43
280.488	8658.11
280.557	8647.62
280.625	8660.95
280.693	8658.98
280.761	8662.73
280.83	8649.07
280.898	8660.18
280.966	8642.62
281.034	8605.56
281.102	8591.36
281.171	8582.12
281.239	8590.35
281.307	8575.48
281.375	8565.61
281.443	8594.69
281.512	8592.33
281.58	8603.3
281.648	8587.66
281.716	8591.17
281.784	8589.63
281.852	8583.33
281.92	8579.38
281.989	8588.72
282.057	8565.86
282.125	8614.1
282.193	8611.06
282.261	8610.63
282.329	8602.4
282.397	8602.64
282.465	8609.38
282.533	8629.54
282.601	8615.2
282.67	8598.16
282.738	8595.13
282.806	8607.3
282.874	8586.37
282.942	8591.08
283.01	8580.2
283.078	8583.77
283.146	8574.86
283.214	8581.36
283.282	8589.06
283.35	8601.09
283.418	8591.23
283.486	8599.36
283.554	8555.17
283.622	8557.48
283.69	8557.62
283.758	8551.32
283.826	8557.67
283.894	8565.99
283.962	8590.5
284.03	8610.56
284.098	8601.71
284.165	8593.67
284.233	8587.13
284.301	8579.19
284.369	8567.45
284.437	8559.17
284.505	8554.79
284.573	8575.14
284.641	8564.27
284.709	8569.03
284.777	8555.03
284.845	8564.32
284.912	8565.76
284.98	8569.32
285.048	8565.71
285.116	8571.25
285.184	8583.71
285.252	8572.35
285.319	8558.06
285.387	8539.48
285.455	8518.98
285.523	8532.5
285.591	8528.56
285.659	8531.4
285.726	8542.71
285.794	8531.69
285.862	8526.83
285.93	8525.29
285.997	8516.86
286.065	8513.88
286.133	8503.77
286.201	8498.91
286.269	8484.48
286.336	8475.81
286.404	8465.85
286.472	8474.8
286.539	8452.05
286.607	8434.24
286.675	8439.29
286.743	8446.03
286.81	8445.12
286.878	8462.01
286.946	8452.91
287.013	8459.31
287.081	8459.36
287.149	8446.17
287.216	8461.23
287.284	8459.16
287.352	8457.29
287.419	8450.69
287.487	8461.91
287.555	8466
287.622	8464.84
287.69	8475.38
287.758	8490.44
287.825	8490.49
287.893	8475.38
287.96	8481.3
288.028	8496.26
288.096	8505.94
288.163	8511.18
288.231	8492.85
288.298	8486.93
288.366	8497.04
288.433	8491.36
288.501	8489.82
288.569	8492.99
288.636	8493.04
288.704	8506.95
288.771	8515.42
288.839	8510.22
288.906	8501.51
288.974	8509.79
289.041	8503.34
289.109	8494.15
289.176	8500.65
289.244	8501.66
289.311	8515.28
289.379	8526.1
289.446	8528.37
289.514	8523.75
289.581	8524.08
289.649	8530.87
289.716	8531.78
289.783	8528.99
289.851	8549.01
289.918	8543.38
289.986	8551.27
290.053	8553.77
290.121	8551.51
290.188	8556.08
290.255	8586.88
290.323	8585.63
290.39	8579.52
290.458	8593.09
290.525	8602.52
290.592	8592.22
290.66	8599.01
290.727	8589.19
290.794	8600.98
290.862	8600.45
290.929	8604.25
290.996	8601.56
291.064	8615.56
291.131	8630.39
291.198	8644.2
291.266	8638.09
291.333	8639.92
291.4	8651.47
291.468	8666
291.535	8664.51
291.602	8670.05
291.669	8660.13
291.737	8668.46
291.804	8673.61
291.871	8685.83
291.938	8692.38
292.006	8721.69
292.073	8730.4
292.14	8744.84
292.207	8740.27
292.275	8743.49
292.342	8751.87
292.409	8778.44
292.476	8793.12
292.543	8785.71
292.611	8783.98
292.678	8803.04
292.745	8828.88
292.812	8831.14
292.879	8826.48
292.946	8822.91
293.014	8836.78
293.081	8847.61
293.148	8859.21
293.215	8867.73
293.282	8860.94
293.349	8868.98
293.416	8855.69
293.484	8869.41
293.551	8879.91
293.618	8895.02
293.685	8922.08
293.752	8915.77
293.819	8910.57
293.886	8904.84
293.953	8912.83
294.02	8925.54
294.087	8933.44
294.154	8925.11
294.221	8938.15
294.288	8942.15
294.356	8969.68
294.423	8975.08
294.49	8967.66
294.557	8980.66
294.624	8973.63
294.691	8996.02
294.758	8996.83
294.825	9000.49
294.892	8996.83
294.959	8995.92
295.026	9002.08
295.093	8990.96
295.16	8995.44
295.226	9000.68
295.293	9025
295.36	9025.09
295.427	9035.49
295.494	9046.38
295.561	9056.87
295.628	9072.23
295.695	9086.58
295.762	9088.31
295.829	9090.81
295.896	9105.45
295.963	9109.69
296.03	9119.36
296.096	9122.54
296.163	9133.9
296.23	9149.6
296.297	9157.4
296.364	9157.49
296.431	9161.2
296.498	9156.63
296.564	9177.62
296.631	9172.27
296.698	9154.22
296.765	9175.74
296.832	9160.91
296.899	9152.87
296.965	9168.51
297.032	9156.52
297.099	9169.86
297.166	9174.44
297.233	9170.87
297.299	9167.5
297.366	9167.02
297.433	9174.29
297.5	9187.1
297.566	9185.66
297.633	9182.48
297.7	9191.58
297.767	9195.67
297.833	9206.46
297.9	9214.25
297.967	9200
298.033	9209.49
298.1	9233.61
298.167	9223.5
298.234	9233.42
298.3	9239.2
298.367	9234.62
298.434	9242.09
298.5	9236.02
298.567	9227.11
298.634	9231.06
298.7	9246.13
298.767	9255.42
298.834	9270.35
298.9	9266.11
298.967	9266.5
299.033	9274.35
299.1	9287.11
299.167	9298.57
299.233	9286.53
299.3	9294.71
299.366	9314.98
299.433	9332.9
299.5	9318.84
299.566	9325.05
299.633	9343.97
299.699	9355.77
299.766	9356.44
299.832	9354.18
299.899	9361.35
299.965	9377.1
300.032	9373.15
300.099	9378.3
300.165	9376.04
300.232	9370.65
300.298	9372.38
300.365	9380.71
300.431	9383.5
300.498	9371.75
300.564	9377.24
300.631	9396.89
300.697	9413.79
300.763	9418.03
300.83	9419.96
300.896	9426.6
300.963	9438.5
301.029	9437.87
301.096	9442.4
301.162	9450.53
301.229	9451.16
301.295	9439.89
301.361	9447.45
301.428	9453.66
301.494	9441.53
301.561	9447.98
301.627	9450.49
301.693	9447.98
301.76	9448.66
301.826	9446.06
301.892	9456.55
301.959	9461.9
302.025	9455.69
302.092	9448.27
302.158	9450.73
302.224	9451.83
302.291	9445.19
302.357	9440.04
302.423	9434.21
302.49	9419.28
302.556	9430.21
302.622	9431.03
302.688	9442.93
302.755	9449.72
302.821	9452.65
302.887	9460.31
302.954	9462.48
303.02	9467.34
303.086	9473.46
303.152	9472.2
303.219	9465.13
303.285	9472.45
303.351	9475.1
303.417	9473.17
303.483	9465.75
303.55	9456.7
303.616	9455.59
303.682	9451.98
303.748	9448.95
303.815	9462.29
303.881	9475.34
303.947	9455.11
304.013	9457.95
304.079	9446.11
304.145	9428.53
304.212	9427.18
304.278	9418.03
304.344	9409.37
304.41	9393.76
304.476	9385.53
304.542	9381.73
304.608	9389.86
304.674	9372.62
304.741	9367.57
304.807	9372.04
304.873	9378.93
304.939	9397.13
305.005	9380.71
305.071	9384.61
305.137	9386.39
305.203	9360.25
305.269	9356.78
305.335	9374.98
305.401	9376.96
305.467	9378.45
305.533	9383.02
305.599	9391.98
305.666	9401.85
305.732	9407.53
305.798	9426.79
305.864	9455.83
305.93	9457.09
305.996	9456.99
306.062	9457.04
306.128	9458.39
306.194	9441.92
306.259	9437.1
306.325	9423.72
306.391	9436.33
306.457	9439.94
306.523	9439.8
306.589	9467.44
306.655	9463.4
306.721	9440.72
306.787	9424.25
306.853	9434.84
306.919	9424.2
306.985	9422.47
307.051	9415.05
307.117	9402.68
307.183	9393.04
307.248	9362.7
307.314	9370.89
307.38	9372.91
307.446	9380.09
307.512	9363.72
307.578	9374.69
307.644	9367.13
307.709	9368
307.775	9358.51
307.841	9351.29
307.907	9352.26
307.973	9326.15
308.039	9321.24
308.104	9333.95
308.17	9335.64
308.236	9323.75
308.302	9325.29
308.368	9311.71
308.433	9316.14
308.499	9312.82
308.565	9300.15
308.631	9301.36
308.696	9279.21
308.762	9266.93
308.828	9263.75
308.894	9249.64
308.959	9226.92
309.025	9224.94
309.091	9218.59
309.156	9207.71
309.222	9212.67
309.288	9200.63
309.354	9188.35
309.419	9189.36
309.485	9174.82
309.551	9182.77
309.616	9165.67
309.682	9159.61
309.748	9150.03
309.813	9136.5
309.879	9126.92
309.945	9121.33
310.01	9112.76
310.076	9113.63
310.141	9107.76
310.207	9087.15
310.273	9091.77
310.338	9095.19
310.404	9076.36
310.469	9067.22
310.535	9057.97
310.601	9036.69
310.666	9041.22
310.732	9046.71
310.797	9030.1
310.863	9021.58
310.928	9008
310.994	9015.12
311.059	9015.99
311.125	9012.81
311.191	9022.54
311.256	9012.38
311.322	9009.45
311.387	8991.78
311.453	9306.53
311.518	9278.71
311.584	9279.33
311.649	9283.62
311.715	9273.8
311.78	9273.56
311.846	9258.73
311.911	9266.39
311.976	9269.13
312.042	9250.16
312.107	9229.99
312.173	9220.56
312.238	9210.3
312.304	9213.48
312.369	9198.08
312.434	9186.24
312.5	9179.59
312.565	9150.18
312.631	9157.11
312.696	9150.03
312.761	9150.9
312.827	8827.24
312.892	8867.58
312.958	8864.99
313.023	8860.99
313.088	8861.47
313.154	8846.98
313.219	8840.54
313.284	8829.46
313.35	8823.01
313.415	8813.63
313.48	8812.52
313.546	8815.94
313.611	8823.11
313.676	8808.33
313.741	8807.37
313.807	8805.15
313.872	8804.58
313.937	8813.05
314.003	8819.84
314.068	8815.07
314.133	8818.97
314.198	8806.21
314.264	8782.29
314.329	8771.6
314.394	8771.6
314.459	8771.6
314.525	8796.2
314.59	8800.43
314.655	8791.67
314.72	8797.78
314.785	8797.59
314.851	8795.33
314.916	8780.51
314.981	8766.02
315.046	8754.51
315.111	8742.92
315.176	8731.32
315.242	8734.83
315.307	8735.7
315.372	8710.28
315.437	8708.94
315.502	8700.03
315.567	8708.36
315.632	8691.22
315.698	8692.86
315.763	8681.45
315.828	8671.78
315.893	8658.25
315.958	8643.48
316.023	8635.01
316.088	8611.23
316.153	8593.14
316.218	8585.49
316.283	8565.66
316.348	8549.26
316.413	8550.36
316.479	8532.95
316.544	8498.4
316.609	8465.63
316.674	8425.02
316.739	8396.06
316.804	8362.86
316.869	8332.55
316.934	8296.08
316.999	8264.57
317.064	8213.43
317.129	8172.87
317.194	8132.99
317.259	8089.01
317.324	8033.23
317.389	7986.33
317.454	7949.63
317.518	7910.34
317.583	7881.04
317.648	7865.12
317.713	7829.68
317.778	7764.56
317.843	7732.34
317.908	7701.43
317.973	7665.41
318.038	7638.87
318.103	7604.01
318.168	7568.43
318.233	7536.17
318.297	7485.4
318.362	7448.68
318.427	7408.55
318.492	7380.23
318.557	7331.11
318.622	7305.2
318.687	7292.61
318.751	7252.25
318.816	7214.28
318.881	7182.33
318.946	7127.35
319.011	7073.14
319.075	7035.47
319.14	7003.14
319.205	6960.48
319.27	6926.66
319.335	6880.16
319.399	6840.09
319.464	6811.99
319.529	6759.4
319.594	6715.35
319.658	6688.75
319.723	6653.74
319.788	6625.17
319.853	6570.47
319.917	6540.66
319.982	6482.46
320.047	6440.35
320.112	6413.08
320.176	6367.48
320.241	6334.21
320.306	6299.51
320.37	6261.06
320.435	6226.55
320.5	6195.88
320.564	6157.25
320.629	6116.09
320.694	6085.67
320.758	6037.59
320.823	5989.18
320.888	5962.46
320.952	5916.12
321.017	5873.81
321.082	5833.42
321.146	5800.76
321.211	5766.8
321.275	5724.61
321.34	5679.88
321.405	5635.62
321.469	5592.18
321.534	5553.36
321.598	5505.9
321.663	5479.24
321.727	5448.08
321.792	5398.57
321.857	5355.38
321.921	5318.24
321.986	5272.78
322.05	5216.44
322.115	5183.09
322.179	5139.55
322.244	5088.97
322.308	5056.16
322.373	5011.76
322.437	4968.95
322.502	4941.15
322.566	4892.55
322.631	4861.24
322.695	4824.24
322.76	4781.59
322.824	4743.1
322.889	4700.08
322.953	4653.38
323.018	4588.96
323.082	4525.27
323.146	4476
323.211	4423.19
323.275	4377.98
323.34	4339.58
323.404	4305.77
323.468	4263.63
323.533	4222.6
323.597	4179.68
323.662	4128.52
323.726	4091.75
323.79	4046.91
323.855	3982.4
323.919	3940.44
323.983	3895.41
324.048	3830.67
324.112	3930.29
324.177	3803.65
324.241	3604.06
324.305	3410.16
324.37	3218.16
324.434	3034.49
324.498	2991.57
324.562	2944.04
324.627	2884.65
324.691	2826.29
324.755	2761.71
324.82	2679.89
324.884	2602.57
324.948	2525.09
325.012	2429.76
325.077	2304.7
