Data from 20250702_urea_0.5M_MAYP1162681_07-55-00-361.txt Node
Date: Thu Jul 03 07:55:00 BST 2025
User: adleo
Spectrometer: MAYP116268
Trigger mode: 0
Integration Time (sec): 1.000000E0
Scans to average: 1
Electric dark correction enabled: true
Nonlinearity correction enabled: true
Boxcar width: 10
XAxis mode: Wavelengths
Number of Pixels in Spectrum: 2068
>>>>>Begin Spectral Data<<<<<
179.565	1178.99
179.642	1233.17
179.718	1279.17
179.795	1315.38
179.871	1347.77
179.948	1367.13
180.024	1388.14
180.101	1409.53
180.177	1421.16
180.254	1443.96
180.33	1466.62
180.407	1519.37
180.483	1608.49
180.56	1699.53
180.636	1781.56
180.712	1771.44
180.789	1780.28
180.865	1794.34
180.942	1804.42
181.018	1811.73
181.095	1825
181.171	1830.32
181.248	1830.51
181.324	1842.69
181.4	1850.29
181.477	1858.04
181.553	1871.49
181.63	1888.75
181.706	1906.43
181.782	1916.98
181.859	1914.89
181.935	1918.79
182.011	1914.89
182.088	1935.33
182.164	1951.08
182.24	1963.91
182.317	1976.42
182.393	1977.18
182.469	1989.92
182.546	2000.71
182.622	2009.41
182.698	2001.81
182.775	2011.65
182.851	2027.15
182.927	2019.21
183.003	2015.26
183.08	2010.6
183.156	2015.5
183.232	2012.7
183.308	2001.28
183.385	2008.18
183.461	2025.44
183.537	2026.15
183.613	2039.56
183.69	2030.2
183.766	2017.78
183.842	2024.39
183.918	2026.53
183.995	2040.8
184.071	2044.27
184.147	2039.32
184.223	2027.63
184.299	2041.66
184.375	2031.29
184.452	2034.29
184.528	2082.23
184.604	2091.79
184.68	2105.53
184.756	2115.67
184.832	2119.9
184.908	2123.94
184.985	2125.18
185.061	2108.77
185.137	2118.9
185.213	2105.78
185.289	2109.39
185.365	2104.73
185.441	2103.54
185.517	2114.53
185.593	2108.77
185.669	2108.16
185.745	2118.34
185.822	2132.46
185.898	2123.66
185.974	2134.35
186.05	2130.26
186.126	2097.02
186.202	2091.41
186.278	2086.98
186.354	2075.38
186.43	2084.89
186.506	2082.99
186.582	2081.23
186.658	2091.07
186.734	2069.49
186.81	2071.96
186.886	2072.67
186.962	2082.75
187.038	2080.18
187.114	2074.76
187.19	2081.04
187.266	2067.91
187.341	2068.01
187.417	2062.92
187.493	2062.97
187.569	2064.63
187.645	2057.07
187.721	2046.37
187.797	2054.78
187.873	2060.83
187.949	2058.31
188.025	2050.88
188.101	2053.07
188.176	2058.87
188.252	2053.21
188.328	2062.29
188.404	2063.77
188.48	2059.34
188.556	2054.02
188.632	2054.87
188.707	2054.25
188.783	2050.64
188.859	2047.74
188.935	2037.51
189.011	2044.46
189.086	2039.08
189.162	2029.05
189.238	2027.67
189.314	2026.91
189.39	2020.11
189.465	2011.21
189.541	2026.01
189.617	2011.74
189.693	2008.56
189.768	2010.12
189.844	2033.48
189.92	2025.36
189.996	2034.92
190.071	2047.28
190.147	2046.19
190.223	2054.32
190.298	2048.19
190.374	2035.49
190.45	2046.57
190.526	2053.37
190.601	2049.04
190.677	2050.09
190.753	2077.16
190.828	2082.77
190.904	2096.9
190.98	2112.12
191.055	2122.16
191.131	2111.12
191.207	2131.58
191.282	2140.75
191.358	2133.33
191.433	2120.29
191.509	2132.85
191.585	2128.56
191.66	2129.28
191.736	2135.41
191.811	2125.38
191.887	2140.55
191.963	2165.43
192.038	2169.19
192.114	2173.04
192.189	2176.47
192.265	2172.76
192.34	2151.39
192.416	2147.73
192.491	2143.4
192.567	2144.64
192.642	2147.92
192.718	2151.44
192.793	2136.74
192.869	2131.8
192.944	2131.32
193.02	2136.65
193.095	2142.88
193.171	2149.35
193.246	2147.92
193.322	2147.54
193.397	2149.45
193.473	2136.03
193.548	2118.66
193.624	2124.08
193.699	2120.23
193.775	2135.89
193.85	2138.84
193.925	2148.02
194.001	2147.45
194.076	2141.21
194.152	2131.98
194.227	2123.28
194.302	2111.82
194.378	2118.52
194.453	2117.48
194.529	2131.89
194.604	2117
194.679	2111.25
194.755	2091.84
194.83	2102.27
194.905	2098.27
194.981	2103.84
195.056	2098.41
195.131	2103.5
195.207	2100.89
195.282	2094.13
195.357	2075.05
195.433	2088.94
195.508	2078.43
195.583	2085.32
195.659	2098.55
195.734	2106.64
195.809	2109.45
195.884	2121.14
195.96	2121.43
196.035	2136.08
196.11	2129.37
196.185	2143.17
196.261	2142.83
196.336	2172.14
196.411	2159.57
196.486	2165.71
196.561	2164.85
196.637	2171.56
196.712	2188.5
196.787	2194.36
196.862	2208.39
196.937	2218.28
197.013	2222.99
197.088	2233.03
197.163	2256.59
197.238	2272.88
197.313	2272.02
197.388	2284.44
197.464	2312.87
197.539	2322.19
197.614	2315.29
197.689	2327.9
197.764	2342.61
197.839	2364.88
197.914	2359.65
197.989	2381.59
198.065	2395.35
198.14	2442.32
198.215	2467.59
198.29	2479.07
198.365	2490.12
198.44	2501.97
198.515	2531.21
198.59	2547.31
198.665	2571.07
198.74	2579.55
198.815	2582.36
198.89	2602.5
198.965	2630.37
199.04	2626.42
199.115	2643.42
199.19	2684.28
199.265	2686.95
199.34	2697.1
199.415	2730.08
199.49	2753.8
199.565	2760.99
199.64	2785.1
199.715	2780.33
199.79	2790.38
199.865	2797.91
199.94	2799.15
200.015	2829.85
200.09	2831.51
200.165	2836.95
200.24	2849.77
200.315	2887.59
200.39	2902.47
200.464	2909.81
200.539	2911.38
200.614	2926.91
200.689	2950.46
200.764	2956.14
200.839	2975.48
200.914	2982.77
200.989	2972.18
201.063	2983.05
201.138	2966
201.213	2965.76
201.288	2949.89
201.363	2952.94
201.438	2948.22
201.512	2960.52
201.587	2943.16
201.662	2950.41
201.737	2965.19
201.812	2971.34
201.886	2939.9
201.961	2947.34
202.036	2937.33
202.111	2934.19
202.186	2906.56
202.26	2887.77
202.335	2867.37
202.41	2861.03
202.485	2841.92
202.559	2821.34
202.634	2796.75
202.709	2808.89
202.784	2788.97
202.858	2789.17
202.933	2770.54
203.008	2767.39
203.082	2751.57
203.157	2749.05
203.232	2704.85
203.306	2681.73
203.381	2648
203.456	2624.56
203.53	2605.25
203.605	2584.39
203.68	2562.14
203.754	2556.76
203.829	2543.71
203.904	2526.95
203.978	2514.57
204.053	2517.57
204.127	2503.95
204.202	2504.24
204.277	2489.09
204.351	2481.14
204.426	2472.09
204.5	2464
204.575	2429.73
204.65	2436.16
204.724	2429.58
204.799	2437.15
204.873	2432.15
204.948	2431.2
205.022	2419.49
205.097	2409.67
205.171	2423.9
205.246	2430.72
205.32	2429.34
205.395	2425.43
205.469	2413.49
205.544	2423.68
205.618	2406.26
205.693	2419.25
205.767	2403.21
205.842	2418.73
205.916	2418.69
205.991	2408.69
206.065	2415.07
206.14	2431.53
206.214	2429.05
206.289	2420.82
206.363	2435.15
206.438	2439.81
206.512	2447.34
206.586	2466.23
206.661	2472.24
206.735	2453.15
206.81	2455.39
206.884	2469.81
206.958	2463.63
207.033	2481.28
207.107	2483.76
207.181	2517.76
207.256	2515.38
207.33	2537.62
207.405	2553.11
207.479	2570.2
207.553	2581.72
207.628	2566.64
207.702	2580.87
207.776	2576.4
207.851	2582.73
207.925	2599.31
207.999	2598.55
208.073	2600.12
208.148	2603.93
208.222	2601.84
208.296	2635.64
208.371	2654.28
208.445	2670.1
208.519	2700.48
208.593	2719.45
208.668	2726.83
208.742	2737.8
208.816	2750.8
208.89	2771.73
208.965	2779.17
209.039	2797.95
209.113	2827.5
209.187	2858.26
209.261	2865.65
209.336	2898.63
209.41	2933.38
209.484	2946.5
209.558	2983.97
209.632	3011.14
209.707	3042.18
209.781	3081.71
209.855	3116.54
209.929	3155.16
210.003	3183.06
210.077	3209.06
210.151	3279.06
210.226	3337.25
210.3	3391.65
210.374	3435.69
210.448	3472.16
210.522	3515.03
210.596	3556.05
210.67	3595.2
210.744	3677.01
210.818	3743.94
210.892	3803.65
210.966	3838.37
211.041	3895.56
211.115	3932.82
211.189	4004.59
211.263	4064.84
211.337	4112.11
211.411	4170.49
211.485	4218.46
211.559	4279.46
211.633	4328.64
211.707	4347.39
211.781	4408.91
211.855	4424.45
211.929	4477.2
212.003	4512.39
212.077	4579.02
212.151	4651.02
212.225	4723.58
212.299	4776.18
212.373	4827.45
212.447	4880.56
212.52	4969.97
212.594	5038.95
212.668	5114.7
212.742	5161.08
212.816	5223.12
212.89	5282.09
212.964	5350.83
213.038	5421.55
213.112	5503.53
213.186	5588.46
213.26	5640.64
213.333	5667.01
213.407	5746.29
213.481	5818.63
213.555	5905.59
213.629	5970.27
213.703	6024.59
213.777	6093.89
213.85	6144.14
213.924	6250.03
213.998	6325.1
214.072	6391.99
214.146	6448.98
214.219	6520.71
214.293	6594.54
214.367	6670.61
214.441	6755.13
214.515	6818.29
214.588	6861.67
214.662	6903.9
214.736	6960.15
214.81	7046.69
214.883	7124.02
214.957	7188.2
215.031	7246.48
215.105	7290.67
215.178	7346.72
215.252	7418.58
215.326	7464.1
215.4	7521.68
215.473	7545.39
215.547	7599.73
215.621	7662.54
215.694	7738
215.768	7789.74
215.842	7848.22
215.915	7902.62
215.989	7945.91
216.063	8006.23
216.136	8074.49
216.21	8139.52
216.284	8220.01
216.357	8283.28
216.431	8357.47
216.504	8433.31
216.578	8534.32
216.652	8614.9
216.725	8680.74
216.799	8749.53
216.873	8820.32
216.946	8898.34
217.02	8962.74
217.093	9027.49
217.167	9066.48
217.24	9122.62
217.314	9185.44
217.387	9246.1
217.461	9305.57
217.535	9383.86
217.608	9441.64
217.682	9514.69
217.755	9590.83
217.829	9636.82
217.902	9706.51
217.976	9765.23
218.049	9822.06
218.123	9858.91
218.196	9935.02
218.27	9994.17
218.343	10042.87
218.417	10111.81
218.49	10173.57
218.563	10255.32
218.637	10323.4
218.71	10411.03
218.784	10482.77
218.857	10558.75
218.931	10620.81
219.004	10687.11
219.077	10760.2
219.151	10823.91
219.224	10873.92
219.298	10937.24
219.371	11018.49
219.444	11071.98
219.518	11139.4
219.591	11204.12
219.665	11296.51
219.738	11354.82
219.811	11412.9
219.885	11489.48
219.958	11555.17
220.031	11609.87
220.105	11678.51
220.178	11750.42
220.251	11812.41
220.325	11875.84
220.398	11942.5
220.471	12012.63
220.544	12088.21
220.618	12139.16
220.691	12205.48
220.764	12281.02
220.838	12352.07
220.911	12411.74
220.984	12488.92
221.057	12557.75
221.131	12617.24
221.204	12650.69
221.277	12730.08
221.35	12829.82
221.424	12887.33
221.497	12951.97
221.57	13023.7
221.643	13092.4
221.716	13148.07
221.79	13192.86
221.863	13249.74
221.936	13301.66
222.009	13360.28
222.082	13412.92
222.155	13471.11
222.229	13542.02
222.302	13598.03
222.375	13658.53
222.448	13715.7
222.521	13773.94
222.594	13821.47
222.667	13868.33
222.74	13935.57
222.814	13986.05
222.887	14026.15
222.96	14091.23
223.033	14155.15
223.106	14197.19
223.179	14245.68
223.252	14296.63
223.325	14355.49
223.398	14406.69
223.471	14469.11
223.544	14525.95
223.617	14582.35
223.69	14631.18
223.763	14663.81
223.837	14718.96
223.91	14763.11
223.983	14793.15
224.056	14827.76
224.129	14884.59
224.202	14945.04
224.275	14981
224.348	15012.62
224.42	15046.36
224.493	15076.78
224.566	15107.05
224.639	15165.04
224.712	15196.08
224.785	15236.28
224.858	15270.21
224.931	15313.55
225.004	15345.89
225.077	15387.49
225.15	15403.97
225.223	15456.75
225.296	15530.74
225.369	15557.49
225.442	15586.17
225.514	15628.01
225.587	15670.67
225.66	15698.43
225.733	15738.97
225.806	15790.69
225.879	15839.32
225.952	15867.42
226.025	15915.76
226.097	15975.72
226.17	16011.73
226.243	16034.57
226.316	16087.98
226.389	16132.27
226.461	16175.31
226.534	16213.05
226.607	16248.52
226.68	16310.56
226.753	16348.78
226.825	16360.15
226.898	16410.76
226.971	16448.83
227.044	16499.06
227.117	16538.96
227.189	16591.59
227.262	16645.09
227.335	16682.63
227.407	16705.29
227.48	16744.42
227.553	16787.94
227.626	16813.24
227.698	16845.2
227.771	16884.86
227.844	16889.59
227.916	16923.71
227.989	16946.79
228.062	16976.92
228.134	17029.64
228.207	17059.81
228.28	17081.11
228.352	17109.02
228.425	17141.35
228.498	17181.21
228.57	17205.69
228.643	17250.22
228.716	17276.15
228.788	17288.1
228.861	17307.19
228.934	17356.73
229.006	17388.78
229.079	17412.25
229.151	17432.87
229.224	17444.59
229.296	17482.71
229.369	17551.72
229.442	17599.14
229.514	17613.6
229.587	17644.97
229.659	17653.31
229.732	17685.84
229.804	17721.98
229.877	17778.41
229.949	17816.53
230.022	17860.48
230.094	17886.26
230.167	17910.31
230.239	17930.17
230.312	17958.74
230.384	18014.74
230.457	18037.78
230.529	18061.54
230.602	18084.28
230.674	18109.68
230.747	18156.23
230.819	18183.36
230.892	18166.74
230.964	18189.77
231.037	18219.51
231.109	18243.55
231.181	18268.71
231.254	18271.46
231.326	18282.4
231.399	18294.25
231.471	18301.62
231.544	18293.77
231.616	18320.32
231.688	18336.13
231.761	18343.93
231.833	18358.01
231.905	18343.07
231.978	18358.44
232.05	18370.78
232.122	18385.62
232.195	18395.26
232.267	18417.91
232.339	18431.78
232.412	18467.3
232.484	18473.13
232.556	18483.11
232.629	18522.91
232.701	18552.55
232.773	18567.1
232.846	18581.03
232.918	18590.47
232.99	18609.7
233.062	18629.32
233.135	18647.92
233.207	18642.42
233.279	18657.56
233.351	18671.58
233.424	18676.25
233.496	18675.53
233.568	18714.32
233.64	18707.48
233.713	18719.86
233.785	18719.58
233.857	18728.88
233.929	18719.58
234.001	18738.03
234.074	18751.62
234.146	18729.26
234.218	18726.37
234.29	18730.71
234.362	18727.38
234.434	18716.25
234.507	18696.16
234.579	18687.48
234.651	18666.28
234.723	18678.86
234.795	18687.38
234.867	18681.17
234.939	18696.11
235.012	18693.17
235.084	18687
235.156	18705.46
235.228	18691.63
235.3	18686.66
235.372	18688.44
235.444	18697.5
235.516	18668.25
235.588	18670.13
235.66	18666.81
235.732	18647.24
235.804	18702.61
235.876	18714.61
235.948	18723.77
236.02	18723.19
236.092	18716.25
236.164	18722.42
236.236	18707.05
236.308	18694.71
236.38	18694.66
236.452	18685.02
236.524	18677.31
236.596	18678.9
236.668	18663.68
236.74	18656.21
236.812	18656.64
236.884	18642.86
236.956	18630.42
237.028	18615.97
237.1	18596.35
237.172	18596.26
237.244	18606.28
237.316	18554.62
237.388	18530.67
237.46	18506.77
237.532	18515.25
237.604	18494.24
237.675	18490
237.747	18492.26
237.819	18470.24
237.891	18457.13
237.963	18434.34
238.035	18420.32
238.107	18366.92
238.178	18361.19
238.25	18346.73
238.322	18356.7
238.394	18325.67
238.466	18308.9
238.538	18312.66
238.609	18302.49
238.681	18273.05
238.753	18234.69
238.825	18214.78
238.897	18204.62
238.968	18202.78
239.04	18168.33
239.112	18182.01
239.184	18150.83
239.255	18121.25
239.327	18108.28
239.399	18098.6
239.471	18073.44
239.542	18060.14
239.614	18058.84
239.686	18014.36
239.758	18005.68
239.829	17957.16
239.901	17952.77
239.973	17929.73
240.044	17901.01
240.116	17877.88
240.188	17857.64
240.259	17841.64
240.331	17812.44
240.403	17792.2
240.474	17754.51
240.546	17724.73
240.618	17672.05
240.689	17644.2
240.761	17626.46
240.833	17625.84
240.904	17589.07
240.976	17573.4
241.048	17547.81
241.119	17525.69
241.191	17511.67
241.262	17500.88
241.334	17471.04
241.405	17440.3
241.477	17411
241.549	17380.68
241.62	17358.56
241.692	17338.47
241.763	17324.39
241.835	17295.24
241.906	17260.63
241.978	17217.93
242.049	17201.74
242.121	17199.72
242.192	17190.46
242.264	17143.09
242.335	17088
242.407	17067.42
242.478	17036.43
242.55	17018.12
242.621	16990.17
242.693	16963.61
242.764	16931.56
242.836	16901.2
242.907	16881.01
242.979	16859.42
243.05	16841.3
243.122	16822.55
243.193	16792.62
243.264	16745.68
243.336	16717.87
243.407	16700.85
243.479	16696.18
243.55	16668.23
243.622	16641.72
243.693	16612.95
243.764	16605.76
243.836	16570.29
243.907	16530.72
243.978	16499.2
244.05	16468.16
244.121	16424.78
244.192	16395.82
244.264	16352.54
244.335	16327.23
244.407	16286.07
244.478	16265.97
244.549	16229.3
244.62	16175.7
244.692	16135.89
244.763	16118.63
244.834	16084.75
244.906	16048.99
244.977	16024.55
245.048	16013.85
245.119	15962.71
245.191	15922.03
245.262	15869.49
245.333	15857.15
245.405	15830.26
245.476	15811.99
245.547	15791.56
245.618	15763.98
245.689	15734.53
245.761	15705.9
245.832	15667.1
245.903	15642.66
245.974	15607.77
246.045	15574.36
246.117	15572.97
246.188	15538.16
246.259	15489.82
246.33	15460.46
246.401	15432.22
246.473	15379.49
246.544	15337.45
246.615	15325.36
246.686	15289.06
246.757	15274.6
246.828	15233.63
246.899	15216.61
246.97	15164.36
247.042	15114.9
247.113	15092.2
247.184	15091.04
247.255	15050.75
247.326	15030.4
247.397	14991.12
247.468	14963.74
247.539	14947.21
247.61	14895.92
247.681	14876.59
247.752	14872.06
247.823	14835.71
247.894	14808.67
247.965	14777.72
248.037	14745.47
248.108	14703.82
248.179	14682.08
248.25	14655.33
248.321	14638.27
248.392	14606.84
248.463	14601.82
248.534	14578.88
248.605	14563.21
248.675	14521.03
248.746	14508.6
248.817	14496.26
248.888	14483.14
248.959	14432.24
249.03	14404.38
249.101	14377.91
249.172	14345.32
249.243	14287.91
249.314	14284.68
249.385	14255.18
249.456	14233.87
249.527	14215.8
249.598	14193.96
249.669	14163.73
249.739	14143.05
249.81	14118.9
249.881	14076.53
249.952	14049.68
250.023	14020.32
250.094	13973.08
250.165	13939.67
250.235	13908.87
250.306	13872.09
250.377	13837.86
250.448	13819.98
250.519	13767
250.59	13758.13
250.66	13734.41
250.731	13728.53
250.802	13686.78
250.873	13660.6
250.944	13643.83
251.014	13603.14
251.085	13606.81
251.156	13589.69
251.227	13578.75
251.297	13563.18
251.368	13552.67
251.439	13539.9
251.51	13527.8
251.58	13498.15
251.651	13481.66
251.722	13465.32
251.792	13423.04
251.863	13392.91
251.934	13395.76
252.005	13410.94
252.075	13383.9
252.146	13363.99
252.217	13354.01
252.287	13343.74
252.358	13328.8
252.429	13323.26
252.499	13297.8
252.57	13271.14
252.641	13257.74
252.711	13225.73
252.782	13190.01
252.852	13184.95
252.923	13161.43
252.994	13136.74
253.064	13130.14
253.135	13089.74
253.205	13068.53
253.276	13065.78
253.347	13061.83
253.417	13018.69
253.488	12986.44
253.558	12959.78
253.629	12943.92
253.699	12923.38
253.77	12910.9
253.841	12877.54
253.911	12853.82
253.982	12833.77
254.052	12818.68
254.123	12794.82
254.193	12775.49
254.264	12790.96
254.334	12758.71
254.405	12724.92
254.475	12695.56
254.546	12671.8
254.616	12667.41
254.687	12642.73
254.757	12621.43
254.827	12596.02
254.898	12586.86
254.968	12560.45
255.039	12535.04
255.109	12522.17
255.18	12490.45
255.25	12450.16
255.321	12441.72
255.391	12402.1
255.461	12403.45
255.532	12351.38
255.602	12327.52
255.673	12292.05
255.743	12259.75
255.813	12218.25
255.884	12212.8
255.954	12200.75
256.024	12202.73
256.095	12177.23
256.165	12150.23
256.235	12144.69
256.306	12119.91
256.376	12111.09
256.446	12113.12
256.517	12102.56
256.587	12091.86
256.657	12076.48
256.728	12057.97
256.798	12040
256.868	12014.88
256.938	11983.17
257.009	11980.95
257.079	11971.36
257.149	11972.95
257.219	11932.07
257.29	11913.08
257.36	11866.76
257.43	11856.98
257.5	11808.01
257.571	11781.21
257.641	11767.47
257.711	11734.89
257.781	11719.47
257.852	11700.72
257.922	11649.96
257.992	11631.41
258.062	11608.17
258.132	11603.06
258.202	11582.44
258.273	11558.15
258.343	11556.55
258.413	11530.77
258.483	11504.89
258.553	11471.97
258.623	11441.46
258.693	11426.95
258.764	11420.78
258.834	11422.61
258.904	11404.97
258.974	11379.96
259.044	11362.85
259.114	11345.84
259.184	11329.12
259.254	11307.05
259.324	11270.32
259.394	11265.31
259.464	11262.42
259.535	11238.22
259.605	11206.41
259.675	11180.3
259.745	11163.43
259.815	11140.01
259.885	11116.44
259.955	11130.03
260.025	11103.58
260.095	11093.02
260.165	11078.76
260.235	11088.78
260.305	11061.51
260.375	11029.6
260.445	11036.64
260.515	11033.36
260.585	11028.49
260.655	11013.31
260.725	11008.5
260.795	10993.94
260.865	10985.75
260.934	10959.24
261.004	10947.05
261.074	10934.19
261.144	10934.23
261.214	10933.7
261.284	10917.37
261.354	10916.89
261.424	10881.37
261.494	10883.87
261.564	10859.63
261.634	10857.42
261.703	10816.07
261.773	10807.49
261.843	10795.3
261.913	10777.43
261.983	10747.79
262.053	10737.91
262.123	10722.21
262.192	10692.14
262.262	10691.47
262.332	10662.27
262.402	10649.35
262.472	10635.86
262.541	10599.77
262.611	10598.04
262.681	10571.68
262.751	10561.52
262.821	10538.73
262.89	10512.9
262.96	10496.81
263.03	10501.77
263.1	10484.66
263.169	10468.19
263.239	10461.73
263.309	10469.54
263.379	10460.24
263.448	10447.47
263.518	10436.19
263.588	10413.21
263.657	10416.49
263.727	10403.38
263.797	10394.71
263.867	10376.26
263.936	10349.04
264.006	10351.45
264.076	10329
264.145	10307.89
264.215	10283.47
264.285	10278.17
264.354	10250.18
264.424	10230.19
264.494	10200.99
264.563	10182.35
264.633	10194.15
264.702	10182.97
264.772	10150.6
264.842	10130.51
264.911	10128.97
264.981	10096.02
265.05	10081.85
265.12	10063.6
265.19	10050.93
265.259	10044.66
265.329	10036.47
265.398	10029.25
265.468	10034.07
265.537	10015.47
265.607	10010.94
265.676	10011.04
265.746	10004.3
265.815	10001.55
265.885	9986.57
265.955	9963.69
266.024	9944.28
266.094	9908.63
266.163	9902.76
266.232	9906.9
266.302	9890.33
266.371	9870.1
266.441	9861.38
266.51	9861.57
266.58	9848.67
266.649	9830.36
266.719	9828.87
266.788	9821.64
266.858	9819.33
266.927	9782.92
266.996	9773.57
267.066	9764.42
267.135	9738.22
267.205	9727.34
267.274	9715.83
267.343	9714.67
267.413	9702.82
267.482	9700.08
267.552	9696.56
267.621	9667.67
267.69	9630.96
267.76	9630.77
267.829	9629.38
267.898	9616.66
267.968	9587.86
268.037	9577.03
268.106	9572.45
268.176	9549.81
268.245	9535.03
268.314	9517.06
268.384	9523.04
268.453	9510.27
268.522	9505.36
268.592	9510.85
268.661	9499.1
268.73	9495.87
268.799	9482.78
268.869	9491.88
268.938	9467.7
269.007	9449.5
269.076	9448.01
269.146	9450.18
269.215	9435.25
269.284	9438.62
269.353	9421.57
269.422	9413.05
269.492	9397.16
269.561	9359.89
269.63	9356.33
269.699	9338.32
269.768	9333.55
269.838	9323.1
269.907	9325.08
269.976	9292.58
270.045	9261.14
270.114	9252.42
270.183	9236.44
270.253	9226.81
270.322	9192.62
270.391	9183.04
270.46	9186.27
270.529	9180.15
270.598	9176.06
270.667	9166.24
270.736	9135.85
270.806	9124.49
270.875	9128.29
270.944	9121.7
271.013	9141.49
271.082	9119.53
271.151	9119.39
271.22	9088.77
271.289	9068.69
271.358	9051.02
271.427	9057.33
271.496	9050.11
271.565	9029.93
271.634	9017.85
271.703	9044.34
271.772	9053.72
271.841	9043.61
271.91	9021.08
271.979	9012.27
272.048	8986.81
272.117	8984.45
272.186	8971.21
272.255	8977.56
272.324	8971.4
272.393	8958.16
272.462	8943.19
272.531	8947.62
272.6	8930.38
272.669	8936.11
272.738	8925.62
272.807	8926.44
272.876	8908.19
272.945	8928.7
273.013	8939.2
273.082	8949.06
273.151	8902.17
273.22	8896.87
273.289	8892.01
273.358	8907.51
273.427	8894.08
273.496	8897.69
273.564	8891.48
273.633	8898.03
273.702	8879.07
273.771	8868.38
273.84	8866.41
273.909	8865.49
273.977	8858.13
274.046	8853.46
274.115	8856.06
274.184	8839.94
274.253	8825.25
274.322	8828.33
274.39	8803.5
274.459	8781.88
274.528	8749.88
274.597	8746.36
274.665	8743.62
274.734	8750.45
274.803	8735.87
274.872	8726.05
274.94	8711.61
275.009	8771.47
275.078	8757.7
275.147	8754.43
275.215	8752.84
275.284	8761.22
275.353	8751.06
275.421	8724.06
275.49	8734.55
275.559	8724.25
275.627	8724.01
275.696	8722.86
275.765	8719.25
275.833	8709.62
275.902	8712.37
275.971	8727.09
276.039	8737.25
276.108	8735.27
276.177	8726.32
276.245	8710.78
276.314	8709.38
276.383	8709.28
276.451	8638.5
276.52	8636.96
276.588	8649.86
276.657	8655.63
276.725	8643.26
276.794	8641.63
276.863	8653.95
276.931	8632.1
277	8638.4
277.068	8646.97
277.137	8654.96
277.205	8652.12
277.274	8666.94
277.342	8671.17
277.411	8652.07
277.48	8643.02
277.548	8636.04
277.617	8637.73
277.685	8635.71
277.754	8640.47
277.822	8636
277.89	8653.32
277.959	8651.4
278.027	8633.25
278.096	8623.63
278.164	8655.06
278.233	8648.28
278.301	8640.96
278.37	8649.33
278.438	8633.89
278.507	8636.53
278.575	8610.11
278.643	8602.99
278.712	8588.12
278.78	8572.77
278.849	8582.25
278.917	8585.47
278.985	8569.54
279.054	8571.03
279.122	8579.94
279.191	8573.59
279.259	8572.62
279.327	8549.04
279.396	8562.03
279.464	8554.57
279.532	8557.9
279.601	8549.9
279.669	8547.4
279.737	8561.26
279.806	8562.56
279.874	8574.21
279.942	8570.69
280.011	8567.76
280.079	8579.02
280.147	8595.48
280.215	8603.08
280.284	8597.36
280.352	8589.22
280.42	8601.78
280.488	8587.59
280.557	8580.8
280.625	8585.28
280.693	8580.51
280.761	8585.08
280.83	8571.18
280.898	8584.79
280.966	8567.47
281.034	8533.2
281.102	8508.81
281.171	8498.27
281.239	8509.63
281.307	8503.61
281.375	8494.71
281.443	8526.42
281.512	8519.16
281.58	8526.81
281.648	8511.17
281.716	8511.99
281.784	8508.52
281.852	8510.69
281.92	8513.67
281.989	8524.74
282.057	8509.2
282.125	8565.13
282.193	8562.97
282.261	8554.74
282.329	8550.31
282.397	8551.66
282.465	8556.66
282.533	8580.91
282.601	8570.86
282.67	8540.97
282.738	8528.41
282.806	8538.23
282.874	8523.5
282.942	8532.79
283.01	8519.5
283.078	8525.95
283.146	8525.08
283.214	8535.67
283.282	8531.48
283.35	8545.97
283.418	8536.49
283.486	8535.77
283.554	8486.38
283.622	8487.15
283.69	8490.8
283.758	8484.69
283.826	8486.95
283.894	8496.53
283.962	8517.76
284.03	8532.14
284.098	8536.47
284.165	8534.6
284.233	8533.35
284.301	8525.17
284.369	8511.69
284.437	8505.68
284.505	8502.4
284.573	8510.05
284.641	8496.44
284.709	8503.32
284.777	8483.68
284.845	8487.2
284.912	8498.02
284.98	8500.67
285.048	8490.9
285.116	8493.02
285.184	8506.78
285.252	8510.49
285.319	8495.28
285.387	8483.2
285.455	8468.23
285.523	8473.43
285.591	8473.96
285.659	8476.17
285.726	8488.2
285.794	8472.13
285.862	8467.8
285.93	8469.1
285.997	8469.05
286.065	8465.35
286.133	8457.26
286.201	8459.86
286.269	8451.25
286.336	8442.73
286.404	8433.06
286.472	8445.62
286.539	8427.38
286.607	8409.53
286.675	8411.55
286.743	8417.33
286.81	8414.63
286.878	8425.46
286.946	8421.27
287.013	8420.69
287.081	8419.73
287.149	8402.5
287.216	8424.16
287.284	8417.71
287.352	8414
287.419	8407.46
287.487	8422.28
287.555	8425.12
287.622	8420.6
287.69	8427.43
287.758	8442.01
287.825	8441.72
287.893	8425.51
287.96	8433.11
288.028	8445.67
288.096	8444.03
288.163	8446.87
288.231	8426.76
288.298	8427.09
288.366	8440.47
288.433	8435.76
288.501	8434.02
288.569	8436.86
288.636	8426.61
288.704	8437.82
288.771	8444.9
288.839	8440.09
288.906	8435.27
288.974	8447.16
289.041	8448.46
289.109	8438.98
289.176	8443.79
289.244	8448.08
289.311	8462.32
289.379	8474.69
289.446	8475.46
289.514	8478.25
289.581	8479.5
289.649	8488.78
289.716	8492.63
289.783	8479.5
289.851	8499.71
289.918	8492.39
289.986	8499.85
290.053	8508.22
290.121	8507.79
290.188	8509.04
290.255	8533.2
290.323	8528.92
290.39	8520.06
290.458	8527.13
290.525	8540.37
290.592	8533.58
290.66	8535.46
290.727	8525.3
290.794	8535.75
290.862	8540.37
290.929	8539.98
290.996	8538.54
291.064	8549.08
291.131	8555.33
291.198	8575.12
291.266	8574.83
291.333	8582.53
291.4	8589.21
291.468	8601.87
291.535	8602.02
291.602	8605.14
291.669	8605.05
291.737	8607.98
291.804	8606.49
291.871	8618.86
291.938	8622.76
292.006	8650.49
292.073	8667.47
292.14	8687.45
292.207	8678.98
292.275	8675.17
292.342	8688.07
292.409	8711.27
292.476	8730.48
292.543	8725.57
292.611	8725.38
292.678	8741.16
292.745	8761.47
292.812	8773.6
292.879	8775.77
292.946	8781.79
293.014	8800.99
293.081	8807.97
293.148	8817.6
293.215	8831.84
293.282	8828.23
293.349	8840.6
293.416	8820.53
293.484	8829.63
293.551	8838.29
293.618	8857.74
293.685	8886.86
293.752	8876.42
293.819	8874.01
293.886	8863.27
293.953	8869.44
294.02	8878.05
294.087	8883.06
294.154	8878.1
294.221	8887.83
294.288	8888.64
294.356	8901.74
294.423	8901.4
294.49	8892.4
294.557	8907.8
294.624	8896.73
294.691	8914.11
294.758	8913.58
294.825	8922.63
294.892	8913.05
294.959	8916.56
295.026	8919.16
295.093	8910.98
295.16	8915.5
295.226	8915.12
295.293	8940.92
295.36	8945.78
295.427	8957.96
295.494	8971.11
295.561	8978.95
295.628	9009.44
295.695	9023.64
295.762	9033.22
295.829	9045.3
295.896	9061.86
295.963	9074.52
296.03	9091.28
296.096	9097.53
296.163	9109.57
296.23	9123.73
296.297	9135.95
296.364	9134.6
296.431	9138.55
296.498	9132.68
296.564	9164.26
296.631	9169.99
296.698	9157.23
296.765	9177.21
296.832	9167.43
296.899	9153.81
296.965	9171.38
297.032	9150.58
297.099	9167.82
297.166	9171.67
297.233	9171.38
297.299	9162.76
297.366	9162.14
297.433	9168.11
297.5	9178.75
297.566	9180.48
297.633	9181.06
297.7	9190.4
297.767	9187.75
297.833	9198.25
297.9	9196.56
297.967	9174.56
298.033	9182.65
298.1	9207.54
298.167	9196.37
298.234	9197.48
298.3	9207.16
298.367	9201.24
298.434	9208.65
298.5	9196.81
298.567	9194.25
298.634	9186.94
298.7	9209.04
298.767	9212.94
298.834	9220.45
298.9	9211.3
298.967	9202.97
299.033	9214.72
299.1	9226.76
299.167	9238.17
299.233	9236.14
299.3	9251.69
299.366	9264.21
299.433	9284.15
299.5	9259.35
299.566	9266.71
299.633	9284.53
299.699	9296.23
299.766	9294.59
299.832	9294.93
299.899	9300.52
299.965	9313.47
300.032	9315.15
300.099	9321.08
300.165	9324.3
300.232	9324.54
300.298	9329.55
300.365	9346.26
300.431	9346.84
300.498	9334.46
300.564	9346.16
300.631	9356.61
300.697	9375.34
300.763	9387.43
300.83	9387.67
300.896	9402.07
300.963	9417
301.029	9422.05
301.096	9423.79
301.162	9441.55
301.229	9437.03
301.295	9432.16
301.361	9439
301.428	9441.22
301.494	9428.26
301.561	9427.73
301.627	9431.73
301.693	9436.88
301.76	9436.93
301.826	9423.74
301.892	9441.89
301.959	9453.4
302.025	9447.53
302.092	9445.5
302.158	9441.84
302.224	9437.94
302.291	9432.65
302.357	9423.55
302.423	9419.4
302.49	9409.58
302.556	9416.03
302.622	9422.25
302.688	9431.3
302.755	9437.13
302.821	9448.97
302.887	9451.04
302.954	9450.56
303.02	9456.24
303.086	9460.82
303.152	9456.34
303.219	9457.88
303.285	9457.78
303.351	9450.61
303.417	9453.88
303.483	9439.77
303.55	9438.28
303.616	9436.98
303.682	9434.43
303.748	9426.92
303.815	9437.9
303.881	9447.09
303.947	9430.72
304.013	9424.32
304.079	9423.59
304.145	9406.93
304.212	9409.15
304.278	9405.34
304.344	9402.74
304.41	9388.44
304.476	9379.34
304.542	9379.15
304.608	9391.09
304.674	9374.19
304.741	9375.54
304.807	9377.22
304.873	9390.41
304.939	9404.04
305.005	9389.98
305.071	9386.76
305.137	9388.87
305.203	9365.18
305.269	9366.05
305.335	9380.74
305.401	9387
305.467	9382.04
305.533	9384.88
305.599	9388.01
305.666	9396.1
305.732	9401.49
305.798	9416.47
305.864	9439.2
305.93	9443.77
305.996	9436.74
306.062	9438.33
306.128	9435.25
306.194	9421.28
306.259	9417.58
306.325	9407.03
306.391	9417.43
306.457	9427.93
306.523	9430.29
306.589	9455.86
306.655	9445.31
306.721	9423.45
306.787	9399.23
306.853	9415.22
306.919	9403.47
306.985	9393.74
307.051	9393.02
307.117	9384.4
307.183	9375.88
307.248	9348.52
307.314	9348.04
307.38	9350.69
307.446	9362.63
307.512	9349.25
307.578	9352.95
307.644	9341.93
307.709	9349.54
307.775	9351.8
307.841	9351.08
307.907	9351.17
307.973	9333.21
308.039	9333.35
308.104	9345.25
308.17	9358.1
308.236	9340
308.302	9345.2
308.368	9336.29
308.433	9328.87
308.499	9324.3
308.565	9311.44
308.631	9315.44
308.696	9296.23
308.762	9288.57
308.828	9283.71
308.894	9271.14
308.959	9252.66
309.025	9248.42
309.091	9238.11
309.156	9218.61
309.222	9218.03
309.288	9217.17
309.354	9194.44
309.419	9190.78
309.485	9173.98
309.551	9170.56
309.616	9159.92
309.682	9150.1
309.748	9146.87
309.813	9142.49
309.879	9137.58
309.945	9129.64
310.01	9119
310.076	9117.55
310.141	9106.19
310.207	9092.85
310.273	9098.92
310.338	9108.07
310.404	9087.22
310.469	9075.81
310.535	9077.4
310.601	9053.95
310.666	9049.91
310.732	9056.89
310.797	9048.75
310.863	9031.33
310.928	9024.44
310.994	9032.91
311.059	9036.57
311.125	9031.66
311.191	9043.32
311.256	9028.44
311.322	9029.84
311.387	9021.8
311.453	9454.19
311.518	9428.29
311.584	9420.4
311.649	9414.33
311.715	9397.87
311.78	9406.05
311.846	9396.66
311.911	9394.88
311.976	9399.36
312.042	9387.18
312.107	9377.41
312.173	9366.87
312.238	9368.69
312.304	9366.67
312.369	9344.86
312.434	9326.96
312.5	9316.51
312.565	9284.35
312.631	9287.39
312.696	9280.16
312.761	9276.84
312.827	8838.53
312.892	8879.35
312.958	8875.93
313.023	8877.91
313.088	8877.76
313.154	8859.19
313.219	8850.71
313.284	8840.08
313.35	8837.52
313.415	8824.29
313.48	8817.02
313.546	8821.3
313.611	8826.31
313.676	8815.86
313.741	8812.49
313.807	8826.89
313.872	8829.2
313.937	8837.67
314.003	8847.83
314.068	8851.53
314.133	8858.61
314.198	8844.99
314.264	8821.44
314.329	8813.5
314.394	8808.11
314.459	8806.43
314.525	8830.88
314.59	8829.91
314.655	8816.92
314.72	8820.29
314.785	8826.59
314.851	8823.61
314.916	8806.81
314.981	8795.31
315.046	8780.77
315.111	8765.08
315.176	8748.19
315.242	8757.77
315.307	8749.49
315.372	8729.13
315.437	8716.95
315.502	8701.55
315.567	8716.9
315.632	8702.51
315.698	8704.77
315.763	8701.64
315.828	8693.13
315.893	8687.35
315.958	8682.83
316.023	8677.97
316.088	8655.25
316.153	8628.16
316.218	8618.24
316.283	8599.91
316.348	8580.42
316.413	8582.2
316.479	8572.39
316.544	8541.64
316.609	8508.1
316.674	8472.06
316.739	8436.46
316.804	8408.55
316.869	8374.63
316.934	8330.7
316.999	8304.38
317.064	8245.74
317.129	8202.34
317.194	8165.87
317.259	8117.47
317.324	8064.61
317.389	8023.53
317.454	7986.3
317.518	7956.38
317.583	7929.78
317.648	7903.13
317.713	7866.39
317.778	7807.86
317.843	7781.07
317.908	7742.46
317.973	7701.73
318.038	7673.17
318.103	7637.55
318.168	7611
318.233	7581.91
318.297	7537.54
318.362	7499.27
318.427	7463.99
318.492	7437.21
318.557	7389.3
318.622	7362.04
318.687	7337.96
318.751	7294.71
318.816	7263.37
318.881	7229.78
318.946	7173.45
319.011	7134.96
319.075	7100.41
319.14	7068.51
319.205	7025.26
319.27	6996.58
319.335	6953.34
319.399	6915.29
319.464	6887.29
319.529	6829.55
319.594	6792.08
319.658	6762.64
319.723	6718.79
319.788	6694.2
319.853	6639.16
319.917	6616.88
319.982	6564.39
320.047	6528.9
320.112	6501.97
320.176	6450.55
320.241	6416.27
320.306	6391.78
320.37	6349.35
320.435	6314.6
320.5	6288.05
320.564	6241.4
320.629	6199.89
320.694	6164.09
320.758	6123.98
320.823	6084.25
320.888	6056.28
320.952	6004.37
321.017	5961.19
321.082	5923.49
321.146	5890.53
321.211	5856.96
321.275	5813.65
321.34	5767.95
321.405	5725.51
321.469	5682.25
321.534	5641.89
321.598	5592.26
321.663	5561.76
321.727	5530.26
321.792	5485.29
321.857	5438.31
321.921	5405.43
321.986	5363.98
322.05	5310.42
322.115	5271.08
322.179	5226.57
322.244	5172.35
322.308	5140.44
322.373	5095.85
322.437	5053.41
322.502	5027.2
322.566	4985.67
322.631	4951.53
322.695	4913.37
322.76	4868.17
322.824	4833.99
322.889	4792.97
322.953	4744.83
323.018	4680.29
323.082	4618.99
323.146	4569.9
323.211	4518.79
323.275	4475.63
323.34	4430.81
323.404	4400.1
323.468	4359.87
323.533	4316.16
323.597	4272.28
323.662	4222.4
323.726	4187.5
323.79	4145.28
323.855	4080.09
323.919	4030.47
323.983	3981.61
324.048	3917.89
324.112	4068.27
324.177	3939.44
324.241	3735.02
324.305	3540.26
324.37	3342.34
324.434	3152.78
324.498	3109.16
324.562	3061.25
324.627	3000.77
324.691	2945.4
324.755	2880.29
324.82	2804.15
324.884	2730.54
324.948	2662.43
325.012	2572.52
325.077	2454.12
