Data from 20250702_urea_0.5M_MAYP1162681_00-24-59-537.txt Node
Date: Thu Jul 03 00:24:59 BST 2025
User: adleo
Spectrometer: MAYP116268
Trigger mode: 0
Integration Time (sec): 1.000000E0
Scans to average: 1
Electric dark correction enabled: true
Nonlinearity correction enabled: true
Boxcar width: 10
XAxis mode: Wavelengths
Number of Pixels in Spectrum: 2068
>>>>>Begin Spectral Data<<<<<
179.565	1214.64
179.642	1270.35
179.718	1314.73
179.795	1350.84
179.871	1385.27
179.948	1405.41
180.024	1424.06
180.101	1446.46
180.177	1461.04
180.254	1484.45
180.33	1505.81
180.407	1564.79
180.483	1659.42
180.56	1748.22
180.636	1833.44
180.712	1819.6
180.789	1827.83
180.865	1842.13
180.942	1848.59
181.018	1859.76
181.095	1874.41
181.171	1879.59
181.248	1882.02
181.324	1895.76
181.4	1906.17
181.477	1914.11
181.553	1925.52
181.63	1945.58
181.706	1962.13
181.782	1969.4
181.859	1968.4
181.935	1975.25
182.011	1967.4
182.088	1986.95
182.164	2007.88
182.24	2022
182.317	2031.55
182.393	2031.55
182.469	2043.73
182.546	2060.42
182.622	2064.32
182.698	2059.23
182.775	2071.36
182.851	2085.3
182.927	2079.49
183.003	2074.5
183.08	2072.31
183.156	2081.06
183.232	2077.16
183.308	2067.6
183.385	2077.59
183.461	2096.81
183.537	2096.28
183.613	2109.12
183.69	2097.23
183.766	2086.15
183.842	2092.9
183.918	2098.99
183.995	2115.4
184.071	2121.87
184.147	2114.97
184.223	2103.94
184.299	2117.41
184.375	2106.13
184.452	2110.94
184.528	2166.05
184.604	2178.51
184.68	2188.35
184.756	2196.59
184.832	2205.1
184.908	2206.67
184.985	2206.19
185.061	2189.92
185.137	2200.91
185.213	2188.83
185.289	2191.73
185.365	2185.31
185.441	2183.08
185.517	2196.64
185.593	2190.55
185.669	2184.75
185.745	2192.93
185.822	2210.48
185.898	2200.39
185.974	2207.9
186.05	2201.38
186.126	2162.74
186.202	2155.03
186.278	2152.27
186.354	2144.99
186.43	2150.13
186.506	2150.8
186.582	2152.13
186.658	2158.27
186.734	2138.19
186.81	2139.57
186.886	2144.23
186.962	2154.51
187.038	2150.99
187.114	2141.04
187.19	2152.08
187.266	2142.85
187.341	2144.38
187.417	2135.48
187.493	2138.67
187.569	2144.23
187.645	2139.38
187.721	2127.44
187.797	2133.67
187.873	2136.14
187.949	2129.63
188.025	2123.92
188.101	2125.87
188.176	2130.53
188.252	2125.58
188.328	2134.76
188.404	2134.62
188.48	2127.39
188.556	2120.49
188.632	2120.82
188.707	2122.87
188.783	2116.59
188.859	2111.5
188.935	2100.61
189.011	2108.03
189.086	2097.61
189.162	2087.81
189.238	2084.2
189.314	2080.63
189.39	2075.63
189.465	2070.35
189.541	2086.24
189.617	2068.22
189.693	2064.46
189.768	2065.7
189.844	2093.92
189.92	2084.98
189.996	2096.59
190.071	2107.53
190.147	2109.57
190.223	2121.04
190.298	2113.48
190.374	2101.39
190.45	2114.42
190.526	2122.51
190.601	2118.8
190.677	2121.99
190.753	2147.26
190.828	2149.21
190.904	2163.19
190.98	2180.52
191.055	2191.17
191.131	2179.66
191.207	2202.63
191.282	2213.9
191.358	2203.82
191.433	2183.35
191.509	2197
191.585	2193.57
191.66	2193.91
191.736	2201.28
191.811	2192.67
191.887	2207.75
191.963	2227.88
192.038	2232.64
192.114	2233.68
192.189	2236.25
192.265	2231.35
192.34	2212.6
192.416	2211.08
192.491	2206.7
192.567	2204.8
192.642	2206.65
192.718	2212.22
192.793	2200.28
192.869	2193.66
192.944	2195.28
193.02	2204.65
193.095	2206.6
193.171	2212.93
193.246	2215.22
193.322	2212.36
193.397	2211.27
193.473	2199.99
193.548	2184.67
193.624	2192.38
193.699	2191.76
193.775	2209.7
193.85	2211.94
193.925	2218.88
194.001	2220.6
194.076	2213.98
194.152	2206.37
194.227	2198.28
194.302	2186.48
194.378	2192.48
194.453	2191.86
194.529	2205.09
194.604	2191.86
194.679	2188.53
194.755	2170.59
194.83	2180.59
194.905	2180.02
194.981	2188.44
195.056	2180.07
195.131	2184.07
195.207	2179.97
195.282	2172.08
195.357	2151.14
195.433	2170.31
195.508	2160.03
195.583	2167.07
195.659	2181.97
195.734	2188.44
195.809	2188.87
195.884	2197.76
195.96	2197.14
196.035	2212.37
196.11	2208.51
196.185	2220.46
196.261	2222.69
196.336	2251.67
196.411	2239.34
196.486	2242.01
196.561	2234.68
196.637	2241.24
196.712	2261.57
196.787	2264.09
196.862	2277.6
196.937	2288.45
197.013	2291.69
197.088	2305.63
197.163	2326.82
197.238	2342.77
197.313	2343.29
197.388	2357.05
197.464	2386.62
197.539	2398.75
197.614	2390.85
197.689	2407.04
197.764	2422.85
197.839	2445.65
197.914	2440.41
197.989	2461.51
198.065	2477.88
198.14	2528.33
198.215	2556.52
198.29	2567.1
198.365	2580.72
198.44	2591.52
198.515	2620.2
198.59	2635.92
198.665	2659.11
198.74	2667.02
198.815	2667.93
198.89	2690.93
198.965	2720.91
199.04	2716.52
199.115	2731.19
199.19	2773.64
199.265	2773.02
199.34	2783.27
199.415	2815.93
199.49	2836.6
199.565	2849.42
199.64	2873.06
199.715	2869.76
199.79	2876.01
199.865	2881.68
199.94	2880.63
200.015	2914.05
200.09	2915.72
200.165	2921.53
200.24	2928.2
200.315	2969.42
200.39	2987.02
200.464	2992.07
200.539	2993.12
200.614	3011.37
200.689	3030.83
200.764	3041.7
200.839	3060.52
200.914	3064.77
200.989	3054.22
201.063	3068.29
201.138	3050.14
201.213	3048.7
201.288	3030.64
201.363	3039.17
201.438	3040.08
201.512	3059.04
201.587	3040.92
201.662	3050.79
201.737	3062.52
201.812	3073.64
201.886	3037.9
201.961	3049.49
202.036	3040.1
202.111	3037.48
202.186	3009.7
202.26	2997.3
202.335	2973.36
202.41	2969.59
202.485	2952.96
202.559	2933.85
202.634	2909.11
202.709	2917.49
202.784	2899.09
202.858	2902.86
202.933	2882.75
203.008	2876.31
203.082	2854.53
203.157	2855.2
203.232	2808.85
203.306	2789.78
203.381	2752.98
203.456	2731.88
203.53	2705.6
203.605	2686.93
203.68	2661.1
203.754	2650.92
203.829	2633.95
203.904	2613.38
203.978	2597.65
204.053	2602.18
204.127	2586.22
204.202	2583.51
204.277	2564.65
204.351	2558.08
204.426	2546.98
204.5	2539.31
204.575	2504.32
204.65	2511.99
204.724	2502.79
204.799	2513.92
204.873	2511.07
204.948	2512.35
205.022	2501.97
205.097	2495.35
205.171	2505.11
205.246	2514.78
205.32	2515.59
205.395	2516.02
205.469	2506.93
205.544	2510.88
205.618	2493.36
205.693	2506.74
205.767	2495.36
205.842	2518.89
205.916	2511.51
205.991	2504.08
206.065	2508.41
206.14	2522.5
206.214	2518.64
206.289	2511.35
206.363	2522.92
206.438	2521.35
206.512	2528.97
206.586	2549.87
206.661	2557.93
206.735	2538.08
206.81	2540.03
206.884	2553.31
206.958	2543.27
207.033	2561.74
207.107	2573.41
207.181	2605.43
207.256	2601.19
207.33	2622.71
207.405	2635.63
207.479	2657.02
207.553	2665.92
207.628	2651.69
207.702	2669.36
207.776	2668.45
207.851	2676.65
207.925	2695.81
207.999	2700.48
208.073	2704.38
208.148	2713.25
208.222	2709.1
208.296	2748.11
208.371	2770.52
208.445	2792.25
208.519	2830.65
208.593	2851.33
208.668	2860.39
208.742	2877.8
208.816	2888.95
208.89	2913.94
208.965	2926.77
209.039	2952.43
209.113	2985.85
209.187	3024.15
209.261	3040.79
209.336	3082.85
209.41	3127.17
209.484	3148.21
209.558	3195.15
209.632	3236.89
209.707	3270.38
209.781	3319.29
209.855	3368.36
209.929	3417.51
210.003	3461.19
210.077	3499.05
210.151	3589.47
210.226	3660.22
210.3	3728.81
210.374	3798.76
210.448	3850.21
210.522	3909.67
210.596	3972.7
210.67	4035.46
210.744	4139.05
210.818	4225.89
210.892	4303.95
210.966	4357.93
211.041	4441.25
211.115	4500.75
211.189	4582.32
211.263	4666.66
211.337	4744.47
211.411	4825.82
211.485	4897.08
211.559	4980.48
211.633	5061.24
211.707	5110.8
211.781	5203.36
211.855	5251.09
211.929	5328.74
212.003	5400.79
212.077	5503.35
212.151	5605.92
212.225	5709.84
212.299	5798.38
212.373	5882.59
212.447	5974.82
212.52	6097.11
212.594	6193.34
212.668	6306.59
212.742	6396.48
212.816	6499.17
212.89	6595.51
212.964	6696.18
213.038	6805.85
213.112	6924.07
213.186	7039.01
213.26	7119.18
213.333	7182.46
213.407	7298.11
213.481	7413.18
213.555	7532.45
213.629	7624.38
213.703	7716.57
213.777	7821.37
213.85	7907.9
213.924	8052.83
213.998	8161.94
214.072	8271.56
214.146	8377.41
214.219	8484.43
214.293	8595.19
214.367	8703.62
214.441	8823.31
214.515	8930.22
214.588	9014.37
214.662	9094.18
214.736	9190.51
214.81	9304.16
214.883	9417.72
214.957	9507.99
215.031	9604.92
215.105	9689.95
215.178	9784.73
215.252	9884.62
215.326	9967.28
215.4	10052.14
215.473	10107.11
215.547	10189.78
215.621	10279.74
215.694	10382.22
215.768	10462.34
215.842	10546.9
215.915	10635.27
215.989	10712.08
216.063	10800.26
216.136	10894.9
216.21	10989.92
216.284	11087.9
216.357	11188.32
216.431	11279.6
216.504	11382.83
216.578	11499.85
216.652	11600.62
216.725	11695.76
216.799	11796.4
216.873	11894.77
216.946	11994.35
217.02	12075.32
217.093	12167.19
217.167	12226.87
217.24	12299.99
217.314	12384.2
217.387	12470.39
217.461	12551.51
217.535	12649.27
217.608	12717.29
217.682	12796.15
217.755	12891.98
217.829	12961.3
217.902	13042.24
217.976	13125.73
218.049	13194.33
218.123	13254.73
218.196	13333.6
218.27	13409.04
218.343	13470.12
218.417	13542.19
218.49	13612.28
218.563	13707.63
218.637	13779.84
218.71	13878.81
218.784	13959.07
218.857	14050.32
218.931	14132.32
219.004	14214.47
219.077	14291.54
219.151	14374.27
219.224	14447.63
219.298	14524.23
219.371	14611.92
219.444	14671.45
219.518	14745.39
219.591	14823.58
219.665	14920.28
219.738	15004.39
219.811	15061.61
219.885	15141.58
219.958	15222.41
220.031	15295.68
220.105	15363.98
220.178	15431.71
220.251	15488.44
220.325	15557.95
220.398	15619.98
220.471	15687.22
220.544	15754.22
220.618	15807.77
220.691	15878.24
220.764	15947.35
220.838	16011.22
220.911	16070.4
220.984	16159.77
221.057	16227.48
221.131	16296.21
221.204	16324.55
221.277	16395.84
221.35	16487.94
221.424	16542.69
221.497	16597.25
221.57	16653.98
221.643	16718.61
221.716	16791.43
221.79	16842.04
221.863	16900.55
221.936	16962.24
222.009	17020.02
222.082	17080.17
222.155	17126.82
222.229	17188.65
222.302	17245.14
222.375	17296.27
222.448	17354.78
222.521	17400.17
222.594	17442.15
222.667	17481.33
222.74	17535.21
222.814	17589.23
222.887	17627.35
222.96	17683.64
223.033	17733.38
223.106	17785.18
223.179	17837.76
223.252	17878.05
223.325	17928.5
223.398	17970.14
223.471	18007.39
223.544	18047.2
223.617	18088.31
223.69	18142.76
223.763	18166.23
223.837	18211.19
223.91	18250.32
223.983	18264.97
224.056	18286.95
224.129	18327.67
224.202	18369.79
224.275	18406.94
224.348	18419.76
224.42	18444
224.493	18463.08
224.566	18482.84
224.639	18519.95
224.712	18540.04
224.785	18568.57
224.858	18596.67
224.931	18622.3
225.004	18640.57
225.077	18668.23
225.15	18667.41
225.223	18688.37
225.296	18746.01
225.369	18753.96
225.442	18767.64
225.514	18805.38
225.587	18841.95
225.66	18880.12
225.733	18906.87
225.806	18932.65
225.879	18964.07
225.952	18978.33
226.025	19010.71
226.097	19071.43
226.17	19096.49
226.243	19099.62
226.316	19120.92
226.389	19149.5
226.461	19174.9
226.534	19209.93
226.607	19236.19
226.68	19291.52
226.753	19319.37
226.825	19322.98
226.898	19366.93
226.971	19401.92
227.044	19440.66
227.117	19463.12
227.189	19480.71
227.262	19513.53
227.335	19548.71
227.407	19561.24
227.48	19590.34
227.553	19625.57
227.626	19629.04
227.698	19646.63
227.771	19684.02
227.844	19699.3
227.916	19724.36
227.989	19735.01
228.062	19744.12
228.134	19777.56
228.207	19793.03
228.28	19799.73
228.352	19808.6
228.425	19819.68
228.498	19836.4
228.57	19830.43
228.643	19859.29
228.716	19874.86
228.788	19879.92
228.861	19877.22
228.934	19899.29
229.006	19910.81
229.079	19905.89
229.151	19906.52
229.224	19904.4
229.296	19921.51
229.369	19955.92
229.442	19978.04
229.514	19979
229.587	20013.5
229.659	20002.85
229.732	20008.11
229.804	20031.87
229.877	20074.42
229.949	20101.7
230.022	20134.85
230.094	20153.12
230.167	20154.18
230.239	20154.85
230.312	20169.21
230.384	20200.87
230.457	20206.51
230.529	20217.98
230.602	20238.32
230.674	20262.95
230.747	20285.74
230.819	20302.08
230.892	20282.27
230.964	20292.49
231.037	20312.34
231.109	20312.82
231.181	20337.74
231.254	20338.99
231.326	20344
231.399	20333.26
231.471	20328.77
231.544	20300.29
231.616	20312.82
231.688	20322.94
231.761	20318.85
231.833	20322.22
231.905	20310.27
231.978	20327.57
232.05	20327.33
232.122	20325.26
232.195	20308.92
232.267	20328.97
232.339	20318.46
232.412	20337.54
232.484	20323.71
232.556	20309.59
232.629	20323.62
232.701	20331.09
232.773	20327.71
232.846	20318.9
232.918	20317.5
232.99	20320.2
233.062	20334.12
233.135	20332.73
233.207	20323.81
233.279	20332.73
233.351	20335.76
233.424	20326.99
233.496	20301.02
233.568	20319.43
233.64	20308
233.713	20309.31
233.785	20291.33
233.857	20289.31
233.929	20259.81
234.001	20278.46
234.074	20282.61
234.146	20252.49
234.218	20225.45
234.29	20213.02
234.362	20194.51
234.434	20178.17
234.507	20141.89
234.579	20109.41
234.651	20096.25
234.723	20085.74
234.795	20068.59
234.867	20049.21
234.939	20054.08
235.012	20049.89
235.084	20034.95
235.156	20019.09
235.228	20001.07
235.3	19981.41
235.372	19959.92
235.444	19959.43
235.516	19911.92
235.588	19913.41
235.66	19892.59
235.732	19880.16
235.804	19932.26
235.876	19929.56
235.948	19922.04
236.02	19923.68
236.092	19908.11
236.164	19879.97
236.236	19862.96
236.308	19845.75
236.38	19832.16
236.452	19801.56
236.524	19777.95
236.596	19779.06
236.668	19771.35
236.74	19749.04
236.812	19735.16
236.884	19738.92
236.956	19720.89
237.028	19691.88
237.1	19653.67
237.172	19653.76
237.244	19644.9
237.316	19574.58
237.388	19547.31
237.46	19517.96
237.532	19504.71
237.604	19478.69
237.675	19478.3
237.747	19456.08
237.819	19427.36
237.891	19406.74
237.963	19376.33
238.035	19355.56
238.107	19290.99
238.178	19271.61
238.25	19245.3
238.322	19245.16
238.394	19198.85
238.466	19178.03
238.538	19173.4
238.609	19159.28
238.681	19111.96
238.753	19073.26
238.825	19045.99
238.897	19019.2
238.968	19016.98
239.04	18980.88
239.112	18986.67
239.184	18940.94
239.255	18918.53
239.327	18897.71
239.399	18868.6
239.471	18850.19
239.542	18827.4
239.614	18821.86
239.686	18779.07
239.758	18766.2
239.829	18724.66
239.901	18707.79
239.973	18676.13
240.044	18649.53
240.116	18628.62
240.188	18602.59
240.259	18580.38
240.331	18544.86
240.403	18535.56
240.474	18478.55
240.546	18437.16
240.618	18380.73
240.689	18352.01
240.761	18316.73
240.833	18300.06
240.904	18269.99
240.976	18235.19
241.048	18205.51
241.119	18174.47
241.191	18147.24
241.262	18131.53
241.334	18093.85
241.405	18058.33
241.477	18021.56
241.549	17982.48
241.62	17945.47
241.692	17926.24
241.763	17904.55
241.835	17880.51
241.906	17836.8
241.978	17788.12
242.049	17771.88
242.121	17759.02
242.192	17744.32
242.264	17697.28
242.335	17650.73
242.407	17622.01
242.478	17594.01
242.55	17570.1
242.621	17534.25
242.693	17498.34
242.764	17462.87
242.836	17429.77
242.907	17402.39
242.979	17376.42
243.05	17349.67
243.122	17329.38
243.193	17294.54
243.264	17239.26
243.336	17204.7
243.407	17184.99
243.479	17187.16
243.55	17166.15
243.622	17131.16
243.693	17103.21
243.764	17088.37
243.836	17049.38
243.907	17017.95
243.978	16980.17
244.05	16948.07
244.121	16894.62
244.192	16871.44
244.264	16813.32
244.335	16783.05
244.407	16745.46
244.478	16723.77
244.549	16686.66
244.62	16629.69
244.692	16587.09
244.763	16560.14
244.834	16526.6
244.906	16489.68
244.977	16458.45
245.048	16436.71
245.119	16401
245.191	16357.24
245.262	16310.44
245.333	16297.04
245.405	16267.49
245.476	16248.17
245.547	16224.5
245.618	16208.79
245.689	16184.3
245.761	16165.07
245.832	16133.55
245.903	16104.3
245.974	16067.33
246.045	16043.28
246.117	16032.53
246.188	15997.05
246.259	15960.95
246.33	15924.13
246.401	15885.47
246.473	15829.85
246.544	15786.71
246.615	15762.71
246.686	15721.06
246.757	15704.43
246.828	15658.5
246.899	15640.28
246.97	15594.34
247.042	15547.54
247.113	15520.45
247.184	15509.22
247.255	15469.16
247.326	15438.94
247.397	15411.85
247.468	15386.21
247.539	15351.6
247.61	15314.82
247.681	15297.66
247.752	15285.13
247.823	15245.7
247.894	15220.01
247.965	15188.2
248.037	15154.12
248.108	15109.05
248.179	15088.75
248.25	15062.19
248.321	15041.18
248.392	14992.97
248.463	14984.88
248.534	14955.04
248.605	14935.37
248.675	14894.54
248.746	14875.79
248.817	14859.79
248.888	14831.88
248.959	14787.44
249.03	14765.45
249.101	14734.41
249.172	14703.61
249.243	14658.01
249.314	14648.8
249.385	14625.37
249.456	14611.15
249.527	14583.14
249.598	14564.97
249.669	14537.11
249.739	14506.69
249.81	14486.25
249.881	14449.91
249.952	14418.81
250.023	14391.19
250.094	14342.65
250.165	14302.83
250.235	14270.1
250.306	14244.84
250.377	14208.2
250.448	14181.59
250.519	14140.57
250.59	14127.8
250.66	14096.56
250.731	14080.99
250.802	14054.04
250.873	14035.96
250.944	14000.24
251.014	13967.37
251.085	13964.18
251.156	13936.51
251.227	13931.6
251.297	13929.86
251.368	13910.68
251.439	13892.89
251.51	13886.52
251.58	13860.3
251.651	13839.91
251.722	13830.12
251.792	13770.01
251.863	13742.82
251.934	13735.88
252.005	13738.53
252.075	13708.5
252.146	13694.81
252.217	13680.01
252.287	13663.52
252.358	13629.01
252.429	13630.6
252.499	13599.89
252.57	13575.11
252.641	13567.88
252.711	13534.52
252.782	13483.08
252.852	13478.31
252.923	13456.67
252.994	13436.56
253.064	13426.25
253.135	13389.08
253.205	13359.29
253.276	13364.06
253.347	13363.58
253.417	13329.35
253.488	13296.33
253.558	13271.31
253.629	13240.08
253.699	13210.19
253.77	13197.99
253.841	13173.02
253.911	13150.31
253.982	13126.84
254.052	13113.87
254.123	13091.12
254.193	13067.35
254.264	13085
254.334	13051.06
254.405	13016.59
254.475	12977.59
254.546	12953.83
254.616	12950.98
254.687	12931.22
254.757	12911.79
254.827	12883.35
254.898	12873.71
254.968	12847.15
255.039	12817.4
255.109	12807.67
255.18	12790.89
255.25	12742.69
255.321	12724.75
255.391	12686.29
255.461	12690.96
255.532	12637.41
255.602	12607.47
255.673	12566.45
255.743	12530.34
255.813	12491.39
255.884	12478.57
255.954	12467.87
256.024	12471.92
256.095	12447.19
256.165	12416.15
256.235	12399.18
256.306	12367.65
256.376	12352.08
256.446	12342.68
256.517	12326.15
256.587	12319.4
256.657	12303.11
256.728	12290.62
256.798	12283.68
256.868	12266.91
256.938	12240.11
257.009	12233.17
257.079	12223.33
257.149	12233.31
257.219	12190.8
257.29	12181.44
257.36	12142.21
257.43	12130.01
257.5	12079.83
257.571	12053.95
257.641	12045.76
257.711	12008.88
257.781	11994.23
257.852	11978.66
257.922	11944.63
257.992	11925.45
258.062	11895.66
258.132	11882.64
258.202	11860.76
258.273	11836.66
258.343	11837.67
258.413	11812.03
258.483	11786.92
258.553	11751.49
258.623	11719.53
258.693	11708.74
258.764	11695.97
258.834	11695.24
258.904	11676.93
258.974	11647.72
259.044	11636.15
259.114	11617.64
259.184	11614.17
259.254	11596.97
259.324	11566.8
259.394	11559.08
259.464	11562.55
259.535	11549.4
259.605	11524.96
259.675	11499.71
259.745	11487.32
259.815	11450.83
259.885	11427.51
259.955	11449.68
260.025	11424.28
260.095	11409.53
260.165	11396.81
260.235	11401.63
260.305	11370.88
260.375	11331.6
260.445	11346.64
260.515	11341.1
260.585	11339.65
260.655	11315.6
260.725	11308.18
260.795	11287.46
260.865	11287.7
260.934	11258.54
261.004	11241.09
261.074	11220.47
261.144	11218.15
261.214	11210.68
261.284	11194.83
261.354	11183.46
261.424	11148.08
261.494	11151.69
261.564	11131.93
261.634	11125.72
261.703	11087.89
261.773	11084.47
261.843	11089.33
261.913	11059.98
261.983	11023.79
262.053	11007.36
262.123	10986.25
262.192	10949.34
262.262	10946.64
262.332	10908.81
262.402	10898.84
262.472	10888.53
262.541	10851.67
262.611	10846.65
262.681	10821.88
262.751	10815.14
262.821	10803.48
262.89	10773.79
262.96	10764.93
263.03	10772.44
263.1	10752.69
263.169	10739.97
263.239	10726.57
263.309	10725.41
263.379	10722.67
263.448	10714.28
263.518	10700.93
263.588	10690.82
263.657	10704.74
263.727	10703.83
263.797	10693.32
263.867	10678.29
263.936	10647.35
264.006	10653.47
264.076	10634.15
264.145	10610.98
264.215	10590.59
264.285	10580.72
264.354	10549.83
264.424	10525.41
264.494	10488.88
264.563	10467.15
264.633	10473.46
264.702	10464.31
264.772	10422.05
264.842	10400.37
264.911	10387.99
264.981	10355.9
265.05	10340.1
265.12	10317.36
265.19	10298.18
265.259	10289.08
265.329	10277.22
265.398	10264.02
265.468	10274.53
265.537	10257.52
265.607	10255.21
265.676	10246.3
265.746	10236.32
265.815	10227.99
265.885	10213.78
265.955	10194.9
266.024	10179.34
266.094	10142.48
266.163	10146.63
266.232	10154.14
266.302	10140.6
266.371	10133.23
266.441	10123.79
266.51	10119.36
266.58	10101.25
266.649	10077.26
266.719	10082.03
266.788	10074.12
266.858	10081.83
266.927	10040.07
266.996	10026.96
267.066	10015.4
267.135	9991.7
267.205	9984.91
267.274	9981.54
267.343	9980.05
267.413	9969.11
267.482	9972.05
267.552	9973.21
267.621	9937.56
267.69	9907.41
267.76	9896.91
267.829	9891.61
267.898	9886.5
267.968	9861.5
268.037	9858.04
268.106	9853.36
268.176	9823.16
268.245	9809.53
268.314	9785.93
268.384	9779.47
268.453	9768.59
268.522	9756.21
268.592	9754.09
268.661	9730.83
268.73	9722.93
268.799	9704.29
268.869	9711.22
268.938	9683.43
269.007	9665.47
269.076	9654.2
269.146	9653.53
269.215	9645.92
269.284	9650.11
269.353	9628.82
269.422	9620.15
269.492	9604.98
269.561	9569.49
269.63	9566.12
269.699	9549.6
269.768	9542.9
269.838	9540.3
269.907	9534.09
269.976	9507.41
270.045	9482.47
270.114	9480.54
270.183	9466.96
270.253	9465.18
270.322	9434.99
270.391	9423.87
270.46	9425.41
270.529	9427.14
270.598	9424.49
270.667	9417.22
270.736	9382.06
270.806	9375.27
270.875	9380.71
270.944	9366.8
271.013	9385.63
271.082	9377.25
271.151	9373.88
271.22	9349.42
271.289	9340.07
271.358	9334.44
271.427	9333.57
271.496	9324.23
271.565	9308.49
271.634	9296.07
271.703	9315.86
271.772	9315.86
271.841	9308.21
271.91	9286.49
271.979	9273.05
272.048	9249.22
272.117	9241.47
272.186	9229.62
272.255	9228.47
272.324	9221.73
272.393	9219.17
272.462	9200.49
272.531	9185.04
272.6	9170.35
272.669	9168.14
272.738	9154.27
272.807	9138.38
272.876	9125.09
272.945	9151.48
273.013	9153.84
273.082	9162.21
273.151	9113.92
273.22	9112.81
273.289	9103.37
273.358	9116.66
273.427	9108.24
273.496	9108.53
273.564	9103.76
273.633	9105.01
273.702	9085.23
273.771	9076.03
273.84	9066.88
273.909	9067.46
273.977	9066.88
274.046	9052.25
274.115	9065.29
274.184	9049.31
274.253	9044.64
274.322	9048.59
274.39	9014.36
274.459	9003.63
274.528	8970.31
274.597	8969.59
274.665	8963.48
274.734	8966.37
274.803	8949.42
274.872	8940.7
274.94	8918.42
275.009	8968.31
275.078	8956.47
275.147	8956.57
275.215	8948.67
275.284	8955.56
275.353	8942.08
275.421	8917.24
275.49	8937.51
275.559	8923.35
275.627	8916.28
275.696	8909.25
275.765	8906.31
275.833	8898.95
275.902	8896.01
275.971	8909.88
276.039	8919.94
276.108	8920.75
276.177	8918.78
276.245	8910.45
276.314	8906.31
276.383	8920.27
276.451	8862.48
276.52	8868.16
276.588	8876.49
276.657	8882.65
276.725	8865.51
276.794	8872.25
276.863	8884.24
276.931	8859.06
277	8864.16
277.068	8877.3
277.137	8897.43
277.205	8889.44
277.274	8907.63
277.342	8919.47
277.411	8896.76
277.48	8879.09
277.548	8866.91
277.617	8864.7
277.685	8856.37
277.754	8860.22
277.822	8850.07
277.89	8862.25
277.959	8853.05
278.027	8839.86
278.096	8824.08
278.164	8855.66
278.233	8841.84
278.301	8828.75
278.37	8837.22
278.438	8824.56
278.507	8823.07
278.575	8798.9
278.643	8808
278.712	8788.27
278.78	8772.57
278.849	8787.59
278.917	8797.79
278.985	8795.29
279.054	8801.07
279.122	8810.84
279.191	8808
279.259	8804
279.327	8782.77
279.396	8794.9
279.464	8781.67
279.532	8790.38
279.601	8783.83
279.669	8781.57
279.737	8796.97
279.806	8796.97
279.874	8805.35
279.942	8804.96
280.011	8792.59
280.079	8789.22
280.147	8807.37
280.215	8813.05
280.284	8806.36
280.352	8792.02
280.42	8805.4
280.488	8791.63
280.557	8785.18
280.625	8786.1
280.693	8787.15
280.761	8784.7
280.83	8769.44
280.898	8791.97
280.966	8776.47
281.034	8743.3
281.102	8725.79
281.171	8712.84
281.239	8721.12
281.307	8713.75
281.375	8702.01
281.443	8730.89
281.512	8732.29
281.58	8737.82
281.648	8715.1
281.716	8711.98
281.784	8711.01
281.852	8698.45
281.92	8698.69
281.989	8707.6
282.057	8694.6
282.125	8740.67
282.193	8743.51
282.261	8745.1
282.329	8734.46
282.397	8739.61
282.465	8745.68
282.533	8765.46
282.601	8760.84
282.67	8742.98
282.738	8732.15
282.806	8743.75
282.874	8727.28
282.942	8727.72
283.01	8716.02
283.078	8723.67
283.146	8724.54
283.214	8738.02
283.282	8740.71
283.35	8754.96
283.418	8746.29
283.486	8750.05
283.554	8702.29
283.622	8702.43
283.69	8697.19
283.758	8687.03
283.826	8687.37
283.894	8695.07
283.962	8711.53
284.03	8725.83
284.098	8724.48
284.165	8721.98
284.233	8719.28
284.301	8716.93
284.369	8705.81
284.437	8704.12
284.505	8701.81
284.573	8719.62
284.641	8704.8
284.709	8711.1
284.777	8692.96
284.845	8705.09
284.912	8711.2
284.98	8716.49
285.048	8708.5
285.116	8715.29
285.184	8737.57
285.252	8730.88
285.319	8711.58
285.387	8699.12
285.455	8683.76
285.523	8690.16
285.591	8681.98
285.659	8677.22
285.726	8685.02
285.794	8668.99
285.862	8661.58
285.93	8660.43
285.997	8648.87
286.065	8642.76
286.133	8636.22
286.201	8636.41
286.269	8617.11
286.336	8603.3
286.404	8593.96
286.472	8606.14
286.539	8583.23
286.607	8565.37
286.675	8575.67
286.743	8589.49
286.81	8589.49
286.878	8603.78
286.946	8598.77
287.013	8604.74
287.081	8607.29
287.149	8593.82
287.216	8618.94
287.284	8618.31
287.352	8619.37
287.419	8617.69
287.487	8634.43
287.555	8631.98
287.622	8626.59
287.69	8639.39
287.758	8653.4
287.825	8654.36
287.893	8639.25
287.96	8647.23
288.028	8661.91
288.096	8659.26
288.163	8661.48
288.231	8649.25
288.298	8648.39
288.366	8656.96
288.433	8651.47
288.501	8647.81
288.569	8655.08
288.636	8647.96
288.704	8659.7
288.771	8665.96
288.839	8652.34
288.906	8642.52
288.974	8651.81
289.041	8648.25
289.109	8639.49
289.176	8649.93
289.244	8652.44
289.311	8660.38
289.379	8678.43
289.446	8675.1
289.514	8678.62
289.581	8676.16
289.649	8677.94
289.716	8676.21
289.783	8668.94
289.851	8688.72
289.918	8685.98
289.986	8691.9
290.053	8698.83
290.121	8697.72
290.188	8696.62
290.255	8727.13
290.323	8725.68
290.39	8718.03
290.458	8722.75
290.525	8733.77
290.592	8723.8
290.66	8729.58
290.727	8726.21
290.794	8730.25
290.862	8725.44
290.929	8724.91
290.996	8720.44
291.064	8734.68
291.131	8748.16
291.198	8755.81
291.266	8754.56
291.333	8761.25
291.4	8764.86
291.468	8776.8
291.535	8774.63
291.602	8781.76
291.669	8775.12
291.737	8782.05
291.804	8787
291.871	8805.2
291.938	8809.67
292.006	8839.14
292.073	8849.68
292.14	8863.25
292.207	8855.79
292.275	8861.28
292.342	8874.47
292.409	8905.81
292.476	8931.71
292.543	8925.4
292.611	8933.78
292.678	8956.84
292.745	8977.68
292.812	8986.68
292.879	8982.11
292.946	8984.76
293.014	8998.24
293.081	9008.49
293.148	9018.16
293.215	9030.63
293.282	9031.21
293.349	9038.96
293.416	9017.2
293.484	9028.42
293.551	9039.73
293.618	9062.6
293.685	9092.69
293.752	9083.59
293.819	9077.09
293.886	9057.2
293.953	9058.17
294.02	9063.66
294.087	9061.58
294.154	9056.14
294.221	9071.02
294.288	9078.63
294.356	9098.27
294.423	9112.62
294.49	9104.44
294.557	9124.37
294.624	9119.51
294.691	9134.77
294.758	9135.44
294.825	9143.87
294.892	9137.85
294.959	9136.69
295.026	9142.76
295.093	9126.92
295.16	9130.19
295.226	9141.8
295.293	9171.99
295.36	9181.61
295.427	9191.97
295.494	9210.84
295.561	9217.05
295.628	9237.33
295.695	9245.08
295.762	9240.46
295.829	9239.01
295.896	9252.97
295.963	9257.07
296.03	9265.2
296.096	9277.72
296.163	9289.47
296.23	9311.57
296.297	9322.12
296.364	9321.59
296.431	9324.38
296.498	9318.89
296.564	9342.82
296.631	9336.18
296.698	9323.32
296.765	9336.18
296.832	9326.35
296.899	9309.64
296.965	9328.71
297.032	9310.8
297.099	9334.59
297.166	9348.84
297.233	9342.05
297.299	9339.45
297.366	9340.08
297.433	9343.01
297.5	9348.84
297.566	9350
297.633	9346.67
297.7	9353.17
297.767	9354.52
297.833	9362.61
297.9	9370.03
297.967	9352.26
298.033	9362.51
298.1	9389.39
298.167	9389.73
298.234	9398.06
298.3	9405.23
298.367	9400.9
298.434	9403.64
298.5	9383.46
298.567	9375.08
298.634	9378.16
298.7	9398.68
298.767	9405.76
298.834	9425.55
298.9	9424.97
298.967	9413.7
299.033	9425.74
299.1	9438.84
299.167	9454.11
299.233	9450.11
299.3	9467.44
299.366	9490.17
299.433	9512.71
299.5	9482.18
299.566	9481.21
299.633	9497.83
299.699	9515.6
299.766	9514.3
299.832	9519.07
299.899	9532.79
299.965	9550.8
300.032	9549.94
300.099	9556.49
300.165	9555.91
300.232	9548.73
300.298	9547.29
300.365	9565.63
300.431	9561.54
300.498	9552.77
300.564	9561.35
300.631	9574.16
300.697	9588.99
300.763	9589.52
300.83	9577.09
300.896	9589.66
300.963	9604.59
301.029	9614.03
301.096	9619.43
301.162	9626.41
301.229	9626.75
301.295	9614.13
301.361	9615.09
301.428	9622.56
301.494	9606.91
301.561	9615.29
301.627	9612.35
301.693	9613.7
301.76	9618.46
301.826	9619.76
301.892	9635.13
301.959	9638.07
302.025	9627.61
302.092	9621.69
302.158	9627.71
302.224	9635.18
302.291	9626.84
302.357	9619.33
302.423	9603.68
302.49	9588.89
302.556	9608.11
302.622	9605.65
302.688	9624.39
302.755	9642.4
302.821	9645.73
302.887	9656.85
302.954	9653.19
303.02	9667.93
303.086	9671.15
303.152	9662.1
303.219	9654.25
303.285	9655.93
303.351	9662.73
303.417	9674.24
303.483	9662.58
303.55	9650.4
303.616	9650.49
303.682	9650.54
303.748	9651.51
303.815	9673.18
303.881	9684.69
303.947	9668.94
304.013	9672.55
304.079	9659.31
304.145	9632.38
304.212	9633.35
304.278	9630.17
304.344	9632.29
304.41	9614.13
304.476	9607.2
304.542	9611.24
304.608	9613.7
304.674	9596.6
304.741	9590.68
304.807	9587.79
304.873	9592.12
304.939	9610.33
305.005	9589.14
305.071	9589.91
305.137	9589.42
305.203	9558.31
305.269	9555.37
305.335	9565.25
305.401	9560.43
305.467	9562.69
305.533	9571.94
305.599	9576.56
305.666	9577.19
305.732	9571.07
305.798	9588.51
305.864	9612.93
305.93	9610.09
305.996	9608.35
306.062	9614.76
306.128	9606.28
306.194	9595.06
306.259	9591.74
306.325	9583.55
306.391	9597.32
306.457	9605.75
306.523	9603.44
306.589	9629.78
306.655	9619.04
306.721	9601.56
306.787	9590.63
306.853	9604.26
306.919	9587.84
306.985	9579.22
307.051	9576.86
307.117	9572.86
307.183	9562.26
307.248	9533.66
307.314	9547.53
307.38	9551.76
307.446	9553.88
307.512	9550.13
307.578	9554.85
307.644	9556.19
307.709	9550.03
307.775	9546.08
307.841	9543.91
307.907	9544.4
307.973	9524.02
308.039	9519.21
308.104	9525.61
308.17	9533.41
308.236	9515.98
308.302	9521.42
308.368	9511.89
308.433	9510.44
308.499	9501.97
308.565	9494.79
308.631	9494.93
308.696	9467.63
308.762	9456.22
308.828	9454.19
308.894	9435.03
308.959	9411.34
309.025	9397.28
309.091	9397.09
309.156	9388.22
309.222	9381.96
309.288	9373.87
309.354	9351.05
309.419	9354.81
309.485	9339.54
309.551	9343.3
309.616	9324.91
309.682	9321.05
309.748	9315.37
309.813	9305.98
309.879	9299.91
309.945	9289.66
310.01	9282.29
310.076	9286.87
310.141	9277.43
310.207	9260
310.273	9261.54
310.338	9266.78
310.404	9250.37
310.469	9235.68
310.535	9222.87
310.601	9205.3
310.666	9201.83
310.732	9213.15
310.797	9196.97
310.863	9187.96
310.928	9173.81
310.994	9184.21
311.059	9174.48
311.125	9170.05
311.191	9185.12
311.256	9180.07
311.322	9182.14
311.387	9166.44
311.453	9532.44
311.518	9512.12
311.584	9511.21
311.649	9516.55
311.715	9510.15
311.78	9516.46
311.846	9508.27
311.911	9515.4
311.976	9514.39
312.042	9500.33
312.107	9484.3
312.173	9477.27
312.238	9470.91
312.304	9466.34
312.369	9456.08
312.434	9443.66
312.5	9440.53
312.565	9407.46
312.631	9403.41
312.696	9391.14
312.761	9393.59
312.827	9015.61
312.892	9054.85
312.958	9050.85
313.023	9045.46
313.088	9039.68
313.154	9026.25
313.219	9015.66
313.284	9004.68
313.35	9000.45
313.415	8989.76
313.48	8989.33
313.546	8996.69
313.611	9006.27
313.676	8998.96
313.741	8985.72
313.807	9000.88
313.872	8998.33
313.937	9002.52
314.003	9011.81
314.068	9014.51
314.133	9014.55
314.198	9003.05
314.264	8977.53
314.329	8968.48
314.394	8964.24
314.459	8959.04
314.525	8977.43
314.59	8978.01
314.655	8965.25
314.72	8976.13
314.785	8986.43
314.851	8977.91
314.916	8957.74
314.981	8940.75
315.046	8925.44
315.111	8918.42
315.176	8902.53
315.242	8903.78
315.307	8900.27
315.372	8884.77
315.437	8875.91
315.502	8871.72
315.567	8884.72
315.632	8871.77
315.698	8870.04
315.763	8864.6
315.828	8860.7
315.893	8856.85
315.958	8853.24
316.023	8847.51
316.088	8820.99
316.153	8793.6
316.218	8785.18
316.283	8765.35
316.348	8744.9
316.413	8745.24
316.479	8728.63
316.544	8693.55
316.609	8660.25
316.674	8621.46
316.739	8583.64
316.804	8552.17
316.869	8516.03
316.934	8472.76
316.999	8438.7
317.064	8383.13
317.129	8336.79
317.194	8299.45
317.259	8249.93
317.324	8193.5
317.389	8147.51
317.454	8114.9
317.518	8083.2
317.583	8053.8
317.648	8029.56
317.713	7996.37
317.778	7939.9
317.843	7908.87
317.908	7873.62
317.973	7840.05
318.038	7818.75
318.103	7779.95
318.168	7747.44
318.233	7714.26
318.297	7670.93
318.362	7637.13
318.427	7606.03
318.492	7581.79
318.557	7531.8
318.622	7501.31
318.687	7481.42
318.751	7441.33
318.816	7402.73
318.881	7367.35
318.946	7317.31
319.011	7276.17
319.075	7236.23
319.14	7203.94
319.205	7162.03
319.27	7128.45
319.335	7086.12
319.399	7041.09
319.464	7013.61
319.529	6962.45
319.594	6924.73
319.658	6893.69
319.723	6853.48
319.788	6824.52
319.853	6771.68
319.917	6745.61
319.982	6689.36
320.047	6650.7
320.112	6628.85
320.176	6580.98
320.241	6541.7
320.306	6512.94
320.37	6466.75
320.435	6439.91
320.5	6408.99
320.564	6369.44
320.629	6331.38
320.694	6297.2
320.758	6253.43
320.823	6210.86
320.888	6182.75
320.952	6129.87
321.017	6086.39
321.082	6042.3
321.146	6006.89
321.211	5973.83
321.275	5931.09
321.34	5893.06
321.405	5851.04
321.469	5799.34
321.534	5762.46
321.598	5712.65
321.663	5677.01
321.727	5647.9
321.792	5594.77
321.857	5550.27
321.921	5510.58
321.986	5463.61
322.05	5408.21
322.115	5375.76
322.179	5332.68
322.244	5278.97
322.308	5251.04
322.373	5204.61
322.437	5166.52
322.502	5139.39
322.566	5094.27
322.631	5061.22
322.695	5020.46
322.76	4974.73
322.824	4942.02
322.889	4899.36
322.953	4862.79
323.018	4797.35
323.082	4735.8
323.146	4684.16
323.211	4630.56
323.275	4585.81
323.34	4543.9
323.404	4507.83
323.468	4459.27
323.533	4416.12
323.597	4371.7
323.662	4317.46
323.726	4282.59
323.79	4237.87
323.855	4170.85
323.919	4124.42
323.983	4077.8
324.048	4012.78
324.112	4161.92
324.177	4031.5
324.241	3820.48
324.305	3613.19
324.37	3415.56
324.434	3222.85
324.498	3181.41
324.562	3133.02
324.627	3073.85
324.691	3017.57
324.755	2954.32
324.82	2880.3
324.884	2802.94
324.948	2731.28
325.012	2640.57
325.077	2517.22
