Data from 20250702_urea_0.5M_MAYP1162681_22-05-00-197.txt Node
Date: Wed Jul 02 22:05:00 BST 2025
User: adleo
Spectrometer: MAYP116268
Trigger mode: 0
Integration Time (sec): 1.000000E0
Scans to average: 1
Electric dark correction enabled: true
Nonlinearity correction enabled: true
Boxcar width: 10
XAxis mode: Wavelengths
Number of Pixels in Spectrum: 2068
>>>>>Begin Spectral Data<<<<<
179.565	1230.76
179.642	1288.4
179.718	1334.49
179.795	1370.42
179.871	1401.24
179.948	1418.59
180.024	1441.07
180.101	1464.21
180.177	1478.4
180.254	1501.9
180.33	1523.59
180.407	1579.61
180.483	1677.91
180.56	1771.18
180.636	1856.87
180.712	1842.47
180.789	1854.83
180.865	1867.8
180.942	1878.64
181.018	1886.62
181.095	1900.46
181.171	1903.65
181.248	1903.22
181.324	1915.96
181.4	1926.9
181.477	1941.78
181.553	1957.37
181.63	1979.11
181.706	1994.7
181.782	2002.4
181.859	2001.12
181.935	2008.35
182.011	2004.16
182.088	2021.19
182.164	2038.94
182.24	2052.06
182.317	2065.8
182.393	2062.9
182.469	2076.93
182.546	2091.63
182.622	2099.05
182.698	2094.15
182.775	2107.8
182.851	2123.54
182.927	2117.36
183.003	2110.08
183.08	2101.57
183.156	2107.85
183.232	2101.33
183.308	2089.39
183.385	2097.24
183.461	2115.22
183.537	2115.03
183.613	2127.3
183.69	2116.02
183.766	2106.74
183.842	2112.69
183.918	2118.35
183.995	2133.29
184.071	2135.71
184.147	2128.48
184.223	2114.65
184.299	2127.68
184.375	2117.27
184.452	2122.6
184.528	2179.9
184.604	2192.17
184.68	2205.2
184.756	2212.77
184.832	2219.76
184.908	2226.85
184.985	2229.75
185.061	2214.38
185.137	2224.71
185.213	2213.39
185.289	2214.24
185.365	2207.3
185.441	2209.06
185.517	2220.01
185.593	2215.82
185.669	2211.54
185.745	2220.96
185.822	2240.69
185.898	2229.65
185.974	2240.5
186.05	2232.65
186.126	2190.33
186.202	2183.39
186.278	2177.34
186.354	2170.35
186.43	2173.87
186.506	2171.54
186.582	2169.83
186.658	2176.15
186.734	2155.8
186.81	2156.89
186.886	2162.45
186.962	2174.78
187.038	2168.64
187.114	2159.69
187.19	2168.16
187.266	2159.03
187.341	2162.22
187.417	2155.51
187.493	2154.46
187.569	2154.51
187.645	2147.76
187.721	2137.71
187.797	2144.66
187.873	2149.75
187.949	2143.85
188.025	2138.95
188.101	2140.71
188.176	2146.28
188.252	2141.81
188.328	2148.84
188.404	2150.55
188.48	2142.9
188.556	2136
188.632	2139.42
188.707	2141.37
188.783	2137.52
188.859	2131.2
188.935	2117.83
189.011	2126.44
189.086	2122.16
189.162	2113.83
189.238	2113.55
189.314	2113.45
189.39	2107.74
189.465	2098.61
189.541	2114.69
189.617	2099.23
189.693	2095.9
189.768	2098.52
189.844	2122.41
189.92	2114.04
189.996	2123.6
190.071	2136.54
190.147	2134.69
190.223	2141.21
190.298	2133.31
190.374	2121.08
190.45	2137.59
190.526	2147.58
190.601	2139.58
190.677	2144.72
190.753	2171.61
190.828	2173.8
190.904	2186.12
190.98	2201.68
191.055	2215.72
191.131	2207.29
191.207	2230.41
191.282	2240.26
191.358	2232.36
191.433	2218.8
191.509	2234.25
191.585	2231.21
191.66	2233.73
191.736	2240.2
191.811	2231.59
191.887	2244.82
191.963	2268.09
192.038	2269.61
192.114	2269.8
192.189	2275.6
192.265	2268.28
192.34	2247.05
192.416	2246.24
192.491	2244.38
192.567	2248.91
192.642	2252.14
192.718	2250.91
192.793	2238.34
192.869	2233.59
192.944	2235.11
193.02	2240.77
193.095	2244.06
193.171	2250.29
193.246	2247.39
193.322	2246.34
193.397	2246.72
193.473	2232.68
193.548	2211.88
193.624	2218.31
193.699	2216.07
193.775	2230.78
193.85	2233.59
193.925	2243.06
194.001	2242.82
194.076	2234.59
194.152	2224.69
194.227	2214.5
194.302	2205.47
194.378	2207.99
194.453	2203.9
194.529	2215.41
194.604	2202.76
194.679	2193.76
194.755	2174.36
194.83	2187.16
194.905	2185.31
194.981	2196.77
195.056	2190.78
195.131	2198.2
195.207	2195.11
195.282	2189.4
195.357	2171.36
195.433	2185.39
195.508	2174.64
195.583	2184.35
195.659	2197.86
195.734	2204
195.809	2205.24
195.884	2214.8
195.96	2215.61
196.035	2232.02
196.11	2224.93
196.185	2235.21
196.261	2240.39
196.336	2272.85
196.411	2259.37
196.486	2264.47
196.561	2256.42
196.637	2267.98
196.712	2285.41
196.787	2289.4
196.862	2302.49
196.937	2311.77
197.013	2318.81
197.088	2327.67
197.163	2350.24
197.238	2369.05
197.313	2366.29
197.388	2382.1
197.464	2412.57
197.539	2423.37
197.614	2417.23
197.689	2436.71
197.764	2454.51
197.839	2475.41
197.914	2465.6
197.989	2488.17
198.065	2503.65
198.14	2554.63
198.215	2582.11
198.29	2593.59
198.365	2605.68
198.44	2615.97
198.515	2645.7
198.59	2661.22
198.665	2689.18
198.74	2694.38
198.815	2692.76
198.89	2719.77
198.965	2749.6
199.04	2747.03
199.115	2764.13
199.19	2808.1
199.265	2807.34
199.34	2815.25
199.415	2852.25
199.49	2876.69
199.565	2885.03
199.64	2906.14
199.715	2906.14
199.79	2913.34
199.865	2920.34
199.94	2921.68
200.015	2955.62
200.09	2956.81
200.165	2964.91
200.24	2973.16
200.315	3014.01
200.39	3029.55
200.464	3034.46
200.539	3034.36
200.614	3050.95
200.689	3076.13
200.764	3081.09
200.839	3101.11
200.914	3111.21
200.989	3098.48
201.063	3113.07
201.138	3096.87
201.213	3097.11
201.288	3076.32
201.363	3080.13
201.438	3076.32
201.512	3093
201.587	3074.73
201.662	3082.22
201.737	3092.42
201.812	3101.68
201.886	3066.94
201.961	3076.86
202.036	3063.13
202.111	3061.56
202.186	3030.16
202.26	3013.75
202.335	2993.25
202.41	2984.57
202.485	2968.36
202.559	2948.77
202.634	2921.93
202.709	2933.56
202.784	2918.07
202.858	2915.64
202.933	2896.95
203.008	2892.23
203.082	2872.69
203.157	2873.17
203.232	2828.1
203.306	2809.98
203.381	2776.33
203.456	2753.32
203.53	2728.94
203.605	2710.52
203.68	2684.45
203.754	2677.35
203.829	2659.91
203.904	2638.95
203.978	2628.28
204.053	2631.28
204.127	2616.95
204.202	2617.57
204.277	2597.47
204.351	2589.75
204.426	2584.51
204.5	2574.79
204.575	2540.7
204.65	2545.71
204.724	2535.94
204.799	2546.03
204.873	2539.17
204.948	2534.31
205.022	2523.46
205.097	2516.26
205.171	2529.45
205.246	2540.55
205.32	2543.36
205.395	2543.55
205.469	2533.98
205.544	2539.22
205.618	2520.12
205.693	2534.7
205.767	2522.51
205.842	2545.08
205.916	2537.28
205.991	2526.65
206.065	2532.61
206.14	2552.17
206.214	2553.55
206.289	2546.07
206.363	2559.12
206.438	2562.31
206.512	2570.22
206.586	2588.12
206.661	2595.27
206.735	2573.32
206.81	2573.13
206.884	2585.8
206.958	2571.42
207.033	2590.22
207.107	2598.94
207.181	2632.96
207.256	2628.01
207.33	2645.73
207.405	2658.27
207.479	2685.75
207.553	2696.04
207.628	2682.38
207.702	2696
207.776	2692.62
207.851	2702.29
207.925	2720.07
207.999	2722.02
208.073	2726.98
208.148	2740.56
208.222	2739.7
208.296	2780.37
208.371	2802.97
208.445	2825.23
208.519	2866.11
208.593	2890.09
208.668	2898.76
208.742	2912.69
208.816	2926.13
208.89	2955.56
208.965	2973.16
209.039	2994.68
209.113	3034.26
209.187	3074.61
209.261	3091.49
209.336	3137.19
209.41	3180.84
209.484	3207.37
209.558	3263.49
209.632	3308.62
209.707	3353.67
209.781	3410.13
209.855	3463.18
209.929	3523.15
210.003	3570.32
210.077	3612.91
210.151	3706.45
210.226	3785.44
210.3	3864.96
210.374	3941.47
210.448	4003.75
210.522	4070.63
210.596	4142.25
210.67	4210.29
210.744	4324.02
210.818	4426.25
210.892	4517.84
210.966	4584.71
211.041	4676.77
211.115	4740.95
211.189	4843.19
211.263	4941.06
211.337	5026.86
211.411	5126.55
211.485	5205.87
211.559	5302.91
211.633	5395.25
211.707	5457.25
211.781	5567.72
211.855	5629.67
211.929	5724.15
212.003	5800.7
212.077	5915.8
212.151	6023.66
212.225	6137.13
212.299	6235.23
212.373	6329.92
212.447	6429.46
212.52	6570.04
212.594	6685.26
212.668	6815.15
212.742	6916.51
212.816	7026.73
212.89	7140.15
212.964	7259.7
213.038	7375.73
213.112	7511.3
213.186	7649.78
213.26	7750.62
213.333	7818.86
213.407	7944.73
213.481	8067.59
213.555	8209.2
213.629	8325.41
213.703	8437.66
213.777	8562.59
213.85	8666.97
213.924	8829.28
213.998	8958.1
214.072	9081.8
214.146	9194.79
214.219	9316.61
214.293	9441.5
214.367	9567.04
214.441	9701.79
214.515	9816.28
214.588	9929.22
214.662	10028.11
214.736	10127.43
214.81	10259.35
214.883	10395.57
214.957	10507.23
215.031	10617.98
215.105	10716.7
215.178	10819.19
215.252	10929.58
215.326	11025.66
215.4	11131.1
215.473	11194.9
215.547	11291.29
215.621	11384.46
215.694	11504.32
215.768	11598.74
215.842	11697.88
215.915	11796.69
215.989	11882.19
216.063	11981.83
216.136	12087.19
216.21	12186.3
216.284	12309.16
216.357	12422.87
216.431	12527.33
216.504	12638.49
216.578	12765.89
216.652	12875.02
216.725	12974.08
216.799	13097.25
216.873	13200.31
216.946	13307.91
217.02	13403.45
217.093	13492.58
217.167	13569.81
217.24	13647.42
217.314	13741.57
217.387	13832.72
217.461	13918.87
217.535	14025.07
217.608	14104.07
217.682	14196.24
217.755	14305.91
217.829	14384.82
217.902	14464.65
217.976	14546.84
218.049	14629.17
218.123	14694.49
218.196	14790.75
218.27	14873.08
218.343	14936.76
218.417	15026.08
218.49	15104.94
218.563	15197.83
218.637	15290.66
218.71	15404.71
218.784	15485.83
218.857	15571.15
218.931	15655.02
219.004	15727.8
219.077	15806.99
219.151	15895.34
219.224	15957.18
219.298	16023.07
219.371	16112.82
219.444	16170.22
219.518	16248.64
219.591	16320.36
219.665	16424.85
219.738	16489.53
219.811	16549.63
219.885	16629.73
219.958	16699.52
220.031	16762.9
220.105	16836.06
220.178	16896.4
220.251	16945.75
220.325	17027.44
220.398	17100.17
220.471	17167.54
220.544	17249.13
220.618	17304.03
220.691	17368.99
220.764	17445.71
220.838	17509.13
220.911	17560.46
220.984	17649.13
221.057	17714.72
221.131	17775.93
221.204	17803.69
221.277	17886.19
221.35	17973.9
221.424	18025.08
221.497	18081.75
221.57	18140.11
221.643	18211.53
221.716	18280.59
221.79	18334.66
221.863	18379.95
221.936	18413.35
222.009	18467.32
222.082	18512.91
222.155	18564.91
222.229	18622.06
222.302	18672.61
222.375	18720.18
222.448	18778.49
222.521	18823.3
222.594	18876.6
222.667	18906.62
222.74	18960.84
222.814	18998.14
222.887	19040.69
222.96	19089.7
223.033	19141.26
223.106	19178.99
223.179	19226.46
223.252	19273.54
223.325	19308.43
223.398	19346.31
223.471	19404.81
223.544	19430.06
223.617	19479.02
223.69	19513.77
223.763	19531.74
223.837	19569.23
223.91	19605.71
223.983	19617.38
224.056	19644.32
224.129	19669.9
224.202	19711.64
224.275	19742.14
224.348	19749.18
224.42	19752.21
224.493	19758.77
224.566	19768.94
224.639	19811.29
224.712	19827.29
224.785	19844.35
224.858	19871.15
224.931	19892.5
225.004	19899.15
225.077	19929.75
225.15	19919.15
225.223	19941.89
225.296	19990.52
225.369	19997.26
225.442	20004.73
225.514	20022.71
225.587	20044.54
225.66	20066.56
225.733	20106.18
225.806	20127.96
225.879	20155.77
225.952	20166.95
226.025	20204.29
226.097	20251.28
226.17	20265.26
226.243	20259.72
226.316	20274.7
226.389	20293.93
226.461	20327.28
226.534	20354.9
226.607	20371.72
226.68	20416.97
226.753	20438.27
226.825	20434.99
226.898	20456.29
226.971	20481.88
227.044	20509.79
227.117	20514.8
227.189	20537.26
227.262	20547.43
227.335	20573.45
227.407	20584
227.48	20613.21
227.553	20629.4
227.626	20624.53
227.698	20627.14
227.771	20647.04
227.844	20643.28
227.916	20661.21
227.989	20648.54
228.062	20652.05
228.134	20687.19
228.207	20700.78
228.28	20704.87
228.352	20709.79
228.425	20729.26
228.498	20749.98
228.57	20749.12
228.643	20782.76
228.716	20779.58
228.788	20785.84
228.861	20779.24
228.934	20805.22
229.006	20815.96
229.079	20815.19
229.151	20819.63
229.224	20818.37
229.296	20837.02
229.369	20878.38
229.442	20887.1
229.514	20886.28
229.587	20912.21
229.659	20892.11
229.732	20898.47
229.804	20914.23
229.877	20942.28
229.949	20961.85
230.022	20985.08
230.094	20995.78
230.167	21002.24
230.239	21007.2
230.312	21014.96
230.384	21038.1
230.457	21033.66
230.529	21035.69
230.602	21047.21
230.674	21060.27
230.747	21082.92
230.819	21081.38
230.892	21043.64
230.964	21044.41
231.037	21051.64
231.109	21045.42
231.181	21064.6
231.254	21048.99
231.326	21040.7
231.399	21038.15
231.471	21022.14
231.544	20987.25
231.616	20991.1
231.688	20980.89
231.761	20968.4
231.833	20962.91
231.905	20940.11
231.978	20941.94
232.05	20940.74
232.122	20936.55
232.195	20915.1
232.267	20917.61
232.339	20911.97
232.412	20937.56
232.484	20936.31
232.556	20926.91
232.629	20937.75
232.701	20924.26
232.773	20921.41
232.846	20912.26
232.918	20909.51
232.99	20903.34
233.062	20911.29
233.135	20901.65
233.207	20880.25
233.279	20880.83
233.351	20871.63
233.424	20855.24
233.496	20839.58
233.568	20851.24
233.64	20818.18
233.713	20804.16
233.785	20783.38
233.857	20773.41
233.929	20740.15
234.001	20740.25
234.074	20747.58
234.146	20715.19
234.218	20700.39
234.29	20687.57
234.362	20666.22
234.434	20630.22
234.507	20597.89
234.579	20558.56
234.651	20538.9
234.723	20531.09
234.795	20521.5
234.867	20501.88
234.939	20502.8
235.012	20485.21
235.084	20470.41
235.156	20470.65
235.228	20470.36
235.3	20460.77
235.372	20442.7
235.444	20435.43
235.516	20385.01
235.588	20367.42
235.66	20350.65
235.732	20328.24
235.804	20364.87
235.876	20365.07
235.948	20356.78
236.02	20341.93
236.092	20328.83
236.164	20306.8
236.236	20277.79
236.308	20246.56
236.38	20233.45
236.452	20196.3
236.524	20174.23
236.596	20156.68
236.668	20144.54
236.74	20110.42
236.812	20086.9
236.884	20070.47
236.956	20046.47
237.028	20029.22
237.1	19997.22
237.172	19984.3
237.244	19972.74
237.316	19907.1
237.388	19865.27
237.46	19836.35
237.532	19825.8
237.604	19791.34
237.675	19792.6
237.747	19781.75
237.819	19751.83
237.891	19718
237.963	19692.02
238.035	19659.88
238.107	19592.13
238.178	19577.62
238.25	19540.75
238.322	19536.13
238.394	19486.97
238.466	19461.92
238.538	19438.11
238.609	19413.24
238.681	19374.6
238.753	19336.19
238.825	19307.76
238.897	19289.78
238.968	19279.47
239.04	19244.24
239.112	19247.66
239.184	19198.08
239.255	19167.86
239.327	19146.71
239.399	19124.06
239.471	19108.78
239.542	19081.22
239.614	19076.78
239.686	19010.86
239.758	18998.04
239.829	18953.13
239.901	18944.65
239.973	18906.72
240.044	18888.89
240.116	18862.53
240.188	18822.15
240.259	18792.9
240.331	18761.77
240.403	18736.8
240.474	18691.75
240.546	18647.89
240.618	18589.25
240.689	18544.96
240.761	18509.49
240.833	18496.48
240.904	18462.36
240.976	18423.91
241.048	18394.99
241.119	18361.79
241.191	18343.91
241.262	18331.67
241.334	18288.49
241.405	18245.89
241.477	18211.67
241.549	18174.91
241.62	18141.41
241.692	18120.06
241.763	18104.11
241.835	18065.46
241.906	18028.6
241.978	17977.95
242.049	17960.02
242.121	17941.18
242.192	17927.97
242.264	17878.63
242.335	17819.01
242.407	17798.15
242.478	17759.01
242.55	17737.09
242.621	17698.25
242.693	17664.99
242.764	17623.5
242.836	17588.32
242.907	17569.81
242.979	17541.43
243.05	17506.06
243.122	17478.68
243.193	17439.41
243.264	17380.85
243.336	17344.71
243.407	17328.75
243.479	17318.34
243.55	17297.04
243.622	17271.31
243.693	17234.54
243.764	17225.57
243.836	17182.53
243.907	17140.17
243.978	17106.2
244.05	17079.79
244.121	17034.48
244.192	17008.46
244.264	16959.44
244.335	16936.5
244.407	16883.15
244.478	16858.52
244.549	16818.09
244.62	16770.62
244.692	16739.24
244.763	16715.53
244.834	16680.97
244.906	16633.02
244.977	16599.28
245.048	16572.44
245.119	16526.41
245.191	16494.65
245.262	16437.97
245.333	16429.82
245.405	16396.47
245.476	16372.85
245.547	16336.61
245.618	16310.58
245.689	16278.96
245.761	16252.94
245.832	16218.14
245.903	16196.21
245.974	16165.89
246.045	16140.59
246.117	16125.55
246.188	16086.9
246.259	16052.48
246.33	16020.33
246.401	15985.73
246.473	15943.5
246.544	15901.76
246.615	15886.15
246.686	15846.48
246.757	15834.62
246.828	15784.16
246.899	15767.86
246.97	15720.58
247.042	15683.66
247.113	15667.56
247.184	15658.31
247.255	15614.54
247.326	15580.61
247.397	15542
247.468	15514.09
247.539	15480.93
247.61	15440.24
247.681	15418.94
247.752	15394.74
247.823	15356.95
247.894	15329.28
247.965	15290.53
248.037	15258.28
248.108	15215.43
248.179	15184.29
248.25	15144.38
248.321	15125.24
248.392	15077.04
248.463	15073.38
248.534	15041.18
248.605	15016.64
248.675	14982.32
248.746	14963.52
248.817	14947.13
248.888	14929.4
248.959	14880.9
249.03	14858.1
249.101	14826.34
249.172	14788.21
249.243	14734.6
249.314	14720.24
249.385	14697.39
249.456	14670.35
249.527	14643.98
249.598	14622.96
249.669	14597.51
249.739	14580.59
249.81	14561.64
249.881	14522.21
249.952	14488.47
250.023	14452.56
250.094	14406.95
250.165	14366.46
250.235	14340.38
250.306	14303.84
250.377	14262.05
250.448	14240.31
250.519	14194.51
250.59	14184.87
250.66	14161.2
250.731	14161.25
250.802	14130.88
250.873	14096.37
250.944	14075.83
251.014	14039.19
251.085	14031.87
251.156	14012.01
251.227	13997.45
251.297	13983.03
251.368	13976.19
251.439	13964.91
251.51	13957.82
251.58	13931.45
251.651	13896.7
251.722	13876.64
251.792	13838.08
251.863	13812.14
251.934	13805.68
252.005	13809.83
252.075	13789
252.146	13777.92
252.217	13761.62
252.287	13747.3
252.358	13722.48
252.429	13721.85
252.499	13696.45
252.57	13668.97
252.641	13657.25
252.711	13631.8
252.782	13598.88
252.852	13594.44
252.923	13563.35
252.994	13550.28
253.064	13532.54
253.135	13504.49
253.205	13478.79
253.276	13477.49
253.347	13473.49
253.417	13436.28
253.488	13399.01
253.558	13362.86
253.629	13329.79
253.699	13309.69
253.77	13295.99
253.841	13280.47
253.911	13253.96
253.982	13227.59
254.052	13216.94
254.123	13189.94
254.193	13168.25
254.264	13180.11
254.334	13148.87
254.405	13118.93
254.475	13079.93
254.546	13057.18
254.616	13056.79
254.687	13039.44
254.757	13023
254.827	12998.66
254.898	12973.25
254.968	12958.79
255.039	12928.9
255.109	12917.09
255.18	12884.27
255.25	12840.3
255.321	12821.31
255.391	12788.34
255.461	12793.35
255.532	12743.79
255.602	12722.01
255.673	12678.33
255.743	12642.23
255.813	12585.63
255.884	12571.61
255.954	12558.69
256.024	12557.34
256.095	12532.7
256.165	12501.61
256.235	12474.62
256.306	12448.35
256.376	12447.09
256.446	12432.58
256.517	12419.86
256.587	12415.47
256.657	12397.11
256.728	12382.45
256.798	12363.51
256.868	12340.08
256.938	12306.15
257.009	12299.01
257.079	12286.09
257.149	12291.59
257.219	12247.77
257.29	12242.42
257.36	12208.44
257.43	12192.15
257.5	12148.19
257.571	12121.63
257.641	12110.11
257.711	12087.06
257.781	12075.98
257.852	12065.81
257.922	12028.88
257.992	12015.87
258.062	11985.98
258.132	11977.79
258.202	11951.43
258.273	11926.94
258.343	11924.53
258.413	11895.42
258.483	11872.28
258.553	11843.75
258.623	11811.31
258.693	11794.05
258.764	11796.22
258.834	11791.74
258.904	11776.36
258.974	11752.26
259.044	11731.2
259.114	11719.68
259.184	11703.24
259.254	11680.69
259.324	11631.33
259.394	11626.99
259.464	11617.07
259.535	11595.23
259.605	11564.1
259.675	11541.01
259.745	11539.66
259.815	11508.52
259.885	11499.18
259.955	11514.36
260.025	11481.59
260.095	11470.21
260.165	11466.5
260.235	11455.46
260.305	11432.52
260.375	11399.56
260.445	11403.8
260.515	11405.39
260.585	11394.83
260.655	11375.31
260.725	11371.46
260.795	11369.1
260.865	11363.75
260.934	11340.76
261.004	11337.72
261.074	11329.05
261.144	11329.34
261.214	11311.02
261.284	11292.32
261.354	11276.23
261.424	11239.84
261.494	11246.44
261.564	11227.45
261.634	11221.28
261.703	11188.22
261.773	11168.61
261.843	11161.43
261.913	11144.08
261.983	11109.81
262.053	11102.73
262.123	11084.03
262.192	11048.37
262.262	11040.03
262.332	11013.77
262.402	11002.44
262.472	10983.02
262.541	10943.17
262.611	10930.31
262.681	10912.28
262.751	10905.92
262.821	10890.12
262.89	10860.29
262.96	10845.83
263.03	10848.14
263.1	10832.19
263.169	10818.85
263.239	10814.17
263.309	10810.65
263.379	10800.44
263.448	10783.72
263.518	10765.74
263.588	10749.26
263.657	10748.4
263.727	10741.02
263.797	10717.99
263.867	10701.08
263.936	10674.05
264.006	10669.76
264.076	10656.12
264.145	10634.73
264.215	10618.3
264.285	10615.12
264.354	10586.31
264.424	10567.61
264.494	10537.21
264.563	10515.86
264.633	10525.26
264.702	10517.6
264.772	10485.07
264.842	10459.83
264.911	10453.66
264.981	10426.92
265.05	10418.05
265.12	10408.08
265.19	10397.48
265.259	10393.43
265.329	10389.38
265.398	10374.93
265.468	10389.48
265.537	10371.66
265.607	10363.08
265.676	10351.08
265.746	10340.39
265.815	10349.2
265.885	10333.98
265.955	10306.38
266.024	10279.21
266.094	10237.48
266.163	10232.81
266.232	10238.88
266.302	10225.15
266.371	10214.02
266.441	10201.02
266.51	10191.19
266.58	10172.26
266.649	10148.6
266.719	10147.59
266.788	10138.29
266.858	10147.3
266.927	10106.21
266.996	10093.39
267.066	10083.33
267.135	10062.66
267.205	10054.47
267.274	10031.06
267.343	10029.66
267.413	10023.83
267.482	10030.67
267.552	10031.3
267.621	9996.09
267.69	9962.27
267.76	9950.76
267.829	9935.54
267.898	9924.51
267.968	9909.48
268.037	9902.16
268.106	9896.09
268.176	9868.54
268.245	9849.46
268.314	9829.32
268.384	9832.94
268.453	9823.54
268.522	9818.77
268.592	9816.08
268.661	9799.46
268.73	9793.87
268.799	9770.56
268.869	9775.76
268.938	9744.36
269.007	9731.35
269.076	9722.4
269.146	9725.77
269.215	9724.56
269.284	9736.22
269.353	9715.27
269.422	9696.87
269.492	9678
269.561	9639.47
269.63	9633.06
269.699	9616.21
269.768	9607.05
269.838	9596.94
269.907	9593.38
269.976	9567.85
270.045	9537.61
270.114	9525.96
270.183	9514.16
270.253	9507.13
270.322	9478.14
270.391	9469.76
270.46	9467.59
270.529	9471.06
270.598	9466.48
270.667	9455.02
270.736	9427.33
270.806	9425.74
270.875	9430.6
270.944	9420.49
271.013	9440.81
271.082	9435.46
271.151	9432.82
271.22	9400.12
271.289	9388.61
271.358	9372.38
271.427	9364.92
271.496	9360.44
271.565	9346.86
271.634	9336.56
271.703	9363.87
271.772	9367.43
271.841	9352.99
271.91	9331.61
271.979	9321.83
272.048	9301.37
272.117	9297.75
272.186	9285.57
272.255	9286.63
272.324	9285.19
272.393	9278.74
272.462	9262.03
272.531	9258.17
272.6	9247.63
272.669	9252.35
272.738	9244.02
272.807	9242.14
272.876	9221.63
272.945	9247.01
273.013	9248.84
273.082	9249.75
273.151	9203.86
273.22	9204.82
273.289	9201.4
273.358	9212.29
273.427	9197.36
273.496	9193.22
273.564	9191.24
273.633	9192.64
273.702	9167.41
273.771	9155.76
273.84	9151.19
273.909	9151.38
273.977	9142.52
274.046	9127.35
274.115	9133.66
274.184	9110.12
274.253	9101.12
274.322	9113.49
274.39	9078.63
274.459	9069.2
274.528	9046.18
274.597	9041.37
274.665	9033.81
274.734	9040.55
274.803	9023.65
274.872	9016.67
274.94	9003.67
275.009	9051.07
275.078	9037.2
275.147	9038.12
275.215	9028.39
275.284	9035.42
275.353	9025.21
275.421	8995.71
275.49	9013.62
275.559	8998.5
275.627	8999.56
275.696	8990.12
275.765	8980.35
275.833	8973.37
275.902	8961.48
275.971	8970.24
276.039	8983.39
276.108	8983.63
276.177	8981.36
276.245	8972.46
276.314	8971.01
276.383	8976.89
276.451	8918.42
276.52	8916.64
276.588	8928.09
276.657	8929.3
276.725	8920.15
276.794	8919.96
276.863	8931.8
276.931	8912.35
277	8919.81
277.068	8927.99
277.137	8943.88
277.205	8946.57
277.274	8964.53
277.342	8979.12
277.411	8959.38
277.48	8943.98
277.548	8931.8
277.617	8929.05
277.685	8917.89
277.754	8922.03
277.822	8910.57
277.89	8927.47
277.959	8921.36
278.027	8899.79
278.096	8891.51
278.164	8915.73
278.233	8908.37
278.301	8904.61
278.37	8901
278.438	8890.12
278.507	8892.53
278.575	8866.34
278.643	8863.55
278.712	8844.87
278.78	8838.18
278.849	8846.8
278.917	8860.66
278.985	8856.04
279.054	8863.07
279.122	8879.48
279.191	8876.64
279.259	8876.21
279.327	8847.95
279.396	8864.51
279.464	8862.77
279.532	8868.6
279.601	8856.08
279.669	8853.38
279.737	8862.77
279.806	8864.31
279.874	8868.26
279.942	8867.87
280.011	8870.9
280.079	8875
280.147	8890.88
280.215	8884.38
280.284	8884.96
280.352	8865.22
280.42	8872.73
280.488	8859.59
280.557	8855.16
280.625	8856.46
280.693	8857.86
280.761	8857.57
280.83	8844.38
280.898	8856.46
280.966	8840.05
281.034	8815.45
281.102	8798.03
281.171	8792.2
281.239	8806.69
281.307	8807.03
281.375	8788.74
281.443	8806.84
281.512	8801.93
281.58	8806.94
281.648	8795
281.716	8788.79
281.784	8790.24
281.852	8784.07
281.92	8787.49
281.989	8790.33
282.057	8772.67
282.125	8817.44
282.193	8816.96
282.261	8814.65
282.329	8808.73
282.397	8808.54
282.465	8802.67
282.533	8819.42
282.601	8807.91
282.67	8783.51
282.738	8771.14
282.806	8788.51
282.874	8774.94
282.942	8783.89
283.01	8775.13
283.078	8783.31
283.146	8783.74
283.214	8791.25
283.282	8793.95
283.35	8801.75
283.418	8796.55
283.486	8803.33
283.554	8757.59
283.622	8760.43
283.69	8763.61
283.758	8760.58
283.826	8766.55
283.894	8782.43
283.962	8795.96
284.03	8806.11
284.098	8803.66
284.165	8800.53
284.233	8801.78
284.301	8797.74
284.369	8783.35
284.437	8776.8
284.505	8770.01
284.573	8783.78
284.641	8778.44
284.709	8782.48
284.777	8766.74
284.845	8781.13
284.912	8783.54
284.98	8788.26
285.048	8781.42
285.116	8781.61
285.184	8793.16
285.252	8795.48
285.319	8782.29
285.387	8775.55
285.455	8764.04
285.523	8772.47
285.591	8766.93
285.659	8765.92
285.726	8779.4
285.794	8766.31
285.862	8762.27
285.93	8765.59
285.997	8759.33
286.065	8748.31
286.133	8743.74
286.201	8737.05
286.269	8717.74
286.336	8709.75
286.404	8699.98
286.472	8708.36
286.539	8680.11
286.607	8659.85
286.675	8659.94
286.743	8668.17
286.81	8665.19
286.878	8675.15
286.946	8671.01
287.013	8671.59
287.081	8666.58
287.149	8646.66
287.216	8667.4
287.284	8665.77
287.352	8660.09
287.419	8654.79
287.487	8670.1
287.555	8669.76
287.622	8673.08
287.69	8678.09
287.758	8691.85
287.825	8687.67
287.893	8674.91
287.96	8689.44
288.028	8704.02
288.096	8708.89
288.163	8713.31
288.231	8698.39
288.298	8699.07
288.366	8707.44
288.433	8711.1
288.501	8698.59
288.569	8708.5
288.636	8706.29
288.704	8716.78
288.771	8720.73
288.839	8711.29
288.906	8698.78
288.974	8711.68
289.041	8707.35
289.109	8692.86
289.176	8704.47
289.244	8711.83
289.311	8725.5
289.379	8735.22
289.446	8738.69
289.514	8736.28
289.581	8734.5
289.649	8741.28
289.716	8744.46
289.783	8736.95
289.851	8752.64
289.918	8760.58
289.986	8762.12
290.053	8758.03
290.121	8753.07
290.188	8760.58
290.255	8791.92
290.323	8788.79
290.39	8780.94
290.458	8783.06
290.525	8804.96
290.592	8790.18
290.66	8791.48
290.727	8783.44
290.794	8797.64
290.862	8794.61
290.929	8790.47
290.996	8785.94
291.064	8796.1
291.131	8805.63
291.198	8818.1
291.266	8816.85
291.333	8816.56
291.4	8823.92
291.468	8843.18
291.535	8840.68
291.602	8841.98
291.669	8832.64
291.737	8846.07
291.804	8844.62
291.871	8868.5
291.938	8876.92
292.006	8906.05
292.073	8923.38
292.14	8933.49
292.207	8928.62
292.275	8933.24
292.342	8952.07
292.409	8981.24
292.476	8999.58
292.543	8992.94
292.611	8996.36
292.678	9015.47
292.745	9039.35
292.812	9054.27
292.879	9046.95
292.946	9058.27
293.014	9071.17
293.081	9083.2
293.148	9094.37
293.215	9113.2
293.282	9100.05
293.349	9107.66
293.416	9086.91
293.484	9095.72
293.551	9110.36
293.618	9122.78
293.685	9144.97
293.752	9138.09
293.819	9134.24
293.886	9117.96
293.953	9128.51
294.02	9134.52
294.087	9140.06
294.154	9134.67
294.221	9142.04
294.288	9152.44
294.356	9166.69
294.423	9176.8
294.49	9164.91
294.557	9173.38
294.624	9159.61
294.691	9187.34
294.758	9186.28
294.825	9199.38
294.892	9194.27
294.959	9195.19
295.026	9200.15
295.093	9189.56
295.16	9188.3
295.226	9188.5
295.293	9222.3
295.36	9225.86
295.427	9235.73
295.494	9244.21
295.561	9257.01
295.628	9279.94
295.695	9289.57
295.762	9288.99
295.829	9295.54
295.896	9316.15
295.963	9328.23
296.03	9345.66
296.096	9346.87
296.163	9358.57
296.23	9370.7
296.297	9384.86
296.364	9383.51
296.431	9390.06
296.498	9388.61
296.564	9411.92
296.631	9411
296.698	9395.11
296.765	9410.33
296.832	9399.21
296.899	9388.47
296.965	9402.62
297.032	9380.71
297.099	9404.07
297.166	9415.19
297.233	9416.06
297.299	9408.31
297.366	9410.14
297.433	9408.21
297.5	9423.14
297.566	9416.69
297.633	9416.59
297.7	9415.53
297.767	9413.17
297.833	9421.26
297.9	9426.61
297.967	9412.5
298.033	9430.85
298.1	9453.67
298.167	9443.22
298.234	9457.72
298.3	9465.18
298.367	9460.32
298.434	9468.65
298.5	9451.41
298.567	9445.34
298.634	9444.62
298.7	9463.35
298.767	9463.78
298.834	9474.47
298.9	9464.79
298.967	9462.1
299.033	9470.86
299.1	9489.98
299.167	9502.88
299.233	9500.86
299.3	9515.5
299.366	9531.05
299.433	9542.66
299.5	9518.68
299.566	9530.81
299.633	9543.24
299.699	9556.82
299.766	9558.17
299.832	9565.01
299.899	9573.68
299.965	9591.3
300.032	9585.19
300.099	9593.13
300.165	9599.01
300.232	9596.94
300.298	9599.92
300.365	9614.23
300.431	9614.18
300.498	9607.1
300.564	9615.48
300.631	9623.81
300.697	9634.98
300.763	9635.18
300.83	9632.43
300.896	9651.55
300.963	9656.7
301.029	9663.3
301.096	9662.72
301.162	9667.35
301.229	9667.35
301.295	9654.2
301.361	9650.73
301.428	9655.98
301.494	9642.83
301.561	9646.59
301.627	9649.14
301.693	9650.15
301.76	9653.33
301.826	9648.76
301.892	9657.81
301.959	9666
302.025	9664.55
302.092	9659.59
302.158	9665.42
302.224	9667.54
302.291	9658.73
302.357	9659.83
302.423	9656.65
302.49	9650.25
302.556	9660.12
302.622	9656.61
302.688	9671.68
302.755	9688.78
302.821	9698.99
302.887	9710.84
302.954	9702.07
303.02	9715.99
303.086	9720.81
303.152	9713.87
303.219	9708.81
303.285	9710.84
303.351	9719.56
303.417	9723.99
303.483	9718.93
303.55	9716.96
303.616	9720.42
303.682	9713.39
303.748	9705.16
303.815	9719.46
303.881	9728.95
303.947	9723.89
304.013	9726.3
304.079	9715.95
304.145	9688.93
304.212	9682.67
304.278	9675.11
304.344	9678.29
304.41	9661.24
304.476	9653
304.542	9653.53
304.608	9663.4
304.674	9647.56
304.741	9639.32
304.807	9635.71
304.873	9636.91
304.939	9652.32
305.005	9628.58
305.071	9634.17
305.137	9633.64
305.203	9605.89
305.269	9601.41
305.335	9613.41
305.401	9608.69
305.467	9610.18
305.533	9623.18
305.599	9638.5
305.666	9647.89
305.732	9647.41
305.798	9662.68
305.864	9687.58
305.93	9690.8
305.996	9692.54
306.062	9691.96
306.128	9687.87
306.194	9678.19
306.259	9678.19
306.325	9664.46
306.391	9676.11
306.457	9681.6
306.523	9685.31
306.589	9705.35
306.655	9697.55
306.721	9674.81
306.787	9664.7
306.853	9677.66
306.919	9661.38
306.985	9649.29
307.051	9645.82
307.117	9639.71
307.183	9632.1
307.248	9598.77
307.314	9600.02
307.38	9597.47
307.446	9604.83
307.512	9595.88
307.578	9601.08
307.644	9598.72
307.709	9602.76
307.775	9603.34
307.841	9601.56
307.907	9605.41
307.973	9589.85
308.039	9592.89
308.104	9599.44
308.17	9600.84
308.236	9588.12
308.302	9591.73
308.368	9576.51
308.433	9564.72
308.499	9559.66
308.565	9541.84
308.631	9543.58
308.696	9526.19
308.762	9510.64
308.828	9506.93
308.894	9485.21
308.959	9465.47
309.025	9458.53
309.091	9456.08
309.156	9444.23
309.222	9442.93
309.288	9423.23
309.354	9401.52
309.419	9396.46
309.485	9379.8
309.551	9379.36
309.616	9359.43
309.682	9357.45
309.748	9351.72
309.813	9346.14
309.879	9334.87
309.945	9331.84
310.01	9327.55
310.076	9330.2
310.141	9330.73
310.207	9315.03
310.273	9323.51
310.338	9322.4
310.404	9304.25
310.469	9289.56
310.535	9278.82
310.601	9256.67
310.666	9268.42
310.732	9278.97
310.797	9266.21
310.863	9256.38
310.928	9252.87
310.994	9255.56
311.059	9246.9
311.125	9245.16
311.191	9257.06
311.256	9251.57
311.322	9250.46
311.387	9236.84
311.453	9501.33
311.518	9469.07
311.584	9468.49
311.649	9466.47
311.715	9456.99
311.78	9455.69
311.846	9441.29
311.911	9449.19
311.976	9452.8
312.042	9430.27
312.107	9413.61
312.173	9401.91
312.238	9397.86
312.304	9392.81
312.369	9387.56
312.434	9381.73
312.5	9373.45
312.565	9343.65
312.631	9346.97
312.696	9334.26
312.761	9332.77
312.827	9059.42
312.892	9093.55
312.958	9087.1
313.023	9086.14
313.088	9085.13
313.154	9074.87
313.219	9067.94
313.284	9056
313.35	9049.5
313.415	9040.5
313.48	9032.12
313.546	9038.38
313.611	9048.49
313.676	9033.28
313.741	9021.19
313.807	9031.11
313.872	9038.05
313.937	9043.2
314.003	9054.75
314.068	9064.24
314.133	9071.46
314.198	9054.56
314.264	9042.57
314.329	9030.78
314.394	9022.78
314.459	9025.96
314.525	9043.2
314.59	9044.54
314.655	9032.41
314.72	9035.64
314.785	9038.48
314.851	9037.03
314.916	9019.27
314.981	8999.15
315.046	8994.29
315.111	8991.4
315.176	8970.17
315.242	8972.81
315.307	8967.57
315.372	8940.61
315.437	8924.77
315.502	8909.99
315.567	8922.6
315.632	8902.09
315.698	8908.35
315.763	8906.04
315.828	8892.47
315.893	8889.92
315.958	8882.94
316.023	8869.51
316.088	8854.06
316.153	8832.83
316.218	8819.88
316.283	8801.45
316.348	8785.72
316.413	8785.62
316.479	8767.38
316.544	8733.84
316.609	8698.51
316.674	8662.32
316.739	8630.56
316.804	8605.83
316.869	8574.55
316.934	8537.73
316.999	8508.04
317.064	8452.9
317.129	8402.66
317.194	8362.87
317.259	8305.41
317.324	8249.94
317.389	8207.95
317.454	8163.97
317.518	8128.66
317.583	8107.59
317.648	8087.63
317.713	8055.83
317.778	7988.53
317.843	7954.67
317.908	7915.19
317.973	7877.33
318.038	7852.03
318.103	7816.11
318.168	7783.5
318.233	7752.63
318.297	7703.39
318.362	7668.72
318.427	7632.33
318.492	7608.62
318.557	7567.61
318.622	7543.81
318.687	7525.55
318.751	7489.64
318.816	7455.51
318.881	7421.67
318.946	7368.79
319.011	7319.71
319.075	7277.13
319.14	7249.16
319.205	7204.56
319.27	7179.63
319.335	7134.41
319.399	7089.48
319.464	7060.5
319.529	7007.56
319.594	6966.33
319.658	6935.15
319.723	6895.32
319.788	6868.33
319.853	6815.44
319.917	6784.7
319.982	6728.74
320.047	6688.69
320.112	6659.59
320.176	6610.41
320.241	6580.16
320.306	6548.22
320.37	6504.73
320.435	6468.53
320.5	6436.74
320.564	6402.47
320.629	6357.54
320.694	6325.86
320.758	6287.03
320.823	6240.28
320.888	6209.14
320.952	6158.32
321.017	6118.68
321.082	6078.62
321.146	6041.47
321.211	6015.28
321.275	5969.32
321.34	5929.8
321.405	5884.86
321.469	5839.87
321.534	5799.11
321.598	5746.3
321.663	5716.7
321.727	5689.9
321.792	5641.81
321.857	5600.33
321.921	5559.48
321.986	5515.58
322.05	5455.1
322.115	5417.04
322.179	5378.13
322.244	5324.36
322.308	5292.5
322.373	5242.62
322.437	5199.98
322.502	5176.73
322.566	5127.38
322.631	5096.77
322.695	5056.4
322.76	5017.56
322.824	4983.02
322.889	4943.43
322.953	4899.2
323.018	4830.77
323.082	4760.55
323.146	4709.49
323.211	4652.78
323.275	4608.31
323.34	4562.86
323.404	4532.06
323.468	4486.64
323.533	4439.62
323.597	4396.15
323.662	4342.77
323.726	4310.44
323.79	4266.39
323.855	4198.83
323.919	4148.81
323.983	4103.57
324.048	4039.26
324.112	4191.03
324.177	4057.65
324.241	3847.63
324.305	3641.82
324.37	3439.69
324.434	3250.81
324.498	3211.35
324.562	3164.2
324.627	3103.56
324.691	3051.9
324.755	2988.27
324.82	2912.88
324.884	2838.39
324.948	2764.34
325.012	2677.61
325.077	2553.22
