Data from 20250702_urea_0.5M_MAYP1162681_21-04-59-507.txt Node
Date: Wed Jul 02 21:04:59 BST 2025
User: adleo
Spectrometer: MAYP116268
Trigger mode: 0
Integration Time (sec): 1.000000E0
Scans to average: 1
Electric dark correction enabled: true
Nonlinearity correction enabled: true
Boxcar width: 10
XAxis mode: Wavelengths
Number of Pixels in Spectrum: 2068
>>>>>Begin Spectral Data<<<<<
179.565	1232.9
179.642	1285.99
179.718	1331
179.795	1371
179.871	1405
179.948	1423.02
180.024	1443.27
180.101	1463.93
180.177	1477.32
180.254	1502.3
180.33	1523.09
180.407	1579.12
180.483	1676.04
180.56	1767.78
180.636	1853.48
180.712	1836.93
180.789	1845.58
180.865	1859.12
180.942	1866.87
181.018	1876.61
181.095	1888.6
181.171	1894.49
181.248	1895.06
181.324	1910.04
181.4	1918.27
181.477	1929.44
181.553	1944.51
181.63	1964.63
181.706	1984.74
181.782	1992.2
181.859	1989.68
181.935	1997.43
182.011	1992.3
182.088	2008.8
182.164	2027.4
182.24	2038.91
182.317	2051.32
182.393	2049.56
182.469	2062.3
182.546	2075.86
182.622	2080.99
182.698	2079.61
182.775	2089.51
182.851	2105.01
182.927	2097.02
183.003	2090.41
183.08	2083.99
183.156	2091.08
183.232	2088.79
183.308	2076.19
183.385	2085.36
183.461	2101.96
183.537	2100.78
183.613	2114.66
183.69	2106.15
183.766	2097.54
183.842	2105.81
183.918	2109.67
183.995	2124.03
184.071	2127.55
184.147	2123.65
184.223	2110.1
184.299	2121.09
184.375	2111.48
184.452	2116.72
184.528	2175.78
184.604	2185.34
184.68	2196.14
184.756	2203.85
184.832	2209.46
184.908	2212.46
184.985	2212.55
185.061	2199.9
185.137	2211.27
185.213	2197.67
185.289	2200.38
185.365	2189.91
185.441	2189.01
185.517	2201.62
185.593	2197.05
185.669	2196.06
185.745	2205.38
185.822	2224.31
185.898	2214.74
185.974	2223.49
186.05	2215.55
186.126	2173.32
186.202	2167.47
186.278	2163.67
186.354	2153.77
186.43	2160.25
186.506	2161.81
186.582	2159.72
186.658	2163.29
186.734	2142.84
186.81	2146.74
186.886	2147.73
186.962	2160.91
187.038	2160.39
187.114	2154.63
187.19	2165.05
187.266	2154.3
187.341	2152.54
187.417	2147.4
187.493	2146.11
187.569	2148.49
187.645	2143.78
187.721	2132.03
187.797	2142.07
187.873	2148.54
187.949	2142.93
188.025	2138.83
188.101	2142.4
188.176	2148.06
188.252	2146.01
188.328	2151.2
188.404	2152.91
188.48	2147.63
188.556	2142.97
188.632	2140.83
188.707	2142.59
188.783	2138.35
188.859	2132.5
188.935	2122.37
189.011	2130.22
189.086	2124.61
189.162	2116.47
189.238	2114.33
189.314	2111.05
189.39	2103.25
189.465	2093.5
189.541	2109.2
189.617	2090.84
189.693	2082.23
189.768	2088.89
189.844	2111.26
189.92	2103.46
189.996	2111.74
190.071	2123.72
190.147	2120.78
190.223	2129.05
190.298	2119.73
190.374	2105.79
190.45	2119.01
190.526	2127.72
190.601	2120.63
190.677	2122.67
190.753	2150.95
190.828	2155.75
190.904	2171.31
190.98	2186.01
191.055	2198.38
191.131	2191.43
191.207	2214.12
191.282	2226.63
191.358	2214.98
191.433	2200.13
191.509	2215.2
191.585	2212.3
191.66	2214.92
191.736	2222.39
191.811	2214.91
191.887	2231.62
191.963	2254.03
192.038	2259.88
192.114	2260.31
192.189	2263.45
192.265	2260.74
192.34	2240.84
192.416	2239.27
192.491	2231.89
192.567	2237.37
192.642	2241.32
192.718	2241.18
192.793	2228.37
192.869	2224.43
192.944	2230.09
193.02	2239.99
193.095	2242.98
193.171	2247.31
193.246	2245.46
193.322	2243.32
193.397	2244.31
193.473	2229.7
193.548	2212.38
193.624	2217.71
193.699	2215.86
193.775	2230.9
193.85	2233.94
193.925	2240.03
194.001	2239.46
194.076	2234.85
194.152	2222.8
194.227	2212.57
194.302	2203.2
194.378	2205.39
194.453	2199.3
194.529	2207.49
194.604	2189.5
194.679	2184.41
194.755	2165.29
194.83	2176.67
194.905	2175.62
194.981	2183.57
195.056	2177.29
195.131	2186.52
195.207	2183.9
195.282	2176.48
195.357	2156.92
195.433	2171.15
195.508	2159.96
195.583	2168.05
195.659	2182.47
195.734	2192.47
195.809	2194.8
195.884	2201.46
195.96	2204.21
196.035	2219.82
196.11	2218.96
196.185	2231.66
196.261	2234.8
196.336	2265.97
196.411	2255.07
196.486	2264.3
196.561	2255.5
196.637	2261.63
196.712	2272.58
196.787	2275.58
196.862	2289.76
196.937	2301.46
197.013	2307.13
197.088	2318.12
197.163	2336.97
197.238	2353.93
197.313	2352.26
197.388	2361.69
197.464	2396.92
197.539	2409.78
197.614	2402.64
197.689	2414.68
197.764	2436.16
197.839	2455.77
197.914	2449.53
197.989	2469.39
198.065	2479.67
198.14	2535.9
198.215	2564.61
198.29	2577.42
198.365	2591.04
198.44	2601.32
198.515	2631.1
198.59	2647.77
198.665	2675.97
198.74	2687.88
198.815	2688.79
198.89	2708.65
198.965	2742.2
199.04	2735.05
199.115	2750.15
199.19	2792.59
199.265	2791.5
199.34	2798.12
199.415	2832.97
199.49	2855.26
199.565	2864.84
199.64	2891.34
199.715	2883.18
199.79	2889.14
199.865	2898.81
199.94	2897.19
200.015	2930.51
200.09	2934.52
200.165	2941
200.24	2946.96
200.315	2985.8
200.39	3002.3
200.464	3009.88
200.539	3008.49
200.614	3025.99
200.689	3048.83
200.764	3055.98
200.839	3079.52
200.914	3085.86
200.989	3076.7
201.063	3089.63
201.138	3070.66
201.213	3067.28
201.288	3050.69
201.363	3058.08
201.438	3056.17
201.512	3069.99
201.587	3053.73
201.662	3055.54
201.737	3069.08
201.812	3075.52
201.886	3041.83
201.961	3049.47
202.036	3034.17
202.111	3031.26
202.186	3001.33
202.26	2981.5
202.335	2961.66
202.41	2953.03
202.485	2931.97
202.559	2911.52
202.634	2885.78
202.709	2898.45
202.784	2881.05
202.858	2877.38
202.933	2858.56
203.008	2852.98
203.082	2835.97
203.157	2835.59
203.232	2795.48
203.306	2773.02
203.381	2743.85
203.456	2722.84
203.53	2703.14
203.605	2687.19
203.68	2665.89
203.754	2659.32
203.829	2641.26
203.904	2620.16
203.978	2608.82
204.053	2617.06
204.127	2603.39
204.202	2601.96
204.277	2582.2
204.351	2578.58
204.426	2573.53
204.5	2564.43
204.575	2528.92
204.65	2540.64
204.724	2530.06
204.799	2537.63
204.873	2534.2
204.948	2528.15
205.022	2518.58
205.097	2505.19
205.171	2520.04
205.246	2524.24
205.32	2525.47
205.395	2527.19
205.469	2517.72
205.544	2519.96
205.618	2500.48
205.693	2514.24
205.767	2501.29
205.842	2522.49
205.916	2514.34
205.991	2503.58
206.065	2508.96
206.14	2526.04
206.214	2520.37
206.289	2514.75
206.363	2525.56
206.438	2528.71
206.512	2538.47
206.586	2556.42
206.661	2567.05
206.735	2546.44
206.81	2551.15
206.884	2566.44
206.958	2554.87
207.033	2575.48
207.107	2589.64
207.181	2624.37
207.256	2616.65
207.33	2638.51
207.405	2655.86
207.479	2674.11
207.553	2687.92
207.628	2675.68
207.702	2691.45
207.776	2690.16
207.851	2697.26
207.925	2719.56
207.999	2721.37
208.073	2725.76
208.148	2734.53
208.222	2729.47
208.296	2769.96
208.371	2796
208.445	2817.26
208.519	2859.19
208.593	2882.4
208.668	2888.93
208.742	2906.06
208.816	2928.5
208.89	2959.79
208.965	2974.48
209.039	3004.67
209.113	3044.07
209.187	3090.87
209.261	3113.99
209.336	3159.78
209.41	3205.34
209.484	3234.83
209.558	3286.8
209.632	3332.5
209.707	3381.42
209.781	3445.71
209.855	3498.52
209.929	3556.87
210.003	3607.48
210.077	3651.27
210.151	3750.42
210.226	3836.35
210.3	3919.18
210.374	3998.91
210.448	4059.28
210.522	4129.13
210.596	4202.53
210.67	4273.16
210.744	4384.34
210.818	4483.23
210.892	4580.09
210.966	4652.76
211.041	4746.18
211.115	4818.64
211.189	4926.45
211.263	5022.03
211.337	5111.06
211.411	5214.07
211.485	5301.06
211.559	5405.8
211.633	5506.06
211.707	5568.6
211.781	5675.06
211.855	5738.99
211.929	5829.37
212.003	5917.44
212.077	6038.51
212.151	6163.11
212.225	6292.75
212.299	6394.23
212.373	6506.18
212.447	6614.97
212.52	6761.78
212.594	6886.88
212.668	7025.11
212.742	7131.1
212.816	7253.59
212.89	7375.61
212.964	7500.27
213.038	7628.8
213.112	7768.2
213.186	7911.91
213.26	8027.26
213.333	8110.37
213.407	8244.4
213.481	8381.86
213.555	8530.1
213.629	8652.74
213.703	8765.31
213.777	8890.96
213.85	9011.02
213.924	9177.18
213.998	9310.94
214.072	9444.68
214.146	9567.72
214.219	9695.48
214.293	9831
214.367	9964.22
214.441	10105.88
214.515	10234.75
214.588	10348.78
214.662	10445.66
214.736	10555.98
214.81	10691.6
214.883	10832.22
214.957	10954.41
215.031	11071.78
215.105	11170.17
215.178	11280.53
215.252	11400.62
215.326	11497.06
215.4	11602.89
215.473	11676.98
215.547	11783.45
215.621	11888.48
215.694	12007.59
215.768	12107.51
215.842	12207.96
215.915	12312.41
215.989	12404.92
216.063	12506.24
216.136	12615.95
216.21	12738.39
216.284	12864.4
216.357	12973.97
216.431	13082.09
216.504	13203.62
216.578	13336.66
216.652	13462.57
216.725	13568.82
216.799	13683.89
216.873	13801.89
216.946	13912.04
217.02	14011.25
217.093	14111.95
217.167	14186.24
217.24	14280.67
217.314	14375.2
217.387	14468.53
217.461	14563.11
217.535	14677.35
217.608	14758.77
217.682	14854.16
217.755	14953.03
217.829	15036.56
217.902	15130.03
217.976	15216.65
218.049	15295.27
218.123	15369.84
218.196	15458.58
218.27	15533.77
218.343	15602.41
218.417	15678.61
218.49	15760.89
218.563	15851.31
218.637	15930.84
218.71	16034.37
218.784	16111.35
218.857	16208.22
218.931	16295.27
219.004	16377.06
219.077	16453.16
219.151	16542.57
219.224	16619.88
219.298	16689.81
219.371	16767.88
219.444	16828.85
219.518	16901.97
219.591	16975.37
219.665	17065.39
219.738	17148.33
219.811	17212.24
219.885	17295.95
219.958	17376.05
220.031	17446.46
220.105	17519.71
220.178	17594.56
220.251	17654.46
220.325	17723.57
220.398	17787.52
220.471	17854.36
220.544	17917.59
220.618	17965.97
220.691	18031.56
220.764	18086.06
220.838	18161.14
220.911	18220.95
220.984	18304.42
221.057	18374.05
221.131	18435.73
221.204	18461.03
221.277	18516.5
221.35	18612.21
221.424	18666.08
221.497	18714.61
221.57	18759.52
221.643	18821.3
221.716	18878.89
221.79	18925.92
221.863	18978.21
221.936	19026.88
222.009	19082.25
222.082	19136.47
222.155	19177.91
222.229	19235.11
222.302	19286.29
222.375	19316.79
222.448	19371.73
222.521	19409.12
222.594	19445.84
222.667	19470.66
222.74	19537.07
222.814	19584.87
222.887	19609.98
222.96	19659.18
223.033	19705.88
223.106	19754.99
223.179	19790.69
223.252	19828.09
223.325	19869.82
223.398	19905.82
223.471	19951.75
223.544	19975.8
223.617	20011.84
223.69	20056.61
223.763	20080.56
223.837	20114.63
223.91	20165.43
223.983	20173.09
224.056	20191.74
224.129	20229.62
224.202	20277.23
224.275	20297.04
224.348	20304.94
224.42	20324.12
224.493	20324.8
224.566	20345.81
224.639	20373.04
224.712	20398.97
224.785	20408.85
224.858	20424.12
224.931	20434.24
225.004	20434.92
225.077	20468.32
225.15	20459.35
225.223	20481.76
225.296	20522.82
225.369	20540.51
225.442	20537.96
225.514	20568.41
225.587	20590.68
225.66	20603.07
225.733	20617.52
225.806	20639.69
225.879	20666.2
225.952	20677.57
226.025	20711.74
226.097	20747.99
226.17	20766.49
226.243	20756.81
226.316	20778.06
226.389	20801.14
226.461	20835.22
226.534	20854.88
226.607	20862.54
226.68	20911.61
226.753	20915.94
226.825	20903.94
226.898	20921.1
226.971	20944.86
227.044	20954.5
227.117	20963.22
227.189	20978.89
227.262	20999.37
227.335	21013.15
227.407	21010.94
227.48	21018.26
227.553	21026.02
227.626	21023.23
227.698	21029.4
227.771	21051.28
227.844	21048.1
227.916	21058.27
227.989	21051.37
228.062	21058.31
228.134	21088.34
228.207	21086.8
228.28	21090.89
228.352	21097.21
228.425	21105.16
228.498	21112.2
228.57	21107.81
228.643	21131.57
228.716	21138.8
228.788	21149.31
228.861	21139.33
228.934	21170.95
229.006	21186.42
229.079	21190.76
229.151	21185.07
229.224	21177.55
229.296	21181.79
229.369	21217.56
229.442	21230.76
229.514	21222.47
229.587	21240.11
229.659	21217.51
229.732	21230.38
229.804	21244.84
229.877	21262.57
229.949	21277.52
230.022	21294.82
230.094	21303.49
230.167	21304.8
230.239	21303.74
230.312	21297.61
230.384	21332.41
230.457	21326.68
230.529	21329.72
230.602	21332.75
230.674	21347.02
230.747	21359.69
230.819	21375.17
230.892	21335.88
230.964	21333.96
231.037	21343.84
231.109	21335.64
231.181	21353.33
231.254	21341.19
231.326	21337.67
231.399	21330
231.471	21317.71
231.544	21291.4
231.616	21299.2
231.688	21295.44
231.761	21283.25
231.833	21273.23
231.905	21239.29
231.978	21234.96
232.05	21223.39
232.122	21219
232.195	21193.6
232.267	21198.18
232.339	21174.27
232.412	21182.37
232.484	21172.39
232.556	21147.48
232.629	21161.65
232.701	21151.62
232.773	21133.93
232.846	21120.44
232.918	21115.23
232.99	21100.63
233.062	21105.5
233.135	21098.85
233.207	21074.75
233.279	21070.75
233.351	21062.89
233.424	21037.69
233.496	21011.37
233.568	21021.88
233.64	20998.46
233.713	20991.85
233.785	20969.3
233.857	20959.18
233.929	20934.26
234.001	20937.3
234.074	20948.53
234.146	20911.08
234.218	20898.06
234.29	20878.11
234.362	20856.91
234.434	20826.74
234.507	20800.08
234.579	20755.31
234.651	20727.07
234.723	20725.62
234.795	20711.31
234.867	20689.67
234.939	20695.94
235.012	20679.74
235.084	20659.36
235.156	20639.55
235.228	20614.05
235.3	20587.36
235.372	20578.2
235.444	20579.16
235.516	20526.2
235.588	20506.68
235.66	20489.86
235.732	20447.74
235.804	20486.49
235.876	20468.85
235.948	20461.14
236.02	20439.84
236.092	20421.09
236.164	20392.18
236.236	20352.18
236.308	20323.07
236.38	20301.43
236.452	20268.71
236.524	20246.54
236.596	20222.68
236.668	20221.53
236.74	20197.48
236.812	20183.7
236.884	20159.31
236.956	20124.85
237.028	20098.78
237.1	20059.55
237.172	20046.16
237.244	20051.94
237.316	19987.12
237.388	19963.75
237.46	19924.47
237.532	19913.53
237.604	19886.21
237.675	19881.63
237.747	19860.33
237.819	19826.31
237.891	19798.36
237.963	19770.02
238.035	19738.65
238.107	19685.25
238.178	19661.88
238.25	19639.38
238.322	19628
238.394	19577.93
238.466	19546.22
238.538	19520.44
238.609	19495.96
238.681	19449.22
238.753	19393.41
238.825	19360.64
238.897	19331.68
238.968	19319.92
239.04	19272.94
239.112	19267.2
239.184	19224.46
239.255	19199.59
239.327	19171.16
239.399	19138.73
239.471	19106.3
239.542	19079.79
239.614	19061.39
239.686	19001.29
239.758	18980.23
239.829	18936.04
239.901	18926.31
239.973	18898.17
240.044	18881.2
240.116	18848.19
240.188	18806.61
240.259	18789.31
240.331	18756.01
240.403	18731.38
240.474	18681.17
240.546	18646.81
240.618	18596.84
240.689	18559.83
240.761	18531.25
240.833	18520.17
240.904	18488.31
240.976	18455.69
241.048	18427.11
241.119	18402.73
241.191	18383.21
241.262	18363.88
241.334	18331.84
241.405	18295.7
241.477	18256.03
241.549	18208.86
241.62	18183.7
241.692	18166.3
241.763	18137.87
241.835	18107.56
241.906	18077.78
241.978	18033.97
242.049	18015.56
242.121	17985.25
242.192	17963.37
242.264	17909.16
242.335	17856.39
242.407	17836.53
242.478	17802.27
242.55	17775.13
242.621	17723.67
242.693	17686.03
242.764	17643.23
242.836	17604.15
242.907	17572.97
242.979	17541.45
243.05	17516.97
243.122	17485.12
243.193	17448.34
243.264	17391.53
243.336	17352.34
243.407	17326.13
243.479	17314.18
243.55	17288.2
243.622	17265.21
243.693	17228.1
243.764	17209.74
243.836	17167.67
243.907	17131.52
243.978	17092.92
244.05	17058.27
244.121	17017.49
244.192	16983.9
244.264	16930.74
244.335	16897.44
244.407	16845.97
244.478	16825.49
244.549	16793.97
244.62	16754.98
244.692	16719.46
244.763	16692.76
244.834	16656.85
244.906	16620.41
244.977	16594.2
245.048	16576.17
245.119	16533.66
245.191	16498.72
245.262	16442.57
245.333	16432.83
245.405	16397.6
245.476	16373.94
245.547	16349.65
245.618	16334.7
245.689	16310.37
245.761	16294.12
245.832	16256.91
245.903	16241.88
245.974	16214.69
246.045	16175.99
246.117	16151.6
246.188	16107.69
246.259	16066.14
246.33	16034.19
246.401	15990.42
246.473	15934.9
246.544	15889.59
246.615	15866.26
246.686	15819.51
246.757	15810.79
246.828	15759.64
246.899	15735.3
246.97	15688.89
247.042	15645.94
247.113	15619.67
247.184	15609.94
247.255	15565.98
247.326	15536.48
247.397	15498.21
247.468	15461
247.539	15438.1
247.61	15399.06
247.681	15376.98
247.752	15362.66
247.823	15320.29
247.894	15297.74
247.965	15259.08
248.037	15226.2
248.108	15185.95
248.179	15159.92
248.25	15123.1
248.321	15105.55
248.392	15069.83
248.463	15065.54
248.534	15032.43
248.605	15006.06
248.675	14963.55
248.746	14944.8
248.817	14927.83
248.888	14901.46
248.959	14853.11
249.03	14820.53
249.101	14787.07
249.172	14761.52
249.243	14708.45
249.314	14700.26
249.385	14665.26
249.456	14640.43
249.527	14603.61
249.598	14577.48
249.669	14554.34
249.739	14533.95
249.81	14511.39
249.881	14470.32
249.952	14439.28
250.023	14406.3
250.094	14370.63
250.165	14329.46
250.235	14292.39
250.306	14260.05
250.377	14228.76
250.448	14211.75
250.519	14169.66
250.59	14161.37
250.66	14121.7
250.731	14120.11
250.802	14086.41
250.873	14069.97
250.944	14050.64
251.014	14021.86
251.085	14020.47
251.156	13999.35
251.227	13984.99
251.297	13969.99
251.368	13958.38
251.439	13945.79
251.51	13939.33
251.58	13898.6
251.651	13872.28
251.722	13867.51
251.792	13826.44
251.863	13797.46
251.934	13794.62
252.005	13800.16
252.075	13771.48
252.146	13762.32
252.217	13746.12
252.287	13737.78
252.358	13706.55
252.429	13709.34
252.499	13677.19
252.57	13652.84
252.641	13633.71
252.711	13616.21
252.782	13577.26
252.852	13569.49
252.923	13543.56
252.994	13523.99
253.064	13513.09
253.135	13478.77
253.205	13450.47
253.276	13444.74
253.347	13438.32
253.417	13396.96
253.488	13370.4
253.558	13351.75
253.629	13328.37
253.699	13310.19
253.77	13292.5
253.841	13273.89
253.911	13246.27
253.982	13233.49
254.052	13220.29
254.123	13204.57
254.193	13182.83
254.264	13197.92
254.334	13166.92
254.405	13132.84
254.475	13094.37
254.546	13076.82
254.616	13072.68
254.687	13055.9
254.757	13036.62
254.827	13013.53
254.898	13000.51
254.968	12977.81
255.039	12945.32
255.109	12929.22
255.18	12893.83
255.25	12844.38
255.321	12826.15
255.391	12793.23
255.461	12794.87
255.532	12746.9
255.602	12713.93
255.673	12666.4
255.743	12634.68
255.813	12590.86
255.884	12574.62
255.954	12567.05
256.024	12562.71
256.095	12543.57
256.165	12504.43
256.235	12491.03
256.306	12458.49
256.376	12444.23
256.446	12430.53
256.517	12412.6
256.587	12407.64
256.657	12389.9
256.728	12376.31
256.798	12352.88
256.868	12331.28
256.938	12296.87
257.009	12286.74
257.079	12276.48
257.149	12283.08
257.219	12238.49
257.29	12225.38
257.36	12190.48
257.43	12182.14
257.5	12138.76
257.571	12111.53
257.641	12101.12
257.711	12059.95
257.781	12043.95
257.852	12031.51
257.922	11989.43
257.992	11973
258.062	11944.75
258.132	11941.04
258.202	11916.5
258.273	11898.96
258.343	11893.51
258.413	11867.87
258.483	11846.52
258.553	11823.86
258.623	11790.36
258.693	11776.58
258.764	11775.04
258.834	11773.54
258.904	11745.97
258.974	11715.99
259.044	11701.49
259.114	11687.8
259.184	11676.04
259.254	11657.82
259.324	11618.87
259.394	11604.7
259.464	11604.56
259.535	11583.64
259.605	11559.49
259.675	11540.7
259.745	11532.79
259.815	11502.86
259.885	11485.7
259.955	11495.87
260.025	11462.57
260.095	11452.69
260.165	11435.73
260.235	11429.41
260.305	11404.3
260.375	11374.95
260.445	11385.51
260.515	11378.04
260.585	11369.89
260.655	11355.43
260.725	11351.38
260.795	11341.12
260.865	11350.13
260.934	11318.85
261.004	11316.01
261.074	11297.12
261.144	11296.83
261.214	11286.47
261.284	11271.62
261.354	11263.91
261.424	11234.9
261.494	11237.84
261.564	11213.98
261.634	11213.31
261.703	11172.92
261.773	11159.72
261.843	11155.04
261.913	11137.93
261.983	11104.97
262.053	11097.69
262.123	11080.15
262.192	11053.31
262.262	11047.58
262.332	11007.48
262.402	11000.54
262.472	10981.99
262.541	10942.67
262.611	10937.71
262.681	10907.35
262.751	10897.61
262.821	10877.61
262.89	10849.9
262.96	10841.9
263.03	10850.34
263.1	10832.99
263.169	10822.48
263.239	10815.02
263.309	10814.73
263.379	10805.33
263.448	10793.81
263.518	10775.84
263.588	10762.54
263.657	10761.24
263.727	10755.12
263.797	10746.35
263.867	10729.97
263.936	10697.1
264.006	10692.48
264.076	10671.28
264.145	10658.8
264.215	10637.79
264.285	10630.42
264.354	10597.46
264.424	10576.65
264.494	10540.7
264.563	10522.15
264.633	10526.92
264.702	10515.21
264.772	10477
264.842	10451.27
264.911	10444.82
264.981	10414.66
265.05	10400.15
265.12	10381.65
265.19	10369.8
265.259	10368.4
265.329	10359.97
265.398	10354.29
265.468	10370.71
265.537	10350.38
265.607	10339.4
265.676	10337.86
265.746	10327.02
265.815	10326.92
265.885	10315.55
265.955	10297.68
266.024	10279.71
266.094	10241.26
266.163	10236.98
266.232	10243.43
266.302	10231.77
266.371	10217.76
266.441	10207.74
266.51	10203.69
266.58	10184.8
266.649	10152.72
266.719	10142.65
266.788	10132.24
266.858	10131.47
266.927	10103.19
266.996	10090.57
267.066	10083.3
267.135	10056.9
267.205	10053.14
267.274	10038.93
267.343	10034.55
267.413	10023.86
267.482	10025.11
267.552	10034.93
267.621	10004.78
267.69	9973.9
267.76	9969.71
267.829	9957.33
267.898	9945.19
267.968	9921.35
268.037	9919.71
268.106	9921.25
268.176	9897.8
268.245	9884.89
268.314	9868.51
268.384	9858.06
268.453	9845.82
268.522	9832.38
268.592	9832.67
268.661	9806.95
268.73	9798.23
268.799	9777.96
268.869	9780.07
268.938	9753.15
269.007	9725.02
269.076	9724.01
269.146	9720.06
269.215	9706.43
269.284	9715.34
269.353	9701.95
269.422	9694.1
269.492	9672.58
269.561	9635.59
269.63	9627.64
269.699	9606.02
269.768	9592
269.838	9586.56
269.907	9582.51
269.976	9558.53
270.045	9524.39
270.114	9521.02
270.183	9510.04
270.253	9498.05
270.322	9465.4
270.391	9455.43
270.46	9465.54
270.529	9456.78
270.598	9456.3
270.667	9443.78
270.736	9422.44
270.806	9410.59
270.875	9414.11
270.944	9398.51
271.013	9423.12
271.082	9416.47
271.151	9411.08
271.22	9385.99
271.289	9372.27
271.358	9359.17
271.427	9358.93
271.496	9352.81
271.565	9339.67
271.634	9330.47
271.703	9328.83
271.772	9337.6
271.841	9323.97
271.91	9297.87
271.979	9288.1
272.048	9262.77
272.117	9264.12
272.186	9242.4
272.255	9245.82
272.324	9241.25
272.393	9242.26
272.462	9222.13
272.531	9215.92
272.6	9208.11
272.669	9209.37
272.738	9199.01
272.807	9198.58
272.876	9175.38
272.945	9204.56
273.013	9206.24
273.082	9210.86
273.151	9193.77
273.22	9195.6
273.289	9185.54
273.358	9194.69
273.427	9184.29
273.496	9191.12
273.564	9186.69
273.633	9192.33
273.702	9171.48
273.771	9158.05
273.84	9153.95
273.909	9145.53
273.977	9142.88
274.046	9129.06
274.115	9135.27
274.184	9113.66
274.253	9101.67
274.322	9114.53
274.39	9079.76
274.459	9061.61
274.528	9032.78
274.597	9027.53
274.665	9011.16
274.734	9024.88
274.803	9014.34
274.872	9005.53
274.94	8989.25
275.009	9040.12
275.078	9023.51
275.147	9020.96
275.215	9013.45
275.284	9015.13
275.353	9003.29
275.421	8976.52
275.49	8994.24
275.559	8985.91
275.627	8986.01
275.696	8980.71
275.765	8979.41
275.833	8969.74
275.902	8971.04
275.971	8983.7
276.039	9000.55
276.108	9007.29
276.177	9000.21
276.245	8989.14
276.314	8983.55
276.383	8986.35
276.451	8923.74
276.52	8929.08
276.588	8938.32
276.657	8944.97
276.725	8931.34
276.794	8935.58
276.863	8945.01
276.931	8926.62
277	8931.05
277.068	8940.92
277.137	8954.06
277.205	8951.08
277.274	8972.3
277.342	8978.37
277.411	8960.08
277.48	8941.5
277.548	8929.41
277.617	8931.58
277.685	8924.7
277.754	8935.53
277.822	8922.53
277.89	8935.87
277.959	8925.47
278.027	8910.84
278.096	8900.15
278.164	8930.63
278.233	8924.99
278.301	8913.97
278.37	8913.63
278.438	8897.41
278.507	8890.1
278.575	8869.16
278.643	8857.31
278.712	8835.51
278.78	8823.14
278.849	8834.01
278.917	8845.42
278.985	8839.5
279.054	8839.74
279.122	8850.14
279.191	8842.68
279.259	8841.14
279.327	8815.96
279.396	8836.23
279.464	8830.74
279.532	8837.77
279.601	8830.5
279.669	8821.88
279.737	8837.67
279.806	8840.61
279.874	8854.18
279.942	8853.65
280.011	8846.14
280.079	8857.5
280.147	8868.48
280.215	8870.98
280.284	8862.65
280.352	8849.27
280.42	8853.75
280.488	8841.67
280.557	8833.77
280.625	8832.18
280.693	8838.05
280.761	8843.88
280.83	8820.58
280.898	8833
280.966	8816.25
281.034	8783.51
281.102	8772.93
281.171	8763.68
281.239	8767.82
281.307	8754.2
281.375	8742.36
281.443	8768.74
281.512	8765.95
281.58	8777.65
281.648	8762.05
281.716	8762.29
281.784	8759.84
281.852	8758.59
281.92	8757.62
281.989	8770.19
282.057	8757.72
282.125	8800.81
282.193	8793.83
282.261	8800.72
282.329	8798.98
282.397	8793.98
282.465	8798.02
282.533	8808.37
282.601	8795.61
282.67	8778.14
282.738	8778.09
282.806	8797.3
282.874	8786.71
282.942	8784.4
283.01	8776.11
283.078	8783.04
283.146	8772.12
283.214	8784.01
283.282	8782.61
283.35	8792.68
283.418	8784.15
283.486	8782.47
283.554	8734.95
283.622	8735.91
283.69	8729.46
283.758	8719.21
283.826	8723.93
283.894	8729.99
283.962	8751.7
284.03	8769.56
284.098	8766.53
284.165	8759.84
284.233	8753.19
284.301	8743.9
284.369	8736.01
284.437	8730.19
284.505	8728.31
284.573	8750.74
284.641	8735.77
284.709	8744.14
284.777	8729.94
284.845	8740.58
284.912	8750.54
284.98	8752.18
285.048	8744.24
285.116	8750.78
285.184	8760.22
285.252	8762.77
285.319	8749.73
285.387	8741.54
285.455	8723.73
285.523	8733.22
285.591	8727.35
285.659	8726.38
285.726	8738.51
285.794	8727.16
285.862	8720.99
285.93	8719.98
285.997	8714.21
286.065	8707.81
286.133	8697.02
286.201	8689.47
286.269	8673.01
286.336	8665.45
286.404	8660.54
286.472	8674.45
286.539	8651.35
286.607	8639.51
286.675	8641.68
286.743	8646.78
286.81	8636.67
286.878	8652.07
286.946	8638.98
287.013	8642.97
287.081	8643.89
287.149	8625.5
287.216	8647.4
287.284	8646.25
287.352	8641.87
287.419	8640.33
287.487	8657.75
287.555	8657.75
287.622	8657.36
287.69	8661.31
287.758	8672.91
287.825	8672.86
287.893	8659.24
287.96	8671.08
288.028	8682.25
288.096	8683.21
288.163	8687.97
288.231	8677.77
288.298	8677.77
288.366	8693.36
288.433	8683.84
288.501	8676.38
288.569	8685.66
288.636	8676.52
288.704	8689.18
288.771	8700.68
288.839	8685.09
288.906	8679.36
288.974	8690.72
289.041	8691.2
289.109	8681.58
289.176	8688.6
289.244	8687.83
289.311	8699.1
289.379	8709.73
289.446	8708.91
289.514	8711.75
289.581	8715.46
289.649	8722.68
289.716	8721.33
289.783	8713.34
289.851	8738.56
289.918	8737.02
289.986	8741.26
290.053	8742.94
290.121	8739.67
290.188	8733.94
290.255	8767.15
290.323	8766.19
290.39	8761.66
290.458	8768.64
290.525	8782.31
290.592	8775.09
290.66	8777.06
290.727	8774.66
290.794	8784.19
290.862	8782.45
290.929	8784.04
290.996	8782.21
291.064	8788.33
291.131	8798.1
291.198	8813.65
291.266	8807.82
291.333	8815.14
291.4	8816.1
291.468	8836.22
291.535	8833.96
291.602	8848.74
291.669	8840.26
291.737	8837.23
291.804	8843.97
291.871	8856.53
291.938	8865.44
292.006	8890.81
292.073	8909.34
292.14	8918.2
292.207	8910.45
292.275	8917.53
292.342	8924.07
292.409	8946.99
292.476	8968.99
292.543	8963.84
292.611	8957.15
292.678	8978.33
292.745	9000.66
292.812	9013.95
292.879	9010.44
292.946	9009.23
293.014	9015.64
293.081	9021.17
293.148	9035.71
293.215	9043.32
293.282	9042.45
293.349	9048.47
293.416	9033.44
293.484	9044.95
293.551	9056.46
293.618	9079.13
293.685	9100.08
293.752	9091.8
293.819	9089.2
293.886	9076.78
293.953	9083.52
294.02	9102.63
294.087	9107.44
294.154	9097.48
294.221	9112.4
294.288	9109.52
294.356	9129.25
294.423	9133.44
294.49	9132.29
294.557	9148.17
294.624	9146.15
294.691	9167.38
294.758	9172.97
294.825	9178.17
294.892	9169.02
294.959	9170.23
295.026	9172.25
295.093	9167.29
295.16	9175.13
295.226	9179.37
295.293	9210.53
295.36	9216.45
295.427	9224.15
295.494	9236.62
295.561	9247.89
295.628	9267.78
295.695	9288.05
295.762	9291.85
295.829	9309.38
295.896	9326.23
295.963	9333.7
296.03	9341.55
296.096	9347.66
296.163	9356.76
296.23	9373.33
296.297	9392.2
296.364	9390.56
296.431	9401.26
296.498	9395.62
296.564	9420.03
296.631	9424.13
296.698	9402.79
296.765	9425.23
296.832	9413.1
296.899	9400.24
296.965	9416.76
297.032	9398.51
297.099	9411.99
297.166	9420.03
297.233	9415.46
297.299	9407.61
297.366	9406.79
297.433	9412.86
297.5	9420.8
297.566	9421.19
297.633	9419.84
297.7	9419.26
297.767	9414.88
297.833	9417
297.9	9426.15
297.967	9405.64
298.033	9420.37
298.1	9456.73
298.167	9443.01
298.234	9452.78
298.3	9464.77
298.367	9461.98
298.434	9463.91
298.5	9453.12
298.567	9448.01
298.634	9445.08
298.7	9461.54
298.767	9465.45
298.834	9478.01
298.9	9466.89
298.967	9459.91
299.033	9466.79
299.1	9478.35
299.167	9498.05
299.233	9489.09
299.3	9495.59
299.366	9518.7
299.433	9532.96
299.5	9501.51
299.566	9505.36
299.633	9524.58
299.699	9529.25
299.766	9526.94
299.832	9538.93
299.899	9546.83
299.965	9564.41
300.032	9561.81
300.099	9573.7
300.165	9578.42
300.232	9572.5
300.298	9576.4
300.365	9589.26
300.431	9597.78
300.498	9590.65
300.564	9598.22
300.631	9615.17
300.697	9636.74
300.763	9634
300.83	9623.45
300.896	9640.26
300.963	9657.88
301.029	9656.39
301.096	9662.46
301.162	9674.21
301.229	9669.25
301.295	9655.04
301.361	9652.25
301.428	9660.05
301.494	9638.33
301.561	9640.69
301.627	9642.52
301.693	9645.46
301.76	9647.63
301.826	9638.14
301.892	9653.02
301.959	9664.19
302.025	9658.56
302.092	9651.19
302.158	9657.84
302.224	9663.62
302.291	9654.08
302.357	9643.48
302.423	9639.63
302.49	9631.93
302.556	9642.67
302.622	9643.34
302.688	9661.83
302.755	9676.62
302.821	9680.62
302.887	9693.38
302.954	9686.4
303.02	9690.97
303.086	9701.81
303.152	9702.29
303.219	9699.5
303.285	9701.04
303.351	9693.86
303.417	9696.36
303.483	9687.79
303.55	9682.83
303.616	9685.58
303.682	9691.26
303.748	9687.74
303.815	9701.33
303.881	9708.41
303.947	9694.29
304.013	9694.78
304.079	9684.81
304.145	9663.09
304.212	9662.36
304.278	9654.85
304.344	9658.12
304.41	9649.84
304.476	9637.56
304.542	9632.5
304.608	9639.05
304.674	9625.9
304.741	9627.49
304.807	9631.92
304.873	9636.36
304.939	9646.13
305.005	9621.28
305.071	9614.92
305.137	9612.42
305.203	9587.04
305.269	9583.04
305.335	9595.85
305.401	9588.92
305.467	9585.83
305.533	9594.84
305.599	9604.33
305.666	9611.07
305.732	9610.78
305.798	9622.68
305.864	9646.37
305.93	9646.18
305.996	9644.5
306.062	9641.46
306.128	9635.92
306.194	9626.19
306.259	9626.24
306.325	9621.33
306.391	9635.1
306.457	9642.71
306.523	9645.17
306.589	9670.45
306.655	9669.78
306.721	9650.95
306.787	9641.51
306.853	9656.01
306.919	9640.79
306.985	9631.45
307.051	9630.29
307.117	9620.85
307.183	9612.71
307.248	9585.07
307.314	9593.01
307.38	9592.05
307.446	9597.49
307.512	9588.92
307.578	9585.07
307.644	9571.2
307.709	9572.64
307.775	9566.04
307.841	9566.24
307.907	9570.43
307.973	9548.17
308.039	9541.58
308.104	9551.06
308.17	9555.64
308.236	9543.45
308.302	9548.56
308.368	9540.56
308.433	9534.54
308.499	9529.49
308.565	9518.41
308.631	9521.49
308.696	9497.03
308.762	9492.02
308.828	9490.58
308.894	9473.39
308.959	9453.02
309.025	9448.11
309.091	9439.39
309.156	9434.19
309.222	9428.65
309.288	9415.02
309.354	9396.92
309.419	9396.77
309.485	9377.13
309.551	9380.4
309.616	9375.1
309.682	9367.35
309.748	9358.59
309.813	9350.45
309.879	9345.01
309.945	9335.52
310.01	9329.41
310.076	9332.54
310.141	9323.87
310.207	9304.17
310.273	9305.52
310.338	9312.12
310.404	9298.59
310.469	9292.38
310.535	9278.85
310.601	9261.75
310.666	9267.05
310.732	9272.97
310.797	9258.67
310.863	9249.47
310.928	9238.16
310.994	9227.13
311.059	9228.19
311.125	9221.16
311.191	9234.93
311.256	9221.65
311.322	9222.71
311.387	9199.69
311.453	9555.85
311.518	9528.8
311.584	9527.93
311.649	9533.08
311.715	9521.67
311.78	9523.12
311.846	9507.57
311.911	9519.32
311.976	9520.28
312.042	9500.34
312.107	9489.22
312.173	9488.31
312.238	9483.88
312.304	9478.63
312.369	9473.58
312.434	9461.01
312.5	9456.39
312.565	9424.95
312.631	9437.8
312.696	9429.81
312.761	9435.01
312.827	9070.9
312.892	9105.08
312.958	9100.27
313.023	9096.13
313.088	9100.75
313.154	9084.19
313.219	9077.69
313.284	9064.55
313.35	9053.67
313.415	9045.29
313.48	9041.73
313.546	9039.08
313.611	9046.01
313.676	9034.75
313.741	9023.24
313.807	9026.47
313.872	9028.68
313.937	9032.68
314.003	9037.25
314.068	9041.05
314.133	9041.01
314.198	9029.6
314.264	9012.74
314.329	9005.72
314.394	9000.42
314.459	8989.59
314.525	9009.57
314.59	9001.19
314.655	8989.92
314.72	9000.66
314.785	9005.19
314.851	8994.11
314.916	8971.97
314.981	8952.86
315.046	8949.35
315.111	8939.38
315.176	8931.97
315.242	8936.74
315.307	8937.26
315.372	8912.09
315.437	8901.16
315.502	8894.56
315.567	8902.36
315.632	8882.1
315.698	8885.66
315.763	8881.04
315.828	8871.31
315.893	8867.08
315.958	8864.91
316.023	8855.33
316.088	8835.21
316.153	8812.78
316.218	8803.16
316.283	8785.5
316.348	8772.02
316.413	8766.44
316.479	8750.99
316.544	8715.86
316.609	8685.01
316.674	8645.4
316.739	8610.42
316.804	8584
316.869	8553.34
316.934	8515.42
316.999	8486.41
317.064	8432.37
317.129	8391.46
317.194	8358.89
317.259	8308.8
317.324	8254.39
317.389	8209.6
317.454	8170.48
317.518	8138.35
317.583	8114.73
317.648	8093.13
317.713	8058.64
317.778	7998.51
317.843	7973.11
317.908	7932.24
317.973	7890.05
318.038	7863.6
318.103	7831
318.168	7794.26
318.233	7759.34
318.297	7713.56
318.362	7674.9
318.427	7636.01
318.492	7604.13
318.557	7555.48
318.622	7526.05
318.687	7505.39
318.751	7463.43
318.816	7426.41
318.881	7389.35
318.946	7336.42
319.011	7290.95
319.075	7249.14
319.14	7218.87
319.205	7172.25
319.27	7142.12
319.335	7101.85
319.399	7056.78
319.464	7031.84
319.529	6979.57
319.594	6942.14
319.658	6904.23
319.723	6864.12
319.788	6834.97
319.853	6782.61
319.917	6758.02
319.982	6706.29
320.047	6672.77
320.112	6647.46
320.176	6600.06
320.241	6562.46
320.306	6534.56
320.37	6490.73
320.435	6455.73
320.5	6424.57
320.564	6382.48
320.629	6341.68
320.694	6306.3
320.758	6269.92
320.823	6221.68
320.888	6195.14
320.952	6143.22
321.017	6103.25
321.082	6065.11
321.146	6030.85
321.211	5996.16
321.275	5950.06
321.34	5909.63
321.405	5866.98
321.469	5819.55
321.534	5779.7
321.598	5735.1
321.663	5701.86
321.727	5672.61
321.792	5626.15
321.857	5577.81
321.921	5541.19
321.986	5499.59
322.05	5441.93
322.115	5402.34
322.179	5358.92
322.244	5301.23
322.308	5269.8
322.373	5225.05
322.437	5184.13
322.502	5154.71
322.566	5111.64
322.631	5069.87
322.695	5028.98
322.76	4984.67
322.824	4947.99
322.889	4906.05
322.953	4861.77
323.018	4794.92
323.082	4735.19
323.146	4684.56
323.211	4638.23
323.275	4589.75
323.34	4539.75
323.404	4502.78
323.468	4455.45
323.533	4415.08
323.597	4368.37
323.662	4316.71
323.726	4280.26
323.79	4232.68
323.855	4169.05
323.919	4121.62
323.983	4084.47
324.048	4020.4
324.112	4164.81
324.177	4037.25
324.241	3826.57
324.305	3620.04
324.37	3419.29
324.434	3223.67
324.498	3181.73
324.562	3128.61
324.627	3073.04
324.691	3021.1
324.755	2959.27
324.82	2885.86
324.884	2805.04
324.948	2737.26
325.012	2642.63
325.077	2523.31
