Data from 20250702_urea_0.5M_MAYP1162681_14-04-59-517.txt Node
Date: Wed Jul 02 14:04:59 BST 2025
User: adleo
Spectrometer: MAYP116268
Trigger mode: 0
Integration Time (sec): 1.000000E0
Scans to average: 1
Electric dark correction enabled: true
Nonlinearity correction enabled: true
Boxcar width: 10
XAxis mode: Wavelengths
Number of Pixels in Spectrum: 2068
>>>>>Begin Spectral Data<<<<<
179.565	1110.32
179.642	1161
179.718	1200.43
179.795	1233.87
179.871	1261.59
179.948	1276.75
180.024	1296.86
180.101	1316.58
180.177	1330.01
180.254	1351.63
180.33	1371.29
180.407	1417.38
180.483	1505.13
180.56	1586.75
180.636	1664.6
180.712	1652.77
180.789	1659.94
180.865	1670.77
180.942	1678.28
181.018	1687.26
181.095	1700.09
181.171	1705.46
181.248	1705.13
181.324	1719.15
181.4	1727.41
181.477	1739.72
181.553	1751.98
181.63	1769.66
181.706	1784.39
181.782	1792.47
181.859	1792.09
181.935	1797.74
182.011	1795.89
182.088	1811.38
182.164	1829.69
182.24	1842.38
182.317	1851.98
182.393	1848.79
182.469	1862.34
182.546	1877.65
182.622	1881.4
182.698	1876.12
182.775	1889.62
182.851	1904.31
182.927	1897.85
183.003	1894.09
183.08	1889.77
183.156	1900.13
183.232	1898.56
183.308	1888.91
183.385	1895.56
183.461	1910.54
183.537	1912.92
183.613	1921.76
183.69	1912.44
183.766	1902.41
183.842	1908.97
183.918	1912.53
183.995	1927.98
184.071	1931.69
184.147	1925.61
184.223	1917.38
184.299	1928.13
184.375	1915.91
184.452	1921.52
184.528	1973.65
184.604	1984.11
184.68	1993
184.756	1997.89
184.832	1999.37
184.908	2005.55
184.985	2005.59
185.061	1991.62
185.137	1997.85
185.213	1988.62
185.289	1992.14
185.365	1984.96
185.441	1984.92
185.517	1997.04
185.593	1991.96
185.669	1990.05
185.745	2001.75
185.822	2016.34
185.898	2009.54
185.974	2018.15
186.05	2008.21
186.126	1969.59
186.202	1961.13
186.278	1956.66
186.354	1950.43
186.43	1960.04
186.506	1958.09
186.582	1956.38
186.658	1962.89
186.734	1945.49
186.81	1948.34
186.886	1951.62
186.962	1964.08
187.038	1959.42
187.114	1955.56
187.19	1964.03
187.266	1953.33
187.341	1950.24
187.417	1944.01
187.493	1943.54
187.569	1945.82
187.645	1943.44
187.721	1933.6
187.797	1941.97
187.873	1948.15
187.949	1938.69
188.025	1930.6
188.101	1930.6
188.176	1935.78
188.252	1932.03
188.328	1938.4
188.404	1935.16
188.48	1929.89
188.556	1923.56
188.632	1922.66
188.707	1919.19
188.783	1915.38
188.859	1911.77
188.935	1901.93
189.011	1910.63
189.086	1907.97
189.162	1900.69
189.238	1897.32
189.314	1894.85
189.39	1890.09
189.465	1883.72
189.541	1902.83
189.617	1888.53
189.693	1885.01
189.768	1890.24
189.844	1911.12
189.92	1904.42
189.996	1916.4
190.071	1926.15
190.147	1925.58
190.223	1935.42
190.298	1930.9
190.374	1918.78
190.45	1931.47
190.526	1941.84
190.601	1934.75
190.677	1934.8
190.753	1959.44
190.828	1965.81
190.904	1976.65
190.98	1990.39
191.055	1999.1
191.131	1989.73
191.207	2009.84
191.282	2018.16
191.358	2006.74
191.433	1993.62
191.509	2005.88
191.585	2003.79
191.66	2001.84
191.736	2007.97
191.811	1997.89
191.887	2013.44
191.963	2034.65
192.038	2037.31
192.114	2035.79
192.189	2037.93
192.265	2034.22
192.34	2014.91
192.416	2011.72
192.491	2011.58
192.567	2011.44
192.642	2015.19
192.718	2017.29
192.793	2005.49
192.869	2002.69
192.944	2005.97
193.02	2014.01
193.095	2017.1
193.171	2021.52
193.246	2022.47
193.322	2020.47
193.397	2021.85
193.473	2009.01
193.548	1993.93
193.624	1999.78
193.699	2000.45
193.775	2016.05
193.85	2017.67
193.925	2026.89
194.001	2026.27
194.076	2018.81
194.152	2010.68
194.227	2000.59
194.302	1990.09
194.378	1993.84
194.453	1994.22
194.529	2006.78
194.604	1991.09
194.679	1986.71
194.755	1969.98
194.83	1980.92
194.905	1978.54
194.981	1987.86
195.056	1981.92
195.131	1988.62
195.207	1986.91
195.282	1974.83
195.357	1955.86
195.433	1969.84
195.508	1958.61
195.583	1967.79
195.659	1979.3
195.734	1987.48
195.809	1988.62
195.884	1997.41
195.96	1997.89
196.035	2009.68
196.11	2006.02
196.185	2018.05
196.261	2021.09
196.336	2048.06
196.411	2037.07
196.486	2044.82
196.561	2036.93
196.637	2044.34
196.712	2058.57
196.787	2063.75
196.862	2079.21
196.937	2090.05
197.013	2095.28
197.088	2105.46
197.163	2124.49
197.238	2144.06
197.313	2142.15
197.388	2159.04
197.464	2187.55
197.539	2197.87
197.614	2189.5
197.689	2201.87
197.764	2218.91
197.839	2237.17
197.914	2231.89
197.989	2252.02
198.065	2261.58
198.14	2310.77
198.215	2334.23
198.29	2346.13
198.365	2356.84
198.44	2365.6
198.515	2394.97
198.59	2408.01
198.665	2432.19
198.74	2438.24
198.815	2437.24
198.89	2459.14
198.965	2487.34
199.04	2485.86
199.115	2501.33
199.19	2544.51
199.265	2544.51
199.34	2553.18
199.415	2587.53
199.49	2608.24
199.565	2616.91
199.64	2639.48
199.715	2636.14
199.79	2643.71
199.865	2648.95
199.94	2645.05
200.015	2675.63
200.09	2679.11
200.165	2688.78
200.24	2696.69
200.315	2733.73
200.39	2748.12
200.464	2752.74
200.539	2749.26
200.614	2761.74
200.689	2785.62
200.764	2789.43
200.839	2805.43
200.914	2812.62
200.989	2800.18
201.063	2811.09
201.138	2794.29
201.213	2797.19
201.288	2779.04
201.363	2783.76
201.438	2782.47
201.512	2798.8
201.587	2782.27
201.662	2785.84
201.737	2793.99
201.812	2798.95
201.886	2771.05
201.961	2780.54
202.036	2771.54
202.111	2770.92
202.186	2744.16
202.26	2724.47
202.335	2707.08
202.41	2705.08
202.485	2689.08
202.559	2668.64
202.634	2645.63
202.709	2656.82
202.784	2637.44
202.858	2635.29
202.933	2617.43
203.008	2613.38
203.082	2596.67
203.157	2597.43
203.232	2556.39
203.306	2538.38
203.381	2508.42
203.456	2484.85
203.53	2463.45
203.605	2443.18
203.68	2420.36
203.754	2412.9
203.829	2402.52
203.904	2381.57
203.978	2369.67
204.053	2371.24
204.127	2363.67
204.202	2361.1
204.277	2346.72
204.351	2342.44
204.426	2333.16
204.5	2326.02
204.575	2292.66
204.65	2299.38
204.724	2290.57
204.799	2298.84
204.873	2294.18
204.948	2294.84
205.022	2283.81
205.097	2274.19
205.171	2288.84
205.246	2294.46
205.32	2294.98
205.395	2289.22
205.469	2283.23
205.544	2287.66
205.618	2270.86
205.693	2281.42
205.767	2272.67
205.842	2289
205.916	2281.48
205.991	2275.48
206.065	2280.62
206.14	2295.32
206.214	2291.56
206.289	2286.61
206.363	2298.03
206.438	2303.41
206.512	2309.02
206.586	2328.68
206.661	2337.82
206.735	2317.98
206.81	2321.93
206.884	2338.16
206.958	2333.69
207.033	2350.2
207.107	2359.82
207.181	2395.15
207.256	2391.77
207.33	2411.47
207.405	2426.05
207.479	2448.43
207.553	2462.99
207.628	2454
207.702	2471.9
207.776	2475.56
207.851	2486.23
207.925	2509.52
207.999	2515.52
208.073	2524.48
208.148	2537.67
208.222	2541.62
208.296	2587.66
208.371	2618.98
208.445	2646.66
208.519	2691.25
208.593	2722.07
208.668	2739.75
208.742	2765.56
208.816	2793.43
208.89	2836.34
208.965	2866.96
209.039	2910.36
209.113	2961.52
209.187	3019.66
209.261	3056.6
209.336	3118.61
209.41	3183.73
209.484	3230.65
209.558	3302.62
209.632	3372.19
209.707	3439.25
209.781	3523.42
209.855	3598.31
209.929	3683.02
210.003	3763.09
210.077	3841.79
210.151	3967.23
210.226	4083.52
210.3	4192.66
210.374	4303.62
210.448	4400.49
210.522	4509.07
210.596	4618.63
210.67	4737.78
210.744	4890.53
210.818	5032.52
210.892	5167.42
210.966	5279.22
211.041	5420.58
211.115	5542.08
211.189	5692.13
211.263	5844.57
211.337	5989.77
211.411	6149.31
211.485	6285.54
211.559	6437.81
211.633	6581.31
211.707	6703.85
211.781	6865.54
211.855	6992.32
211.929	7149.64
212.003	7297.08
212.077	7471.1
212.151	7648.56
212.225	7819.98
212.299	7980.08
212.373	8148.13
212.447	8320.81
212.52	8536.12
212.594	8722.37
212.668	8923.92
212.742	9099.09
212.816	9283.24
212.89	9459.36
212.964	9642.74
213.038	9842.62
213.112	10050.3
213.186	10262.75
213.26	10442.56
213.333	10602.17
213.407	10810.97
213.481	11004.74
213.555	11213.65
213.629	11408.24
213.703	11597.49
213.777	11800.88
213.85	11982
213.924	12210.98
213.998	12407.83
214.072	12600.54
214.146	12777.88
214.219	12958.78
214.293	13142.19
214.367	13336.89
214.441	13541.99
214.515	13728.93
214.588	13885.93
214.662	14041.54
214.736	14213.82
214.81	14404.62
214.883	14591.12
214.957	14753.28
215.031	14929.65
215.105	15091.14
215.178	15250.39
215.252	15414.09
215.326	15555.9
215.4	15710.62
215.473	15837
215.547	15985.79
215.621	16130.28
215.694	16300.47
215.768	16450.37
215.842	16607.49
215.915	16758.92
215.989	16890.44
216.063	17039.89
216.136	17195.8
216.21	17336.87
216.284	17482.27
216.357	17631.57
216.431	17777.4
216.504	17931.33
216.578	18089.64
216.652	18241.59
216.725	18375.8
216.799	18515.75
216.873	18647.93
216.946	18785.28
217.02	18900.94
217.093	19028.93
217.167	19147.86
217.24	19261.69
217.314	19383.42
217.387	19496.04
217.461	19594.78
217.535	19722.44
217.608	19823.98
217.682	19936.27
217.755	20067.35
217.829	20178.33
217.902	20286.67
217.976	20393.37
218.049	20490.05
218.123	20584.51
218.196	20680.12
218.27	20781.57
218.343	20864.04
218.417	20966.6
218.49	21059.47
218.563	21170.13
218.637	21256.93
218.71	21349.09
218.784	21433.53
218.857	21532.73
218.931	21628.6
219.004	21717.19
219.077	21809.26
219.151	21882.04
219.224	21960.37
219.298	22026.8
219.371	22115.59
219.444	22171.03
219.518	22233.21
219.591	22305.48
219.665	22391.2
219.738	22462.93
219.811	22513.11
219.885	22597.72
219.958	22677.18
220.031	22734.36
220.105	22805.62
220.178	22872.87
220.251	22935.41
220.325	23009.81
220.398	23057.35
220.471	23110.97
220.544	23170.66
220.618	23200.17
220.691	23257.89
220.764	23296.75
220.838	23353.84
220.911	23396.81
220.984	23461.62
221.057	23511.04
221.131	23569.01
221.204	23586.47
221.277	23635.8
221.35	23700.71
221.424	23728.3
221.497	23759.55
221.57	23793.26
221.643	23823.94
221.716	23872.5
221.79	23895.85
221.863	23920.11
221.936	23944.66
222.009	23967.57
222.082	24008.42
222.155	24038.66
222.229	24070.97
222.302	24107.39
222.375	24127.69
222.448	24150.99
222.521	24167.1
222.594	24186.54
222.667	24177.62
222.74	24200.58
222.814	24223.63
222.887	24230.24
222.96	24249.68
223.033	24270.04
223.106	24297.1
223.179	24309.06
223.252	24311.52
223.325	24330.58
223.398	24343.55
223.471	24372.93
223.544	24384.41
223.617	24384.51
223.69	24402.84
223.763	24405.3
223.837	24416.97
223.91	24427.73
223.983	24407.18
224.056	24409.98
224.129	24421.55
224.202	24441.47
224.275	24447.31
224.348	24429.37
224.42	24429.37
224.493	24421.26
224.566	24425.41
224.639	24427.29
224.712	24422.71
224.785	24420.68
224.858	24415.28
224.931	24405.15
225.004	24384.12
225.077	24377.85
225.15	24349.63
225.223	24330.33
225.296	24344.47
225.369	24327.49
225.442	24309.79
225.514	24306.17
225.587	24292.71
225.66	24274.09
225.733	24269.27
225.806	24264.68
225.879	24254.6
225.952	24231.55
226.025	24228.32
226.097	24216.4
226.17	24192.81
226.243	24164.64
226.316	24151.57
226.389	24137.44
226.461	24123.31
226.534	24110.96
226.607	24107.34
226.68	24113.37
226.753	24103.82
226.825	24069.47
226.898	24078.11
226.971	24061.66
227.044	24055.15
227.117	24049.17
227.189	24049.02
227.262	24036.44
227.335	24008.94
227.407	23995.34
227.48	23981.98
227.553	23965.58
227.626	23945.66
227.698	23926.8
227.771	23914.51
227.844	23884.22
227.916	23863.96
227.989	23844.48
228.062	23827.65
228.134	23818.38
228.207	23805.41
228.28	23787.76
228.352	23772.71
228.425	23746.09
228.498	23743.15
228.57	23715.42
228.643	23712.43
228.716	23682.38
228.788	23654.12
228.861	23638.98
228.934	23628.32
229.006	23614.77
229.079	23608.31
229.151	23579.85
229.224	23564.13
229.296	23542.72
229.369	23553.91
229.442	23550.82
229.514	23520.44
229.587	23515.62
229.659	23470
229.732	23445.7
229.804	23434.75
229.877	23434.12
229.949	23423.85
230.022	23422.94
230.094	23400.76
230.167	23377.51
230.239	23347.28
230.312	23333.01
230.384	23336
230.457	23312.61
230.529	23294.86
230.602	23261.49
230.674	23234.97
230.747	23227.65
230.819	23216.85
230.892	23159.85
230.964	23150.06
231.037	23131.5
231.109	23098.27
231.181	23086.9
231.254	23048.9
231.326	23025.37
231.399	22992.49
231.471	22948.51
231.544	22896.63
231.616	22885.88
231.688	22860.32
231.761	22832.55
231.833	22794.85
231.905	22744.85
231.978	22717.18
232.05	22681.4
232.122	22658.31
232.195	22633.58
232.267	22610.1
232.339	22576.93
232.412	22567.91
232.484	22512.71
232.556	22481.71
232.629	22467.63
232.701	22445.22
232.773	22428.87
232.846	22384.81
232.918	22356.46
232.99	22334.38
233.062	22321.22
233.135	22296.97
233.207	22250.02
233.279	22232.04
233.351	22213.82
233.424	22175.69
233.496	22148.02
233.568	22137.41
233.64	22102.99
233.713	22073.3
233.785	22046.74
233.857	22028.85
233.929	21989.37
234.001	21976.6
234.074	21958.96
234.146	21902.12
234.218	21874.17
234.29	21836.04
234.362	21799.6
234.434	21750.24
234.507	21709.27
234.579	21657.79
234.651	21608.38
234.723	21591.22
234.795	21557.68
234.867	21518.59
234.939	21507.26
235.012	21478.58
235.084	21449.18
235.156	21418.91
235.228	21380.45
235.3	21328.68
235.372	21292.34
235.444	21267.85
235.516	21210.55
235.588	21181.92
235.66	21153.43
235.732	21115.16
235.804	21143.46
235.876	21129.87
235.948	21110.68
236.02	21076.46
236.092	21041.43
236.164	21023.79
236.236	20972.89
236.308	20937.32
236.38	20905.81
236.452	20848.84
236.524	20814.04
236.596	20795.39
236.668	20762.71
236.74	20735.87
236.812	20716.93
236.884	20696.35
236.956	20663.87
237.028	20622.52
237.1	20580.98
237.172	20572.98
237.244	20553.94
237.316	20468.34
237.388	20423.86
237.46	20383.43
237.532	20362.22
237.604	20312.63
237.675	20285.07
237.747	20267.28
237.819	20229.98
237.891	20197.5
237.963	20156.93
238.035	20112.88
238.107	20041.27
238.178	20015.63
238.25	19973.6
238.322	19953.56
238.394	19892.31
238.466	19852.6
238.538	19827.54
238.609	19792.12
238.681	19729.42
238.753	19679.98
238.825	19648.32
238.897	19605.67
238.968	19582.39
239.04	19528.08
239.112	19522.25
239.184	19472.28
239.255	19427.12
239.327	19387.46
239.399	19350.89
239.471	19322.02
239.542	19291.13
239.614	19262.65
239.686	19200.63
239.758	19173.21
239.829	19122.32
239.901	19102.76
239.973	19062.57
240.044	19034.23
240.116	19000.3
240.188	18967.01
240.259	18926.19
240.331	18880.31
240.403	18859.35
240.474	18806.87
240.546	18771.45
240.618	18713.33
240.689	18672.37
240.761	18642.01
240.833	18623.8
240.904	18579.13
240.976	18548.52
241.048	18507.27
241.119	18489.64
241.191	18459.42
241.262	18438.31
241.334	18396.68
241.405	18353.74
241.477	18300.73
241.549	18248.88
241.62	18209.36
241.692	18182.23
241.763	18163.2
241.835	18133.27
241.906	18098.19
241.978	18045.61
242.049	18020.98
242.121	17997.76
242.192	17973.47
242.264	17919.35
242.335	17871.45
242.407	17847.64
242.478	17803.88
242.55	17767.35
242.621	17716.75
242.693	17679.16
242.764	17631.45
242.836	17589.14
242.907	17561.38
242.979	17535.55
243.05	17508.8
243.122	17473.77
243.193	17425.19
243.264	17359.26
243.336	17318.39
243.407	17287.55
243.479	17278.44
243.55	17257.96
243.622	17226.97
243.693	17183.74
243.764	17160.08
243.836	17108.08
243.907	17061.52
243.978	17020.07
244.05	16988.31
244.121	16935.2
244.192	16903.73
244.264	16857.41
244.335	16820.64
244.407	16765.36
244.478	16739.34
244.549	16697.65
244.62	16645.69
244.692	16611.95
244.763	16589.78
244.834	16549.44
244.906	16502.69
244.977	16472.81
245.048	16438.3
245.119	16389.67
245.191	16348.75
245.262	16296.03
245.333	16281.28
245.405	16256.99
245.476	16233.18
245.547	16203.34
245.618	16183
245.689	16151.53
245.761	16122.61
245.832	16087.09
245.903	16065.88
245.974	16028.09
246.045	15992.14
246.117	15982.11
246.188	15942.68
246.259	15895.98
246.33	15859.39
246.401	15829.27
246.473	15780.93
246.544	15738.42
246.615	15720
246.686	15688.62
246.757	15672.77
246.828	15632.13
246.899	15600.32
246.97	15552.79
247.042	15518.04
247.113	15489.6
247.184	15481.79
247.255	15445.02
247.326	15420.58
247.397	15385.92
247.468	15362.16
247.539	15337.14
247.61	15287.73
247.681	15265.8
247.752	15255.44
247.823	15219.91
247.894	15184.24
247.965	15143.7
248.037	15107.6
248.108	15059.01
248.179	15025.46
248.25	14985.98
248.321	14960.53
248.392	14929.44
248.463	14926.36
248.534	14889.14
248.605	14864.08
248.675	14823.25
248.746	14802.14
248.817	14780.93
248.888	14763.86
248.959	14714.26
249.03	14692.62
249.101	14673.19
249.172	14631.49
249.243	14581.07
249.314	14571.77
249.385	14546.8
249.456	14525.35
249.527	14502.55
249.598	14482.4
249.669	14460.51
249.739	14441.95
249.81	14418.86
249.881	14372.82
249.952	14340.09
250.023	14313.87
250.094	14275.02
250.165	14237.51
250.235	14212.25
250.306	14178.12
250.377	14127.22
250.448	14104.37
250.519	14056.31
250.59	14041.7
250.66	14018.56
250.731	14002.46
250.802	13968.86
250.873	13945.29
250.944	13922.68
251.014	13883.92
251.085	13879.29
251.156	13855.09
251.227	13842.66
251.297	13832.44
251.368	13826.85
251.439	13814.26
251.51	13805.73
251.58	13774.97
251.651	13745.14
251.722	13720.45
251.792	13679.38
251.863	13658.8
251.934	13650.94
252.005	13656.05
252.075	13625.78
252.146	13616.62
252.217	13602.93
252.287	13593.43
252.358	13560.31
252.429	13552.79
252.499	13524.06
252.57	13501.07
252.641	13486.27
252.711	13451.07
252.782	13407.93
252.852	13396.94
252.923	13365.65
252.994	13336.68
253.064	13322.51
253.135	13293.29
253.205	13274.06
253.276	13263.89
253.347	13259.94
253.417	13235.64
253.488	13203.1
253.558	13177.12
253.629	13146.27
253.699	13129.25
253.77	13104.81
253.841	13085.57
253.911	13056.07
253.982	13035.15
254.052	13018.81
254.123	12994.42
254.193	12980.1
254.264	12993.11
254.334	12959.22
254.405	12928.66
254.475	12896.12
254.546	12876.89
254.616	12866.67
254.687	12837.65
254.757	12826.03
254.827	12793.93
254.898	12765.15
254.968	12745.1
255.039	12709.47
255.109	12697.81
255.18	12660.98
255.25	12616.53
255.321	12599.13
255.391	12567.32
255.461	12568.47
255.532	12517.04
255.602	12498.67
255.673	12458.04
255.743	12430.13
255.813	12384.28
255.884	12372.86
255.954	12356.9
256.024	12346.2
256.095	12329.67
256.165	12298.87
256.235	12284.5
256.306	12259.68
256.376	12253.17
256.446	12248.21
256.517	12244.69
256.587	12235.34
256.657	12216.54
256.728	12204.15
256.798	12184.1
256.868	12160.96
256.938	12126.88
257.009	12118.25
257.079	12100.75
257.149	12101.77
257.219	12058.14
257.29	12049.71
257.36	12012.06
257.43	12008.74
257.5	11968.59
257.571	11941.26
257.641	11927.18
257.711	11894.02
257.781	11886.45
257.852	11865.24
257.922	11817.14
257.992	11792.75
258.062	11769.81
258.132	11766.14
258.202	11747.63
258.273	11732.55
258.343	11730.19
258.413	11708.35
258.483	11691.43
258.553	11663.24
258.623	11637.21
258.693	11623.62
258.764	11623.14
258.834	11618.32
258.904	11589.49
258.974	11568.87
259.044	11551.85
259.114	11540.72
259.184	11522.26
259.254	11495.42
259.324	11460.23
259.394	11456.42
259.464	11454.98
259.535	11432.42
259.605	11410.3
259.675	11385.24
259.745	11375.46
259.815	11346.1
259.885	11324.66
259.955	11338.78
260.025	11307.41
260.095	11286.06
260.165	11274.59
260.235	11268.56
260.305	11239.89
260.375	11220.71
260.445	11221.43
260.515	11211.6
260.585	11202.44
260.655	11191.12
260.725	11188.61
260.795	11182.11
260.865	11173.57
260.934	11151.45
261.004	11133.43
261.074	11111.31
261.144	11107.79
261.214	11096.61
261.284	11085.53
261.354	11079.7
261.424	11046.54
261.494	11056.66
261.564	11039.36
261.634	11026.68
261.703	10986.44
261.773	10983.74
261.843	10974.25
261.913	10952.61
261.983	10921.15
262.053	10908.86
262.123	10891.46
262.192	10855.81
262.262	10846.17
262.332	10817.79
262.402	10801.16
262.472	10791.52
262.541	10762.04
262.611	10753.75
262.681	10727
262.751	10714.09
262.821	10694.38
262.89	10665.04
262.96	10649.81
263.03	10657.9
263.1	10646.48
263.169	10633.91
263.239	10623.89
263.309	10616.8
263.379	10611.21
263.448	10604.76
263.518	10596.42
263.588	10577.34
263.657	10581.48
263.727	10576.76
263.797	10569.2
263.867	10552.91
263.936	10523.71
264.006	10518.9
264.076	10504.68
264.145	10488.3
264.215	10466.57
264.285	10458.62
264.354	10423.17
264.424	10394.69
264.494	10362.6
264.563	10336.39
264.633	10344.83
264.702	10326.9
264.772	10296.31
264.842	10276.27
264.911	10261.48
264.981	10228.47
265.05	10219.18
265.12	10195.09
265.19	10176.3
265.259	10162.76
265.329	10158.28
265.398	10150.81
265.468	10161.07
265.537	10140.17
265.607	10129.57
265.676	10129.47
265.746	10119.4
265.815	10127.11
265.885	10118.34
265.955	10096.52
266.024	10086.45
266.094	10048.54
266.163	10047.05
266.232	10047.19
266.302	10032.84
266.371	10026.62
266.441	10017.76
266.51	10005.96
266.58	9996.23
266.649	9975.52
266.719	9978.89
266.788	9965.06
266.858	9972.34
266.927	9935.1
266.996	9927.59
267.066	9923.2
267.135	9896.04
267.205	9889.39
267.274	9871.23
267.343	9866.13
267.413	9852.5
267.482	9850.38
267.552	9850.81
267.621	9822.39
267.69	9796.58
267.76	9784.68
267.829	9769.46
267.898	9749.91
267.968	9733.1
268.037	9727.41
268.106	9725.54
268.176	9693.02
268.245	9678.96
268.314	9657.76
268.384	9656.56
268.453	9645.87
268.522	9630.74
268.592	9627.04
268.661	9608.73
268.73	9605.7
268.799	9592.36
268.869	9601.17
268.938	9573.67
269.007	9552.87
269.076	9544.44
269.146	9547.33
269.215	9537.12
269.284	9539.87
269.353	9528.41
269.422	9517.28
269.492	9501.58
269.561	9461.18
269.63	9463.59
269.699	9442.31
269.768	9428.82
269.838	9418.61
269.907	9417.07
269.976	9393.72
270.045	9365.55
270.114	9361.94
270.183	9349.61
270.253	9338.54
270.322	9313.4
270.391	9304.2
270.46	9312.44
270.529	9315.71
270.598	9311.33
270.667	9302.52
270.736	9285.57
270.806	9284.41
270.875	9279.5
270.944	9266.79
271.013	9287.93
271.082	9275.07
271.151	9275.84
271.22	9254.89
271.289	9243.15
271.358	9224.27
271.427	9220.13
271.496	9213.63
271.565	9199.91
271.634	9191.34
271.703	9209.16
271.772	9207.33
271.841	9195.2
271.91	9168.38
271.979	9152.05
272.048	9124.71
272.117	9120.95
272.186	9104.48
272.255	9104.15
272.324	9104.97
272.393	9099.43
272.462	9085.9
272.531	9073.86
272.6	9061.49
272.669	9058.6
272.738	9048.64
272.807	9042.57
272.876	9026.01
272.945	9053.21
273.013	9052.92
273.082	9054.46
273.151	9018.59
273.22	9015.8
273.289	9009.54
273.358	9016.96
273.427	9006.75
273.496	9009.64
273.564	9011.18
273.633	9012.34
273.702	8993.51
273.771	8980.71
273.84	8974.16
273.909	8968.82
273.977	8964.15
274.046	8956.69
274.115	8960.15
274.184	8950
274.253	8945.86
274.322	8954.62
274.39	8927.56
274.459	8910.76
274.528	8884.14
274.597	8875.91
274.665	8872.54
274.734	8876.49
274.803	8864.31
274.872	8858.96
274.94	8841.83
275.009	8888.64
275.078	8878.15
275.147	8870.06
275.215	8864.91
275.284	8871.07
275.353	8865.1
275.421	8844.5
275.49	8865.44
275.559	8855.86
275.627	8849.08
275.696	8836.08
275.765	8828.96
275.833	8818.47
275.902	8819.38
275.971	8830.84
276.039	8842.77
276.108	8841.09
276.177	8833.34
276.245	8822.61
276.314	8818.08
276.383	8821.79
276.451	8760.44
276.52	8761.93
276.588	8772.13
276.657	8775.98
276.725	8769.34
276.794	8763.71
276.863	8777.04
276.931	8740.46
277	8743.3
277.068	8754.75
277.137	8776.27
277.205	8778.29
277.274	8793.02
277.342	8796.73
277.411	8777.09
277.48	8768.47
277.548	8757.07
277.617	8767.7
277.685	8767.9
277.754	8770.3
277.822	8767.75
277.89	8781.91
277.959	8776.9
278.027	8761.79
278.096	8749.95
278.164	8766.07
278.233	8761.12
278.301	8750.19
278.37	8759.82
278.438	8745.38
278.507	8739.55
278.575	8710.77
278.643	8699.12
278.712	8681.89
278.78	8667.07
278.849	8678.13
278.917	8683.67
278.985	8679.15
279.054	8673.85
279.122	8680.54
279.191	8678.95
279.259	8672.41
279.327	8645.89
279.396	8655.9
279.464	8655.99
279.532	8664.27
279.601	8662.15
279.669	8653.92
279.737	8664.13
279.806	8663.55
279.874	8678.9
279.942	8682.51
280.011	8675.01
280.079	8686.89
280.147	8704.41
280.215	8711.2
280.284	8705.09
280.352	8684.2
280.42	8690.26
280.488	8684.59
280.557	8679.77
280.625	8683
280.693	8686.27
280.761	8688.87
280.83	8672.94
280.898	8682.95
280.966	8663.5
281.034	8631.55
281.102	8621.44
281.171	8614.8
281.239	8625.44
281.307	8609.79
281.375	8590.35
281.443	8612.88
281.512	8609.65
281.58	8604.16
281.648	8586.65
281.716	8585.06
281.784	8592.61
281.852	8586.98
281.92	8586.07
281.989	8591.17
282.057	8571.34
282.125	8606.58
282.193	8605.47
282.261	8600.37
282.329	8593.39
282.397	8598.88
282.465	8606.05
282.533	8621.88
282.601	8611.82
282.67	8590.41
282.738	8586.32
282.806	8602.05
282.874	8590.26
282.942	8589.01
283.01	8588.19
283.078	8598.2
283.146	8599.26
283.214	8608.16
283.282	8611.91
283.35	8619.81
283.418	8614.56
283.486	8620.82
283.554	8584.09
283.622	8578.31
283.69	8584.76
283.758	8583.8
283.826	8585.53
283.894	8591.02
283.962	8604.25
284.03	8619.12
284.098	8623.89
284.165	8624.18
284.233	8617.15
284.301	8613.59
284.369	8603.87
284.437	8596.07
284.505	8592.7
284.573	8599.25
284.641	8586.4
284.709	8592.51
284.777	8577.35
284.845	8583.51
284.912	8589.09
284.98	8591.98
285.048	8588.47
285.116	8593.91
285.184	8599.49
285.252	8600.07
285.319	8584.67
285.387	8576.92
285.455	8556.37
285.523	8561.86
285.591	8547.23
285.659	8548.53
285.726	8559.12
285.794	8546.46
285.862	8541.55
285.93	8539.05
285.997	8536.74
286.065	8529.57
286.133	8521.2
286.201	8519.13
286.269	8510.08
286.336	8498.05
286.404	8495.11
286.472	8506.13
286.539	8480.49
286.607	8466.34
286.675	8463.98
286.743	8472.59
286.81	8470.91
286.878	8490.4
286.946	8477.26
287.013	8486.45
287.081	8489.05
287.149	8477.26
287.216	8497.03
287.284	8494.15
287.352	8495.21
287.419	8492.27
287.487	8502.52
287.555	8503.82
287.622	8505.7
287.69	8508.87
287.758	8522.06
287.825	8511.42
287.893	8504.97
287.96	8511.47
288.028	8519.79
288.096	8522.73
288.163	8524.37
288.231	8510.03
288.298	8503.1
288.366	8521
288.433	8518.35
288.501	8509.16
288.569	8510.56
288.636	8505.12
288.704	8517.2
288.771	8523.16
288.839	8517.53
288.906	8517.82
288.974	8531.3
289.041	8525.96
289.109	8516.48
289.176	8523.89
289.244	8533.08
289.311	8540.83
289.379	8553.2
289.446	8556.85
289.514	8552.47
289.581	8549.88
289.649	8555.12
289.716	8556.9
289.783	8547.32
289.851	8565.75
289.918	8568.69
289.986	8574.32
290.053	8576.53
290.121	8573.45
290.188	8580.72
290.255	8604.4
290.323	8602.52
290.39	8595.16
290.458	8598.86
290.525	8612.19
290.592	8605.46
290.66	8603.34
290.727	8599.06
290.794	8613.78
290.862	8615.08
290.929	8623.17
290.996	8627.88
291.064	8639.77
291.131	8650.99
291.198	8658.4
291.266	8655.8
291.333	8656.04
291.4	8665.57
291.468	8682.13
291.535	8682.85
291.602	8687.32
291.669	8681.69
291.737	8683.57
291.804	8682.08
291.871	8700.65
291.938	8705.56
292.006	8732.67
292.073	8744.7
292.14	8758.56
292.207	8748.6
292.275	8749.46
292.342	8759.67
292.409	8783.88
292.476	8801.59
292.543	8796.01
292.611	8799.91
292.678	8818.92
292.745	8846.45
292.812	8855.17
292.879	8852.95
292.946	8860.56
293.014	8869.37
293.081	8876.1
293.148	8888.96
293.215	8906.33
293.282	8899.45
293.349	8910.71
293.416	8891.84
293.484	8907.49
293.551	8914.85
293.618	8930.59
293.685	8956.54
293.752	8948.74
293.819	8951.78
293.886	8939.74
293.953	8947.73
294.02	8957.07
294.087	8961.6
294.154	8954.66
294.221	8968.1
294.288	8971.51
294.356	8983.84
294.423	8988.46
294.49	8983.45
294.557	8996.74
294.624	8987.88
294.691	9011.23
294.758	9010.22
294.825	9018.31
294.892	9004.78
294.959	9007.72
295.026	9015.18
295.093	9007.96
295.16	9012.24
295.226	9005.88
295.293	9030.82
295.36	9038.14
295.427	9048.49
295.494	9059.52
295.561	9068.04
295.628	9087.4
295.695	9101.46
295.762	9104.2
295.829	9110.6
295.896	9125.77
295.963	9132.6
296.03	9145.07
296.096	9145.94
296.163	9155.71
296.23	9170.01
296.297	9194.04
296.364	9190.91
296.431	9203.18
296.498	9199.67
296.564	9224.85
296.631	9228.46
296.698	9216.66
296.765	9232.94
296.832	9231.78
296.899	9217.19
296.965	9231.49
297.032	9211.94
297.099	9223.79
297.166	9228.79
297.233	9225.81
297.299	9219.02
297.366	9221.33
297.433	9226.24
297.5	9232.31
297.566	9231.73
297.633	9231.44
297.7	9229.61
297.767	9228.89
297.833	9225.33
297.9	9228.7
297.967	9208.53
298.033	9219.79
298.1	9249.46
298.167	9244.5
298.234	9243.44
298.3	9254.46
298.367	9252.97
298.434	9259.66
298.5	9250.03
298.567	9253.55
298.634	9256.97
298.7	9273.53
298.767	9275.45
298.834	9284.17
298.9	9279.4
298.967	9273.53
299.033	9285.95
299.1	9302.23
299.167	9320.96
299.233	9314.46
299.3	9326.45
299.366	9346.81
299.433	9361.36
299.5	9333.33
299.566	9336.12
299.633	9347.44
299.699	9359.77
299.766	9357.5
299.832	9359.72
299.899	9363.47
299.965	9364.44
300.032	9357.17
300.099	9361.11
300.165	9368.68
300.232	9365.35
300.298	9367.33
300.365	9388.08
300.431	9388.71
300.498	9383.65
300.564	9384.95
300.631	9405.22
300.697	9423.14
300.763	9427.18
300.83	9424.15
300.896	9437.29
300.963	9446.88
301.029	9458.43
301.096	9464.12
301.162	9476.69
301.229	9470.71
301.295	9464.65
301.361	9472.79
301.428	9480.15
301.494	9470.47
301.561	9474.9
301.627	9477.65
301.693	9482.9
301.76	9480.59
301.826	9476.59
301.892	9481.89
301.959	9495.32
302.025	9492.72
302.092	9479.67
302.158	9485.35
302.224	9488.53
302.291	9483.48
302.357	9480.78
302.423	9469.51
302.49	9459.54
302.556	9468.26
302.622	9473.65
302.688	9492.43
302.755	9502.16
302.821	9509.67
302.887	9517.95
302.954	9512.8
303.02	9519.49
303.086	9525.27
303.152	9523.01
303.219	9517.76
303.285	9522.1
303.351	9527.68
303.417	9524.46
303.483	9517.86
303.55	9512.03
303.616	9512.08
303.682	9509.34
303.748	9498.74
303.815	9514.06
303.881	9522.53
303.947	9512.52
304.013	9516.9
304.079	9508.76
304.145	9491.28
304.212	9490.99
304.278	9487.18
304.344	9481.21
304.41	9467.68
304.476	9459.5
304.542	9460.02
304.608	9461.33
304.674	9444.23
304.741	9436.23
304.807	9436.33
304.873	9441.05
304.939	9450.15
305.005	9426.36
305.071	9426.46
305.137	9422.7
305.203	9396.17
305.269	9392.08
305.335	9399.3
305.401	9396.94
305.467	9393.91
305.533	9404.65
305.599	9407.2
305.666	9418.51
305.732	9416.06
305.798	9431.76
305.864	9456.94
305.93	9452.71
305.996	9451.21
306.062	9457.86
306.128	9451.94
306.194	9446.98
306.259	9446.4
306.325	9435.9
306.391	9444.76
306.457	9445.77
306.523	9455.45
306.589	9481.79
306.655	9480.73
306.721	9462.82
306.787	9448.8
306.853	9461.08
306.919	9444.52
306.985	9438.4
307.051	9425.74
307.117	9424.15
307.183	9413.99
307.248	9385.09
307.314	9392.61
307.38	9403.83
307.446	9402.91
307.512	9391.45
307.578	9387.36
307.644	9382.16
307.709	9380.95
307.775	9379.41
307.841	9378.3
307.907	9379.56
307.973	9363.76
308.039	9360.29
308.104	9365.06
308.17	9362.08
308.236	9342.62
308.302	9344.16
308.368	9335.69
308.433	9333.42
308.499	9331.06
308.565	9319.17
308.631	9319.6
308.696	9297.17
308.762	9276.7
308.828	9275.93
308.894	9261.78
308.959	9244.64
309.025	9239.53
309.091	9233.22
309.156	9225.76
309.222	9228.94
309.288	9213.15
309.354	9192.01
309.419	9187
309.485	9167.84
309.551	9170.44
309.616	9156.38
309.682	9150.36
309.748	9142.03
309.813	9142.18
309.879	9136.06
309.945	9126.29
310.01	9122.15
310.076	9129.42
310.141	9129.81
310.207	9110.16
310.273	9114.59
310.338	9127.11
310.404	9108.04
310.469	9104.62
310.535	9100.44
310.601	9079.49
310.666	9081.08
310.732	9086.33
310.797	9070.39
310.863	9070.87
310.928	9071.26
310.994	9077.18
311.059	9077.42
311.125	9072.7
311.191	9071.6
311.256	9055.52
311.322	9060.28
311.387	9038.72
311.453	9379.89
311.518	9354.95
311.584	9360.34
311.649	9355.29
311.715	9337.19
311.78	9341.42
311.846	9325.15
311.911	9330.4
311.976	9332.33
312.042	9321.64
312.107	9308.64
312.173	9301.47
312.238	9295.4
312.304	9282.45
312.369	9268.88
312.434	9256.79
312.5	9248.56
312.565	9221.51
312.631	9224.35
312.696	9215.97
312.761	9222.71
312.827	8864.45
312.892	8899.21
312.958	8892.23
313.023	8894.25
313.088	8891.12
313.154	8876.39
313.219	8866.86
313.284	8851.31
313.35	8842.55
313.415	8832.2
313.48	8825.66
313.546	8827.54
313.611	8829.46
313.676	8818.2
313.741	8808.24
313.807	8812.18
313.872	8816.95
313.937	8828.21
314.003	8838.8
314.068	8839.72
314.133	8840.63
314.198	8835.87
314.264	8821.85
314.329	8806.5
314.394	8802.41
314.459	8807.75
314.525	8826.71
314.59	8826.09
314.655	8816.22
314.72	8822.82
314.785	8828.3
314.851	8823.11
314.916	8808.57
314.981	8793.17
315.046	8788.26
315.111	8784.7
315.176	8772.76
315.242	8777.67
315.307	8765.54
315.372	8744.79
315.437	8738.3
315.502	8730.26
315.567	8732.13
315.632	8710.71
315.698	8712.35
315.763	8707.39
315.828	8692.28
315.893	8683.47
315.958	8679.33
316.023	8670
316.088	8652.43
316.153	8626.59
316.218	8619.22
316.283	8601.32
316.348	8587.03
316.413	8588.53
316.479	8576.64
316.544	8549.36
316.609	8513.46
316.674	8480.45
316.739	8447.3
316.804	8409.29
316.869	8375.56
316.934	8336.83
316.999	8302.09
317.064	8254.32
317.129	8211.98
317.194	8177
317.259	8124.13
317.324	8076.13
317.389	8028.18
317.454	7989.69
317.518	7959.73
317.583	7929.04
317.648	7900.18
317.713	7860.41
317.778	7795.57
317.843	7757.63
317.908	7715.61
317.973	7675.98
318.038	7650.35
318.103	7611.99
318.168	7584.1
318.233	7545.78
318.297	7498.77
318.362	7461.37
318.427	7424.07
318.492	7392.34
318.557	7340.19
318.622	7313.95
318.687	7289.15
318.751	7253.64
318.816	7216
318.881	7174.68
318.946	7122.82
319.011	7079.09
319.075	7040.37
319.14	7004.39
319.205	6963.12
319.27	6928.67
319.335	6890.1
319.399	6844.89
319.464	6820.15
319.529	6763.52
319.594	6727.93
319.658	6700.08
319.723	6659.98
319.788	6630.59
319.853	6578.38
319.917	6549.63
319.982	6498.68
320.047	6458.16
320.112	6431.37
320.176	6381.35
320.241	6350.53
320.306	6320.04
320.37	6283.66
320.435	6255.2
320.5	6229.33
320.564	6193.29
320.629	6152.17
320.694	6119.15
320.758	6081.34
320.823	6034.8
320.888	6008.94
320.952	5960.39
321.017	5917.94
321.082	5880.86
321.146	5843.01
321.211	5807.33
321.275	5763.51
321.34	5720.5
321.405	5674.71
321.469	5624.9
321.534	5584.87
321.598	5531.8
321.663	5498.05
321.727	5461.52
321.792	5408.84
321.857	5363.78
321.921	5323.18
321.986	5280.98
322.05	5222.24
322.115	5183.86
322.179	5138.68
322.244	5080.83
322.308	5050.69
322.373	5006.2
322.437	4961.56
322.502	4936.74
322.566	4891.35
322.631	4858.6
322.695	4821.79
322.76	4780.86
322.824	4750.27
322.889	4709.02
322.953	4664.52
323.018	4602.98
323.082	4543.74
323.146	4493.13
323.211	4442.33
323.275	4398.59
323.34	4357.85
323.404	4326.76
323.468	4280.6
323.533	4238.57
323.597	4197.09
323.662	4143.44
323.726	4104.85
323.79	4063.55
323.855	3997.94
323.919	3952.54
323.983	3907.61
324.048	3838.75
324.112	3963.16
324.177	3833.74
324.241	3634.77
324.305	3441.87
324.37	3249.54
324.434	3063.19
324.498	3022.85
324.562	2974.25
324.627	2913.89
324.691	2855.41
324.755	2787.61
324.82	2714.45
324.884	2637.57
324.948	2566.54
325.012	2473.05
325.077	2355.45
