Data from 20250702_urea_0.5M_MAYP1162681_15-54-59-985.txt Node
Date: Wed Jul 02 15:54:59 BST 2025
User: adleo
Spectrometer: MAYP116268
Trigger mode: 0
Integration Time (sec): 1.000000E0
Scans to average: 1
Electric dark correction enabled: true
Nonlinearity correction enabled: true
Boxcar width: 10
XAxis mode: Wavelengths
Number of Pixels in Spectrum: 2068
>>>>>Begin Spectral Data<<<<<
179.565	1114.89
179.642	1165.17
179.718	1204.86
179.795	1239.11
179.871	1269.91
179.948	1283.65
180.024	1303.76
180.101	1322.57
180.177	1334.25
180.254	1355.65
180.33	1375.47
180.407	1419.95
180.483	1507.98
180.56	1591.21
180.636	1668.55
180.712	1655.43
180.789	1662.7
180.865	1674.1
180.942	1682.36
181.018	1694.24
181.095	1704.89
181.171	1710.45
181.248	1712.02
181.324	1726.89
181.4	1735.88
181.477	1746.05
181.553	1760.53
181.63	1779.21
181.706	1796.51
181.782	1804.16
181.859	1801.98
181.935	1807.2
182.011	1804.69
182.088	1821.42
182.164	1837.53
182.24	1851.74
182.317	1859.54
182.393	1857.4
182.469	1871.51
182.546	1884.2
182.622	1886.06
182.698	1879.88
182.775	1889.15
182.851	1904.41
182.927	1898.47
183.003	1894.28
183.08	1886.63
183.156	1893.67
183.232	1888.72
183.308	1879.02
183.385	1885.01
183.461	1902.12
183.537	1903.6
183.613	1917.67
183.69	1907.59
183.766	1898.41
183.842	1902.41
183.918	1910.54
183.995	1922.37
184.071	1926.7
184.147	1924.75
184.223	1913.82
184.299	1927.75
184.375	1919.39
184.452	1923.86
184.528	1975.94
184.604	1987.25
184.68	2000.47
184.756	2007.41
184.832	2011.26
184.908	2011.78
184.985	2012.07
185.061	1996.38
185.137	2006.46
185.213	1995.05
185.289	1996.95
185.365	1990.63
185.441	1991.01
185.517	1999.72
185.593	1995.53
185.669	1990.11
185.745	1997.39
185.822	2015.16
185.898	2007.36
185.974	2013.02
186.05	2004.36
186.126	1963.7
186.202	1954.38
186.278	1951
186.354	1941.68
186.43	1948.53
186.506	1950.29
186.582	1951.38
186.658	1957.04
186.734	1936.26
186.81	1938.02
186.886	1943.44
186.962	1953.71
187.038	1950.76
187.114	1946.67
187.19	1958.08
187.266	1951.81
187.341	1951.33
187.417	1944.11
187.493	1942.97
187.569	1947.1
187.645	1940.83
187.721	1931.27
187.797	1936.93
187.873	1939.45
187.949	1934.98
188.025	1929.56
188.101	1932.69
188.176	1939.3
188.252	1936.31
188.328	1943.15
188.404	1944.2
188.48	1939.3
188.556	1933.17
188.632	1931.36
188.707	1931.88
188.783	1925.75
188.859	1919.85
188.935	1911.1
189.011	1917.14
189.086	1909.92
189.162	1902.69
189.238	1901.88
189.314	1899.6
189.39	1898.84
189.465	1892.52
189.541	1908.25
189.617	1894.37
189.693	1890.67
189.768	1893.52
189.844	1917.35
189.92	1912.74
189.996	1920.15
190.071	1929.85
190.147	1930.57
190.223	1939.98
190.298	1932.47
190.374	1922.06
190.45	1935.79
190.526	1940.74
190.601	1937.41
190.677	1939.93
190.753	1965.19
190.828	1968.56
190.904	1981.35
190.98	1992.15
191.055	2002.9
191.131	1995.72
191.207	2015.97
191.282	2021.29
191.358	2011.31
191.433	1998.56
191.509	2009.78
191.585	2007.45
191.66	2008.3
191.736	2014.15
191.811	2005.5
191.887	2020.05
191.963	2040.88
192.038	2044.73
192.114	2046.78
192.189	2048.49
192.265	2046.11
192.34	2025.94
192.416	2024.8
192.491	2023.04
192.567	2025.28
192.642	2025.18
192.718	2026.04
192.793	2015.62
192.869	2012.25
192.944	2014.57
193.02	2019.81
193.095	2023.52
193.171	2027.42
193.246	2024.75
193.322	2024.32
193.397	2024.99
193.473	2013.05
193.548	1996.17
193.624	2003.49
193.699	2003.4
193.775	2020.9
193.85	2023.42
193.925	2030.22
194.001	2030.37
194.076	2023.85
194.152	2012.48
194.227	2005.97
194.302	1995.41
194.378	1999.22
194.453	1998.08
194.529	2010.2
194.604	1999.6
194.679	1993.18
194.755	1977.02
194.83	1990.72
194.905	1985.44
194.981	1994.29
195.056	1987.68
195.131	1994
195.207	1987.53
195.282	1977.74
195.357	1958.42
195.433	1974.5
195.508	1965.41
195.583	1971.83
195.659	1983.01
195.734	1994.81
195.809	1997.42
195.884	2006.5
195.96	2004.98
196.035	2019.25
196.11	2013.97
196.185	2022.62
196.261	2027.42
196.336	2051.63
196.411	2036.59
196.486	2043.87
196.561	2038.11
196.637	2046.86
196.712	2063.32
196.787	2067.46
196.862	2084.53
196.937	2094.14
197.013	2098.52
197.088	2108.88
197.163	2128.34
197.238	2144.53
197.313	2141.25
197.388	2153.14
197.464	2182.36
197.539	2193.73
197.614	2184.55
197.689	2200.29
197.764	2213.48
197.839	2231.89
197.914	2227.99
197.989	2250.26
198.065	2263.63
198.14	2308.33
198.215	2333.13
198.29	2341.89
198.365	2355.5
198.44	2364.59
198.515	2388.87
198.59	2402.72
198.665	2425.19
198.74	2433.57
198.815	2434.47
198.89	2457.9
198.965	2487.52
199.04	2484.23
199.115	2496.56
199.19	2538.98
199.265	2538.88
199.34	2551.69
199.415	2580.56
199.49	2604.56
199.565	2610.99
199.64	2631.37
199.715	2631.8
199.79	2637.47
199.865	2642.94
199.94	2638.99
200.015	2666.96
200.09	2673.96
200.165	2679.29
200.24	2685.77
200.315	2723.49
200.39	2737.4
200.464	2741.97
200.539	2740.59
200.614	2755.17
200.689	2778.61
200.764	2788.43
200.839	2806.29
200.914	2810.48
200.989	2801.42
201.063	2814.43
201.138	2801.15
201.213	2801.86
201.288	2783.14
201.363	2788.09
201.438	2790.14
201.512	2808
201.587	2792.28
201.662	2798.23
201.737	2807.48
201.812	2818.44
201.886	2787.54
201.961	2795.45
202.036	2781.73
202.111	2778.02
202.186	2749.25
202.26	2735.43
202.335	2711.84
202.41	2705.32
202.485	2690.55
202.559	2673.21
202.634	2649.63
202.709	2658.49
202.784	2643.77
202.858	2642.44
202.933	2624.53
203.008	2618
203.082	2600.28
203.157	2600.43
203.232	2559.77
203.306	2541.33
203.381	2506.8
203.456	2485.27
203.53	2465.31
203.605	2449.65
203.68	2429.88
203.754	2424.75
203.829	2407.22
203.904	2388.61
203.978	2377.28
204.053	2379.13
204.127	2365.67
204.202	2363.29
204.277	2344.91
204.351	2340.01
204.426	2335.34
204.5	2330.54
204.575	2298.28
204.65	2308.7
204.724	2301.04
204.799	2307.98
204.873	2305.17
204.948	2306.27
205.022	2298.08
205.097	2291.32
205.171	2303.12
205.246	2309.6
205.32	2306.17
205.395	2308.36
205.469	2302.04
205.544	2307.99
205.618	2293.95
205.693	2308.46
205.767	2298.75
205.842	2320.79
205.916	2311.94
205.991	2302.37
206.065	2304.71
206.14	2320.88
206.214	2317.59
206.289	2310.36
206.363	2320.06
206.438	2321.49
206.512	2330.06
206.586	2349.1
206.661	2359.53
206.735	2339.69
206.81	2340.17
206.884	2358.77
206.958	2350.82
207.033	2367.57
207.107	2377.05
207.181	2408.67
207.256	2403.05
207.33	2422.09
207.405	2440.53
207.479	2464.1
207.553	2475.95
207.628	2465.53
207.702	2483.33
207.776	2484.19
207.851	2493.09
207.925	2518.44
207.999	2527.15
208.073	2535.58
208.148	2547.06
208.222	2543.87
208.296	2590
208.371	2620.93
208.445	2647.85
208.519	2688.24
208.593	2716.73
208.668	2733.18
208.742	2756.35
208.816	2785.36
208.89	2823.41
208.965	2844.97
209.039	2880.35
209.113	2929.61
209.187	2985.97
209.261	3018.05
209.336	3071.61
209.41	3132.14
209.484	3174.28
209.558	3240.84
209.632	3303.25
209.707	3362.62
209.781	3441.61
209.855	3513.19
209.929	3590.95
210.003	3659.86
210.077	3731.28
210.151	3849.19
210.226	3961.31
210.3	4067.5
210.374	4167.53
210.448	4254.8
210.522	4354.17
210.596	4456.26
210.67	4561.05
210.744	4703.46
210.818	4832.33
210.892	4959.81
210.966	5067.69
211.041	5196.31
211.115	5306.34
211.189	5446.42
211.263	5587.87
211.337	5717.55
211.411	5854.9
211.485	5971.82
211.559	6118.65
211.633	6248.63
211.707	6356.48
211.781	6502.17
211.855	6613.82
211.929	6753.72
212.003	6888.6
212.077	7050.34
212.151	7214.79
212.225	7378.88
212.299	7526.22
212.373	7677.21
212.447	7836.35
212.52	8026.66
212.594	8194.26
212.668	8373.49
212.742	8524.14
212.816	8687.76
212.89	8848.97
212.964	9027.33
213.038	9209.25
213.112	9395.2
213.186	9591.78
213.26	9752.5
213.333	9885.1
213.407	10066.7
213.481	10248.9
213.555	10437.03
213.629	10603.3
213.703	10774.74
213.777	10956.54
213.85	11114.55
213.924	11323.35
213.998	11500.85
214.072	11677.97
214.146	11840.34
214.219	12015.4
214.293	12196.47
214.367	12378.52
214.441	12571.81
214.515	12738.97
214.588	12890.81
214.662	13033.59
214.736	13182.3
214.81	13362.2
214.883	13545.66
214.957	13703.77
215.031	13865.74
215.105	14014.89
215.178	14167.75
215.252	14319.5
215.326	14458.28
215.4	14611.86
215.473	14729.95
215.547	14872.49
215.621	15008.71
215.694	15167.83
215.768	15298.31
215.842	15438.09
215.915	15568.67
215.989	15687.96
216.063	15816.46
216.136	15965.83
216.21	16108.17
216.284	16264.52
216.357	16392.25
216.431	16516.5
216.504	16656.65
216.578	16814.64
216.652	16951.76
216.725	17079.57
216.799	17216.06
216.873	17340.15
216.946	17457.84
217.02	17561.51
217.093	17673.41
217.167	17768.88
217.24	17876.11
217.314	17996.73
217.387	18103.38
217.461	18211.81
217.535	18338.6
217.608	18436.33
217.682	18545.24
217.755	18654.49
217.829	18746.2
217.902	18858.72
217.976	18961.51
218.049	19055.24
218.123	19123.43
218.196	19225.98
218.27	19309.69
218.343	19377.44
218.417	19470.74
218.49	19565.91
218.563	19688.9
218.637	19787.74
218.71	19907.25
218.784	20002.82
218.857	20084.89
218.931	20177.8
219.004	20261.41
219.077	20343.53
219.151	20428.4
219.224	20494.23
219.298	20572.16
219.371	20661.47
219.444	20723.73
219.518	20801.61
219.591	20885.28
219.665	20985.34
219.738	21048.09
219.811	21122.6
219.885	21205.64
219.958	21273.65
220.031	21333.17
220.105	21395.73
220.178	21454.44
220.251	21501.48
220.325	21559.03
220.398	21635.05
220.471	21698.05
220.544	21754.34
220.618	21797.24
220.691	21863.96
220.764	21925.51
220.838	21985.57
220.911	22029.44
220.984	22106.23
221.057	22160.8
221.131	22200.09
221.204	22221.73
221.277	22289.08
221.35	22358.45
221.424	22403.52
221.497	22445.08
221.57	22490.87
221.643	22534.84
221.716	22572.16
221.79	22599.68
221.863	22638.59
221.936	22661.97
222.009	22686.27
222.082	22719.05
222.155	22750.49
222.229	22787.71
222.302	22817.7
222.375	22838.86
222.448	22871.36
222.521	22889.78
222.594	22910.08
222.667	22922.8
222.74	22954.77
222.814	22978.21
222.887	22998.46
222.96	23028.11
223.033	23053.62
223.106	23077
223.179	23099.28
223.252	23122.76
223.325	23153.43
223.398	23167.85
223.471	23196.25
223.544	23226.48
223.617	23257.15
223.69	23280.34
223.763	23293.7
223.837	23309.85
223.91	23344.62
223.983	23349.83
224.056	23348.38
224.129	23357.06
224.202	23375.62
224.275	23368.63
224.348	23358.65
224.42	23343.17
224.493	23330.39
224.566	23331.26
224.639	23342.11
224.712	23326.34
224.785	23327.79
224.858	23320.94
224.931	23319.25
225.004	23301.46
225.077	23286.85
225.15	23262.59
225.223	23258.45
225.296	23268.19
225.369	23257.63
225.442	23228.21
225.514	23221.56
225.587	23224.21
225.66	23226.52
225.733	23229.85
225.806	23247.36
225.879	23246.63
225.952	23231.93
226.025	23238.39
226.097	23249.43
226.17	23242.25
226.243	23239.3
226.316	23244.46
226.389	23237.42
226.461	23239.26
226.534	23242.29
226.607	23235.88
226.68	23246.15
226.753	23241.76
226.825	23218.57
226.898	23218.95
226.971	23212.88
227.044	23212.4
227.117	23210.47
227.189	23211.29
227.262	23217.32
227.335	23209.02
227.407	23205.74
227.48	23209.36
227.553	23202.99
227.626	23191.03
227.698	23172.86
227.771	23164.13
227.844	23134.86
227.916	23133.32
227.989	23100.58
228.062	23086.74
228.134	23100.87
228.207	23086.45
228.28	23068.76
228.352	23047.59
228.425	23040.11
228.498	23033.8
228.57	23005.11
228.643	22999.04
228.716	22981.05
228.788	22957.18
228.861	22937.65
228.934	22930.47
229.006	22911.86
229.079	22891.56
229.151	22866.58
229.224	22853.71
229.296	22835.29
229.369	22852.12
229.442	22843.83
229.514	22834.28
229.587	22831.05
229.659	22794.75
229.732	22782.74
229.804	22776.52
229.877	22795.13
229.949	22792.72
230.022	22797.16
230.094	22780.04
230.167	22756.13
230.239	22733.23
230.312	22718.72
230.384	22724.17
230.457	22700.73
230.529	22692.15
230.602	22683.62
230.674	22678.08
230.747	22673.78
230.819	22678.46
230.892	22620.27
230.964	22609.42
231.037	22596.89
231.109	22569.17
231.181	22558.27
231.254	22529.68
231.326	22496.66
231.399	22466.48
231.471	22436.01
231.544	22392.67
231.616	22389.39
231.688	22381.48
231.761	22354.01
231.833	22328.17
231.905	22289.21
231.978	22271.52
232.05	22249.44
232.122	22222.45
232.195	22192.12
232.267	22181.33
232.339	22152.83
232.412	22155.97
232.484	22131.24
232.556	22101.01
232.629	22099.71
232.701	22088.62
232.773	22068.38
232.846	22048.28
232.918	22019.31
232.99	21997.08
233.062	21978.62
233.135	21966.38
233.207	21922.27
233.279	21898.89
233.351	21883.08
233.424	21851.7
233.496	21822.59
233.568	21805.57
233.64	21774.34
233.713	21751.54
233.785	21718.96
233.857	21693.36
233.929	21647.86
234.001	21626.79
234.074	21616.48
234.146	21568.04
234.218	21538.63
234.29	21513.28
234.362	21485.57
234.434	21448.79
234.507	21406.86
234.579	21374.37
234.651	21335.76
234.723	21309.64
234.795	21298.27
234.867	21267.27
234.939	21245.25
235.012	21213.78
235.084	21197.29
235.156	21175.75
235.228	21139.45
235.3	21106.83
235.372	21073.62
235.444	21058.63
235.516	21005.18
235.588	20974.72
235.66	20955.49
235.732	20914.38
235.804	20937.56
235.876	20919.92
235.948	20907.44
236.02	20878.62
236.092	20845.65
236.164	20813.17
236.236	20784.88
236.308	20746.81
236.38	20709.17
236.452	20669.75
236.524	20644.44
236.596	20622.03
236.668	20591.04
236.74	20551.67
236.812	20515.72
236.884	20492.01
236.956	20460.06
237.028	20422.52
237.1	20380.15
237.172	20356.68
237.244	20337.94
237.316	20263.09
237.388	20220.97
237.46	20165.4
237.532	20143.77
237.604	20103.53
237.675	20076.06
237.747	20049.46
237.819	20006.42
237.891	19966.86
237.963	19925.03
238.035	19878.09
238.107	19810.57
238.178	19786.09
238.25	19750.09
238.322	19737.52
238.394	19685.81
238.466	19654.77
238.538	19630.63
238.609	19598.54
238.681	19538.68
238.753	19489.62
238.825	19446.3
238.897	19411.12
238.968	19392.96
239.04	19351.46
239.112	19337.1
239.184	19287.56
239.255	19248.53
239.327	19215.71
239.399	19197.83
239.471	19169.35
239.542	19143.62
239.614	19124.78
239.686	19058.23
239.758	19039.63
239.829	18989.75
239.901	18971.54
239.973	18934.67
240.044	18907.39
240.116	18872.51
240.188	18835.59
240.259	18802.24
240.331	18773.23
240.403	18745.33
240.474	18698.59
240.546	18657.53
240.618	18605.39
240.689	18576.19
240.761	18540.19
240.833	18521.35
240.904	18474.65
240.976	18437.01
241.048	18402.85
241.119	18371.23
241.191	18347.09
241.262	18321.5
241.334	18287.91
241.405	18246.76
241.477	18200.98
241.549	18152.45
241.62	18118.09
241.692	18094.09
241.763	18068.6
241.835	18033.75
241.906	18002.24
241.978	17955.69
242.049	17927.4
242.121	17899.4
242.192	17875.11
242.264	17823.11
242.335	17769.47
242.407	17736.9
242.478	17704.99
242.55	17668.32
242.621	17616.46
242.693	17589.23
242.764	17550.15
242.836	17506.63
242.907	17477.28
242.979	17452.47
243.05	17427.12
243.122	17395.26
243.193	17354.73
243.264	17298.44
243.336	17263.55
243.407	17233.24
243.479	17212.8
243.55	17186.44
243.622	17145.04
243.693	17107.59
243.764	17096.27
243.836	17044.22
243.907	17008.51
243.978	16969.23
244.05	16941.08
244.121	16893.75
244.192	16864.69
244.264	16805.84
244.335	16768.98
244.407	16707.24
244.478	16670.8
244.549	16631.91
244.62	16586.65
244.692	16549.59
244.763	16526.26
244.834	16480.91
244.906	16431.56
244.977	16398.16
245.048	16372.47
245.119	16339.11
245.191	16288.75
245.262	16234.38
245.333	16227.49
245.405	16201.22
245.476	16181.12
245.547	16150.66
245.618	16132.11
245.689	16099.62
245.761	16074.03
245.832	16039.32
245.903	16023.51
245.974	15995.46
246.045	15957.53
246.117	15944.85
246.188	15899.69
246.259	15850.19
246.33	15817.51
246.401	15781.65
246.473	15743.14
246.544	15704.24
246.615	15683.08
246.686	15657.87
246.757	15628.28
246.828	15585.57
246.899	15555.11
246.97	15496.25
247.042	15457.93
247.113	15434.31
247.184	15419.66
247.255	15376.91
247.326	15345.29
247.397	15309.18
247.468	15274.96
247.539	15244.26
247.61	15194.85
247.681	15183.86
247.752	15172.72
247.823	15126.54
247.894	15104.37
247.965	15059.11
248.037	15021.46
248.108	14971.47
248.179	14937.15
248.25	14916.47
248.321	14888.28
248.392	14850.44
248.463	14848.12
248.534	14818.77
248.605	14792.4
248.675	14755.09
248.746	14743.52
248.817	14724.87
248.888	14699.56
248.959	14650.97
249.03	14630.39
249.101	14603.87
249.172	14564.44
249.243	14515.99
249.314	14511.61
249.385	14480.03
249.456	14455.83
249.527	14423.59
249.598	14409.9
249.669	14377.69
249.739	14349.06
249.81	14333.06
249.881	14293.43
249.952	14263.93
250.023	14230.43
250.094	14188.34
250.165	14150.55
250.235	14120.18
250.306	14087.93
250.377	14050.23
250.448	14026.61
250.519	13979.61
250.59	13964.67
250.66	13942.3
250.731	13927.26
250.802	13898.09
250.873	13873.75
250.944	13857.36
251.014	13825.64
251.085	13814.02
251.156	13794.64
251.227	13780.95
251.297	13760.46
251.368	13748.9
251.439	13731.16
251.51	13716.74
251.58	13686.71
251.651	13650.31
251.722	13637.15
251.792	13600.8
251.863	13583.59
251.934	13572.41
252.005	13575.98
252.075	13550.96
252.146	13536.01
252.217	13530.42
252.287	13515.72
252.358	13495.42
252.429	13486.7
252.499	13462.69
252.57	13443.89
252.641	13424.75
252.711	13397.37
252.782	13366.38
252.852	13359.34
252.923	13336.05
252.994	13314.65
253.064	13296.33
253.135	13271.41
253.205	13236.6
253.276	13229.57
253.347	13216.79
253.417	13191.15
253.488	13158.12
253.558	13130.41
253.629	13102.01
253.699	13075.79
253.77	13057.85
253.841	13029.9
253.911	13004.97
253.982	12984.2
254.052	12969.44
254.123	12947.9
254.193	12925.77
254.264	12929.43
254.334	12892.94
254.405	12854.81
254.475	12824.83
254.546	12807.04
254.616	12800.68
254.687	12788.24
254.757	12774.02
254.827	12746.54
254.898	12730.15
254.968	12714.77
255.039	12689.47
255.109	12678.33
255.18	12642.32
255.25	12599.13
255.321	12580.23
255.391	12545.62
255.461	12540.42
255.532	12491.2
255.602	12470.47
255.673	12428.78
255.743	12398.07
255.813	12358.88
255.884	12348.03
255.954	12332.85
256.024	12331.45
256.095	12315.35
256.165	12281.32
256.235	12263.24
256.306	12235.24
256.376	12215.72
256.446	12198.65
256.517	12181.59
256.587	12169.1
256.657	12151.08
256.728	12133.77
256.798	12118.64
256.868	12096.22
256.938	12068.22
257.009	12062.34
257.079	12047.92
257.149	12056.22
257.219	12011.29
257.29	11996.74
257.36	11960.59
257.43	11947.81
257.5	11901.73
257.571	11872.38
257.641	11862.69
257.711	11824.56
257.781	11814.73
257.852	11805.33
257.922	11764.41
257.992	11746.48
258.062	11724.55
258.132	11720.4
258.202	11701.56
258.273	11684.88
258.343	11684.35
258.413	11662.18
258.483	11638.61
258.553	11608.92
258.623	11582.51
258.693	11574.84
258.764	11567.9
258.834	11558.26
258.904	11542.94
258.974	11516.67
259.044	11500.28
259.114	11482.98
259.184	11468.91
259.254	11444.96
259.324	11402.64
259.394	11398.83
259.464	11392.71
259.535	11370.2
259.605	11345.86
259.675	11323.21
259.745	11307.26
259.815	11276.95
259.885	11253.77
259.955	11260.56
260.025	11235.79
260.095	11214.15
260.165	11193.72
260.235	11195.94
260.305	11173.14
260.375	11140.03
260.445	11144.18
260.515	11137.96
260.585	11129.72
260.655	11116.71
260.725	11107.26
260.795	11097.96
260.865	11096.85
260.934	11072.42
261.004	11058.39
261.074	11045.29
261.144	11043.26
261.214	11037.24
261.284	11016.66
261.354	11010.3
261.424	10981.87
261.494	10982.73
261.564	10974.06
261.634	10970.69
261.703	10930.45
261.773	10921.53
261.843	10909.87
261.913	10895.17
261.983	10862.12
262.053	10854.65
262.123	10833.11
262.192	10812
262.262	10807.19
262.332	10771.48
262.402	10760.88
262.472	10744.35
262.541	10705.8
262.611	10696.31
262.681	10662.82
262.751	10657.91
262.821	10641.57
262.89	10613.29
262.96	10601.96
263.03	10602.93
263.1	10596.23
263.169	10585.15
263.239	10578.79
263.309	10583.56
263.379	10568.96
263.448	10560.43
263.518	10545.06
263.588	10535.57
263.657	10532.48
263.727	10525.83
263.797	10519.67
263.867	10504.15
263.936	10479.29
264.006	10480.98
264.076	10460.89
264.145	10450.96
264.215	10427.11
264.285	10420.37
264.354	10389.34
264.424	10373.06
264.494	10340.58
264.563	10311.1
264.633	10319.77
264.702	10306.43
264.772	10273.33
264.842	10256.32
264.911	10245.87
264.981	10219.37
265.05	10197.5
265.12	10178.9
265.19	10164.74
265.259	10155.92
265.329	10145.32
265.398	10132.89
265.468	10138.38
265.537	10119.65
265.607	10105.87
265.676	10099.46
265.746	10087.71
265.815	10086.17
265.885	10066.95
265.955	10040.79
266.024	10025.28
266.094	9986.64
266.163	9988.04
266.232	9983.56
266.302	9973.49
266.371	9959.04
266.441	9944.83
266.51	9945.36
266.58	9928.65
266.649	9909.57
266.719	9906.35
266.788	9896.71
266.858	9896.13
266.927	9859.91
266.996	9851.58
267.066	9842.81
267.135	9822.82
267.205	9813.57
267.274	9804.33
267.343	9808.04
267.413	9797.59
267.482	9801.1
267.552	9799.99
267.621	9767.1
267.69	9742.24
267.76	9728.37
267.829	9715.18
267.898	9705.93
267.968	9682.76
268.037	9678.14
268.106	9671.4
268.176	9642.5
268.245	9634.31
268.314	9618.42
268.384	9613.99
268.453	9608.5
268.522	9602.57
268.592	9596.74
268.661	9578.01
268.73	9569.44
268.799	9545.84
268.869	9552.77
268.938	9521.76
269.007	9506.16
269.076	9499.22
269.146	9497.92
269.215	9493.44
269.284	9501.34
269.353	9485.45
269.422	9473.12
269.492	9455.45
269.561	9418.18
269.63	9414.62
269.699	9395.02
269.768	9384.76
269.838	9379.27
269.907	9368.82
269.976	9344.31
270.045	9315.95
270.114	9314.12
270.183	9306.13
270.253	9296.79
270.322	9268.33
270.391	9259.95
270.46	9264.87
270.529	9263.08
270.598	9258.36
270.667	9245.17
270.736	9227.21
270.806	9219.07
270.875	9223.69
270.944	9211.99
271.013	9232.26
271.082	9221.43
271.151	9211.03
271.22	9188.64
271.289	9178.2
271.358	9166.74
271.427	9162.64
271.496	9160.38
271.565	9143.48
271.634	9135.63
271.703	9157.45
271.772	9159.61
271.841	9147.05
271.91	9114.07
271.979	9102.75
272.048	9084.03
272.117	9082.77
272.186	9062.89
272.255	9064.24
272.324	9061.64
272.393	9058.37
272.462	9044.93
272.531	9043.58
272.6	9039.64
272.669	9044.55
272.738	9037.23
272.807	9031.55
272.876	9006.61
272.945	9033.48
273.013	9036.22
273.082	9034.73
273.151	8993.42
273.22	8986.54
273.289	8983.65
273.358	8993.56
273.427	8980.57
273.496	8977.77
273.564	8967.71
273.633	8973.39
273.702	8947.11
273.771	8929.06
273.84	8922.03
273.909	8916.78
273.977	8911.39
274.046	8897.38
274.115	8901.81
274.184	8880.39
274.253	8869.76
274.322	8884.43
274.39	8850.54
274.459	8834.51
274.528	8805.06
274.597	8803.66
274.665	8801.45
274.734	8804.33
274.803	8799.76
274.872	8791.48
274.94	8779.45
275.009	8836.47
275.078	8821.5
275.147	8824.96
275.215	8826.17
275.284	8830.5
275.353	8823.9
275.421	8801.76
275.49	8816.2
275.559	8801.52
275.627	8800.37
275.696	8796.32
275.765	8793.39
275.833	8786.51
275.902	8779.82
275.971	8795.17
276.039	8808.21
276.108	8806.87
276.177	8801.86
276.245	8790.02
276.314	8785.45
276.383	8787.42
276.451	8720.92
276.52	8718.27
276.588	8729.29
276.657	8730.55
276.725	8721.21
276.794	8719.52
276.863	8727.75
276.931	8705.27
277	8712.45
277.068	8713.94
277.137	8725.92
277.205	8718.56
277.274	8738.44
277.342	8746.48
277.411	8721.4
277.48	8698.59
277.548	8690.36
277.617	8690.26
277.685	8680.4
277.754	8689.45
277.822	8679
277.89	8692.14
277.959	8688.68
278.027	8665.96
278.096	8652.29
278.164	8675.59
278.233	8664.33
278.301	8655.38
278.37	8652.78
278.438	8644.79
278.507	8646.47
278.575	8624.57
278.643	8625.54
278.712	8607.73
278.78	8598.63
278.849	8608.16
278.917	8624.81
278.985	8620.91
279.054	8626.64
279.122	8643.05
279.191	8637.42
279.259	8639.15
279.327	8621.44
279.396	8637.61
279.464	8637.13
279.532	8640.26
279.601	8639.34
279.669	8634.05
279.737	8640.74
279.806	8646.66
279.874	8644.3
279.942	8643.19
280.011	8633.62
280.079	8638.19
280.147	8645.46
280.215	8644.98
280.284	8647.43
280.352	8635.73
280.42	8642.67
280.488	8632.12
280.557	8616.82
280.625	8619.9
280.693	8618.17
280.761	8617.3
280.83	8598.58
280.898	8609.46
280.966	8593.86
281.034	8554.83
281.102	8540.54
281.171	8536.07
281.239	8545.26
281.307	8541.22
281.375	8533.66
281.443	8562.05
281.512	8559.5
281.58	8567.3
281.648	8559.46
281.716	8552.05
281.784	8547.14
281.852	8539.05
281.92	8534.43
281.989	8545.74
282.057	8531.11
282.125	8574.1
282.193	8569.67
282.261	8557.55
282.329	8552.64
282.397	8557.21
282.465	8561.2
282.533	8581.31
282.601	8574.87
282.67	8554.56
282.738	8549.99
282.806	8557.68
282.874	8545.22
282.942	8543.63
283.01	8532.32
283.078	8535.3
283.146	8533.81
283.214	8539.3
283.282	8544.83
283.35	8558.89
283.418	8555.28
283.486	8563.89
283.554	8523.69
283.622	8526.34
283.69	8538.13
283.758	8530.53
283.826	8537.5
283.894	8548.48
283.962	8567.58
284.03	8576.01
284.098	8573.94
284.165	8571.34
284.233	8569.08
284.301	8561.47
284.369	8552.14
284.437	8547.23
284.505	8540.54
284.573	8556.13
284.641	8548.29
284.709	8556.18
284.777	8536.64
284.845	8543.33
284.912	8540.35
284.98	8543.43
285.048	8536.64
285.116	8538.81
285.184	8554.98
285.252	8547.95
285.319	8530.24
285.387	8517.73
285.455	8500.65
285.523	8504.69
285.591	8494.49
285.659	8495.26
285.726	8501.8
285.794	8494.92
285.862	8494.97
285.93	8495.74
285.997	8491.89
286.065	8485.3
286.133	8469.8
286.201	8473.65
286.269	8457.1
286.336	8450.5
286.404	8441.31
286.472	8450.5
286.539	8431.55
286.607	8416.29
286.675	8425
286.743	8439.48
286.81	8431.54
286.878	8446.17
286.946	8441.5
287.013	8441.45
287.081	8436.93
287.149	8425.72
287.216	8444.92
287.284	8440.16
287.352	8441.36
287.419	8432.46
287.487	8448.24
287.555	8454.16
287.622	8448.72
287.69	8459.26
287.758	8468.79
287.825	8466.91
287.893	8456.42
287.96	8464.79
288.028	8472.83
288.096	8473.94
288.163	8475.72
288.231	8471.05
288.298	8475.24
288.366	8485.44
288.433	8486.45
288.501	8482.84
288.569	8488.23
288.636	8476.68
288.704	8488.37
288.771	8493.04
288.839	8491.84
288.906	8484.71
288.974	8490.44
289.041	8486.4
289.109	8477.69
289.176	8488.62
289.244	8493.09
289.311	8501.85
289.379	8507
289.446	8505.07
289.514	8504.21
289.581	8502.47
289.649	8500.45
289.716	8500.26
289.783	8496.46
289.851	8510.7
289.918	8514.36
289.986	8525.28
290.053	8530.96
290.121	8528.75
290.188	8530.96
290.255	8557.62
290.323	8555.7
290.39	8548.91
290.458	8556.08
290.525	8563.68
290.592	8553.53
290.66	8554.44
290.727	8549.58
290.794	8568.64
290.862	8572.64
290.929	8576.29
290.996	8570.71
291.064	8579.85
291.131	8587.99
291.198	8596.84
291.266	8601.08
291.333	8597.85
291.4	8596.89
291.468	8616.43
291.535	8615.18
291.602	8618.02
291.669	8609.79
291.737	8610.18
291.804	8612.92
291.871	8627.16
291.938	8632.75
292.006	8665.05
292.073	8675.39
292.14	8690.7
292.207	8680.35
292.275	8682.18
292.342	8683.72
292.409	8714.24
292.476	8738.74
292.543	8734.69
292.611	8739.89
292.678	8754.76
292.745	8781.86
292.812	8795.24
292.879	8784.17
292.946	8787.15
293.014	8806.6
293.081	8815.36
293.148	8830.52
293.215	8847.9
293.282	8845.97
293.349	8859.16
293.416	8838.94
293.484	8857.47
293.551	8865.37
293.618	8877.16
293.685	8905.61
293.752	8908.98
293.819	8906.77
293.886	8893
293.953	8897.09
294.02	8904.31
294.087	8906.48
294.154	8902.82
294.221	8914.37
294.288	8920.58
294.356	8939.84
294.423	8943.59
294.49	8939.21
294.557	8952.74
294.624	8942.72
294.691	8963.86
294.758	8962.75
294.825	8971.61
294.892	8961.93
294.959	8958.8
295.026	8967.9
295.093	8958.7
295.16	8955.82
295.226	8956.92
295.293	8980.71
295.36	8985.38
295.427	8998.13
295.494	9017.39
295.561	9022.59
295.628	9043.78
295.695	9056.78
295.762	9054.37
295.829	9060.39
295.896	9079.89
295.963	9088.89
296.03	9099.14
296.096	9104.97
296.163	9120.76
296.23	9135.11
296.297	9148.73
296.364	9148.11
296.431	9160.34
296.498	9155.96
296.564	9181.09
296.631	9183.78
296.698	9171.26
296.765	9191.05
296.832	9180.94
296.899	9168.18
296.965	9187.54
297.032	9164.47
297.099	9182.53
297.166	9190.47
297.233	9185.8
297.299	9167.84
297.366	9165.68
297.433	9165.24
297.5	9167.36
297.566	9165.05
297.633	9159.22
297.7	9166.54
297.767	9168.08
297.833	9163.08
297.9	9169.48
297.967	9154.84
298.033	9164.42
298.1	9195.48
298.167	9189.56
298.234	9198.42
298.3	9208.39
298.367	9200.97
298.434	9213.35
298.5	9200.3
298.567	9196.35
298.634	9189.17
298.7	9208.77
298.767	9211.37
298.834	9227.69
298.9	9224.8
298.967	9216.86
299.033	9234.39
299.1	9242.43
299.167	9258.75
299.233	9263.18
299.3	9275.26
299.366	9291.83
299.433	9315.23
299.5	9288.36
299.566	9290.04
299.633	9305.21
299.699	9308.68
299.766	9309.74
299.832	9314.02
299.899	9326.3
299.965	9348.5
300.032	9359.77
300.099	9366.46
300.165	9376.48
300.232	9372.62
300.298	9370.51
300.365	9386.78
300.431	9377.97
300.498	9370.99
300.564	9376.04
300.631	9383.36
300.697	9395.11
300.763	9401.8
300.83	9387.4
300.896	9405.99
300.963	9423.42
301.029	9427.23
301.096	9432.72
301.162	9441.34
301.229	9435.61
301.295	9424.53
301.361	9418.94
301.428	9416.49
301.494	9406.86
301.561	9406.52
301.627	9410.37
301.693	9420.68
301.76	9422.94
301.826	9417.65
301.892	9428.05
301.959	9434.02
302.025	9430.98
302.092	9427.42
302.158	9428.96
302.224	9435.56
302.291	9422.56
302.357	9409.51
302.423	9397.37
302.49	9391.59
302.556	9404.31
302.622	9406.57
302.688	9414.8
302.755	9427.13
302.821	9438.88
302.887	9445.14
302.954	9445.09
303.02	9453.14
303.086	9457.66
303.152	9454.05
303.219	9453.86
303.285	9462.67
303.351	9471.34
303.417	9475.58
303.483	9464.26
303.55	9458.24
303.616	9457.18
303.682	9452.85
303.748	9451.55
303.815	9466.77
303.881	9470.72
303.947	9450.35
304.013	9451.36
304.079	9443.8
304.145	9424.24
304.212	9421.89
304.278	9419.09
304.344	9415.38
304.41	9402.77
304.476	9391.79
304.542	9386.01
304.608	9397.33
304.674	9381.48
304.741	9372.67
304.807	9374.02
304.873	9374.31
304.939	9387.21
305.005	9366.17
305.071	9370.07
305.137	9366.6
305.203	9346.47
305.269	9350.04
305.335	9367.76
305.401	9364.44
305.467	9362.94
305.533	9367.08
305.599	9376.14
305.666	9382.16
305.732	9382.83
305.798	9390.44
305.864	9411.72
305.93	9412.54
305.996	9402.24
306.062	9396.65
306.128	9395.06
306.194	9383.12
306.259	9383.46
306.325	9376.38
306.391	9385.72
306.457	9390.15
306.523	9395.25
306.589	9417.84
306.655	9404.89
306.721	9394.96
306.787	9383.65
306.853	9395.93
306.919	9385.05
306.985	9374.4
307.051	9367.76
307.117	9359.57
307.183	9357.17
307.248	9328.42
307.314	9339.97
307.38	9345.61
307.446	9350.33
307.512	9335.11
307.578	9337.18
307.644	9332.75
307.709	9330.68
307.775	9332.51
307.841	9329.67
307.907	9331.07
307.973	9310.7
308.039	9309.78
308.104	9303.09
308.17	9301.98
308.236	9288.35
308.302	9286.33
308.368	9274.87
308.433	9275.07
308.499	9269.82
308.565	9256.38
308.631	9261.78
308.696	9232.69
308.762	9223.16
308.828	9224.75
308.894	9212.18
308.959	9193.99
309.025	9186.52
309.091	9180.99
309.156	9170.44
309.222	9172.13
309.288	9157.1
309.354	9133.66
309.419	9128.46
309.485	9116.33
309.551	9115.89
309.616	9098.99
309.682	9097.5
309.748	9093.07
309.813	9082.43
309.879	9070.54
309.945	9063.61
310.01	9056.68
310.076	9058.89
310.141	9048.97
310.207	9031.49
310.273	9032.55
310.338	9033.08
310.404	9021.48
310.469	9006.99
310.535	8994.76
310.601	8971.51
310.666	8978.87
310.732	8992.64
310.797	8987.59
310.863	8983.78
310.928	8980.51
310.994	8988.21
311.059	8989.22
311.125	8983.59
311.191	8993.51
311.256	8987.35
311.322	8991.97
311.387	8970.98
311.453	9356.53
311.518	9336.6
311.584	9336.99
311.649	9344.59
311.715	9335.3
311.78	9333.76
311.846	9324.81
311.911	9336.56
311.976	9336.41
312.042	9315.23
312.107	9299.73
312.173	9293.18
312.238	9286.3
312.304	9284.09
312.369	9271.95
312.434	9254.14
312.5	9251.16
312.565	9221.22
312.631	9222.85
312.696	9215.49
312.761	9222.18
312.827	8827.68
312.892	8858.1
312.958	8854.1
313.023	8849.58
313.088	8850.11
313.154	8836.68
313.219	8828.31
313.284	8816.32
313.35	8814.2
313.415	8809.68
313.48	8800.63
313.546	8797.6
313.611	8793.02
313.676	8779.4
313.741	8775.6
313.807	8782.91
313.872	8780.99
313.937	8784.65
314.003	8795.53
314.068	8797.74
314.133	8799.86
314.198	8791.68
314.264	8774.63
314.329	8763.42
314.394	8760.14
314.459	8756.39
314.525	8775.5
314.59	8772.9
314.655	8762.41
314.72	8768.86
314.785	8768.52
314.851	8766.07
314.916	8751.43
314.981	8744.41
315.046	8741.28
315.111	8726.79
315.176	8722.32
315.242	8728.33
315.307	8727.18
315.372	8704.7
315.437	8687.04
315.502	8676.93
315.567	8683.19
315.632	8669.76
315.698	8670.96
315.763	8662.73
315.828	8650.27
315.893	8645.84
315.958	8642.66
316.023	8628.37
316.088	8604.45
316.153	8582.27
316.218	8572.83
316.283	8556.23
316.348	8543.77
316.413	8540.79
316.479	8532.9
316.544	8496.04
316.609	8457.06
316.674	8418.19
316.739	8386.72
316.804	8355.12
316.869	8319.08
316.934	8281.84
316.999	8246.33
317.064	8194.23
317.129	8148.67
317.194	8117.12
317.259	8065.4
317.324	8014.8
317.389	7969.93
317.454	7931.35
317.518	7900.71
317.583	7873.59
317.648	7848.38
317.713	7810.82
317.778	7752.14
317.843	7719.97
317.908	7681.55
317.973	7648.13
318.038	7621.06
318.103	7589.14
318.168	7554.91
318.233	7527.7
318.297	7479.63
318.362	7442.57
318.427	7401.57
318.492	7379.36
318.557	7328.18
318.622	7303.66
318.687	7279.06
318.751	7242.73
318.816	7215.39
318.881	7179.1
318.946	7127.39
319.011	7082.37
319.075	7039.94
319.14	7004.77
319.205	6956.68
319.27	6921.85
319.335	6876.17
319.399	6835
319.464	6802.72
319.529	6756.04
319.594	6714.87
319.658	6686.64
319.723	6648.94
319.788	6625.03
319.853	6568.74
319.917	6539.27
319.982	6481.79
320.047	6446.64
320.112	6419.81
320.176	6363.68
320.241	6326.24
320.306	6292.83
320.37	6250.74
320.435	6219.45
320.5	6186.33
320.564	6146.41
320.629	6105.53
320.694	6076.16
320.758	6035.53
320.823	5988.41
320.888	5960.49
320.952	5915.02
321.017	5873.38
321.082	5832.51
321.146	5794.91
321.211	5764.6
321.275	5723.46
321.34	5677.1
321.405	5629.2
321.469	5582.93
321.534	5544.16
321.598	5492.25
321.663	5462.61
321.727	5431.41
321.792	5385.44
321.857	5344.41
321.921	5307.99
321.986	5269.52
322.05	5211.93
322.115	5176.43
322.179	5135.28
322.244	5079.87
322.308	5044.95
322.373	4996.67
322.437	4955.44
322.502	4929.38
322.566	4882.68
322.631	4847.21
322.695	4812.37
322.76	4769.38
322.824	4739.08
322.889	4693.48
322.953	4653.81
323.018	4590.16
323.082	4526.77
323.146	4472.67
323.211	4419.8
323.275	4374.78
323.34	4330.97
323.404	4299.41
323.468	4254.26
323.533	4212.61
323.597	4170.12
323.662	4119.44
323.726	4086.31
323.79	4043.05
323.855	3976.24
323.919	3925.78
323.983	3883.44
324.048	3821.02
324.112	3947.87
324.177	3814.77
324.241	3619.25
324.305	3424.63
324.37	3234.02
324.434	3051.63
324.498	3011.73
324.562	2962.62
324.627	2905.04
324.691	2847.94
324.755	2780.63
324.82	2707.23
324.884	2628.36
324.948	2557.02
325.012	2464.27
325.077	2343.26
