Data from 20250702_urea_0.5M_MAYP1162681_05-15-00-133.txt Node
Date: Thu Jul 03 05:15:00 BST 2025
User: adleo
Spectrometer: MAYP116268
Trigger mode: 0
Integration Time (sec): 1.000000E0
Scans to average: 1
Electric dark correction enabled: true
Nonlinearity correction enabled: true
Boxcar width: 10
XAxis mode: Wavelengths
Number of Pixels in Spectrum: 2068
>>>>>Begin Spectral Data<<<<<
179.565	1176.4
179.642	1227.6
179.718	1269.7
179.795	1304.93
179.871	1339.12
179.948	1354.14
180.024	1373.55
180.101	1396.06
180.177	1409.07
180.254	1428.66
180.33	1448.71
180.407	1497.18
180.483	1588.34
180.56	1675.34
180.636	1755
180.712	1742.83
180.789	1750.29
180.865	1761.4
180.942	1767.44
181.018	1774.85
181.095	1787.74
181.171	1791.73
181.248	1794.06
181.324	1807.75
181.4	1816.59
181.477	1825.01
181.553	1838.07
181.63	1858.75
181.706	1873.39
181.782	1881.14
181.859	1883.75
181.935	1891.55
182.011	1890.46
182.088	1906.67
182.164	1926.84
182.24	1941.57
182.317	1950.55
182.393	1952.5
182.469	1968.38
182.546	1984.69
182.622	1990.97
182.698	1988.11
182.775	2001
182.851	2013.36
182.927	2006.42
183.003	2000.19
183.08	1994.01
183.156	2005.42
183.232	2001.05
183.308	1991.25
183.385	1997.81
183.461	2015.41
183.537	2014.41
183.613	2026.92
183.69	2019.59
183.766	2009.79
183.842	2017.83
183.918	2026.15
183.995	2035.8
184.071	2035.8
184.147	2026.53
184.223	2017.74
184.299	2025.96
184.375	2013.27
184.452	2022.55
184.528	2076.11
184.604	2087.95
184.68	2099.03
184.756	2105.93
184.832	2108.97
184.908	2113.58
184.985	2114.73
185.061	2097.18
185.137	2105.88
185.213	2096.56
185.289	2098.13
185.365	2089.57
185.441	2087.48
185.517	2099.23
185.593	2096.99
185.669	2096.99
185.745	2109.36
185.822	2124.15
185.898	2116.82
185.974	2126.71
186.05	2116.01
186.126	2077.28
186.202	2068.44
186.278	2065.58
186.354	2055.02
186.43	2063.68
186.506	2060.02
186.582	2061.07
186.658	2067.63
186.734	2048.99
186.81	2048.89
186.886	2053.6
186.962	2066.58
187.038	2064.35
187.114	2054.55
187.19	2059.4
187.266	2048.08
187.341	2047.18
187.417	2040.23
187.493	2043.09
187.569	2047.18
187.645	2042.37
187.721	2034.19
187.797	2043.8
187.873	2048.08
187.949	2044.08
188.025	2035.42
188.101	2040.27
188.176	2044.17
188.252	2041.42
188.328	2047.03
188.404	2049.88
188.48	2043.46
188.556	2034.8
188.632	2032.04
188.707	2032.71
188.783	2031.66
188.859	2026.63
188.935	2015.69
189.011	2022.11
189.086	2016.3
189.162	2005.27
189.238	2001.42
189.314	1995.57
189.39	1988.58
189.465	1981.92
189.541	1997.33
189.617	1984.02
189.693	1976.98
189.768	1981.41
189.844	2003.67
189.92	1998.06
189.996	2003.63
190.071	2014.09
190.147	2012.57
190.223	2023.13
190.298	2017.23
190.374	2006.25
190.45	2020.08
190.526	2028.12
190.601	2024.22
190.677	2023.36
190.753	2050.72
190.828	2057.19
190.904	2072.79
190.98	2087.53
191.055	2097.38
191.131	2088.34
191.207	2109.03
191.282	2121.06
191.358	2111.78
191.433	2097.13
191.509	2111.01
191.585	2110.15
191.66	2109.96
191.736	2120.71
191.811	2111.24
191.887	2126.28
191.963	2148.49
192.038	2150.78
192.114	2151.02
192.189	2155.15
192.265	2152.4
192.34	2132.27
192.416	2132.74
192.491	2127.56
192.567	2130.22
192.642	2132.17
192.718	2133.08
192.793	2121.23
192.869	2117.76
192.944	2120.18
193.02	2127.27
193.095	2128.84
193.171	2135.12
193.246	2134.84
193.322	2130.84
193.397	2134.31
193.473	2120.56
193.548	2103.81
193.624	2114.33
193.699	2111.76
193.775	2125.51
193.85	2125.61
193.925	2135.27
194.001	2131.46
194.076	2127.28
194.152	2118.24
194.227	2111.19
194.302	2099.21
194.378	2103.92
194.453	2099.12
194.529	2111.44
194.604	2099.55
194.679	2095.41
194.755	2074.3
194.83	2088.1
194.905	2086.2
194.981	2091.67
195.056	2087.05
195.131	2092.14
195.207	2089.81
195.282	2082.68
195.357	2063.74
195.433	2079.96
195.508	2066.69
195.583	2073.73
195.659	2084.72
195.734	2090.09
195.809	2088.66
195.884	2098.7
195.96	2098.7
196.035	2115.06
196.11	2110.49
196.185	2122.34
196.261	2124.29
196.336	2157.01
196.411	2141.21
196.486	2145.3
196.561	2138.74
196.637	2144.3
196.712	2160.44
196.787	2161.67
196.862	2175.8
196.937	2187.26
197.013	2191.5
197.088	2203.06
197.163	2225.48
197.238	2243.67
197.313	2244.95
197.388	2259.65
197.464	2288.93
197.539	2299.63
197.614	2293.73
197.689	2307.72
197.764	2320.86
197.839	2341.14
197.914	2333.33
197.989	2358.03
198.065	2371.5
198.14	2423.23
198.215	2450.5
198.29	2460.88
198.365	2474.36
198.44	2487.16
198.515	2514.07
198.59	2527.83
198.665	2556.4
198.74	2562.88
198.815	2564.17
198.89	2587.78
198.965	2619.13
199.04	2614.46
199.115	2630.13
199.19	2670.85
199.265	2671.61
199.34	2682
199.415	2714.12
199.49	2735.98
199.565	2742.79
199.64	2763.56
199.715	2758.31
199.79	2765.03
199.865	2773.94
199.94	2775.47
200.015	2804.11
200.09	2807.01
200.165	2816.26
200.24	2821.88
200.315	2865.91
200.39	2881.3
200.464	2886.02
200.539	2884.16
200.614	2900.6
200.689	2923.57
200.764	2929.53
200.839	2946.64
200.914	2953.02
200.989	2941.15
201.063	2956.4
201.138	2940.02
201.213	2940.16
201.288	2924.05
201.363	2932.49
201.438	2930.82
201.512	2942.16
201.587	2925.38
201.662	2930.43
201.737	2942.73
201.812	2947.12
201.886	2912.24
201.961	2920.97
202.036	2910.44
202.111	2906.15
202.186	2878.1
202.26	2864.08
202.335	2842.3
202.41	2832.77
202.485	2816.9
202.559	2798.8
202.634	2771.54
202.709	2781.78
202.784	2767.58
202.858	2763.58
202.933	2742.13
203.008	2734.7
203.082	2716.69
203.157	2717.26
203.232	2676.55
203.306	2654.48
203.381	2626.03
203.456	2605.93
203.53	2583.57
203.605	2564.67
203.68	2543.09
203.754	2537.19
203.829	2521.66
203.904	2502.28
203.978	2496.99
204.053	2500.99
204.127	2488.62
204.202	2485.28
204.277	2466
204.351	2459.53
204.426	2456.19
204.5	2447.77
204.575	2415.88
204.65	2423.78
204.724	2414.3
204.799	2420.58
204.873	2418.15
204.948	2417.01
205.022	2403.49
205.097	2392.77
205.171	2404.72
205.246	2413.82
205.32	2414.86
205.395	2411.01
205.469	2403.59
205.544	2409.21
205.618	2392.07
205.693	2405.35
205.767	2396.02
205.842	2415.54
205.916	2408.92
205.991	2398.88
206.065	2406.16
206.14	2420.48
206.214	2414.19
206.289	2408.29
206.363	2421.57
206.438	2422.71
206.512	2428.52
206.586	2446.85
206.661	2457.81
206.735	2437.44
206.81	2435.72
206.884	2452.58
206.958	2443.01
207.033	2460.47
207.107	2463
207.181	2493.15
207.256	2492
207.33	2509.24
207.405	2525.54
207.479	2545.73
207.553	2554.11
207.628	2540.73
207.702	2556.25
207.776	2557.25
207.851	2562.87
207.925	2581.74
207.999	2583.55
208.073	2585.12
208.148	2591.6
208.222	2584.31
208.296	2621.3
208.371	2645.42
208.445	2657.62
208.519	2688.57
208.593	2709.96
208.668	2717.97
208.742	2728.65
208.816	2736.37
208.89	2760.1
208.965	2768.64
209.039	2787.99
209.113	2816.39
209.187	2848.73
209.261	2856.69
209.336	2893.92
209.41	2929.29
209.484	2945.74
209.558	2985.22
209.632	3020.98
209.707	3053.26
209.781	3098.33
209.855	3137.54
209.929	3178.98
210.003	3213.61
210.077	3246.77
210.151	3321.99
210.226	3384.05
210.3	3445.05
210.374	3502.83
210.448	3545.71
210.522	3592.7
210.596	3638.92
210.67	3687.86
210.744	3775.19
210.818	3848.43
210.892	3911.71
210.966	3956.8
211.041	4017.29
211.115	4065.94
211.189	4135.58
211.263	4201.5
211.337	4255.99
211.411	4324.49
211.485	4374.72
211.559	4445.02
211.633	4502.92
211.707	4530.07
211.781	4600.5
211.855	4629.56
211.929	4682.08
212.003	4727.15
212.077	4799.69
212.151	4879.71
212.225	4956.8
212.299	5014.55
212.373	5070.72
212.447	5133.44
212.52	5231.33
212.594	5314.54
212.668	5400.37
212.742	5461.33
212.816	5535.06
212.89	5604.8
212.964	5676.12
213.038	5759.82
213.112	5849.43
213.186	5944.77
213.26	6002.6
213.333	6038.39
213.407	6127.18
213.481	6218.37
213.555	6309.75
213.629	6388.59
213.703	6460.37
213.777	6546.9
213.85	6614.32
213.924	6734.73
213.998	6820.13
214.072	6899.37
214.146	6966.06
214.219	7047.45
214.293	7131.28
214.367	7217.59
214.441	7317.55
214.515	7398.78
214.588	7459.69
214.662	7514.88
214.736	7581.26
214.81	7676.71
214.883	7771.64
214.957	7844.29
215.031	7911.8
215.105	7977.9
215.178	8051.79
215.252	8127.45
215.326	8184.8
215.4	8244.06
215.473	8280.05
215.547	8347.27
215.621	8415.08
215.694	8504.93
215.768	8561.58
215.842	8634.29
215.915	8701.06
215.989	8757.57
216.063	8817.88
216.136	8893.89
216.21	8962.76
216.284	9045.91
216.357	9120.62
216.431	9194.96
216.504	9276.76
216.578	9379.09
216.652	9462.91
216.725	9532.21
216.799	9613.6
216.873	9690.22
216.946	9776.91
217.02	9846.59
217.093	9913.4
217.167	9967.88
217.24	10024.91
217.314	10093.6
217.387	10158.25
217.461	10222.37
217.535	10309.9
217.608	10378.94
217.682	10452.46
217.755	10542.27
217.829	10605.77
217.902	10676.31
217.976	10739.72
218.049	10798.08
218.123	10853.5
218.196	10933.58
218.27	11000.71
218.343	11054.49
218.417	11134.97
218.49	11201.05
218.563	11293.14
218.637	11369.91
218.71	11458.4
218.784	11530.5
218.857	11606.12
218.931	11682.61
219.004	11749.7
219.077	11818.67
219.151	11893.48
219.224	11960.48
219.298	12020.29
219.371	12094.43
219.444	12150.29
219.518	12225.78
219.591	12295.57
219.665	12384.75
219.738	12446.06
219.811	12502.12
219.885	12576.6
219.958	12635.07
220.031	12698.22
220.105	12762.24
220.178	12828.42
220.251	12881.11
220.325	12950
220.398	13018.88
220.471	13083.09
220.544	13164.9
220.618	13217.83
220.691	13288.11
220.764	13350.16
220.838	13418.27
220.911	13478.34
220.984	13564.24
221.057	13635.05
221.131	13702.83
221.204	13733.01
221.277	13811.78
221.35	13906.21
221.424	13971.34
221.497	14039.21
221.57	14102.37
221.643	14171.06
221.716	14234.35
221.79	14290.95
221.863	14348.55
221.936	14406.74
222.009	14466.46
222.082	14520.79
222.155	14568.7
222.229	14638.36
222.302	14695.67
222.375	14747.25
222.448	14813.2
222.521	14868.05
222.594	14916.69
222.667	14957.13
222.74	15028.04
222.814	15075.38
222.887	15116.44
222.96	15176.31
223.033	15237.67
223.106	15291.37
223.179	15341.88
223.252	15397.12
223.325	15445.71
223.398	15494.2
223.471	15544.28
223.544	15588.68
223.617	15629.45
223.69	15684.5
223.763	15710.14
223.837	15756.08
223.91	15805.68
223.983	15831.51
224.056	15861.25
224.129	15911.72
224.202	15980.16
224.275	16013.46
224.348	16047.49
224.42	16073.91
224.493	16087.35
224.566	16112.95
224.639	16159.7
224.712	16188.23
224.785	16214.02
224.858	16260.43
224.931	16291.33
225.004	16314.85
225.077	16350.08
225.15	16370.47
225.223	16409.07
225.296	16471.29
225.369	16501.22
225.442	16541.42
225.514	16582.68
225.587	16627.26
225.66	16654.87
225.733	16681.48
225.806	16721.77
225.879	16758.25
225.952	16794.06
226.025	16843.61
226.097	16898.55
226.17	16931.42
226.243	16951.76
226.316	16996.34
226.389	17037.59
226.461	17084.72
226.534	17131.04
226.607	17168.1
226.68	17224.29
226.753	17254.7
226.825	17266.32
226.898	17312.92
226.971	17339.91
227.044	17378.03
227.117	17411.09
227.189	17457.69
227.262	17498.71
227.335	17530.51
227.407	17546.08
227.48	17579.33
227.553	17613.21
227.626	17634.03
227.698	17664.73
227.771	17704.49
227.844	17724.1
227.916	17744.49
227.989	17761.93
228.062	17785.16
228.134	17831.95
228.207	17853.21
228.28	17879.52
228.352	17905.25
228.425	17928.34
228.498	17964.38
228.57	17981.25
228.643	18012.14
228.716	18042.55
228.788	18059.8
228.861	18080.33
228.934	18125.39
229.006	18141.05
229.079	18163.22
229.151	18178.83
229.224	18184.42
229.296	18208.47
229.369	18259.99
229.442	18309.57
229.514	18323.89
229.587	18363.21
229.659	18367.4
229.732	18401.52
229.804	18435.98
229.877	18479.06
229.949	18518.91
230.022	18554.57
230.094	18572.45
230.167	18597.61
230.239	18589.85
230.312	18604.4
230.384	18654.04
230.457	18678.76
230.529	18706.66
230.602	18727.19
230.674	18748.83
230.747	18781.93
230.819	18813.59
230.892	18788.39
230.964	18791.38
231.037	18820.73
231.109	18839.47
231.181	18861.21
231.254	18868.96
231.326	18880.53
231.399	18886.46
231.471	18893.83
231.544	18890.12
231.616	18922.36
231.688	18943.13
231.761	18958.26
231.833	18974.21
231.905	18959.27
231.978	18977.05
232.05	18988.43
232.122	19006.11
232.195	19011.03
232.267	19034.98
232.339	19040.76
232.412	19079.02
232.484	19073.34
232.556	19068.81
232.629	19084.32
232.701	19101.05
232.773	19104.27
232.846	19110.3
232.918	19116.13
232.99	19112.47
233.062	19120.42
233.135	19127.02
233.207	19107.84
233.279	19121.29
233.351	19130.73
233.424	19127.84
233.496	19117.09
233.568	19142.87
233.64	19136.32
233.713	19144.8
233.785	19140.66
233.857	19142.78
233.929	19121.82
234.001	19155.36
234.074	19181.33
234.146	19169.28
234.218	19166.54
234.29	19163.98
234.362	19153.09
234.434	19133.38
234.507	19133.81
234.579	19120.9
234.651	19106.06
234.723	19117.14
234.795	19117.96
234.867	19116.32
234.939	19127.02
235.012	19122.59
235.084	19122.39
235.156	19121.29
235.228	19103.89
235.3	19097.77
235.372	19088.61
235.444	19097.72
235.516	19057
235.588	19046.54
235.66	19031.85
235.732	19010.06
235.804	19061.24
235.876	19062.2
235.948	19072.85
236.02	19055.89
236.092	19040.47
236.164	19034.74
236.236	19019.08
236.308	19007.32
236.38	18994.84
236.452	18973.15
236.524	18959.46
236.596	18947.13
236.668	18936.86
236.74	18923.08
236.812	18914.26
236.884	18909.01
236.956	18890.26
237.028	18878.17
237.1	18851.37
237.172	18861.16
237.244	18864.63
237.316	18808
237.388	18787.67
237.46	18758.9
237.532	18756.83
237.604	18738.66
237.675	18737.65
237.747	18739.57
237.819	18714.71
237.891	18696.88
237.963	18685.51
238.035	18670.42
238.107	18612.93
238.178	18602.96
238.25	18589.85
238.322	18582.33
238.394	18540.31
238.466	18517.66
238.538	18499.25
238.609	18489.28
238.681	18441.81
238.753	18413.18
238.825	18387.93
238.897	18368.94
238.968	18373.62
239.04	18353.04
239.112	18353.23
239.184	18320.08
239.255	18284.66
239.327	18269.96
239.399	18250.3
239.471	18232.81
239.542	18215.7
239.614	18222.45
239.686	18178.06
239.758	18172.47
239.829	18138.98
239.901	18130.69
239.973	18115.13
240.044	18095.8
240.116	18068.57
240.188	18053.44
240.259	18023.9
240.331	17998.5
240.403	17987.13
240.474	17945.45
240.546	17907.66
240.618	17866.94
240.689	17832.77
240.761	17812.39
240.833	17804.39
240.904	17772.05
240.976	17745.64
241.048	17718.85
241.119	17701.55
241.191	17687.23
241.262	17669.6
241.334	17646.99
241.405	17622.08
241.477	17583.14
241.549	17561.65
241.62	17531.28
241.692	17505.5
241.763	17499.72
241.835	17469.74
241.906	17441.21
241.978	17396.68
242.049	17386.66
242.121	17369.26
242.192	17359.43
242.264	17314.03
242.335	17265.69
242.407	17244.97
242.478	17206.9
242.55	17180.68
242.621	17137.5
242.693	17103.52
242.764	17056.68
242.836	17013.93
242.907	16986.12
242.979	16965.35
243.05	16932.09
243.122	16911.76
243.193	16882.5
243.264	16833.1
243.336	16800.81
243.407	16777.87
243.479	16768.33
243.55	16728.71
243.622	16705.58
243.693	16675.41
243.764	16660.52
243.836	16615.16
243.907	16583.45
243.978	16541.95
244.05	16514.29
244.121	16472.6
244.192	16451.2
244.264	16415.68
244.335	16397.51
244.407	16341.07
244.478	16318.27
244.549	16290.12
244.62	16246.21
244.692	16212.23
244.763	16191.46
244.834	16159.65
244.906	16117.24
244.977	16093.04
245.048	16082.53
245.119	16040.22
245.191	15996.69
245.262	15947.29
245.333	15935.86
245.405	15904.25
245.476	15883.86
245.547	15854.94
245.618	15835.22
245.689	15807.08
245.761	15780.18
245.832	15748.51
245.903	15741.57
245.974	15710.39
246.045	15676.6
246.117	15657.8
246.188	15615.24
246.259	15567.33
246.33	15542.6
246.401	15518.31
246.473	15472.51
246.544	15433.14
246.615	15412.22
246.686	15379.87
246.757	15366.28
246.828	15327.81
246.899	15314.61
246.97	15274.65
247.042	15238.06
247.113	15208.37
247.184	15198.92
247.255	15156.6
247.326	15117.7
247.397	15081.98
247.468	15058.46
247.539	15029.87
247.61	14991.79
247.681	14974.01
247.752	14962.29
247.823	14926.91
247.894	14894.47
247.965	14853.16
248.037	14821.25
248.108	14780.32
248.179	14752.9
248.25	14714.33
248.321	14693.56
248.392	14649.98
248.463	14646.56
248.534	14614.84
248.605	14592.76
248.675	14552.51
248.746	14535.4
248.817	14520.65
248.888	14503.2
248.959	14457.4
249.03	14439.42
249.101	14413.54
249.172	14383.41
249.243	14334.62
249.314	14317.94
249.385	14281.45
249.456	14266.36
249.527	14230.93
249.598	14213.14
249.669	14180.08
249.739	14161.27
249.81	14141.12
249.881	14102.03
249.952	14078.02
250.023	14042.54
250.094	14003.01
250.165	13965.41
250.235	13939.19
250.306	13914.46
250.377	13874.3
250.448	13853.53
250.519	13798.86
250.59	13785.8
250.66	13761.12
250.731	13754.51
250.802	13727.42
250.873	13711.61
250.944	13693.58
251.014	13665.62
251.085	13662
251.156	13647.64
251.227	13640.17
251.297	13621.7
251.368	13614.23
251.439	13593.6
251.51	13592.68
251.58	13558.41
251.651	13534.26
251.722	13521
251.792	13475.06
251.863	13454.62
251.934	13447.34
252.005	13455.49
252.075	13432.54
252.146	13413.31
252.217	13397.25
252.287	13381.68
252.358	13357.34
252.429	13349.09
252.499	13318.63
252.57	13289.27
252.641	13269.41
252.711	13243.43
252.782	13203.94
252.852	13191.12
252.923	13162.92
252.994	13139.78
253.064	13139.83
253.135	13109.94
253.205	13079.28
253.276	13071.71
253.347	13061.49
253.417	13029.58
253.488	13010.06
253.558	12977.28
253.629	12956.6
253.699	12936.64
253.77	12922.66
253.841	12898.22
253.911	12872.67
253.982	12854.26
254.052	12853.29
254.123	12841.92
254.193	12820.56
254.264	12838.73
254.334	12811.26
254.405	12778.72
254.475	12744.93
254.546	12714.41
254.616	12708.29
254.687	12699.47
254.757	12685.3
254.827	12667.9
254.898	12643.6
254.968	12611.21
255.039	12584.98
255.109	12565.7
255.18	12538.27
255.25	12482.26
255.321	12466.11
255.391	12433.29
255.461	12432.51
255.532	12373.95
255.602	12346.04
255.673	12306.22
255.743	12272.09
255.813	12227.36
255.884	12220.66
255.954	12213.52
256.024	12213.48
256.095	12196.75
256.165	12154.28
256.235	12146.67
256.306	12117.31
256.376	12112.39
256.446	12102.66
256.517	12094.03
256.587	12089.88
256.657	12066.75
256.728	12057.35
256.798	12034.84
256.868	12011.27
256.938	11983.84
257.009	11971.89
257.079	11959.55
257.149	11965.28
257.219	11932.51
257.29	11921.61
257.36	11885.9
257.43	11866.28
257.5	11821.41
257.571	11790.65
257.641	11783.09
257.711	11741.73
257.781	11726.07
257.852	11712.81
257.922	11677.63
257.992	11656.85
258.062	11636.61
258.132	11637.62
258.202	11624.66
258.273	11608.27
258.343	11611.98
258.413	11590.15
258.483	11569.57
258.553	11535.54
258.623	11503.2
258.693	11479.92
258.764	11474.76
258.834	11465.99
258.904	11453.46
258.974	11434.09
259.044	11413.31
259.114	11399.43
259.184	11384.16
259.254	11359.82
259.324	11319.58
259.394	11305.45
259.464	11305.6
259.535	11279.77
259.605	11247.57
259.675	11215.28
259.745	11208.15
259.815	11172.49
259.885	11143.19
259.955	11155.24
260.025	11134.23
260.095	11119.82
260.165	11110.85
260.235	11103.96
260.305	11071.82
260.375	11039.39
260.445	11042.71
260.515	11044.88
260.585	11041.65
260.655	11031.63
260.725	11029.27
260.795	11023.92
260.865	11028.3
260.934	11000.74
261.004	10994.47
261.074	10979.82
261.144	10982.47
261.214	10970.57
261.284	10957.75
261.354	10955.05
261.424	10927.1
261.494	10928.69
261.564	10907.2
261.634	10897.46
261.703	10870
261.773	10866.09
261.843	10857.61
261.913	10839.11
261.983	10802.15
262.053	10787.35
262.123	10762.68
262.192	10734.45
262.262	10724.47
262.332	10696.24
262.402	10688.19
262.472	10670.5
262.541	10625.75
262.611	10615.68
262.681	10591.92
262.751	10582.04
262.821	10570.77
262.89	10542.44
262.96	10531.64
263.03	10535.74
263.1	10526.49
263.169	10506.83
263.239	10502.16
263.309	10508.08
263.379	10494.59
263.448	10490.83
263.518	10478.69
263.588	10468.33
263.657	10472.19
263.727	10462.74
263.797	10446.31
263.867	10419.91
263.936	10392.79
264.006	10399.82
264.076	10384.59
264.145	10367.25
264.215	10343.6
264.285	10338.44
264.354	10309.78
264.424	10291.18
264.494	10264.25
264.563	10242.28
264.633	10254.85
264.702	10239.77
264.772	10202.24
264.842	10185.62
264.911	10164.62
264.981	10137.64
265.05	10126.61
265.12	10101.7
265.19	10087.87
265.259	10082.62
265.329	10082.67
265.398	10068.32
265.468	10077.08
265.537	10056.95
265.607	10050.83
265.676	10051.65
265.746	10034.4
265.815	10027.61
265.885	10013.07
265.955	9986.81
266.024	9963.45
266.094	9926.89
266.163	9929.35
266.232	9928.19
266.302	9912.34
266.371	9915.09
266.441	9899.82
266.51	9889.46
266.58	9874.34
266.649	9852.09
266.719	9848.28
266.788	9836.48
266.858	9841.29
266.927	9801.56
266.996	9797.27
267.066	9784.6
267.135	9751.47
267.205	9744.53
267.274	9733.79
267.343	9726.18
267.413	9715.83
267.482	9716.17
267.552	9715.11
267.621	9679.51
267.69	9655.96
267.76	9645.17
267.829	9630.34
267.898	9619.36
267.968	9600.72
268.037	9597.54
268.106	9598.89
268.176	9574.28
268.245	9561.42
268.314	9539.75
268.384	9545.43
268.453	9535.17
268.522	9530.36
268.592	9538.06
268.661	9522.31
268.73	9519.9
268.799	9500.93
268.869	9508.64
268.938	9482.25
269.007	9461.93
269.076	9462.94
269.146	9458.75
269.215	9447.86
269.284	9454.75
269.353	9439.68
269.422	9429.14
269.492	9408.43
269.561	9365.58
269.63	9359.7
269.699	9337.89
269.768	9337.07
269.838	9322.29
269.907	9313.76
269.976	9285.64
270.045	9252.37
270.114	9247.08
270.183	9231.14
270.253	9227.48
270.322	9196.38
270.391	9185.78
270.46	9193.2
270.529	9187.66
270.598	9188.09
270.667	9179.96
270.736	9150.39
270.806	9142.78
270.875	9140.86
270.944	9129.35
271.013	9157.04
271.082	9146.11
271.151	9146.88
271.22	9118.62
271.289	9114.57
271.358	9104.65
271.427	9104.03
271.496	9097.24
271.565	9078.22
271.634	9071.77
271.703	9093.88
271.772	9094.93
271.841	9088.63
271.91	9060.95
271.979	9053.24
272.048	9031.19
272.117	9030.9
272.186	9016.36
272.255	9018.96
272.324	9018.87
272.393	9012.95
272.462	8989.69
272.531	8987.86
272.6	8972.07
272.669	8973.8
272.738	8963.74
272.807	8956.43
272.876	8930.34
272.945	8957.39
273.013	8967.21
273.082	8969.57
273.151	8929.03
273.22	8928.41
273.289	8922.25
273.358	8932.98
273.427	8916.56
273.496	8910.74
273.564	8909.73
273.633	8916.95
273.702	8900.34
273.771	8887.49
273.84	8888.5
273.909	8880.46
273.977	8872.81
274.046	8867.75
274.115	8872.42
274.184	8853.56
274.253	8841.91
274.322	8854.85
274.39	8824.57
274.459	8801.37
274.528	8776.44
274.597	8767.15
274.665	8757.57
274.734	8765.9
274.803	8750.83
274.872	8742.8
274.94	8733.07
275.009	8754.69
275.078	8735.05
275.147	8726.54
275.215	8725.09
275.284	8728.61
275.353	8720.28
275.421	8695.64
275.49	8705.79
275.559	8692.8
275.627	8689.62
275.696	8682.69
275.765	8680.28
275.833	8671.91
275.902	8674.56
275.971	8686.59
276.039	8691.98
276.108	8699.01
276.177	8694.96
276.245	8693.14
276.314	8688.27
276.383	8692.22
276.451	8657.56
276.52	8663.57
276.588	8682.15
276.657	8684.27
276.725	8673.34
276.794	8675.37
276.863	8688.94
276.931	8667.18
277	8673.58
277.068	8679.84
277.137	8701.4
277.205	8696.4
277.274	8713.34
277.342	8716.99
277.411	8692.93
277.48	8685.14
277.548	8667.52
277.617	8667.48
277.685	8655.49
277.754	8663.05
277.822	8654.34
277.89	8668.73
277.959	8659.25
278.027	8640.43
278.096	8626.95
278.164	8651.5
278.233	8647.8
278.301	8634.28
278.37	8646.07
278.438	8633.84
278.507	8639.57
278.575	8609.2
278.643	8607.95
278.712	8588.12
278.78	8580.56
278.849	8589.9
278.917	8597.84
278.985	8602.55
279.054	8604.1
279.122	8619.5
279.191	8609.92
279.259	8608.81
279.327	8585.95
279.396	8595.81
279.464	8591.92
279.532	8600.39
279.601	8594.9
279.669	8589.32
279.737	8602.45
279.806	8596.05
279.874	8598.41
279.942	8587.49
280.011	8580.61
280.079	8583.01
280.147	8596.63
280.215	8599.47
280.284	8597.55
280.352	8581.42
280.42	8588.21
280.488	8572.67
280.557	8560.3
280.625	8564.72
280.693	8565.49
280.761	8566.89
280.83	8555.77
280.898	8559.19
280.966	8537.15
281.034	8500.09
281.102	8485.75
281.171	8477.19
281.239	8486.81
281.307	8480.37
281.375	8478.54
281.443	8510.01
281.512	8510.44
281.58	8517.76
281.648	8500.96
281.716	8503.9
281.784	8507.36
281.852	8500.72
281.92	8500.19
281.989	8508.66
282.057	8497.45
282.125	8540.58
282.193	8540.2
282.261	8540.34
282.329	8537.94
282.397	8543.85
282.465	8549.15
282.533	8568.68
282.601	8557.66
282.67	8534.32
282.738	8528.98
282.806	8535.28
282.874	8524.21
282.942	8524.45
283.01	8512.9
283.078	8517.23
283.146	8510.69
283.214	8519.26
283.282	8517.09
283.35	8529.6
283.418	8523.88
283.486	8524.89
283.554	8481.27
283.622	8480.12
283.69	8479.97
283.758	8479.69
283.826	8484.16
283.894	8491.76
283.962	8506.3
284.03	8521.07
284.098	8524.06
284.165	8520.83
284.233	8522.9
284.301	8513.85
284.369	8505.1
284.437	8500.86
284.505	8497.3
284.573	8513.42
284.641	8506.59
284.709	8518.52
284.777	8500.38
284.845	8505.72
284.912	8515.15
284.98	8516.16
285.048	8509.81
285.116	8515.63
285.184	8523.05
285.252	8523.09
285.319	8510.82
285.387	8501.44
285.455	8488.3
285.523	8495.28
285.591	8490.95
285.659	8491.38
285.726	8503.99
285.794	8492.73
285.862	8493.65
285.93	8492.3
285.997	8488.64
286.065	8480.7
286.133	8471.51
286.201	8471.27
286.269	8463.33
286.336	8448.6
286.404	8439.46
286.472	8453.95
286.539	8431.19
286.607	8417.96
286.675	8418
286.743	8429.26
286.81	8423.78
286.878	8436.82
286.946	8424.98
287.013	8426.71
287.081	8419.3
287.149	8401.88
287.216	8421.61
287.284	8415.59
287.352	8414.97
287.419	8411.02
287.487	8429.89
287.555	8432.39
287.622	8431.43
287.69	8434.41
287.758	8446.92
287.825	8444.52
287.893	8424.3
287.96	8435.42
288.028	8447.98
288.096	8449.37
288.163	8452.93
288.231	8445.91
288.298	8446.68
288.366	8463.71
288.433	8462.22
288.501	8455.2
288.569	8453.08
288.636	8447.98
288.704	8461.88
288.771	8473.91
288.839	8466.12
288.906	8459
288.974	8464.58
289.041	8463.33
289.109	8452.74
289.176	8461.89
289.244	8466.65
289.311	8487.39
289.379	8494.13
289.446	8498.31
289.514	8498.07
289.581	8493.84
289.649	8494.13
289.716	8492.54
289.783	8482.34
289.851	8501.34
289.918	8502.93
289.986	8520.21
290.053	8522.66
290.121	8520.3
290.188	8523.05
290.255	8551.3
290.323	8542.63
290.39	8537.34
290.458	8541.24
290.525	8558.03
290.592	8554.71
290.66	8562.7
290.727	8556.15
290.794	8567.94
290.862	8561.4
290.929	8566.55
290.996	8564.58
291.064	8575.64
291.131	8588.4
291.198	8605.68
291.266	8603.85
291.333	8604.71
291.4	8603.7
291.468	8621.94
291.535	8615.59
291.602	8616.8
291.669	8605.34
291.737	8610.78
291.804	8610.87
291.871	8633.59
291.938	8637.78
292.006	8662.09
292.073	8671.71
292.14	8675.66
292.207	8673.88
292.275	8676.19
292.342	8678.06
292.409	8705.69
292.476	8722.49
292.543	8710.65
292.611	8706.99
292.678	8729.76
292.745	8759.6
292.812	8772.93
292.879	8768.17
292.946	8781.69
293.014	8792.37
293.081	8806.33
293.148	8819.33
293.215	8838.97
293.282	8828.52
293.349	8837.48
293.416	8821.49
293.484	8834.44
293.551	8849.94
293.618	8859.71
293.685	8885.13
293.752	8882.72
293.819	8876.95
293.886	8867.32
293.953	8878.92
294.02	8893.84
294.087	8886.43
294.154	8879.69
294.221	8894.08
294.288	8893.41
294.356	8904.53
294.423	8911.36
294.49	8909.82
294.557	8926.29
294.624	8915.07
294.691	8937.79
294.758	8942.99
294.825	8951.75
294.892	8945.4
294.959	8939.72
295.026	8950.02
295.093	8943.09
295.16	8949.34
295.226	8953.96
295.293	8982.66
295.36	8986.22
295.427	8991.66
295.494	9004.42
295.561	9010.34
295.628	9032.68
295.695	9045.87
295.762	9047.51
295.829	9060.46
295.896	9068.89
295.963	9071.68
296.03	9084.72
296.096	9086.94
296.163	9097.92
296.23	9110.39
296.297	9123.82
296.364	9132.72
296.431	9136.86
296.498	9136.62
296.564	9156.12
296.631	9160.31
296.698	9143.55
296.765	9166.13
296.832	9164.5
296.899	9158.57
296.965	9178.55
297.032	9152.89
297.099	9176.58
297.166	9184.47
297.233	9180.62
297.299	9172.54
297.366	9177.54
297.433	9175.28
297.5	9183.22
297.566	9182.55
297.633	9177.4
297.7	9180.34
297.767	9176.82
297.833	9185.78
297.9	9187.94
297.967	9177.16
298.033	9188.62
298.1	9215.54
298.167	9204.41
298.234	9205.71
298.3	9216.35
298.367	9209.85
298.434	9221.65
298.5	9210.67
298.567	9204.84
298.634	9199.93
298.7	9221.02
298.767	9218.95
298.834	9236.62
298.9	9230.89
298.967	9218.23
299.033	9233.64
299.1	9248.52
299.167	9257.42
299.233	9250.44
299.3	9267.2
299.366	9287.66
299.433	9303.21
299.5	9281.06
299.566	9286.31
299.633	9311.26
299.699	9324.74
299.766	9325.99
299.832	9331.58
299.899	9340
299.965	9360.23
300.032	9360.61
300.099	9367.31
300.165	9373.81
300.232	9366.2
300.298	9372.79
300.365	9393.35
300.431	9398.22
300.498	9389.41
300.564	9396.44
300.631	9412.47
300.697	9423.64
300.763	9424.7
300.83	9417.48
300.896	9435.83
300.963	9447.14
301.029	9438.86
301.096	9437.41
301.162	9444.49
301.229	9440.88
301.295	9429.66
301.361	9434.67
301.428	9438.76
301.494	9424.6
301.561	9426.77
301.627	9433.22
301.693	9430.67
301.76	9429.61
301.826	9422.77
301.892	9431.15
301.959	9440.88
302.025	9438.33
302.092	9433.85
302.158	9435.24
302.224	9443.87
302.291	9426.19
302.357	9424.75
302.423	9423.16
302.49	9418.05
302.556	9436.02
302.622	9435.05
302.688	9445.94
302.755	9454.61
302.821	9464.04
302.887	9470.69
302.954	9473.92
303.02	9486
303.086	9495.59
303.152	9499.01
303.219	9493.18
303.285	9500.45
303.351	9504.79
303.417	9498.19
303.483	9487.3
303.55	9476.66
303.616	9473
303.682	9472.57
303.748	9460.82
303.815	9473.44
303.881	9485.96
303.947	9470.5
304.013	9467.9
304.079	9461.69
304.145	9441.12
304.212	9443.19
304.278	9442.57
304.344	9439.29
304.41	9422.29
304.476	9412.33
304.542	9404.19
304.608	9408.81
304.674	9392.34
304.741	9388.44
304.807	9394.36
304.873	9401.68
304.939	9418.25
305.005	9398.89
305.071	9394.12
305.137	9400.29
305.203	9375.44
305.269	9370.86
305.335	9384.64
305.401	9390.7
305.467	9384.93
305.533	9391.14
305.599	9393.31
305.666	9395.86
305.732	9396.48
305.798	9411.32
305.864	9435.88
305.93	9440.6
305.996	9442.47
306.062	9447.05
306.128	9445.31
306.194	9433.23
306.259	9432.99
306.325	9422.73
306.391	9439.15
306.457	9447.82
306.523	9447.43
306.589	9470.69
306.655	9465.97
306.721	9436.45
306.787	9419.94
306.853	9435.97
306.919	9424.99
306.985	9417.63
307.051	9414.21
307.117	9407.03
307.183	9395.33
307.248	9364.32
307.314	9371.3
307.38	9369.61
307.446	9373.95
307.512	9360.66
307.578	9361.81
307.644	9359.74
307.709	9365.67
307.775	9362.25
307.841	9363.11
307.907	9368.07
307.973	9344.28
308.039	9335.33
308.104	9349.72
308.17	9349.15
308.236	9333.54
308.302	9335.95
308.368	9322.76
308.433	9322.37
308.499	9314.48
308.565	9301.86
308.631	9308.7
308.696	9284.24
308.762	9271.91
308.828	9269.99
308.894	9248.71
308.959	9233.78
309.025	9220.97
309.091	9219.19
309.156	9207.93
309.222	9209.71
309.288	9194.2
309.354	9177.93
309.419	9178.7
309.485	9160.98
309.551	9164.74
309.616	9149.04
309.682	9146.97
309.748	9145.24
309.813	9137.25
309.879	9129.93
309.945	9123.62
310.01	9115.49
310.076	9122.76
310.141	9118.81
310.207	9103.93
310.273	9111.63
310.338	9118.66
310.404	9102.1
310.469	9088.95
310.535	9073.89
310.601	9055.83
310.666	9053.91
310.732	9066.18
310.797	9052.99
310.863	9046.97
310.928	9040.33
310.994	9043.07
311.059	9035.56
311.125	9028.77
311.191	9038.35
311.256	9028.68
311.322	9034.94
311.387	9017.61
311.453	9279.1
311.518	9251.76
311.584	9252.05
311.649	9260.86
311.715	9248.15
311.78	9250.46
311.846	9238.96
311.911	9249.45
311.976	9249.5
312.042	9239.68
312.107	9219.41
312.173	9213.06
312.238	9209.59
312.304	9205.98
312.369	9197.41
312.434	9190.43
312.5	9185.96
312.565	9153.94
312.631	9161.45
312.696	9152.55
312.761	9151.25
312.827	8871.17
312.892	8914.4
312.958	8907.95
313.023	8899.18
313.088	8896.39
313.154	8885.27
313.219	8871.22
313.284	8856.68
313.35	8851.44
313.415	8844.84
313.48	8845.08
313.546	8844.79
313.611	8847.92
313.676	8832.57
313.741	8826.31
313.807	8829.05
313.872	8826.26
313.937	8834.35
314.003	8842.96
314.068	8839.5
314.133	8845.47
314.198	8840.22
314.264	8814.9
314.329	8805.89
314.394	8803.15
314.459	8797.81
314.525	8815.18
314.59	8818.46
314.655	8814.08
314.72	8819.76
314.785	8824.91
314.851	8816.92
314.916	8797.52
314.981	8784.33
315.046	8780.77
315.111	8771.34
315.176	8755.7
315.242	8759.79
315.307	8752.57
315.372	8734.32
315.437	8731.72
315.502	8723.25
315.567	8730.62
315.632	8715.46
315.698	8713.39
315.763	8707.71
315.828	8701.88
315.893	8695.87
315.958	8688.21
316.023	8676.76
316.088	8656.79
316.153	8629.64
316.218	8622.33
316.283	8614.1
316.348	8598.51
316.413	8595.14
316.479	8574.5
316.544	8542.84
316.609	8513.78
316.674	8481.15
316.739	8442.13
316.804	8408.21
316.869	8375.06
316.934	8336.76
316.999	8309.81
317.064	8259.97
317.129	8216.96
317.194	8181.45
317.259	8131.37
317.324	8080.53
317.389	8036.56
317.454	7992.84
317.518	7962.25
317.583	7938.87
317.648	7909.58
317.713	7874.66
317.778	7814.01
317.843	7784.73
317.908	7748.71
317.973	7715.24
318.038	7686.34
318.103	7654.37
318.168	7624.32
318.233	7594.36
318.297	7546.91
318.362	7510.8
318.427	7468.03
318.492	7436.06
318.557	7385.88
318.622	7351.7
318.687	7328.16
318.751	7292.26
318.816	7268.18
318.881	7231.89
318.946	7179.36
319.011	7134.95
319.075	7093.34
319.14	7062.26
319.205	7024.63
319.27	6991.87
319.335	6943.97
319.399	6906.16
319.464	6875.61
319.529	6821.66
319.594	6780.11
319.658	6752.44
319.723	6706.53
319.788	6678.44
319.853	6629.02
319.917	6605.54
319.982	6561.65
320.047	6527.66
320.112	6496.5
320.176	6440.47
320.241	6408.44
320.306	6377.53
320.37	6334.57
320.435	6301.45
320.5	6270.54
320.564	6232.38
320.629	6189.82
320.694	6158.38
320.758	6115.58
320.823	6070.43
320.888	6043.27
320.952	5996.35
321.017	5951.06
321.082	5914.9
321.146	5882.76
321.211	5850.24
321.275	5806.07
321.34	5761.66
321.405	5715.44
321.469	5666.24
321.534	5627.84
321.598	5580.61
321.663	5549.34
321.727	5519.48
321.792	5472.83
321.857	5433.57
321.921	5393.6
321.986	5350
322.05	5293.22
322.115	5254.55
322.179	5212.54
322.244	5156.49
322.308	5125.11
322.373	5080.13
322.437	5041.72
322.502	5017.8
322.566	4973.84
322.631	4939.84
322.695	4899.48
322.76	4859.74
322.824	4828.24
322.889	4788.52
322.953	4741.66
323.018	4678.56
323.082	4617.74
323.146	4566.36
323.211	4513.24
323.275	4468.98
323.34	4425.51
323.404	4394.85
323.468	4351.85
323.533	4308.14
323.597	4265.11
323.662	4213.51
323.726	4183.19
323.79	4136.77
323.855	4070.71
323.919	4023.77
323.983	3975.16
324.048	3911.4
324.112	4049.19
324.177	3922.33
324.241	3718.01
324.305	3517.17
324.37	3320.35
324.434	3131.99
324.498	3091.65
324.562	3042.53
324.627	2983.37
324.691	2932.6
324.755	2866.27
324.82	2791.5
324.884	2717.87
324.948	2646.33
325.012	2554.02
325.077	2426.4
