Data from 20250702_urea_0.5M_MAYP1162681_16-44-59-761.txt Node
Date: Wed Jul 02 16:44:59 BST 2025
User: adleo
Spectrometer: MAYP116268
Trigger mode: 0
Integration Time (sec): 1.000000E0
Scans to average: 1
Electric dark correction enabled: true
Nonlinearity correction enabled: true
Boxcar width: 10
XAxis mode: Wavelengths
Number of Pixels in Spectrum: 2068
>>>>>Begin Spectral Data<<<<<
179.565	1120.66
179.642	1171.31
179.718	1209.64
179.795	1246.92
179.871	1277.23
179.948	1291.96
180.024	1309.19
180.101	1331.38
180.177	1344.98
180.254	1365.7
180.33	1385.92
180.407	1430.44
180.483	1518.9
180.56	1602.28
180.636	1680.47
180.712	1667.02
180.789	1677
180.865	1690.3
180.942	1699.18
181.018	1708.59
181.095	1718.9
181.171	1724.51
181.248	1724.42
181.324	1741.34
181.4	1745.71
181.477	1757.78
181.553	1771.8
181.63	1791.33
181.706	1806.78
181.782	1814.76
181.859	1814.66
181.935	1821.08
182.011	1818.37
182.088	1834.1
182.164	1853.41
182.24	1866.38
182.317	1878.17
182.393	1873.85
182.469	1886.73
182.546	1899.7
182.622	1904.36
182.698	1899.99
182.775	1909.88
182.851	1924.95
182.927	1918.19
183.003	1915.25
183.08	1907.36
183.156	1914.01
183.232	1911.06
183.308	1899.37
183.385	1906.07
183.461	1925.28
183.537	1923.52
183.613	1936.55
183.69	1927.61
183.766	1914.62
183.842	1919.24
183.918	1922.18
183.995	1936.68
184.071	1938.87
184.147	1934.69
184.223	1927.37
184.299	1942.73
184.375	1933.46
184.452	1940.64
184.528	1991.67
184.604	2000.42
184.68	2009.83
184.756	2018.01
184.832	2022.24
184.908	2024.53
184.985	2025.05
185.061	2007.55
185.137	2017.82
185.213	2007.03
185.289	2009.26
185.365	2004.7
185.441	2006.75
185.517	2018.02
185.593	2016.45
185.669	2012.79
185.745	2024.01
185.822	2037.13
185.898	2028
185.974	2034.46
186.05	2027.33
186.126	1989.85
186.202	1985.66
186.278	1983.62
186.354	1974.06
186.43	1982.01
186.506	1984.14
186.582	1983.29
186.658	1988.14
186.734	1968.93
186.81	1973.59
186.886	1977.77
186.962	1990.33
187.038	1986.95
187.114	1981.57
187.19	1984.09
187.266	1975.11
187.341	1973.44
187.417	1966.88
187.493	1966.26
187.569	1972.3
187.645	1965.6
187.721	1953.95
187.797	1959.99
187.873	1965.45
187.949	1958.37
188.025	1952.28
188.101	1951.09
188.176	1957.61
188.252	1952.38
188.328	1961.22
188.404	1956.7
188.48	1950.38
188.556	1939.83
188.632	1938.68
188.707	1937.73
188.783	1935.55
188.859	1932.88
188.935	1923.99
189.011	1929.22
189.086	1924.99
189.162	1916.05
189.238	1914.01
189.314	1910.73
189.39	1906.12
189.465	1899.51
189.541	1919.19
189.617	1904.69
189.693	1903.41
189.768	1905.6
189.844	1930.28
189.92	1921.3
189.996	1935.08
190.071	1944.83
190.147	1945.21
190.223	1951.35
190.298	1944.45
190.374	1933.33
190.45	1943.83
190.526	1950.11
190.601	1949.63
190.677	1949.96
190.753	1974.03
190.828	1975.89
190.904	1989.35
190.98	2004.42
191.055	2012.41
191.131	2002.04
191.207	2022.92
191.282	2033.61
191.358	2026.43
191.433	2013.97
191.509	2027.09
191.585	2022.81
191.66	2026.85
191.736	2036.45
191.811	2029.18
191.887	2042.83
191.963	2063.23
192.038	2066.99
192.114	2067.75
192.189	2070.84
192.265	2067.32
192.34	2049.81
192.416	2048.72
192.491	2047.62
192.567	2046.91
192.642	2050.38
192.718	2052.57
192.793	2041.2
192.869	2032.12
192.944	2032.26
193.02	2039.92
193.095	2043.16
193.171	2046.91
193.246	2044.06
193.322	2042.02
193.397	2042.63
193.473	2029.46
193.548	2014.05
193.624	2019.8
193.699	2017.24
193.775	2032.36
193.85	2034.84
193.925	2038.4
194.001	2039.07
194.076	2032.7
194.152	2026.65
194.227	2018.66
194.302	2008.35
194.378	2009.44
194.453	2009.73
194.529	2022.04
194.604	2006.68
194.679	2001.12
194.755	1985.34
194.83	1997.42
194.905	1992.38
194.981	1999.28
195.056	1993.52
195.131	1997.42
195.207	1998.18
195.282	1988.96
195.357	1966.51
195.433	1980.87
195.508	1971.74
195.583	1977.92
195.659	1990.72
195.734	1997.23
195.809	1996.04
195.884	2004.36
195.96	2006.36
196.035	2021.96
196.11	2020.2
196.185	2031.99
196.261	2037.46
196.336	2066.76
196.411	2051.49
196.486	2058.81
196.561	2053.2
196.637	2060.14
196.712	2077.17
196.787	2079.64
196.862	2094.77
196.937	2109.94
197.013	2114.27
197.088	2126.11
197.163	2147.09
197.238	2161.23
197.313	2157.57
197.388	2172.46
197.464	2201.72
197.539	2210.71
197.614	2204.24
197.689	2213.24
197.764	2228.99
197.839	2246.02
197.914	2238.17
197.989	2258.73
198.065	2271.33
198.14	2317.56
198.215	2342.45
198.29	2353.4
198.365	2364.49
198.44	2376.06
198.515	2401.05
198.59	2415.19
198.665	2440.18
198.74	2446.52
198.815	2447.42
198.89	2470.75
198.965	2500.51
199.04	2497.85
199.115	2511.13
199.19	2552.03
199.265	2554.65
199.34	2562.89
199.415	2599.53
199.49	2622.62
199.565	2634.34
199.64	2658.34
199.715	2659.25
199.79	2669.44
199.865	2674.49
199.94	2674.2
200.015	2705.32
200.09	2708.27
200.165	2717.13
200.24	2721.66
200.315	2762.28
200.39	2779.05
200.464	2784.58
200.539	2785.06
200.614	2798.01
200.689	2822.12
200.764	2827.8
200.839	2847.28
200.914	2855.38
200.989	2842.17
201.063	2854.8
201.138	2838.56
201.213	2838.46
201.288	2819.74
201.363	2822.6
201.438	2823.12
201.512	2837.51
201.587	2817.39
201.662	2823.4
201.737	2832.41
201.812	2839.94
201.886	2806.55
201.961	2814.33
202.036	2801.61
202.111	2795.98
202.186	2769.27
202.26	2752.4
202.335	2732.1
202.41	2724.85
202.485	2705.61
202.559	2687.22
202.634	2660.78
202.709	2668.88
202.784	2650.82
202.858	2651.15
202.933	2635.25
203.008	2631.01
203.082	2612.34
203.157	2614.29
203.232	2571.3
203.306	2550.43
203.381	2522.37
203.456	2498.28
203.53	2475.93
203.605	2460.22
203.68	2441.17
203.754	2435.89
203.829	2421.75
203.904	2401.56
203.978	2389.56
204.053	2395.89
204.127	2384.85
204.202	2381
204.277	2364.24
204.351	2359.24
204.426	2353.39
204.5	2346.34
204.575	2316.79
204.65	2326.21
204.724	2319.02
204.799	2329.49
204.873	2328.68
204.948	2327.49
205.022	2316.45
205.097	2309.26
205.171	2322.44
205.246	2328.11
205.32	2328.87
205.395	2328.82
205.469	2320.5
205.544	2322.26
205.618	2304.74
205.693	2313.6
205.767	2304.32
205.842	2325.26
205.916	2317.6
205.991	2306.08
206.065	2310.61
206.14	2321.78
206.214	2319.07
206.289	2311.83
206.363	2321.69
206.438	2323.3
206.512	2331.11
206.586	2354.19
206.661	2360.09
206.735	2336.93
206.81	2342.55
206.884	2358.16
206.958	2349.12
207.033	2365.77
207.107	2378.82
207.181	2411.91
207.256	2409.72
207.33	2432
207.405	2448.29
207.479	2470.24
207.553	2483.86
207.628	2473.91
207.702	2492.38
207.776	2493.33
207.851	2502.9
207.925	2525.2
207.999	2528.91
208.073	2535.1
208.148	2547.11
208.222	2548.96
208.296	2595.9
208.371	2624.41
208.445	2646.8
208.519	2690.86
208.593	2721.21
208.668	2739.27
208.742	2764.6
208.816	2789.61
208.89	2824.46
208.965	2849.17
209.039	2885.55
209.113	2932.08
209.187	2983.83
209.261	3013.86
209.336	3068.37
209.41	3127.71
209.484	3168.89
209.558	3234.39
209.632	3293.79
209.707	3351.43
209.781	3427.46
209.855	3495.89
209.929	3563.7
210.003	3633.04
210.077	3695.75
210.151	3808.63
210.226	3905.52
210.3	4001.38
210.374	4096.47
210.448	4182.77
210.522	4272.36
210.596	4367.36
210.67	4463.9
210.744	4596.94
210.818	4724.55
210.892	4839.74
210.966	4936.4
211.041	5058.33
211.115	5161.25
211.189	5293.87
211.263	5423.72
211.337	5549.84
211.411	5682.8
211.485	5804.3
211.559	5941.13
211.633	6073.29
211.707	6178.96
211.781	6324.4
211.855	6429.97
211.929	6563.35
212.003	6684.56
212.077	6840.68
212.151	6998.5
212.225	7155.96
212.299	7298.44
212.373	7438.11
212.447	7589.32
212.52	7768.65
212.594	7927.5
212.668	8102.88
212.742	8257.4
212.816	8417.9
212.89	8567.87
212.964	8733.05
213.038	8904.36
213.112	9084.41
213.186	9271.76
213.26	9418.64
213.333	9545.09
213.407	9723.11
213.481	9897.08
213.555	10089.66
213.629	10249.06
213.703	10403.17
213.777	10574.21
213.85	10730.22
213.924	10941.84
213.998	11118.84
214.072	11297.87
214.146	11456.66
214.219	11629.29
214.293	11787.32
214.367	11961.79
214.441	12148.55
214.515	12313.01
214.588	12463.69
214.662	12600.3
214.736	12740.81
214.81	12909.03
214.883	13073.4
214.957	13218.64
215.031	13370.68
215.105	13501.99
215.178	13651.76
215.252	13807.8
215.326	13944.12
215.4	14073.36
215.473	14173.05
215.547	14304.36
215.621	14435.23
215.694	14587.8
215.768	14708.26
215.842	14842.85
215.915	14975.31
215.989	15085.59
216.063	15201.62
216.136	15339.71
216.21	15473.91
216.284	15619.71
216.357	15751.88
216.431	15886.12
216.504	16028.74
216.578	16187.02
216.652	16330.94
216.725	16452.25
216.799	16584.36
216.873	16706.54
216.946	16842.02
217.02	16965.01
217.093	17076.2
217.167	17169.02
217.24	17271.48
217.314	17380.59
217.387	17485.51
217.461	17578.96
217.535	17706.96
217.608	17804.55
217.682	17900.59
217.755	18013.12
217.829	18100.83
217.902	18208.78
217.976	18303.43
218.049	18403.32
218.123	18472.04
218.196	18567.36
218.27	18653.09
218.343	18727.55
218.417	18816.75
218.49	18911.15
218.563	19015.24
218.637	19110.13
218.71	19213.79
218.784	19308.14
218.857	19405.68
218.931	19495.51
219.004	19576.61
219.077	19661.43
219.151	19746.58
219.224	19821.18
219.298	19894.33
219.371	19988.98
219.444	20049.56
219.518	20135.87
219.591	20196.83
219.665	20298.18
219.738	20361.46
219.811	20428.06
219.885	20504.35
219.958	20582.08
220.031	20639.43
220.105	20693.7
220.178	20755.49
220.251	20818.86
220.325	20880.8
220.398	20945.09
220.471	21012.9
220.544	21092.04
220.618	21133.87
220.691	21199.47
220.764	21255.57
220.838	21316.64
220.911	21357.41
220.984	21425.08
221.057	21483.26
221.131	21533.63
221.204	21560.48
221.277	21625.11
221.35	21692.45
221.424	21738.29
221.497	21777.38
221.57	21828.81
221.643	21882.99
221.716	21925.99
221.79	21954.43
221.863	21998.87
221.936	22034.64
222.009	22071.56
222.082	22108.15
222.155	22141.17
222.229	22187.64
222.302	22223.94
222.375	22254.99
222.448	22301.46
222.521	22326.43
222.594	22341.81
222.667	22360.13
222.74	22396.52
222.814	22418.75
222.887	22451.68
222.96	22489.18
223.033	22521.05
223.106	22537.78
223.179	22561.45
223.252	22596.55
223.325	22636.23
223.398	22641.43
223.471	22653.77
223.544	22675.81
223.617	22691.67
223.69	22708.98
223.763	22707.24
223.837	22727.44
223.91	22746.58
223.983	22735.73
224.056	22746.49
224.129	22769.29
224.202	22800
224.275	22800.87
224.348	22804.97
224.42	22802.41
224.493	22786.89
224.566	22790.31
224.639	22804.97
224.712	22806.56
224.785	22799.57
224.858	22791.37
224.931	22798.02
225.004	22805.01
225.077	22809.16
225.15	22791.61
225.223	22800.05
225.296	22833.27
225.369	22817.79
225.442	22815.82
225.514	22826.37
225.587	22836.5
225.66	22851.69
225.733	22859.93
225.806	22865.43
225.879	22866.73
225.952	22853.52
226.025	22866.15
226.097	22884.23
226.17	22880.81
226.243	22858.54
226.316	22862.59
226.389	22860.85
226.461	22863.31
226.534	22862.3
226.607	22852.36
226.68	22870.25
226.753	22856.46
226.825	22835.78
226.898	22859.02
226.971	22855.83
227.044	22849.42
227.117	22848.94
227.189	22834.67
227.262	22829.22
227.335	22817.6
227.407	22816.1
227.48	22815.04
227.553	22816.25
227.626	22798.02
227.698	22789.97
227.771	22799.61
227.844	22786.74
227.916	22778.06
227.989	22762.88
228.062	22747.93
228.134	22757.67
228.207	22742.34
228.28	22737.66
228.352	22732.16
228.425	22718.47
228.498	22716.64
228.57	22701.5
228.643	22692.44
228.716	22680.77
228.788	22669.97
228.861	22655.02
228.934	22639.98
229.006	22629.57
229.079	22611.92
229.151	22606.04
229.224	22576.44
229.296	22572.1
229.369	22584.83
229.442	22592.45
229.514	22582.66
229.587	22589.85
229.659	22565.79
229.732	22553.16
229.804	22558.8
229.877	22561.4
229.949	22563.28
230.022	22565.21
230.094	22559.71
230.167	22549.74
230.239	22525.53
230.312	22505.04
230.384	22526.21
230.457	22525.44
230.529	22517.44
230.602	22513.58
230.674	22489.23
230.747	22513.24
230.819	22506.25
230.892	22466.33
230.964	22448.54
231.037	22439.24
231.109	22415.04
231.181	22411.71
231.254	22391.95
231.326	22367.22
231.399	22342.87
231.471	22313.17
231.544	22271.13
231.616	22267.37
231.688	22249.63
231.761	22221.53
231.833	22198.44
231.905	22156.5
231.978	22141.56
232.05	22124.25
232.122	22101.74
232.195	22085.88
232.267	22058.45
232.339	22031.98
232.412	22020.94
232.484	21993.71
232.556	21958.95
232.629	21966.33
232.701	21954.76
232.773	21940.16
232.846	21915.14
232.918	21888
232.99	21855.7
233.062	21838.25
233.135	21810.59
233.207	21792.12
233.279	21781.76
233.351	21768.26
233.424	21739.34
233.496	21693.84
233.568	21686.37
233.64	21650.51
233.713	21624.96
233.785	21596.04
233.857	21558.59
233.929	21512.95
234.001	21509.28
234.074	21495.98
234.146	21441.22
234.218	21388.01
234.29	21359.82
234.362	21322.85
234.434	21281.35
234.507	21256.63
234.579	21219.71
234.651	21193.29
234.723	21159.46
234.795	21133.87
234.867	21108.51
234.939	21096.27
235.012	21078.29
235.084	21056.36
235.156	21042.77
235.228	21005.81
235.3	20980.84
235.372	20967.83
235.444	20956.21
235.516	20896.69
235.588	20875.63
235.66	20849.46
235.732	20815.82
235.804	20839.58
235.876	20823.77
235.948	20817.56
236.02	20787.24
236.092	20751.77
236.164	20720.69
236.236	20685.26
236.308	20655.58
236.38	20624.93
236.452	20576.06
236.524	20548.64
236.596	20523.09
236.668	20486.22
236.74	20455.72
236.812	20427.77
236.884	20396.97
236.956	20365.65
237.028	20328.01
237.1	20281.99
237.172	20270.56
237.244	20270.56
237.316	20206.03
237.388	20178.42
237.46	20140.25
237.532	20133.69
237.604	20100.68
237.675	20073.89
237.747	20043
237.819	20003.43
237.891	19966.57
237.963	19934.57
238.035	19893.46
238.107	19827.2
238.178	19807.49
238.25	19779.06
238.322	19760.65
238.394	19705.08
238.466	19665.91
238.538	19643.11
238.609	19619.07
238.681	19557.33
238.753	19506.06
238.825	19465.24
238.897	19423.32
238.968	19404.38
239.04	19356.81
239.112	19344.62
239.184	19300.91
239.255	19267.47
239.327	19241.78
239.399	19205.69
239.471	19189.16
239.542	19167.81
239.614	19145.84
239.686	19091.14
239.758	19063.48
239.829	19008.4
239.901	18995.49
239.973	18961.37
240.044	18931.49
240.116	18895.35
240.188	18857.86
240.259	18818.53
240.331	18775.31
240.403	18744.56
240.474	18683.89
240.546	18636.95
240.618	18582.84
240.689	18548.72
240.761	18521.06
240.833	18495.85
240.904	18461.98
240.976	18411.67
241.048	18373.88
241.119	18344.87
241.191	18312.73
241.262	18285.7
241.334	18251.77
241.405	18205.31
241.477	18164.5
241.549	18125.12
241.62	18091.63
241.692	18065.08
241.763	18048.02
241.835	18012.17
241.906	17976.7
241.978	17939.25
242.049	17915.83
242.121	17891.69
242.192	17863.69
242.264	17816.89
242.335	17763.11
242.407	17735.59
242.478	17692.37
242.55	17660.8
242.621	17618.44
242.693	17577.24
242.764	17541.38
242.836	17506.44
242.907	17483.5
242.979	17457.72
243.05	17427.5
243.122	17396.51
243.193	17361
243.264	17305
243.336	17266.97
243.407	17242.92
243.479	17215.31
243.55	17178.82
243.622	17149.62
243.693	17114.78
243.764	17086.49
243.836	17039.49
243.907	16996.02
243.978	16973.23
244.05	16939.97
244.121	16889.46
244.192	16858.43
244.264	16816.21
244.335	16781.56
244.407	16730.9
244.478	16703.05
244.549	16670.32
244.62	16626.17
244.692	16590.12
244.763	16563.08
244.834	16530.7
244.906	16492.48
244.977	16465.87
245.048	16448.57
245.119	16406.35
245.191	16362.78
245.262	16310.05
245.333	16297.71
245.405	16266.48
245.476	16229.08
245.547	16195.87
245.618	16174.23
245.689	16148.44
245.761	16110.66
245.832	16076.48
245.903	16053.73
245.974	16017.06
246.045	15977.58
246.117	15961.19
246.188	15918.54
246.259	15877.81
246.33	15840.4
246.401	15794.52
246.473	15744.68
246.544	15700.29
246.615	15674.84
246.686	15639.36
246.757	15624.42
246.828	15582.24
246.899	15561.18
246.97	15514.86
247.042	15469.45
247.113	15442.94
247.184	15433.83
247.255	15394.26
247.326	15364.52
247.397	15329.81
247.468	15300.17
247.539	15268.89
247.61	15221.94
247.681	15199.86
247.752	15182.75
247.823	15142.69
247.894	15125.97
247.965	15090.92
248.037	15052.99
248.108	15001.41
248.179	14971.91
248.25	14930.45
248.321	14910.59
248.392	14869.72
248.463	14856.65
248.534	14827.92
248.605	14805.75
248.675	14767.57
248.746	14739.71
248.817	14714.89
248.888	14691.12
248.959	14647.88
249.03	14626.67
249.101	14599.73
249.172	14570.27
249.243	14523.76
249.314	14515.46
249.385	14482.01
249.456	14459.21
249.527	14429.27
249.598	14410.18
249.669	14381.5
249.739	14364.77
249.81	14335.56
249.881	14296.13
249.952	14273.43
250.023	14238.14
250.094	14192.44
250.165	14156.62
250.235	14133.29
250.306	14108.08
250.377	14062.24
250.448	14037.46
250.519	13986.5
250.59	13970.6
250.66	13938.39
250.731	13923.69
250.802	13891.88
250.873	13869.51
250.944	13845.21
251.014	13816.87
251.085	13818.31
251.156	13797.97
251.227	13785.68
251.297	13773.58
251.368	13762.97
251.439	13751.59
251.51	13748.56
251.58	13713.85
251.651	13683
251.722	13669.02
251.792	13624.18
251.863	13610.49
251.934	13599.6
252.005	13597.33
252.075	13568.99
252.146	13556.74
252.217	13544.74
252.287	13530.28
252.358	13500.29
252.429	13493.16
252.499	13461.44
252.57	13433.19
252.641	13418.39
252.711	13387.49
252.782	13342.32
252.852	13333.74
252.923	13306.12
252.994	13279.85
253.064	13269.82
253.135	13238.77
253.205	13209.13
253.276	13205.56
253.347	13191.72
253.417	13165.69
253.488	13143.71
253.558	13117.24
253.629	13094.11
253.699	13065.57
253.77	13050.33
253.841	13028.3
253.911	13005.02
253.982	12987.33
254.052	12974.84
254.123	12952.43
254.193	12929.87
254.264	12953.3
254.334	12915.31
254.405	12872.84
254.475	12848.06
254.546	12827.72
254.616	12818.61
254.687	12798.84
254.757	12779.37
254.827	12755.46
254.898	12732.95
254.968	12713.09
255.039	12679.92
255.109	12665.9
255.18	12641.89
255.25	12596.43
255.321	12584.53
255.391	12554.88
255.461	12557.72
255.532	12509.9
255.602	12487.68
255.673	12452.16
255.743	12416.19
255.813	12380.86
255.884	12373.73
255.954	12351.46
256.024	12349.72
256.095	12319.64
256.165	12286.14
256.235	12267.29
256.306	12238.32
256.376	12230.61
256.446	12211.33
256.517	12199.86
256.587	12188.39
256.657	12168.48
256.728	12157.58
256.798	12131.56
256.868	12107.6
256.938	12072.46
257.009	12065.13
257.079	12050.29
257.149	12056.02
257.219	12018.62
257.29	12006.57
257.36	11972.44
257.43	11964.15
257.5	11920.09
257.571	11901.01
257.641	11891.27
257.711	11866.01
257.781	11851.99
257.852	11834.01
257.922	11803.26
257.992	11786.73
258.062	11758.19
258.132	11750.33
258.202	11722.67
258.273	11704.5
258.343	11700.35
258.413	11675.05
258.483	11652.92
258.553	11619.38
258.623	11588.39
258.693	11567.37
258.764	11559.76
258.834	11553.93
258.904	11534.4
258.974	11507.71
259.044	11489.87
259.114	11475.22
259.184	11457.2
259.254	11435.17
259.324	11395.46
259.394	11380.95
259.464	11380.85
259.535	11364.56
259.605	11339.12
259.675	11313.67
259.745	11300.75
259.815	11266.78
259.885	11248.61
259.955	11260.18
260.025	11237.05
260.095	11216.71
260.165	11207.07
260.235	11202.3
260.305	11182.92
260.375	11151.65
260.445	11161.04
260.515	11165.19
260.585	11159.69
260.655	11137.14
260.725	11133.48
260.795	11130.68
260.865	11131.74
260.934	11099.17
261.004	11086.1
261.074	11067.5
261.144	11067.5
261.214	11060.37
261.284	11046.88
261.354	11035.6
261.424	11005
261.494	11012.71
261.564	10995.5
261.634	10987.6
261.703	10956.08
261.773	10946.11
261.843	10940.95
261.913	10920.71
261.983	10880.28
262.053	10866.89
262.123	10850.65
262.192	10820.44
262.262	10814.08
262.332	10786.46
262.402	10778.22
262.472	10761.12
262.541	10727.25
262.611	10722.96
262.681	10700.55
262.751	10693.08
262.821	10677.61
262.89	10649.71
262.96	10638.87
263.03	10644.8
263.1	10627.11
263.169	10613.14
263.239	10601.05
263.309	10598.4
263.379	10587.07
263.448	10576.91
263.518	10569.25
263.588	10562.26
263.657	10565.92
263.727	10553.34
263.797	10540.72
263.867	10530.27
263.936	10501.6
264.006	10504.44
264.076	10489.22
264.145	10472.5
264.215	10451.44
264.285	10446.34
264.354	10421.33
264.424	10397
264.494	10366.26
264.563	10349.74
264.633	10349.4
264.702	10336.2
264.772	10303.97
264.842	10284.12
264.911	10279.2
264.981	10248.03
265.05	10233.1
265.12	10213.3
265.19	10203.71
265.259	10191.37
265.329	10175.28
265.398	10165.46
265.468	10167.77
265.537	10142.77
265.607	10136.46
265.676	10135.49
265.746	10116.95
265.815	10108.76
265.885	10090.6
265.955	10065.5
266.024	10047.44
266.094	10016.99
266.163	10016.12
266.232	10020.8
266.302	10003.65
266.371	9996.18
266.441	9984.04
266.51	9979.81
266.58	9967.38
266.649	9934.14
266.719	9932.74
266.788	9926.43
266.858	9931.54
266.927	9896.38
266.996	9889.87
267.066	9871.04
267.135	9840.12
267.205	9844.07
267.274	9832.65
267.343	9828.41
267.413	9817.96
267.482	9820.03
267.552	9818.93
267.621	9787.04
267.69	9752.84
267.76	9746.44
267.829	9725.77
267.898	9707.71
267.968	9679.15
268.037	9671.45
268.106	9678.33
268.176	9647.56
268.245	9637.59
268.314	9618.08
268.384	9621.4
268.453	9606.09
268.522	9599.83
268.592	9597.37
268.661	9576.18
268.73	9569.68
268.799	9557.11
268.869	9567.03
268.938	9531.92
269.007	9513.14
269.076	9506.11
269.146	9511.74
269.215	9504.91
269.284	9518.58
269.353	9510.16
269.422	9504.67
269.492	9484.2
269.561	9441.25
269.63	9439.56
269.699	9414.04
269.768	9404.02
269.838	9395.93
269.907	9400.41
269.976	9381.68
270.045	9359.44
270.114	9350.19
270.183	9334.73
270.253	9322.02
270.322	9293.85
270.391	9282.83
270.46	9283.55
270.529	9278.11
270.598	9273.39
270.667	9254.76
270.736	9222.92
270.806	9212.67
270.875	9213.68
270.944	9201.79
271.013	9223.02
271.082	9221.91
271.151	9224.71
271.22	9200.3
271.289	9182.58
271.358	9164.71
271.427	9158.17
271.496	9149.21
271.565	9135.78
271.634	9126.54
271.703	9147.34
271.772	9144.31
271.841	9139.97
271.91	9118.5
271.979	9110.03
272.048	9080.66
272.117	9083.55
272.186	9068.57
272.255	9067.18
272.324	9059.14
272.393	9051.48
272.462	9035.5
272.531	9021.15
272.6	9005.17
272.669	9008.87
272.738	8999.82
272.807	8997.37
272.876	8979.51
272.945	9001.99
273.013	9003.63
273.082	9006.52
273.151	8966.41
273.22	8970.07
273.289	8965.93
273.358	8973.49
273.427	8965.21
273.496	8965.16
273.564	8959.96
273.633	8964.43
273.702	8947.15
273.771	8936.51
273.84	8932.23
273.909	8928.67
273.977	8925.78
274.046	8916.3
274.115	8919.14
274.184	8902.97
274.253	8886.26
274.322	8890.31
274.39	8856.75
274.459	8846.79
274.528	8828.98
274.597	8818.82
274.665	8808.18
274.734	8815.69
274.803	8808.71
274.872	8798.7
274.94	8792.01
275.009	8817.68
275.078	8798.81
275.147	8795.49
275.215	8790.82
275.284	8793.99
275.353	8789.57
275.421	8762.66
275.49	8782.49
275.559	8768.49
275.627	8767.24
275.696	8758.57
275.765	8760.07
275.833	8759.34
275.902	8758.43
275.971	8761.61
276.039	8779.61
276.108	8782.06
276.177	8776.04
276.245	8758.43
276.314	8752.41
276.383	8752.32
276.451	8716.93
276.52	8721.6
276.588	8732.09
276.657	8733.97
276.725	8726.41
276.794	8717.94
276.863	8730.69
276.931	8700.37
277	8708.98
277.068	8718.37
277.137	8742.14
277.205	8735.17
277.274	8749.84
277.342	8754.85
277.411	8737.05
277.48	8728.24
277.548	8712.5
277.617	8710.43
277.685	8709.13
277.754	8710.81
277.822	8702.05
277.89	8711.25
277.959	8706.92
278.027	8693.83
278.096	8681.65
278.164	8708.61
278.233	8699.17
278.301	8686.71
278.37	8693.54
278.438	8678.77
278.507	8669.67
278.575	8639.3
278.643	8636.56
278.712	8618.27
278.78	8602.82
278.849	8612.15
278.917	8609.6
278.985	8617.21
279.054	8617.4
279.122	8627.75
279.191	8628.37
279.259	8620.24
279.327	8600.84
279.396	8612.1
279.464	8603.15
279.532	8615.48
279.601	8608.69
279.669	8612.44
279.737	8627.94
279.806	8627.84
279.874	8638.09
279.942	8643.87
280.011	8639.92
280.079	8645.79
280.147	8660.38
280.215	8663.31
280.284	8660.23
280.352	8652.05
280.42	8649.6
280.488	8638.09
280.557	8630.1
280.625	8633.04
280.693	8639.1
280.761	8639.63
280.83	8624.62
280.898	8634.1
280.966	8610.37
281.034	8574.42
281.102	8560.56
281.171	8552.14
281.239	8561.76
281.307	8553.63
281.375	8543.67
281.443	8574.33
281.512	8571.39
281.58	8575.14
281.648	8560.13
281.716	8561.43
281.784	8560.13
281.852	8554.84
281.92	8557.92
281.989	8565.13
282.057	8543.87
282.125	8584.73
282.193	8583.48
282.261	8581.89
282.329	8580.31
282.397	8585.84
282.465	8601.57
282.533	8610.62
282.601	8603.93
282.67	8576.98
282.738	8570
282.806	8579.2
282.874	8563.36
282.942	8565.72
283.01	8554.79
283.078	8562.44
283.146	8559.89
283.214	8569.61
283.282	8575.15
283.35	8580.54
283.418	8574.91
283.486	8584.43
283.554	8539.43
283.622	8541.26
283.69	8540.63
283.758	8540.92
283.826	8540.05
283.894	8541.07
283.962	8562.34
284.03	8573.17
284.098	8577.26
284.165	8572.4
284.233	8568.74
284.301	8559.84
284.369	8550.93
284.437	8549.06
284.505	8542.94
284.573	8548.09
284.641	8539
284.709	8541.6
284.777	8527.98
284.845	8533.9
284.912	8539.29
284.98	8549.54
285.048	8543.86
285.116	8551.8
285.184	8560.56
285.252	8565.13
285.319	8549.54
285.387	8542.56
285.455	8527.11
285.523	8529.85
285.591	8527.88
285.659	8529.57
285.726	8539.48
285.794	8524.08
285.862	8521.58
285.93	8519.99
285.997	8518.93
286.065	8513.11
286.133	8504.16
286.201	8503.24
286.269	8490.44
286.336	8479.62
286.404	8470.14
286.472	8481.35
286.539	8461.38
286.607	8441.99
286.675	8441.41
286.743	8452.43
286.81	8444.39
286.878	8454.21
286.946	8447.52
287.013	8446.99
287.081	8444.58
287.149	8430.77
287.216	8450.02
287.284	8440.97
287.352	8441.07
287.419	8439
287.487	8451.75
287.555	8454.35
287.622	8457.62
287.69	8464.31
287.758	8474.51
287.825	8469.13
287.893	8455.41
287.96	8464.7
288.028	8477.54
288.096	8484.62
288.163	8484.14
288.231	8476.87
288.298	8476.58
288.366	8492.7
288.433	8488.66
288.501	8487.07
288.569	8489.19
288.636	8483.27
288.704	8498.48
288.771	8504.83
288.839	8491.36
288.906	8486.35
288.974	8494.05
289.041	8485.15
289.109	8477.98
289.176	8486.4
289.244	8487.61
289.311	8500.46
289.379	8510.13
289.446	8516.24
289.514	8509.74
289.581	8512.44
289.649	8512.82
289.716	8510.66
289.783	8504.93
289.851	8524.61
289.918	8522.3
289.986	8533.95
290.053	8539.24
290.121	8537.99
290.188	8543.91
290.255	8574.76
290.323	8571.1
290.39	8567.63
290.458	8574.66
290.525	8586.01
290.592	8578.31
290.66	8589
290.727	8577.98
290.794	8584.71
290.862	8575.71
290.929	8576.82
290.996	8574.61
291.064	8580
291.131	8598.33
291.198	8607.53
291.266	8603.92
291.333	8609.74
291.4	8618.26
291.468	8634.77
291.535	8632.22
291.602	8632.65
291.669	8622.21
291.737	8626.63
291.804	8627.55
291.871	8645.98
291.938	8655.85
292.006	8685.07
292.073	8694.64
292.14	8706.05
292.207	8700.37
292.275	8707.88
292.342	8717.55
292.409	8744.94
292.476	8773.24
292.543	8767.32
292.611	8776.85
292.678	8796.73
292.745	8815.6
292.812	8824.65
292.879	8814.93
292.946	8817.77
293.014	8833.51
293.081	8839.76
293.148	8851.75
293.215	8859.21
293.282	8852.61
293.349	8859.59
293.416	8842.36
293.484	8857.09
293.551	8871.15
293.618	8886.79
293.685	8907.87
293.752	8907.68
293.819	8899.93
293.886	8884.52
293.953	8884.38
294.02	8885.58
294.087	8889.68
294.154	8885.97
294.221	8898.1
294.288	8905.61
294.356	8926.45
294.423	8924.43
294.49	8923.08
294.557	8939.16
294.624	8937.19
294.691	8954.9
294.758	8956.44
294.825	8958.47
294.892	8954.04
294.959	8955.19
295.026	8962.75
295.093	8956.4
295.16	8950.19
295.226	8952.5
295.293	8973.68
295.36	8982.78
295.427	8995.68
295.494	9006.66
295.561	9009.55
295.628	9026.5
295.695	9039.21
295.762	9039.83
295.829	9058.99
295.896	9081.28
295.963	9083.74
296.03	9092.98
296.096	9101.5
296.163	9113.78
296.23	9136.31
296.297	9142.23
296.364	9135.11
296.431	9140.84
296.498	9141.8
296.564	9174.39
296.631	9176.22
296.698	9164.91
296.765	9182.82
296.832	9173.19
296.899	9159.76
296.965	9181.95
297.032	9164.18
297.099	9177.57
297.166	9187
297.233	9176.56
297.299	9160.48
297.366	9156.43
297.433	9160.52
297.5	9170.35
297.566	9163.99
297.633	9161.54
297.7	9168.28
297.767	9173.23
297.833	9182.38
297.9	9187.34
297.967	9166.69
298.033	9176.99
298.1	9207.76
298.167	9204.87
298.234	9212.33
298.3	9221.43
298.367	9217.63
298.434	9228.71
298.5	9225.09
298.567	9216.67
298.634	9215.99
298.7	9242.38
298.767	9257.55
298.834	9268.62
298.9	9258.36
298.967	9251.53
299.033	9264.82
299.1	9277.63
299.167	9292.12
299.233	9288.7
299.3	9296.02
299.366	9320.62
299.433	9335.69
299.5	9310.27
299.566	9307.47
299.633	9316.38
299.699	9325.87
299.766	9323.7
299.832	9325.43
299.899	9336.37
299.965	9354.08
300.032	9356.06
300.099	9358.03
300.165	9352.35
300.232	9352.06
300.298	9356.44
300.365	9373.54
300.431	9367.13
300.498	9358.8
300.564	9362.36
300.631	9367.76
300.697	9382.4
300.763	9378.64
300.83	9382.83
300.896	9398.48
300.963	9412.88
301.029	9426.6
301.096	9436.33
301.162	9446.01
301.229	9442.64
301.295	9424.24
301.361	9427.57
301.428	9430.36
301.494	9419.67
301.561	9429.49
301.627	9430.84
301.693	9434.21
301.76	9439.36
301.826	9440.09
301.892	9451.02
301.959	9461.32
302.025	9460.26
302.092	9454.73
302.158	9465.13
302.224	9463.92
302.291	9453.86
302.357	9452.41
302.423	9440.86
302.49	9436.38
302.556	9448.95
302.622	9449.14
302.688	9463.01
302.755	9475.1
302.821	9487.18
302.887	9501.97
302.954	9498.5
303.02	9505.48
303.086	9512.42
303.152	9510.2
303.219	9502.11
303.285	9514.68
303.351	9520.22
303.417	9522.39
303.483	9513.09
303.55	9504.95
303.616	9502.02
303.682	9501.25
303.748	9494.5
303.815	9510.64
303.881	9512.95
303.947	9494.46
304.013	9494.12
304.079	9491.42
304.145	9469.61
304.212	9460.55
304.278	9446.01
304.344	9440.76
304.41	9432.48
304.476	9425.35
304.542	9421.79
304.608	9429.93
304.674	9407.05
304.741	9397.13
304.807	9394.58
304.873	9397.76
304.939	9409.94
305.005	9392.6
305.071	9394.77
305.137	9392.27
305.203	9371.56
305.269	9369.15
305.335	9382.49
305.401	9377.96
305.467	9371.61
305.533	9378.64
305.599	9382.68
305.666	9393.81
305.732	9397.52
305.798	9404.35
305.864	9431.9
305.93	9433.3
305.996	9434.07
306.062	9438.74
306.128	9437.78
306.194	9428.87
306.259	9427.52
306.325	9417.55
306.391	9425.74
306.457	9430.55
306.523	9434.5
306.589	9455.59
306.655	9445.96
306.721	9424.63
306.787	9415.24
306.853	9428.68
306.919	9408.31
306.985	9399.74
307.051	9383.32
307.117	9376.87
307.183	9370.27
307.248	9333.19
307.314	9333.62
307.38	9329.96
307.446	9330.88
307.512	9324.86
307.578	9332.99
307.644	9327.75
307.709	9322.79
307.775	9320.04
307.841	9315.13
307.907	9309.88
307.973	9285.95
308.039	9285.27
308.104	9292.16
308.17	9288.6
308.236	9273.72
308.302	9282.05
308.368	9280.26
308.433	9290.52
308.499	9287.68
308.565	9276.99
308.631	9280.07
308.696	9258.69
308.762	9251.28
308.828	9242.61
308.894	9219.41
308.959	9196.44
309.025	9193.07
309.091	9194.95
309.156	9188.98
309.222	9190.95
309.288	9182.86
309.354	9166.64
309.419	9166.59
309.485	9153.88
309.551	9163.94
309.616	9152.87
309.682	9150.89
309.748	9140.83
309.813	9129.28
309.879	9112.47
309.945	9104.53
310.01	9096.73
310.076	9101.83
310.141	9090.52
310.207	9078.24
310.273	9076.65
310.338	9080.07
310.404	9063.22
310.469	9046.52
310.535	9037.51
310.601	9010.89
310.666	9010.94
310.732	9015.99
310.797	9005.79
310.863	9000.11
310.928	8994.62
310.994	8992.93
311.059	8988.12
311.125	8988.12
311.191	8999.67
311.256	8989.81
311.322	8992.16
311.387	8971.08
311.453	9352.92
311.518	9331.74
311.584	9337.62
311.649	9345.17
311.715	9333.81
311.78	9330.83
311.846	9320.82
311.911	9328.23
311.976	9328.62
312.042	9318.94
312.107	9307.48
312.173	9300.65
312.238	9293.33
312.304	9283.27
312.369	9272.39
312.434	9261.41
312.5	9251.74
312.565	9216.74
312.631	9224.2
312.696	9211.06
312.761	9218.67
312.827	8827.24
312.892	8863.2
312.958	8854.06
313.023	8854.11
313.088	8855.07
313.154	8844.53
313.219	8840.05
313.284	8822.34
313.35	8826.28
313.415	8817.09
313.48	8812.13
313.546	8812.47
313.611	8811.7
313.676	8805.34
313.741	8802.84
313.807	8810.4
313.872	8813.58
313.937	8822.1
314.003	8827.25
314.068	8833.46
314.133	8834.66
314.198	8823.49
314.264	8797.4
314.329	8786.91
314.394	8778.1
314.459	8772.51
314.525	8789.17
314.59	8784.02
314.655	8772.22
314.72	8779.88
314.785	8780.36
314.851	8778.15
314.916	8756.34
314.981	8744.36
315.046	8734.64
315.111	8718.76
315.176	8703.69
315.242	8703.69
315.307	8699.02
315.372	8682.66
315.437	8675.1
315.502	8666.82
315.567	8672.79
315.632	8662.83
315.698	8666.73
315.763	8661.53
315.828	8656.23
315.893	8648.72
315.958	8640.54
316.023	8632.27
316.088	8606.37
316.153	8584.04
316.218	8563.69
316.283	8548.05
316.348	8538.14
316.413	8532.94
316.479	8519.57
316.544	8482.09
316.609	8446.72
316.674	8410.15
316.739	8374.75
316.804	8336.5
316.869	8303.64
316.934	8265.53
316.999	8238.58
317.064	8183.45
317.129	8145.97
317.194	8102.01
317.259	8057.65
317.324	8010.42
317.389	7964.97
317.454	7923.31
317.518	7893.54
317.583	7873.92
317.648	7850.64
317.713	7814.62
317.778	7755.89
317.843	7723
317.908	7684.25
317.973	7651.17
318.038	7623
318.103	7586.46
318.168	7556.94
318.233	7525.69
318.297	7481.13
318.362	7440.93
318.427	7406.23
318.492	7371.81
318.557	7333.75
318.622	7303.13
318.687	7281.36
318.751	7245.23
318.816	7209.66
318.881	7171.94
318.946	7119.84
319.011	7074.62
319.075	7033.11
319.14	6990.55
319.205	6948.89
319.27	6923.87
319.335	6881.83
319.399	6839.56
319.464	6813
319.529	6762.57
319.594	6715.45
319.658	6683.75
319.723	6642.88
319.788	6610.95
319.853	6563.6
319.917	6529.51
319.982	6479.14
320.047	6438.14
320.112	6415.24
320.176	6368.77
320.241	6330.75
320.306	6300.75
320.37	6256.78
320.435	6224.58
320.5	6205.86
320.564	6169.24
320.629	6124.38
320.694	6090.84
320.758	6051.83
320.823	6009.27
320.888	5980.73
320.952	5936.7
321.017	5896.55
321.082	5858.46
321.146	5824.74
321.211	5790.4
321.275	5755.11
321.34	5708.65
321.405	5666.26
321.469	5618.46
321.534	5579.92
321.598	5531.22
321.663	5499.18
321.727	5470.95
321.792	5419.13
321.857	5376.8
321.921	5338.03
321.986	5297.17
322.05	5237.38
322.115	5198.96
322.179	5155.02
322.244	5100
322.308	5068.91
322.373	5018.77
322.437	4975.85
322.502	4946.87
322.566	4903.05
322.631	4863.83
322.695	4830.46
322.76	4790.73
322.824	4754.92
322.889	4708.74
322.953	4665.73
323.018	4600.49
323.082	4538.38
323.146	4491.74
323.211	4434.19
323.275	4388.35
323.34	4344.69
323.404	4313.13
323.468	4269.32
323.533	4224.9
323.597	4179.98
323.662	4128.39
323.726	4095.31
323.79	4049.99
323.855	3987.63
323.919	3937.69
323.983	3892.33
324.048	3824.7
324.112	3950.03
324.177	3822.62
324.241	3625.85
324.305	3431.37
324.37	3239.76
324.434	3054.89
324.498	3010.97
324.562	2964.39
324.627	2906.5
324.691	2850.71
324.755	2788.07
324.82	2713.87
324.884	2637.74
324.948	2572.42
325.012	2483.1
325.077	2364.86
