Data from 20250702_urea_0.5M_MAYP1162681_09-54-59-780.txt Node
Date: Thu Jul 03 09:54:59 BST 2025
User: adleo
Spectrometer: MAYP116268
Trigger mode: 0
Integration Time (sec): 1.000000E0
Scans to average: 1
Electric dark correction enabled: true
Nonlinearity correction enabled: true
Boxcar width: 10
XAxis mode: Wavelengths
Number of Pixels in Spectrum: 2068
>>>>>Begin Spectral Data<<<<<
179.565	1164.36
179.642	1222.95
179.718	1266.38
179.795	1305.53
179.871	1335.73
179.948	1351.81
180.024	1370.98
180.101	1392.91
180.177	1409.53
180.254	1431.47
180.33	1456.22
180.407	1505.78
180.483	1598.8
180.56	1687.12
180.636	1768.92
180.712	1757.94
180.789	1771.63
180.865	1783.98
180.942	1793.01
181.018	1806.46
181.095	1820.01
181.171	1825.29
181.248	1823.57
181.324	1838.6
181.4	1843.11
181.477	1854.43
181.553	1866.54
181.63	1887.56
181.706	1901.63
181.782	1907.14
181.859	1905.86
181.935	1911.28
182.011	1911.28
182.088	1929.3
182.164	1947.18
182.24	1957.92
182.317	1965.81
182.393	1961.06
182.469	1974.18
182.546	1986.93
182.622	1990.11
182.698	1986.78
182.775	1997.77
182.851	2012.84
182.927	2006.7
183.003	2002.76
183.08	1996.25
183.156	2005.37
183.232	2002.52
183.308	1992.39
183.385	2001.57
183.461	2020.59
183.537	2018.4
183.613	2028.15
183.69	2018.07
183.766	2006.79
183.842	2017.59
183.918	2021.25
183.995	2035.33
184.071	2041.13
184.147	2037.95
184.223	2027.2
184.299	2038.71
184.375	2029.82
184.452	2035.53
184.528	2085.48
184.604	2094.66
184.68	2106.59
184.756	2116.91
184.832	2121.1
184.908	2126.47
184.985	2124.95
185.061	2108.26
185.137	2118.48
185.213	2108.4
185.289	2108.36
185.365	2100.65
185.441	2097.47
185.517	2112.55
185.593	2108.08
185.669	2103.18
185.745	2114.83
185.822	2129.95
185.898	2121.1
185.974	2128.61
186.05	2121.29
186.126	2083.75
186.202	2080.28
186.278	2076.14
186.354	2064.58
186.43	2075.43
186.506	2075.24
186.582	2072.15
186.658	2078.62
186.734	2056.51
186.81	2058.46
186.886	2061.74
186.962	2075.81
187.038	2072.87
187.114	2067.68
187.19	2075.15
187.266	2063.21
187.341	2061.07
187.417	2053.56
187.493	2051.46
187.569	2056.08
187.645	2050.37
187.721	2041.52
187.797	2047.47
187.873	2052.89
187.949	2047.71
188.025	2036.43
188.101	2038.05
188.176	2045.99
188.252	2043.47
188.328	2051.31
188.404	2051.98
188.48	2046.36
188.556	2038.33
188.632	2037.8
188.707	2035.33
188.783	2030.81
188.859	2028.39
188.935	2017.49
189.011	2029.76
189.086	2024.49
189.162	2014.69
189.238	2010.17
189.314	2005.18
189.39	2000.38
189.465	1993.72
189.541	2007.37
189.617	1994.48
189.693	1990.11
189.768	1991.82
189.844	2013.32
189.92	2007.09
189.996	2014.18
190.071	2023.88
190.147	2025.26
190.223	2037.06
190.298	2029.73
190.374	2019.65
190.45	2030.73
190.526	2039.24
190.601	2031.11
190.677	2033.49
190.753	2060.8
190.828	2065.79
190.904	2080.92
190.98	2097.43
191.055	2106.08
191.131	2099.14
191.207	2118.26
191.282	2126.96
191.358	2119.63
191.433	2106.6
191.509	2120.24
191.585	2118.01
191.66	2120.29
191.736	2127.38
191.811	2119.72
191.887	2137.27
191.963	2158.25
192.038	2164.96
192.114	2164.15
192.189	2168.15
192.265	2167.76
192.34	2144.45
192.416	2143.73
192.491	2139.69
192.567	2138.31
192.642	2139.88
192.718	2143.25
192.793	2129.22
192.869	2126.18
192.944	2128.98
193.02	2134.69
193.095	2138.07
193.171	2143.16
193.246	2146.16
193.322	2144.73
193.397	2141.64
193.473	2127.41
193.548	2111.09
193.624	2117.99
193.699	2120.28
193.775	2135.46
193.85	2132.7
193.925	2143.88
194.001	2143.31
194.076	2137.5
194.152	2129.61
194.227	2124.8
194.302	2113.34
194.378	2118.48
194.453	2117.1
194.529	2129.18
194.604	2114.01
194.679	2106.64
194.755	2090.52
194.83	2099.03
194.905	2095.52
194.981	2101.98
195.056	2095.8
195.131	2100.46
195.207	2097.99
195.282	2088.57
195.357	2066.78
195.433	2084.71
195.508	2070.53
195.583	2075.48
195.659	2090.33
195.734	2098.03
195.809	2097.42
195.884	2104.36
195.96	2105.36
196.035	2118.48
196.11	2112.92
196.185	2125.09
196.261	2130.51
196.336	2160.96
196.411	2146.73
196.486	2153.63
196.561	2151.44
196.637	2157.39
196.712	2173.81
196.787	2174.38
196.862	2189.22
196.937	2201.78
197.013	2204.3
197.088	2216.62
197.163	2239.89
197.238	2255.18
197.313	2256.23
197.388	2273.17
197.464	2302.58
197.539	2313.95
197.614	2307.15
197.689	2319.76
197.764	2337.95
197.839	2356.7
197.914	2349.56
197.989	2375.26
198.065	2388.73
198.14	2438.37
198.215	2466.45
198.29	2477.6
198.365	2493.88
198.44	2504.64
198.515	2532.21
198.59	2549.54
198.665	2575.78
198.74	2581.26
198.815	2581.31
198.89	2602.07
198.965	2627.56
199.04	2625.27
199.115	2639.56
199.19	2681.99
199.265	2684.14
199.34	2693.71
199.415	2729.13
199.49	2750.56
199.565	2759.61
199.64	2781.96
199.715	2779.24
199.79	2785.91
199.865	2793.87
199.94	2788.72
200.015	2818.65
200.09	2823.42
200.165	2831.85
200.24	2838.91
200.315	2883.08
200.39	2898.8
200.464	2902.76
200.539	2904.95
200.614	2921.49
200.689	2945.13
200.764	2950.61
200.839	2972.39
200.914	2976.44
200.989	2963.99
201.063	2976.67
201.138	2959.99
201.213	2955.9
201.288	2933.87
201.363	2939.59
201.438	2938.02
201.512	2954.7
201.587	2938.2
201.662	2942.68
201.737	2951.93
201.812	2956.65
201.886	2923.3
201.961	2934.41
202.036	2925.07
202.111	2923.17
202.186	2896.11
202.26	2880.61
202.335	2860.5
202.41	2851.49
202.485	2834.53
202.559	2814.99
202.634	2791.12
202.709	2799.02
202.784	2783.68
202.858	2788.4
202.933	2767.15
203.008	2763.05
203.082	2745
203.157	2745.14
203.232	2701.95
203.306	2682.12
203.381	2651.15
203.456	2628.19
203.53	2603.59
203.605	2583.64
203.68	2560.53
203.754	2553.58
203.829	2538.29
203.904	2517.62
203.978	2505.76
204.053	2511.96
204.127	2498.96
204.202	2498.24
204.277	2481.25
204.351	2474.25
204.426	2464.24
204.5	2457.29
204.575	2421.02
204.65	2429.64
204.724	2418.4
204.799	2427.06
204.873	2420.68
204.948	2422.82
205.022	2410.63
205.097	2403.87
205.171	2418.91
205.246	2423.01
205.32	2421.39
205.395	2421.91
205.469	2414.59
205.544	2418.3
205.618	2398.26
205.693	2411.83
205.767	2401.16
205.842	2423.02
205.916	2416.98
205.991	2406.74
206.065	2413.88
206.14	2428.34
206.214	2425.29
206.289	2420.77
206.363	2433.15
206.438	2436.62
206.512	2441.96
206.586	2461.52
206.661	2467.28
206.735	2446.25
206.81	2450.39
206.884	2465.91
206.958	2453.82
207.033	2470.14
207.107	2479.34
207.181	2514.68
207.256	2508.91
207.33	2526.58
207.405	2536.78
207.479	2556.87
207.553	2563.59
207.628	2550.02
207.702	2567.54
207.776	2564.11
207.851	2571.45
207.925	2588.12
207.999	2590.12
208.073	2590.22
208.148	2597.41
208.222	2589.17
208.296	2623.31
208.371	2643.23
208.445	2660.48
208.519	2690.72
208.593	2708.3
208.668	2713.35
208.742	2720.79
208.816	2731.07
208.89	2750.81
208.965	2759.49
209.039	2778.17
209.113	2806.62
209.187	2838.48
209.261	2845.39
209.336	2874.56
209.41	2903.83
209.484	2914.84
209.558	2949.5
209.632	2978.43
209.707	3000.12
209.781	3039.22
209.855	3070.79
209.929	3105.16
210.003	3129.39
210.077	3152.33
210.151	3223.56
210.226	3277.21
210.3	3327.93
210.374	3373.38
210.448	3407.7
210.522	3443.08
210.596	3478.73
210.67	3517.73
210.744	3590.32
210.818	3649.5
210.892	3704.67
210.966	3733.12
211.041	3790.82
211.115	3822.43
211.189	3884.78
211.263	3943.53
211.337	3989.73
211.411	4048.72
211.485	4088.55
211.559	4141.02
211.633	4186.31
211.707	4199.09
211.781	4254.21
211.855	4265.59
211.929	4304.21
212.003	4331.89
212.077	4396.11
212.151	4464.1
212.225	4529.46
212.299	4570.73
212.373	4614.89
212.447	4665.74
212.52	4752.81
212.594	4811.95
212.668	4884.66
212.742	4932.99
212.816	4987.25
212.89	5046.91
212.964	5104.13
213.038	5166.18
213.112	5242.27
213.186	5321.17
213.26	5365
213.333	5387
213.407	5463.03
213.481	5531.58
213.555	5610.68
213.629	5662.81
213.703	5709.48
213.777	5771.55
213.85	5827.47
213.924	5927.31
213.998	5995.44
214.072	6057.51
214.146	6114.52
214.219	6175.8
214.293	6236.64
214.367	6310.37
214.441	6383.86
214.515	6442.05
214.588	6490.11
214.662	6524.15
214.736	6573.84
214.81	6649.53
214.883	6726.44
214.957	6775.6
215.031	6829.95
215.105	6877.58
215.178	6928.69
215.252	6986.81
215.326	7032.03
215.4	7074.92
215.473	7098.76
215.547	7145.72
215.621	7196.63
215.694	7264.32
215.768	7307.09
215.842	7359.77
215.915	7405.25
215.989	7446.74
216.063	7498.48
216.136	7560.55
216.21	7623.09
216.284	7693.39
216.357	7759.37
216.431	7814.77
216.504	7889.93
216.578	7981.46
216.652	8048.69
216.725	8115.36
216.799	8191.09
216.873	8257.28
216.946	8329.73
217.02	8387.02
217.093	8440.48
217.167	8479.55
217.24	8521.28
217.314	8584.07
217.387	8639.65
217.461	8692.73
217.535	8765.7
217.608	8823.6
217.682	8881.32
217.755	8953.42
217.829	9002.53
217.902	9060.4
217.976	9124.04
218.049	9179.65
218.123	9228.82
218.196	9297.38
218.27	9345.43
218.343	9391.23
218.417	9447.53
218.49	9506.23
218.563	9583.23
218.637	9655.86
218.71	9738.94
218.784	9805.17
218.857	9878.62
218.931	9948.26
219.004	10016.61
219.077	10080.01
219.151	10139.98
219.224	10203.19
219.298	10263.46
219.371	10341.02
219.444	10392.28
219.518	10455.44
219.591	10520.1
219.665	10601.01
219.738	10664.85
219.811	10727.48
219.885	10798.36
219.958	10868.14
220.031	10931.65
220.105	10995.74
220.178	11057.81
220.251	11118.24
220.325	11188.65
220.398	11249.76
220.471	11309.52
220.544	11378.58
220.618	11431.26
220.691	11497.24
220.764	11559.17
220.838	11618.69
220.911	11673.25
220.984	11760.78
221.057	11820.84
221.131	11881.71
221.204	11910.25
221.277	11989.25
221.35	12075.62
221.424	12128.16
221.497	12189.77
221.57	12247.61
221.643	12313.89
221.716	12382.1
221.79	12430.4
221.863	12485.4
221.936	12540.01
222.009	12604.94
222.082	12670.07
222.155	12725.89
222.229	12794.1
222.302	12856.53
222.375	12919.19
222.448	12983.69
222.521	13035.47
222.594	13096.74
222.667	13139.45
222.74	13210.79
222.814	13262.18
222.887	13317.47
222.96	13380.81
223.033	13443.87
223.106	13500.56
223.179	13553.97
223.252	13603.67
223.325	13664.12
223.398	13721.06
223.471	13778.57
223.544	13825.86
223.617	13874.35
223.69	13930.9
223.763	13973.51
223.837	14029.82
223.91	14085.54
223.983	14114.95
224.056	14146.67
224.129	14196.22
224.202	14265.78
224.275	14309.89
224.348	14343.78
224.42	14372.95
224.493	14407.89
224.566	14446.89
224.639	14492.59
224.712	14533.42
224.785	14577.33
224.858	14621.06
224.931	14665.45
225.004	14698.86
225.077	14750.87
225.15	14763.31
225.223	14802.26
225.296	14866.08
225.369	14890.52
225.442	14919.73
225.514	14970.49
225.587	15023.46
225.66	15065.54
225.733	15105.55
225.806	15150.38
225.879	15187.3
225.952	15224.56
226.025	15283.03
226.097	15346.32
226.17	15398.04
226.243	15417.18
226.316	15457.95
226.389	15490.39
226.461	15534.31
226.534	15583.37
226.607	15616.49
226.68	15694.86
226.753	15736.03
226.825	15756.94
226.898	15812.13
226.971	15858.65
227.044	15906.36
227.117	15946.71
227.189	15988.5
227.262	16032.84
227.335	16068.75
227.407	16113.62
227.48	16160.95
227.553	16194.98
227.626	16219.51
227.698	16252.77
227.771	16294.94
227.844	16319.38
227.916	16361.89
227.989	16374.71
228.062	16404.3
228.134	16456.35
228.207	16478.28
228.28	16510.53
228.352	16538.19
228.425	16573.42
228.498	16617.04
228.57	16636.75
228.643	16678.49
228.716	16711.7
228.788	16734.78
228.861	16766.06
228.934	16802.79
229.006	16827.22
229.079	16852.38
229.151	16871.56
229.224	16880.81
229.296	16923.61
229.369	16981.69
229.442	17031.86
229.514	17062.36
229.587	17106.22
229.659	17113.88
229.732	17151.38
229.804	17195.38
229.877	17251.76
229.949	17283.52
230.022	17324.34
230.094	17354.08
230.167	17385.16
230.239	17397.16
230.312	17424.87
230.384	17475.09
230.457	17513.11
230.529	17550.94
230.602	17587.52
230.674	17614.75
230.747	17657.69
230.819	17692.92
230.892	17691.14
230.964	17708.34
231.037	17742.65
231.109	17760.82
231.181	17799.62
231.254	17805.93
231.326	17821.5
231.399	17838.65
231.471	17861.25
231.544	17862.56
231.616	17899.95
231.688	17914.8
231.761	17939.23
231.833	17953.35
231.905	17951.76
231.978	17965.4
232.05	17979.23
232.122	17998.65
232.195	18009.97
232.267	18046.6
232.339	18061.87
232.412	18096.48
232.484	18110.74
232.556	18117.78
232.629	18155.61
232.701	18169.97
232.773	18191.6
232.846	18208.76
232.918	18224.9
232.99	18237.19
233.062	18249
233.135	18257.38
233.207	18258.4
233.279	18283.21
233.351	18304.56
233.424	18313.14
233.496	18310.97
233.568	18338.68
233.64	18330.44
233.713	18349.57
233.785	18349.09
233.857	18354.78
233.929	18339.45
234.001	18361.23
234.074	18392.08
234.146	18374.73
234.218	18390.29
234.29	18399.4
234.362	18394.63
234.434	18384.94
234.507	18375.16
234.579	18368.46
234.651	18367.16
234.723	18378.25
234.795	18384.8
234.867	18378.87
234.939	18394.44
235.012	18402.63
235.084	18407.59
235.156	18420.75
235.228	18411.35
235.3	18406.24
235.372	18400.08
235.444	18418.73
235.516	18389.76
235.588	18389.81
235.66	18388.22
235.732	18367.98
235.804	18423.88
235.876	18442.1
235.948	18448.89
236.02	18458.48
236.092	18462.24
236.164	18461.66
236.236	18456.94
236.308	18441.81
236.38	18440.17
236.452	18424.8
236.524	18414.29
236.596	18419.3
236.668	18419.88
236.74	18417.23
236.812	18411.93
236.884	18420.65
236.956	18412.51
237.028	18400.12
237.1	18378.44
237.172	18386.73
237.244	18392.85
237.316	18340.8
237.388	18307.84
237.46	18291.65
237.532	18290.3
237.604	18272.52
237.675	18271.84
237.747	18264.37
237.819	18244.85
237.891	18234.54
237.963	18213.39
238.035	18202.98
238.107	18147.99
238.178	18146.93
238.25	18133.77
238.322	18144.76
238.394	18114.84
238.466	18093.01
238.538	18094.02
238.609	18083.66
238.681	18054.31
238.753	18027.47
238.825	17999.66
238.897	17991.42
238.968	17990.21
239.04	17961.2
239.112	17971.23
239.184	17942.79
239.255	17925.69
239.327	17919.37
239.399	17908.05
239.471	17909.54
239.542	17901.54
239.614	17905.25
239.686	17854.22
239.758	17844.39
239.829	17808.92
239.901	17795.23
239.973	17774.56
240.044	17746.03
240.116	17725.45
240.188	17700.39
240.259	17689.74
240.331	17669.4
240.403	17650.22
240.474	17610.9
240.546	17589.65
240.618	17552.3
240.689	17526.71
240.761	17506.08
240.833	17499.67
240.904	17477.07
240.976	17445.17
241.048	17413.98
241.119	17394.51
241.191	17378.61
241.262	17366.9
241.334	17337.84
241.405	17310.47
241.477	17287.04
241.549	17269.94
241.62	17250.47
241.692	17233.93
241.763	17215.67
241.835	17189.55
241.906	17171.81
241.978	17141.45
242.049	17116.39
242.121	17092.77
242.192	17082.41
242.264	17033.54
242.335	16984.1
242.407	16957.49
242.478	16924.14
242.55	16902.55
242.621	16865.25
242.693	16838.35
242.764	16807.56
242.836	16784.96
242.907	16763.56
242.979	16740.47
243.05	16715.8
243.122	16687.79
243.193	16656.42
243.264	16603.69
243.336	16579.64
243.407	16556.22
243.479	16544.8
243.55	16526.05
243.622	16506.24
243.693	16475.06
243.764	16476.21
243.836	16448.35
243.907	16423.48
243.978	16388.78
244.05	16361.5
244.121	16322.8
244.192	16303.62
244.264	16253.78
244.335	16223.66
244.407	16184.23
244.478	16162.88
244.549	16132.23
244.62	16092.46
244.692	16069.13
244.763	16055.01
244.834	16021.71
244.906	15987.44
244.977	15952.78
245.048	15937.65
245.119	15897.11
245.191	15858.12
245.262	15802.64
245.333	15779.99
245.405	15747.6
245.476	15729.23
245.547	15710.63
245.618	15685.95
245.689	15655.29
245.761	15637.46
245.832	15600.59
245.903	15580.24
245.974	15554.6
246.045	15520.48
246.117	15503.08
246.188	15455.4
246.259	15425.71
246.33	15396.79
246.401	15363.96
246.473	15318.12
246.544	15274.41
246.615	15260.28
246.686	15230.21
246.757	15217.29
246.828	15177.71
246.899	15162.67
246.97	15123.39
247.042	15083.96
247.113	15075.52
247.184	15067.09
247.255	15030.07
247.326	15005.19
247.397	14972.61
247.468	14940.75
247.539	14914.19
247.61	14870.66
247.681	14858.32
247.752	14836.29
247.823	14792.66
247.894	14768.42
247.965	14739.49
248.037	14712.93
248.108	14660.05
248.179	14634.31
248.25	14606.64
248.321	14587.79
248.392	14543.54
248.463	14538.87
248.534	14504.06
248.605	14475.09
248.675	14441.93
248.746	14419.22
248.817	14412.23
248.888	14390.4
248.959	14351.64
249.03	14332.89
249.101	14316.21
249.172	14279.77
249.243	14227.65
249.314	14219.12
249.385	14191.74
249.456	14174.34
249.527	14142.86
249.598	14133.17
249.669	14100.68
249.739	14074.84
249.81	14058.16
249.881	14023.07
249.952	13994.63
250.023	13968.84
250.094	13928.97
250.165	13893.63
250.235	13866.45
250.306	13821.08
250.377	13776.2
250.448	13749.26
250.519	13702.21
250.59	13683.31
250.66	13660.36
250.731	13653.71
250.802	13623.78
250.873	13599.29
250.944	13572.15
251.014	13538.3
251.085	13537.29
251.156	13524.04
251.227	13517.82
251.297	13504.85
251.368	13494.48
251.439	13477.95
251.51	13470.29
251.58	13432.83
251.651	13405.54
251.722	13394.84
251.792	13360.18
251.863	13339.69
251.934	13325.95
252.005	13330.29
252.075	13305.85
252.146	13288.74
252.217	13278.95
252.287	13274.28
252.358	13248.78
252.429	13247.96
252.499	13225.3
252.57	13193.19
252.641	13178.54
252.711	13141.32
252.782	13095.96
252.852	13084.2
252.923	13059.66
252.994	13033.82
253.064	13024.42
253.135	12995.64
253.205	12965.37
253.276	12964.46
253.347	12964.79
253.417	12934.95
253.488	12902.03
253.558	12878.55
253.629	12856.04
253.699	12837.58
253.77	12816.32
253.841	12797.37
253.911	12772.4
253.982	12747.82
254.052	12729.69
254.123	12707.86
254.193	12689.39
254.264	12716.49
254.334	12687.03
254.405	12652.04
254.475	12615.93
254.546	12595.25
254.616	12584.69
254.687	12568.98
254.757	12550.95
254.827	12524.92
254.898	12509.3
254.968	12497.54
255.039	12471.56
255.109	12459.22
255.18	12431.69
255.25	12385.08
255.321	12372.45
255.391	12337.26
255.461	12337.55
255.532	12294.79
255.602	12266.69
255.673	12231.55
255.743	12191.54
255.813	12148.45
255.884	12141.41
255.954	12137.75
256.024	12132.59
256.095	12109.6
256.165	12076.29
256.235	12053.15
256.306	12025.63
256.376	12023.66
256.446	12007.51
256.517	11990.78
256.587	11977.09
256.657	11956.17
256.728	11937.76
256.798	11913.23
256.868	11900.79
256.938	11873.51
257.009	11865.94
257.079	11855.63
257.149	11860.25
257.219	11816.3
257.29	11808.78
257.36	11768
257.43	11759.13
257.5	11718.79
257.571	11704.33
257.641	11696.47
257.711	11668.04
257.781	11652.85
257.852	11636.47
257.922	11600.65
257.992	11580.75
258.062	11562.53
258.132	11551.25
258.202	11533.32
258.273	11513.71
258.343	11504.02
258.413	11477.27
258.483	11461.61
258.553	11427.77
258.623	11397.22
258.693	11384.11
258.764	11383.72
258.834	11384.69
258.904	11360.39
258.974	11336.3
259.044	11309.79
259.114	11290.03
259.184	11280.83
259.254	11264.2
259.324	11222.32
259.394	11206.42
259.464	11211.77
259.535	11189.02
259.605	11166.13
259.675	11143.96
259.745	11134.66
259.815	11103.09
259.885	11078.66
259.955	11087.09
260.025	11065.36
260.095	11050.37
260.165	11043.34
260.235	11033.17
260.305	11007.73
260.375	10982.28
260.445	10992.69
260.515	10994.38
260.585	10993.6
260.655	10970.28
260.725	10962.86
260.795	10952.79
260.865	10961.99
260.934	10928.55
261.004	10920.69
261.074	10903.44
261.144	10902.29
261.214	10894.14
261.284	10878.96
261.354	10876.89
261.424	10845.9
261.494	10850.82
261.564	10836.99
261.634	10824.94
261.703	10784.32
261.773	10766.49
261.843	10757.1
261.913	10731.12
261.983	10694.7
262.053	10685.49
262.123	10672.96
262.192	10644.92
262.262	10641.26
262.332	10602.66
262.402	10600.49
262.472	10579.44
262.541	10542.49
262.611	10539.79
262.681	10508.56
262.751	10501.77
262.821	10483.03
262.89	10453.4
262.96	10440.58
263.03	10447.28
263.1	10436.53
263.169	10430.61
263.239	10427.57
263.309	10425.21
263.379	10417.36
263.448	10407.48
263.518	10388.79
263.588	10371.78
263.657	10375.34
263.727	10364.07
263.797	10352.56
263.867	10331.36
263.936	10310.35
264.006	10314.3
264.076	10292.19
264.145	10277.3
264.215	10260.54
264.285	10256.1
264.354	10228.5
264.424	10208.46
264.494	10171.27
264.563	10149.11
264.633	10153.68
264.702	10140.72
264.772	10111.87
264.842	10093.46
264.911	10087.73
264.981	10063.31
265.05	10053.14
265.12	10033.53
265.19	10027.51
265.259	10022.94
265.329	10016.77
265.398	9995.05
265.468	9999
265.537	9985.9
265.607	9984.69
265.676	9973.81
265.746	9963.4
265.815	9966
265.885	9947.12
265.955	9921.83
266.024	9907.29
266.094	9866.59
266.163	9865.53
266.232	9861.24
266.302	9848.57
266.371	9834.75
266.441	9822.51
266.51	9817.84
266.58	9800.65
266.649	9775.41
266.719	9770.3
266.788	9759.9
266.858	9771.7
266.927	9739.14
266.996	9731.24
267.066	9721.75
267.135	9698.1
267.205	9696.27
267.274	9681.92
267.343	9684.91
267.413	9680.96
267.482	9682.88
267.552	9691.84
267.621	9665.45
267.69	9644.06
267.76	9629.95
267.829	9619.45
267.898	9607.94
267.968	9583.72
268.037	9579.58
268.106	9573.8
268.176	9551.4
268.245	9544.71
268.314	9520.73
268.384	9525.4
268.453	9515.53
268.522	9501.03
268.592	9502.38
268.661	9480.75
268.73	9473.82
268.799	9456.43
268.869	9463.8
268.938	9428.22
269.007	9408.18
269.076	9395.28
269.146	9392.78
269.215	9389.93
269.284	9393.55
269.353	9379.73
269.422	9366.01
269.492	9345.3
269.561	9304.52
269.63	9299.75
269.699	9278.37
269.768	9278.61
269.838	9271.15
269.907	9260.65
269.976	9239.23
270.045	9212.55
270.114	9208.12
270.183	9195.6
270.253	9187.76
270.322	9154.49
270.391	9151.07
270.46	9154.87
270.529	9156.56
270.598	9149.19
270.667	9134.07
270.736	9115.15
270.806	9105.13
270.875	9109.18
270.944	9102.29
271.013	9129.83
271.082	9124.58
271.151	9114.33
271.22	9087.71
271.289	9069.27
271.358	9057.47
271.427	9047.94
271.496	9041.87
271.565	9025.17
271.634	9013.71
271.703	9014.24
271.772	9017.42
271.841	9007.55
271.91	8983.09
271.979	8976.21
272.048	8953.77
272.117	8954.98
272.186	8934.86
272.255	8936.11
272.324	8934.42
272.393	8925.23
272.462	8901.16
272.531	8888.74
272.6	8878.05
272.669	8881.56
272.738	8867.94
272.807	8863.27
272.876	8846.67
272.945	8872.86
273.013	8872.33
273.082	8875.6
273.151	8852.4
273.22	8849.41
273.289	8843.16
273.358	8853.02
273.427	8837.14
273.496	8832.37
273.564	8823.52
273.633	8829.44
273.702	8809.56
273.771	8797.23
273.84	8798.1
273.909	8801.9
273.977	8798.2
274.046	8788.28
274.115	8787.46
274.184	8776.35
274.253	8770.28
274.322	8778.13
274.39	8742.94
274.459	8733.12
274.528	8709.1
274.597	8703.14
274.665	8697.36
274.734	8700.87
274.803	8685.04
274.872	8675.51
274.94	8663.72
275.009	8722.27
275.078	8701.87
275.147	8703.36
275.215	8699.17
275.284	8699.65
275.353	8685.89
275.421	8660.33
275.49	8678.77
275.559	8671.16
275.627	8664.81
275.696	8656.68
275.765	8656.15
275.833	8646.67
275.902	8640.89
275.971	8650.52
276.039	8663.9
276.108	8663.61
276.177	8662.65
276.245	8652.54
276.314	8654.27
276.383	8661.06
276.451	8598.17
276.52	8607.07
276.588	8614.05
276.657	8618.24
276.725	8612.85
276.794	8612.56
276.863	8628.92
276.931	8604.9
277	8606.3
277.068	8611.3
277.137	8625.74
277.205	8621.75
277.274	8644.66
277.342	8661.55
277.411	8646.39
277.48	8629.6
277.548	8625.51
277.617	8627.24
277.685	8621.03
277.754	8621.61
277.822	8612.37
277.89	8617.42
277.959	8612.18
278.027	8591.72
278.096	8580.8
278.164	8606.99
278.233	8598.57
278.301	8585.72
278.37	8587.83
278.438	8576.24
278.507	8581.14
278.575	8556.26
278.643	8555.64
278.712	8529.7
278.78	8509.15
278.849	8518.58
278.917	8533.45
278.985	8525.03
279.054	8519.06
279.122	8535.13
279.191	8533.74
279.259	8524.93
279.327	8506.36
279.396	8515.35
279.464	8519.54
279.532	8525.08
279.601	8511.74
279.669	8509.09
279.737	8523.15
279.806	8528.58
279.874	8541.96
279.942	8543.5
280.011	8538.64
280.079	8541.82
280.147	8561.69
280.215	8564.39
280.284	8556.3
280.352	8542.97
280.42	8549.66
280.488	8543.31
280.557	8529.31
280.625	8531.18
280.693	8540.71
280.761	8545.86
280.83	8538.16
280.898	8549.47
280.966	8528.63
281.034	8499.47
281.102	8490.13
281.171	8482.05
281.239	8486.33
281.307	8471.03
281.375	8455.44
281.443	8479.84
281.512	8480.7
281.58	8487.63
281.648	8475.46
281.716	8475.36
281.784	8473.25
281.852	8469.4
281.92	8469.59
281.989	8485.42
282.057	8471.71
282.125	8517.39
282.193	8517.63
282.261	8516.81
282.329	8512.38
282.397	8517.82
282.465	8522.44
282.533	8540.96
282.601	8531.77
282.67	8510.4
282.738	8509.01
282.806	8520.08
282.874	8506.89
282.942	8508.72
283.01	8503.57
283.078	8514.3
283.146	8514.01
283.214	8522.34
283.282	8522.91
283.35	8538.41
283.418	8530.04
283.486	8532.3
283.554	8488.16
283.622	8488.54
283.69	8482.09
283.758	8474.15
283.826	8485.56
283.894	8495.42
283.962	8506.59
284.03	8519.63
284.098	8519.63
284.165	8511.83
284.233	8511.16
284.301	8506.78
284.369	8498.75
284.437	8486.04
284.505	8476.9
284.573	8489.6
284.641	8476.66
284.709	8480.36
284.777	8459.24
284.845	8469.78
284.912	8472.33
284.98	8475.07
285.048	8461.16
285.116	8472.71
285.184	8483.2
285.252	8477.91
285.319	8457.99
285.387	8448.6
285.455	8432.34
285.523	8440.42
285.591	8437.54
285.659	8440.09
285.726	8454.33
285.794	8437.68
285.862	8441.34
285.93	8437.35
285.997	8431.91
286.065	8428.25
286.133	8421.95
286.201	8422.48
286.269	8407.42
286.336	8400.87
286.404	8388.7
286.472	8403.23
286.539	8379.56
286.607	8362.43
286.675	8361.32
286.743	8373.97
286.81	8368.05
286.878	8385.28
286.946	8378.11
287.013	8381.05
287.081	8379.55
287.149	8359.97
287.216	8381.57
287.284	8373.15
287.352	8371.8
287.419	8364.78
287.487	8379.65
287.555	8382.49
287.622	8378.4
287.69	8382.73
287.758	8399.52
287.825	8395.96
287.893	8383.4
287.96	8387.2
288.028	8399.23
288.096	8402.7
288.163	8404.53
288.231	8396.3
288.298	8386.24
288.366	8397.45
288.433	8397.31
288.501	8387.11
288.569	8390.67
288.636	8377.63
288.704	8392.5
288.771	8404.33
288.839	8398.56
288.906	8393.17
288.974	8402.46
289.041	8402.51
289.109	8395.05
289.176	8397.26
289.244	8405.3
289.311	8424.83
289.379	8438.35
289.446	8438.84
289.514	8438.4
289.581	8434.75
289.649	8439.8
289.716	8442.11
289.783	8439.08
289.851	8455.34
289.918	8457.55
289.986	8469.29
290.053	8475.07
290.121	8466.26
290.188	8466.55
290.255	8498.07
290.323	8496.19
290.39	8491.48
290.458	8498.41
290.525	8507.45
290.592	8505.82
290.66	8513.8
290.727	8503.36
290.794	8511.49
290.862	8515.2
290.929	8518.52
290.996	8523.81
291.064	8530.79
291.131	8543.45
291.198	8555.09
291.266	8552.93
291.333	8556.01
291.4	8556.3
291.468	8574.97
291.535	8579.25
291.602	8590.32
291.669	8583.63
291.737	8586.37
291.804	8585.51
291.871	8597.92
291.938	8607.98
292.006	8633.98
292.073	8640.38
292.14	8652.65
292.207	8644.56
292.275	8644.37
292.342	8655.54
292.409	8676.96
292.476	8697.32
292.543	8691.3
292.611	8691.35
292.678	8710.79
292.745	8732.55
292.812	8745.64
292.879	8746.5
292.946	8752.52
293.014	8762.87
293.081	8769.7
293.148	8777.16
293.215	8795.31
293.282	8791.75
293.349	8805.27
293.416	8781.25
293.484	8800.03
293.551	8808.59
293.618	8828.52
293.685	8846.91
293.752	8837.18
293.819	8838.2
293.886	8827.7
293.953	8834.54
294.02	8848.45
294.087	8852.01
294.154	8847.92
294.221	8860.44
294.288	8860.82
294.356	8876.27
294.423	8879.3
294.49	8867.61
294.557	8882.96
294.624	8867.99
294.691	8886.62
294.758	8878.77
294.825	8887.39
294.892	8875.79
294.959	8880.51
295.026	8889.27
295.093	8888.4
295.16	8891.48
295.226	8892.06
295.293	8918.78
295.36	8926.82
295.427	8933.94
295.494	8945.74
295.561	8956.28
295.628	8981.22
295.695	8992.73
295.762	8994.56
295.829	9003.75
295.896	9023.06
295.963	9041.35
296.03	9060.13
296.096	9069.56
296.163	9087.13
296.23	9107.4
296.297	9121.7
296.364	9116.11
296.431	9119.53
296.498	9117.66
296.564	9144.08
296.631	9144.81
296.698	9126.94
296.765	9148.27
296.832	9139.94
296.899	9125.02
296.965	9140.67
297.032	9116.64
297.099	9134.69
297.166	9141.19
297.233	9132.19
297.299	9128.48
297.366	9118.95
297.433	9114.91
297.5	9117.51
297.566	9115.63
297.633	9107.88
297.7	9108.79
297.767	9113.89
297.833	9117.26
297.9	9122.32
297.967	9107.68
298.033	9124.05
298.1	9154.92
298.167	9146.01
298.234	9151.16
298.3	9164.93
298.367	9162.71
298.434	9171.72
298.5	9164.69
298.567	9165.07
298.634	9170.56
298.7	9186.31
298.767	9193.19
298.834	9206.09
298.9	9198.44
298.967	9189.72
299.033	9201.04
299.1	9219.05
299.167	9225.88
299.233	9224.29
299.3	9230.36
299.366	9248.13
299.433	9263.01
299.5	9237.15
299.566	9239.94
299.633	9259.73
299.699	9275.62
299.766	9269.27
299.832	9273.17
299.899	9279.91
299.965	9287.37
300.032	9284.97
300.099	9291.27
300.165	9296.76
300.232	9299.27
300.298	9310.05
300.365	9329.41
300.431	9331.96
300.498	9325.89
300.564	9331.43
300.631	9341.11
300.697	9361.77
300.763	9360.27
300.83	9356.47
300.896	9369.08
300.963	9380.78
301.029	9379.48
301.096	9376.98
301.162	9394.65
301.229	9392.53
301.295	9382.95
301.361	9391.91
301.428	9397.06
301.494	9384.39
301.561	9380.69
301.627	9382.28
301.693	9378.76
301.76	9380.74
301.826	9376.55
301.892	9387.14
301.959	9400.72
302.025	9400.43
302.092	9386.9
302.158	9393.35
302.224	9395.13
302.291	9394.12
302.357	9386.95
302.423	9386.85
302.49	9376.74
302.556	9383
302.622	9381.51
302.688	9391.23
302.755	9401.2
302.821	9414.73
302.887	9426.05
302.954	9425.28
303.02	9425.81
303.086	9437.41
303.152	9430.33
303.219	9432.02
303.285	9432.45
303.351	9435.01
303.417	9434.23
303.483	9434.72
303.55	9431.15
303.616	9431.63
303.682	9432.16
303.748	9428.31
303.815	9430.48
303.881	9441.12
303.947	9431.83
304.013	9440.83
304.079	9428.84
304.145	9404.19
304.212	9402.93
304.278	9396.72
304.344	9396.53
304.41	9388.39
304.476	9376.79
304.542	9373.85
304.608	9381.75
304.674	9368.02
304.741	9358.83
304.807	9359.74
304.873	9361.81
304.939	9373.08
305.005	9351.8
305.071	9347.37
305.137	9348.91
305.203	9333.16
305.269	9328.54
305.335	9337.06
305.401	9329.4
305.467	9334.03
305.533	9347.12
305.599	9351.07
305.666	9352.52
305.732	9355.89
305.798	9370.57
305.864	9398.55
305.93	9406.31
305.996	9395.81
306.062	9393.84
306.128	9399.04
306.194	9387.43
306.259	9390.56
306.325	9379.49
306.391	9393.93
306.457	9403.32
306.523	9403.27
306.589	9418.83
306.655	9417.43
306.721	9397.35
306.787	9383.05
306.853	9394.51
306.919	9379.73
306.985	9368.94
307.051	9366.15
307.117	9360.32
307.183	9354.06
307.248	9322.81
307.314	9328.01
307.38	9335.33
307.446	9343.66
307.512	9327.43
307.578	9334.99
307.644	9324.69
307.709	9326.08
307.775	9321.31
307.841	9311.64
307.907	9318.96
307.973	9308.22
308.039	9307.49
308.104	9318.91
308.17	9321.94
308.236	9309.13
308.302	9306.05
308.368	9297.67
308.433	9298.83
308.499	9295.36
308.565	9284.33
308.631	9287.37
308.696	9266.13
308.762	9254.43
308.828	9253.95
308.894	9239.07
308.959	9217.07
309.025	9209.47
309.091	9202.77
309.156	9196.08
309.222	9201.42
309.288	9183.32
309.354	9164.69
309.419	9163.1
309.485	9143.74
309.551	9145.57
309.616	9126.94
309.682	9130.65
309.748	9117.27
309.813	9111.68
309.879	9099.93
309.945	9091.08
310.01	9083.66
310.076	9081.59
310.141	9071.63
310.207	9052.61
310.273	9055.11
310.338	9063.2
310.404	9054.34
310.469	9039.08
310.535	9020.06
310.601	8998.97
310.666	9004.66
310.732	9013.42
310.797	9002.97
310.863	8992.04
310.928	8984.29
310.994	8991.51
311.059	8984.53
311.125	8987.85
311.191	8998.54
311.256	8988.63
311.322	8990.74
311.387	8971.25
311.453	9351.64
311.518	9329.16
311.584	9327.14
311.649	9330.75
311.715	9316.89
311.78	9314.05
311.846	9310.39
311.911	9321.94
311.976	9324.06
312.042	9307.5
312.107	9290.36
312.173	9281.22
312.238	9278.18
312.304	9277.9
312.369	9268.32
312.434	9255.61
312.5	9249.49
312.565	9216.28
312.631	9222.29
312.696	9210.84
312.761	9210.4
312.827	8820.05
312.892	8860.2
312.958	8861.64
313.023	8860.87
313.088	8858.51
313.154	8846.24
313.219	8836.18
313.284	8825.68
313.35	8821.4
313.415	8812.88
313.48	8809.66
313.546	8810.52
313.611	8817.5
313.676	8807.87
313.741	8801.81
313.807	8815.05
313.872	8816.78
313.937	8821.98
314.003	8830.35
314.068	8835.31
314.133	8841.76
314.198	8837.86
314.264	8814.99
314.329	8801.71
314.394	8794.73
314.459	8796.08
314.525	8816.92
314.59	8813.89
314.655	8801.37
314.72	8807.73
314.785	8812.63
314.851	8807.1
314.916	8789.77
314.981	8773.55
315.046	8757.19
315.111	8745.78
315.176	8730.09
315.242	8728.21
315.307	8727.25
315.372	8703.76
315.437	8693.9
315.502	8691.49
315.567	8696.69
315.632	8680.03
315.698	8679.94
315.763	8678.73
315.828	8670.94
315.893	8661.55
315.958	8659.43
316.023	8648.65
316.088	8626.32
316.153	8607.41
316.218	8598.17
316.283	8579.69
316.348	8563.72
316.413	8566.37
316.479	8549.04
316.544	8513.15
316.609	8484.28
316.674	8446.89
316.739	8413.75
316.804	8383.58
316.869	8346.82
316.934	8311.06
316.999	8280.03
317.064	8232.74
317.129	8187.13
317.194	8144.12
317.259	8095.43
317.324	8044.93
317.389	8001.84
317.454	7961.29
317.518	7925.17
317.583	7899.67
317.648	7876.44
317.713	7845.95
317.778	7785.16
317.843	7760.15
317.908	7725.58
317.973	7690.19
318.038	7662.01
318.103	7631.48
318.168	7596.91
318.233	7566.04
318.297	7515.52
318.362	7483.54
318.427	7447.45
318.492	7420.38
318.557	7379.53
318.622	7355.01
318.687	7333.29
318.751	7299.99
318.816	7271.39
318.881	7231.99
318.946	7174.6
319.011	7126.6
319.075	7086.47
319.14	7056.45
319.205	7009.65
319.27	6976.79
319.335	6929.23
319.399	6896.65
319.464	6866.25
319.529	6816.73
319.594	6782.57
319.658	6751.3
319.723	6709.47
319.788	6677.05
319.853	6624.46
319.917	6592.01
319.982	6537.12
320.047	6499.62
320.112	6473.83
320.176	6419.63
320.241	6388.86
320.306	6365.24
320.37	6328.86
320.435	6293.77
320.5	6264.3
320.564	6226.38
320.629	6186.6
320.694	6160.16
320.758	6111.93
320.823	6066.73
320.888	6039.15
320.952	5983.26
321.017	5946.22
321.082	5905.3
321.146	5875.17
321.211	5844.48
321.275	5807.26
321.34	5763.78
321.405	5716.59
321.469	5668.88
321.534	5635.32
321.598	5583.68
321.663	5552.08
321.727	5520.05
321.792	5473.37
321.857	5428.06
321.921	5391.26
321.986	5347.56
322.05	5286.9
322.115	5255.13
322.179	5210.86
322.244	5155.45
322.308	5126.27
322.373	5079.81
322.437	5040.24
322.502	5009.76
322.566	4962.92
322.631	4927.82
322.695	4890.67
322.76	4847.06
322.824	4810.96
322.889	4767.16
322.953	4725.15
323.018	4659.95
323.082	4595.11
323.146	4546.46
323.211	4495.17
323.275	4453.2
323.34	4411.73
323.404	4380.27
323.468	4328.98
323.533	4284.37
323.597	4243.22
323.662	4190.47
323.726	4155.51
323.79	4111.81
323.855	4047.72
323.919	4002.02
323.983	3954.7
324.048	3890.7
324.112	4034.66
324.177	3906.37
324.241	3702.04
324.305	3504.36
324.37	3308.98
324.434	3124.15
324.498	3082.14
324.562	3035.43
324.627	2974.01
324.691	2918.4
324.755	2854.71
324.82	2782.8
324.884	2713.16
324.948	2642.91
325.012	2552.02
325.077	2431
