Data from 20250702_urea_0.5M_MAYP1162681_08-15-00-268.txt Node
Date: Thu Jul 03 08:15:00 BST 2025
User: adleo
Spectrometer: MAYP116268
Trigger mode: 0
Integration Time (sec): 1.000000E0
Scans to average: 1
Electric dark correction enabled: true
Nonlinearity correction enabled: true
Boxcar width: 10
XAxis mode: Wavelengths
Number of Pixels in Spectrum: 2068
>>>>>Begin Spectral Data<<<<<
179.565	1169.02
179.642	1224.03
179.718	1271.03
179.795	1305.48
179.871	1340.99
179.948	1359.58
180.024	1380.57
180.101	1402.94
180.177	1416.91
180.254	1438.52
180.33	1460.26
180.407	1510.44
180.483	1604.03
180.56	1689.26
180.636	1774.01
180.712	1759.98
180.789	1770.72
180.865	1782.22
180.942	1788.68
181.018	1800.8
181.095	1811.83
181.171	1818.77
181.248	1817.44
181.324	1830.51
181.4	1841.21
181.477	1848.29
181.553	1860.6
181.63	1880.76
181.706	1895.4
181.782	1904.43
181.859	1904.43
181.935	1909.38
182.011	1906.86
182.088	1922.07
182.164	1943.57
182.24	1954.74
182.317	1966.53
182.393	1964.44
182.469	1981.46
182.546	1995.67
182.622	1998.57
182.698	1995.48
182.775	2006.8
182.851	2022.44
182.927	2014.31
183.003	2009.84
183.08	2005.66
183.156	2011.46
183.232	2006.04
183.308	1993.63
183.385	2001.66
183.461	2017.83
183.537	2016.69
183.613	2029.48
183.69	2020.83
183.766	2009.41
183.842	2014.12
183.918	2018.92
183.995	2031.86
184.071	2032.76
184.147	2028.53
184.223	2016.26
184.299	2030.39
184.375	2017.41
184.452	2023.93
184.528	2073.01
184.604	2084.38
184.68	2094.94
184.756	2105.5
184.832	2112.06
184.908	2117
184.985	2116.53
185.061	2099.84
185.137	2110.16
185.213	2099.93
185.289	2101.22
185.365	2094.27
185.441	2093.94
185.517	2105.41
185.593	2102.7
185.669	2100.46
185.745	2110.26
185.822	2129.56
185.898	2117.91
185.974	2128.13
186.05	2119.76
186.126	2086.27
186.202	2077.81
186.278	2075.95
186.354	2065.15
186.43	2072.86
186.506	2073.48
186.582	2071.1
186.658	2079.85
186.734	2060.97
186.81	2063.35
186.886	2067.73
186.962	2081.42
187.038	2077.76
187.114	2072.14
187.19	2081.85
187.266	2072.39
187.341	2071.05
187.417	2063.73
187.493	2065.06
187.569	2066.58
187.645	2061.4
187.721	2047.7
187.797	2055.36
187.873	2059.02
187.949	2053.93
188.025	2045.18
188.101	2046.18
188.176	2053.17
188.252	2047.46
188.328	2053.88
188.404	2053.16
188.48	2045.18
188.556	2038.14
188.632	2039.75
188.707	2038.94
188.783	2032.85
188.859	2028.34
188.935	2016.88
189.011	2022.87
189.086	2015.74
189.162	2009.46
189.238	2007.03
189.314	2007.75
189.39	2003.09
189.465	1996.05
189.541	2011.89
189.617	1996.24
189.693	1991.87
189.768	1994.77
189.844	2020.7
189.92	2015.56
189.996	2023.32
190.071	2035.87
190.147	2037.63
190.223	2045.24
190.298	2039.44
190.374	2029.59
190.45	2042.67
190.526	2052.56
190.601	2046.33
190.677	2049.42
190.753	2077.02
190.828	2079.4
190.904	2090.77
190.98	2104.42
191.055	2116.5
191.131	2109.03
191.207	2131.29
191.282	2141.18
191.358	2131.48
191.433	2117.49
191.509	2128.52
191.585	2125.66
191.66	2127.38
191.736	2132.37
191.811	2123.38
191.887	2136.75
191.963	2154.83
192.038	2160.49
192.114	2162.06
192.189	2168.29
192.265	2166.67
192.34	2143.92
192.416	2145.68
192.491	2143.4
192.567	2141.92
192.642	2141.64
192.718	2144.97
192.793	2131.79
192.869	2127.03
192.944	2126.75
193.02	2130.08
193.095	2134.12
193.171	2137.74
193.246	2134.74
193.322	2130.13
193.397	2130.7
193.473	2117.61
193.548	2102.25
193.624	2105.58
193.699	2102.29
193.775	2117.71
193.85	2119.23
193.925	2126.46
194.001	2124.56
194.076	2118.28
194.152	2110.53
194.227	2101.49
194.302	2088.7
194.378	2091.93
194.453	2089.6
194.529	2102.73
194.604	2091.17
194.679	2085.27
194.755	2067.25
194.83	2082.24
194.905	2080.86
194.981	2090.09
195.056	2083.63
195.131	2088.43
195.207	2087.86
195.282	2081.1
195.357	2062.79
195.433	2076.29
195.508	2065.69
195.583	2073.77
195.659	2088.04
195.734	2096.85
195.809	2099.46
195.884	2110.83
195.96	2113.63
196.035	2130.57
196.11	2126
196.185	2138.94
196.261	2143.7
196.336	2176.37
196.411	2161.19
196.486	2167.52
196.561	2161.95
196.637	2171.85
196.712	2191.83
196.787	2194.07
196.862	2209.29
196.937	2219.76
197.013	2224.9
197.088	2234.98
197.163	2255.83
197.238	2271.69
197.313	2270.36
197.388	2282.63
197.464	2309.86
197.539	2320
197.614	2311.91
197.689	2326.28
197.764	2339.76
197.839	2360.51
197.914	2352.89
197.989	2376.21
198.065	2388.64
198.14	2436.32
198.215	2461.07
198.29	2471.55
198.365	2484.07
198.44	2493.88
198.515	2520.07
198.59	2534.5
198.665	2559.73
198.74	2567.21
198.815	2565.45
198.89	2589.4
198.965	2618.08
199.04	2613.03
199.115	2627.17
199.19	2667.8
199.265	2666.75
199.34	2679.37
199.415	2709.4
199.49	2734.45
199.565	2743.84
199.64	2766.7
199.715	2764.27
199.79	2773.75
199.865	2780.24
199.94	2780.09
200.015	2811.4
200.09	2814.6
200.165	2822.94
200.24	2830.42
200.315	2874.21
200.39	2891.18
200.464	2896.37
200.539	2900.33
200.614	2915.53
200.689	2938.74
200.764	2948.23
200.839	2970.29
200.914	2971.91
200.989	2963.27
201.063	2975.19
201.138	2957.76
201.213	2959.86
201.288	2942.51
201.363	2946.32
201.438	2944.75
201.512	2960.85
201.587	2946.79
201.662	2951.93
201.737	2962.99
201.812	2969.24
201.886	2929.78
201.961	2939.61
202.036	2926.08
202.111	2922.5
202.186	2895.97
202.26	2877.9
202.335	2854.4
202.41	2844.87
202.485	2830.01
202.559	2809.28
202.634	2782.73
202.709	2789.97
202.784	2767.87
202.858	2765.53
202.933	2745.04
203.008	2737.94
203.082	2720.12
203.157	2718.36
203.232	2675.03
203.306	2656.25
203.381	2626.52
203.456	2607.13
203.53	2585.15
203.605	2569.96
203.68	2546.14
203.754	2541.05
203.829	2526.04
203.904	2506.38
203.978	2496.38
204.053	2501.62
204.127	2490.38
204.202	2489.67
204.277	2476.76
204.351	2472.43
204.426	2466.29
204.5	2458.34
204.575	2426.02
204.65	2435.26
204.724	2424.2
204.799	2432.34
204.873	2423.86
204.948	2423.05
205.022	2410.96
205.097	2403.49
205.171	2413.01
205.246	2420.86
205.32	2418.15
205.395	2418.77
205.469	2409.21
205.544	2415.49
205.618	2397.64
205.693	2409.78
205.767	2396.41
205.842	2416.69
205.916	2409.13
205.991	2400.08
206.065	2407.13
206.14	2422.25
206.214	2414.63
206.289	2406.59
206.363	2422.44
206.438	2428.77
206.512	2435.53
206.586	2454.86
206.661	2461.96
206.735	2442.92
206.81	2445.78
206.884	2460.01
206.958	2450.02
207.033	2466.39
207.107	2475.01
207.181	2509.69
207.256	2504.21
207.33	2523.87
207.405	2534.36
207.479	2555.78
207.553	2564.21
207.628	2551.17
207.702	2565.4
207.776	2563.64
207.851	2571.64
207.925	2587.03
207.999	2586.75
208.073	2585.79
208.148	2592.84
208.222	2584.75
208.296	2623.41
208.371	2639.76
208.445	2657.24
208.519	2690.48
208.593	2710.2
208.668	2712.4
208.742	2719.17
208.816	2726.03
208.89	2747.28
208.965	2752.24
209.039	2767.3
209.113	2797.23
209.187	2826.33
209.261	2832.66
209.336	2867.22
209.41	2901.55
209.484	2916.19
209.558	2952.9
209.632	2985.5
209.707	3010.86
209.781	3050.44
209.855	3081.21
209.929	3119.63
210.003	3143.95
210.077	3167.66
210.151	3241.86
210.226	3299.23
210.3	3351.81
210.374	3404.33
210.448	3440.08
210.522	3480.51
210.596	3528.11
210.67	3565.97
210.744	3647.64
210.818	3718.29
210.892	3773.46
210.966	3803.12
211.041	3859.68
211.115	3896.75
211.189	3962.3
211.263	4024.75
211.337	4077.7
211.411	4142.59
211.485	4182.9
211.559	4247.52
211.633	4296.74
211.707	4316.75
211.781	4377.38
211.855	4392.12
211.929	4440.27
212.003	4477.13
212.077	4542.74
212.151	4605.63
212.225	4676.85
212.299	4724.7
212.373	4772.28
212.447	4825.43
212.52	4918.9
212.594	4984.47
212.668	5059.61
212.742	5106.74
212.816	5163.94
212.89	5224.44
212.964	5284.89
213.038	5356.6
213.112	5437.52
213.186	5521.81
213.26	5568.68
213.333	5592.41
213.407	5674.31
213.481	5748.18
213.555	5828.18
213.629	5887.42
213.703	5953.44
213.777	6023.79
213.85	6079.55
213.924	6186.1
213.998	6261.22
214.072	6330.13
214.146	6388.69
214.219	6458.4
214.293	6529.35
214.367	6605.55
214.441	6688.09
214.515	6751.79
214.588	6806.11
214.662	6847.42
214.736	6900.49
214.81	6983.28
214.883	7065.93
214.957	7125.11
215.031	7183.96
215.105	7236.03
215.178	7296
215.252	7354.49
215.326	7399.73
215.4	7445.28
215.473	7464.71
215.547	7517.26
215.621	7567.95
215.694	7640.71
215.768	7685.18
215.842	7742.21
215.915	7802.19
215.989	7842.83
216.063	7902.48
216.136	7973.77
216.21	8041.4
216.284	8120.1
216.357	8184.61
216.431	8247.3
216.504	8327.07
216.578	8420.66
216.652	8501.68
216.725	8574.44
216.799	8654.05
216.873	8723.78
216.946	8803.91
217.02	8870.8
217.093	8935.11
217.167	8984.35
217.24	9036.97
217.314	9106
217.387	9167.62
217.461	9224.29
217.535	9310.18
217.608	9362.04
217.682	9414.67
217.755	9487.05
217.829	9538.68
217.902	9602.73
217.976	9671.74
218.049	9725.39
218.123	9771.49
218.196	9840.85
218.27	9894.65
218.343	9936.85
218.417	10006.6
218.49	10068.64
218.563	10140.18
218.637	10209.5
218.71	10295.84
218.784	10364.4
218.857	10435.22
218.931	10501.89
219.004	10564.57
219.077	10628.08
219.151	10696.17
219.224	10757.74
219.298	10817.88
219.371	10900.86
219.444	10951.26
219.518	11012.75
219.591	11078
219.665	11169.96
219.738	11226.49
219.811	11287.3
219.885	11359.64
219.958	11425.33
220.031	11484.85
220.105	11555.6
220.178	11613.87
220.251	11666.65
220.325	11737.99
220.398	11801.9
220.471	11875.88
220.544	11948.23
220.618	12004.15
220.691	12066.47
220.764	12141.23
220.838	12207.46
220.911	12262.32
220.984	12350.57
221.057	12421.29
221.131	12486.36
221.204	12514.03
221.277	12597.43
221.35	12686.51
221.424	12743
221.497	12803.26
221.57	12869.97
221.643	12933.12
221.716	13010.59
221.79	13071.72
221.863	13123.2
221.936	13184.04
222.009	13238.17
222.082	13296.65
222.155	13348.95
222.229	13424.34
222.302	13480.55
222.375	13535.7
222.448	13592.73
222.521	13649.37
222.594	13701.92
222.667	13742.65
222.74	13812.74
222.814	13860.08
222.887	13911.08
222.96	13981.61
223.033	14041.14
223.106	14099.09
223.179	14158.43
223.252	14209
223.325	14256.77
223.398	14316.4
223.471	14366.77
223.544	14417.34
223.617	14469.74
223.69	14521.56
223.763	14560.61
223.837	14614.89
223.91	14671.72
223.983	14707.29
224.056	14740.8
224.129	14787.51
224.202	14851.09
224.275	14888.35
224.348	14921.85
224.42	14947.64
224.493	14974.92
224.566	15009.34
224.639	15055.57
224.712	15098.08
224.785	15137.61
224.858	15175.35
224.931	15209.33
225.004	15238.54
225.077	15287.23
225.15	15300.44
225.223	15343.62
225.296	15406.57
225.369	15432.22
225.442	15460.66
225.514	15506.88
225.587	15551.03
225.66	15598.56
225.733	15636.16
225.806	15689.13
225.879	15733.62
225.952	15769.19
226.025	15820.81
226.097	15885.93
226.17	15915.33
226.243	15929.16
226.316	15960.59
226.389	16000.64
226.461	16046.24
226.534	16100.75
226.607	16133.33
226.68	16203.75
226.753	16245.78
226.825	16257.3
226.898	16314.56
226.971	16360.63
227.044	16401.55
227.117	16442.81
227.189	16479.58
227.262	16527.88
227.335	16560.99
227.407	16594.63
227.48	16642.87
227.553	16681
227.626	16703.5
227.698	16740.08
227.771	16776.52
227.844	16805.44
227.916	16839.61
227.989	16864.19
228.062	16893.06
228.134	16946.02
228.207	16968.58
228.28	16985.83
228.352	17022.22
228.425	17049.06
228.498	17080.15
228.57	17096.15
228.643	17137.35
228.716	17162.75
228.788	17185.74
228.861	17211.76
228.934	17250.27
229.006	17274.32
229.079	17290.56
229.151	17307.48
229.224	17324.92
229.296	17367.28
229.369	17420.34
229.442	17466.32
229.514	17486.66
229.587	17527.43
229.659	17537.69
229.732	17575.14
229.804	17619.09
229.877	17672.05
229.949	17709.74
230.022	17754.03
230.094	17783.13
230.167	17808.1
230.239	17830.75
230.312	17857.4
230.384	17904.96
230.457	17928.87
230.529	17955.47
230.602	17992.72
230.674	18023.08
230.747	18068.52
230.819	18103.99
230.892	18096.86
230.964	18122.21
231.037	18148.18
231.109	18165.39
231.181	18197
231.254	18207.46
231.326	18221.63
231.399	18239.07
231.471	18243.75
231.544	18241.34
231.616	18276.61
231.688	18295.07
231.761	18310.59
231.833	18318.59
231.905	18305.19
231.978	18322.97
232.05	18328.18
232.122	18345.38
232.195	18360.22
232.267	18387.88
232.339	18393.52
232.412	18420.22
232.484	18435.83
232.556	18439.35
232.629	18470.96
232.701	18488.79
232.773	18499.35
232.846	18504.65
232.918	18509.03
232.99	18519.83
233.062	18547.15
233.135	18559.05
233.207	18557.08
233.279	18573.46
233.351	18594.76
233.424	18610.38
233.496	18609.61
233.568	18649.84
233.64	18641.89
233.713	18646.33
233.785	18652.3
233.857	18668.54
233.929	18663.43
234.001	18675.72
234.074	18704.49
234.146	18688.35
234.218	18692.01
234.29	18691.58
234.362	18694.56
234.434	18672.45
234.507	18673.75
234.579	18654.52
234.651	18648.4
234.723	18662.9
234.795	18662.71
234.867	18672.25
234.939	18676.69
235.012	18681.55
235.084	18672.88
235.156	18674.47
235.228	18671.29
235.3	18653.84
235.372	18645.07
235.444	18659.24
235.516	18635.29
235.588	18638.18
235.66	18631.92
235.732	18613.99
235.804	18664.69
235.876	18670.86
235.948	18693.22
236.02	18687.58
236.092	18679.96
236.164	18677.26
236.236	18651.68
236.308	18646.23
236.38	18630.71
236.452	18619.39
236.524	18613.37
236.596	18621.12
236.668	18631.44
236.74	18618.67
236.812	18619.44
236.884	18616.83
236.956	18605.85
237.028	18583.97
237.1	18548.45
237.172	18557.46
237.244	18559.58
237.316	18518.91
237.388	18499.97
237.46	18472.26
237.532	18473.57
237.604	18455.93
237.675	18462.29
237.747	18465.28
237.819	18438.92
237.891	18418.34
237.963	18392.99
238.035	18368.56
238.107	18324.32
238.178	18304.22
238.25	18287.07
238.322	18283.65
238.394	18258.25
238.466	18233.24
238.538	18228.76
238.609	18228.61
238.681	18188.04
238.753	18166.74
238.825	18146.93
238.897	18129.63
238.968	18137.92
239.04	18111.9
239.112	18116.43
239.184	18072.19
239.255	18042.26
239.327	18033.35
239.399	18021.11
239.471	18018.65
239.542	18008.72
239.614	18009.49
239.686	17973.35
239.758	17961.73
239.829	17925.93
239.901	17900.15
239.973	17885.16
240.044	17863.62
240.116	17838.51
240.188	17814.56
240.259	17784.49
240.331	17761.55
240.403	17746.9
240.474	17704.1
240.546	17671.04
240.618	17626.95
240.689	17601.69
240.761	17588.25
240.833	17574.18
240.904	17546.18
240.976	17510.51
241.048	17485.55
241.119	17454.18
241.191	17435.53
241.262	17429.31
241.334	17403.48
241.405	17383.82
241.477	17350.56
241.549	17326.47
241.62	17306.42
241.692	17294.13
241.763	17285.21
241.835	17253.12
241.906	17222.95
241.978	17171.81
242.049	17154.99
242.121	17143.23
242.192	17135.14
242.264	17092.48
242.335	17049.11
242.407	17028.92
242.478	17002.6
242.55	16976.38
242.621	16941.68
242.693	16907.51
242.764	16869.68
242.836	16845.15
242.907	16826.07
242.979	16803.61
243.05	16781.2
243.122	16764.42
243.193	16725.58
243.264	16677.09
243.336	16646.39
243.407	16627.5
243.479	16637.04
243.55	16613.33
243.622	16596.13
243.693	16561.62
243.764	16555.83
243.836	16519.88
243.907	16487.39
243.978	16454.04
244.05	16435.58
244.121	16393.07
244.192	16378.03
244.264	16338.94
244.335	16306.36
244.407	16252.86
244.478	16232.72
244.549	16197.24
244.62	16142.25
244.692	16115.98
244.763	16094.82
244.834	16064.31
244.906	16028.84
244.977	15987.58
245.048	15978.38
245.119	15932.59
245.191	15896.24
245.262	15841.59
245.333	15832.52
245.405	15798.69
245.476	15777.48
245.547	15750.73
245.618	15732.08
245.689	15704.02
245.761	15680.02
245.832	15648.35
245.903	15632.74
245.974	15600.73
246.045	15570.51
246.117	15560.43
246.188	15519.85
246.259	15475.31
246.33	15442.24
246.401	15407.59
246.473	15371.72
246.544	15322.85
246.615	15299.52
246.686	15270.45
246.757	15251.94
246.828	15205.57
246.899	15199.84
246.97	15155.06
247.042	15117.99
247.113	15096.44
247.184	15086.9
247.255	15048
247.326	15023.85
247.397	14988.56
247.468	14957.14
247.539	14923.25
247.61	14884.69
247.681	14868.68
247.752	14864.97
247.823	14823.71
247.894	14803.36
247.965	14762.54
248.037	14732.17
248.108	14701.36
248.179	14667.04
248.25	14639.95
248.321	14619.56
248.392	14572.51
248.463	14565.77
248.534	14530.05
248.605	14509.46
248.675	14475.77
248.746	14461.11
248.817	14438.99
248.888	14425.97
248.959	14383.55
249.03	14365.57
249.101	14335.92
249.172	14301.89
249.243	14244.48
249.314	14242.02
249.385	14215.46
249.456	14194.54
249.527	14170.53
249.598	14144.84
249.669	14118.23
249.739	14091.28
249.81	14075.66
249.881	14039.36
249.952	14017.19
250.023	13995.16
250.094	13953.51
250.165	13914.03
250.235	13885.87
250.306	13860.47
250.377	13818.82
250.448	13805.61
250.519	13766.42
250.59	13758.17
250.66	13735.81
250.731	13726.46
250.802	13693.72
250.873	13670.54
250.944	13652.8
251.014	13623.68
251.085	13617.27
251.156	13605.22
251.227	13601.02
251.297	13589.64
251.368	13579.67
251.439	13559.66
251.51	13549.73
251.58	13514.44
251.651	13485.52
251.722	13465.71
251.792	13422.99
251.863	13398.99
251.934	13385.25
252.005	13384.96
252.075	13355.55
252.146	13346.01
252.217	13338.05
252.287	13320.12
252.358	13294.43
252.429	13288.93
252.499	13253.93
252.57	13235.66
252.641	13214.12
252.711	13182.44
252.782	13141.61
252.852	13133.61
252.923	13106.52
252.994	13083.86
253.064	13079.52
253.135	13049.15
253.205	13021.77
253.276	13014.88
253.347	13005.77
253.417	12969.9
253.488	12939.68
253.558	12917.36
253.629	12886.99
253.699	12870.5
253.77	12857.68
253.841	12833.67
253.911	12807.06
253.982	12796.89
254.052	12779.01
254.123	12757.85
254.193	12740.93
254.264	12758.71
254.334	12723.86
254.405	12694.99
254.475	12652.18
254.546	12629.81
254.616	12624.66
254.687	12604.02
254.757	12587.59
254.827	12560.98
254.898	12547.96
254.968	12537.26
255.039	12505.49
255.109	12495.18
255.18	12458.98
255.25	12416.32
255.321	12401.04
255.391	12364.11
255.461	12355.72
255.532	12302.12
255.602	12278.74
255.673	12229.91
255.743	12192.89
255.813	12150.43
255.884	12136.16
255.954	12136.98
256.024	12134.91
256.095	12116.25
256.165	12087.72
256.235	12081.74
256.306	12052.58
256.376	12041.92
256.446	12027.08
256.517	12011.22
256.587	12003.46
256.657	11987.07
256.728	11974.2
256.798	11956.22
256.868	11941.23
256.938	11913.47
257.009	11907.49
257.079	11895.54
257.149	11907.59
257.219	11861.03
257.29	11849.65
257.36	11816.78
257.43	11793.5
257.5	11746.65
257.571	11721.49
257.641	11710.6
257.711	11672.81
257.781	11670.3
257.852	11653.62
257.922	11617.76
257.992	11601.04
258.062	11567.97
258.132	11562.29
258.202	11534.77
258.273	11520.89
258.343	11514.81
258.413	11490.62
258.483	11471.63
258.553	11443.29
258.623	11412.59
258.693	11414.28
258.764	11414.28
258.834	11403.72
258.904	11398.03
258.974	11374.47
259.044	11352.11
259.114	11334.03
259.184	11314.9
259.254	11292.01
259.324	11254.71
259.394	11239.24
259.464	11240.73
259.535	11224.54
259.605	11197.07
259.675	11173.98
259.745	11163.53
259.815	11130.51
259.885	11104.11
259.955	11114.9
260.025	11094.95
260.095	11079.48
260.165	11061.84
260.235	11059.34
260.305	11042.13
260.375	11002.23
260.445	11011.87
260.515	11015.72
260.585	11014.23
260.655	11000.06
260.725	10991.77
260.795	10984.45
260.865	10982.47
260.934	10948.07
261.004	10932.26
261.074	10920.36
261.144	10924.5
261.214	10912.02
261.284	10898
261.354	10901.47
261.424	10876.5
261.494	10881.9
261.564	10871.54
261.634	10860.94
261.703	10813.76
261.773	10804.85
261.843	10797.23
261.913	10778.06
261.983	10743.7
262.053	10733
262.123	10712.86
262.192	10688.58
262.262	10682.07
262.332	10653.54
262.402	10646.61
262.472	10634.99
262.541	10591.3
262.611	10588.55
262.681	10563.64
262.751	10559.88
262.821	10536.08
262.89	10508.08
262.96	10492.61
263.03	10493.92
263.1	10479.56
263.169	10477.29
263.239	10469.87
263.309	10474.98
263.379	10462.55
263.448	10448.43
263.518	10437.74
263.588	10425.11
263.657	10418.13
263.727	10415.24
263.797	10399.15
263.867	10377.13
263.936	10350.92
264.006	10352.32
264.076	10329.05
264.145	10305.34
264.215	10284.39
264.285	10280.25
264.354	10249.7
264.424	10224.65
264.494	10189.53
264.563	10166.74
264.633	10170.79
264.702	10155.8
264.772	10123.57
264.842	10105.8
264.911	10099.63
264.981	10072.22
265.05	10059.98
265.12	10045.87
265.19	10027.22
265.259	10018.65
265.329	10016.48
265.398	10002.95
265.468	10015.33
265.537	9998.85
265.607	9993.89
265.676	9989.6
265.746	9978.24
265.815	9976.55
265.885	9960.46
265.955	9942.11
266.024	9920.24
266.094	9878
266.163	9874.53
266.232	9878.82
266.302	9862.54
266.371	9854.06
266.441	9835.85
266.51	9831.57
266.58	9814.47
266.649	9796.98
266.719	9801.17
266.788	9791.97
266.858	9799.3
266.927	9764.47
266.996	9754.4
267.066	9747.66
267.135	9720.16
267.205	9714.04
267.274	9702.29
267.343	9710.34
267.413	9698.88
267.482	9704.99
267.552	9710.96
267.621	9684.28
267.69	9651.87
267.76	9639.01
267.829	9625.76
267.898	9615.12
267.968	9593.06
268.037	9590.03
268.106	9580.16
268.176	9555.11
268.245	9545.24
268.314	9527.27
268.384	9526.74
268.453	9514.61
268.522	9500.93
268.592	9505.22
268.661	9480.27
268.73	9474.01
268.799	9448.2
268.869	9457.59
268.938	9425.86
269.007	9406.35
269.076	9398.26
269.146	9396.24
269.215	9390.56
269.284	9396.77
269.353	9380.4
269.422	9359.7
269.492	9343.95
269.561	9307.65
269.63	9297.35
269.699	9278.56
269.768	9271.87
269.838	9265.95
269.907	9260.6
269.976	9240.81
270.045	9205.24
270.114	9203.99
270.183	9185.83
270.253	9178.27
270.322	9149.43
270.391	9144.62
270.46	9149.19
270.529	9148.37
270.598	9138.07
270.667	9130.51
270.736	9108.6
270.806	9102.82
270.875	9116.93
270.944	9102.05
271.013	9126.99
271.082	9121.84
271.151	9110.48
271.22	9077.98
271.289	9067.87
271.358	9059.16
271.427	9056.56
271.496	9054.2
271.565	9044.33
271.634	9036.63
271.703	9060.75
271.772	9055.94
271.841	9048.09
271.91	9025.13
271.979	9014.44
272.048	9001.73
272.117	8997.45
272.186	8973.67
272.255	8978
272.324	8970.44
272.393	8969.77
272.462	8948.24
272.531	8943.91
272.6	8939.48
272.669	8947.76
272.738	8928.94
272.807	8920.47
272.876	8894.48
272.945	8922.4
273.013	8922.2
273.082	8927.5
273.151	8880.99
273.22	8877.91
273.289	8867.32
273.358	8879.12
273.427	8865.06
273.496	8861.5
273.564	8856.2
273.633	8859.43
273.702	8839.26
273.771	8828.48
273.84	8819.57
273.909	8822.99
273.977	8817.45
274.046	8806
274.115	8812.11
274.184	8796.23
274.253	8786.65
274.322	8798.44
274.39	8767.73
274.459	8757.14
274.528	8733.07
274.597	8728.74
274.665	8725.42
274.734	8730.81
274.803	8717.43
274.872	8718.97
274.94	8704.82
275.009	8754.03
275.078	8743.11
275.147	8739.89
275.215	8737.38
275.284	8743.16
275.353	8730.16
275.421	8705.33
275.49	8723.96
275.559	8708.65
275.627	8702.3
275.696	8696.33
275.765	8694.89
275.833	8685.5
275.902	8678.72
275.971	8688.44
276.039	8701.72
276.108	8704.08
276.177	8704.85
276.245	8692.96
276.314	8684.44
276.383	8691.47
276.451	8630.85
276.52	8639.37
276.588	8651.3
276.657	8651.16
276.725	8643.75
276.794	8641.49
276.863	8651.45
276.931	8625.02
277	8627.38
277.068	8643.69
277.137	8661.16
277.205	8663.57
277.274	8680.08
277.342	8685.13
277.411	8666.03
277.48	8652.55
277.548	8647.02
277.617	8641.63
277.685	8638.45
277.754	8645.04
277.822	8634.98
277.89	8650.63
277.959	8641.53
278.027	8621.13
278.096	8609.29
278.164	8632.34
278.233	8627.92
278.301	8623.54
278.37	8632.01
278.438	8625.41
278.507	8624.4
278.575	8595.86
278.643	8588.31
278.712	8569.16
278.78	8554.19
278.849	8563.52
278.917	8571.46
278.985	8563.33
279.054	8568.82
279.122	8572.52
279.191	8565.88
279.259	8558.52
279.327	8532.48
279.396	8543.55
279.464	8544.22
279.532	8547.64
279.601	8538.69
279.669	8533.1
279.737	8536.47
279.806	8537
279.874	8542.1
279.942	8539.79
280.011	8538.25
280.079	8542.63
280.147	8562.75
280.215	8568.76
280.284	8566.74
280.352	8556.93
280.42	8563.13
280.488	8554.09
280.557	8554.81
280.625	8555.05
280.693	8561.64
280.761	8570.88
280.83	8554.52
280.898	8562.79
280.966	8547.2
281.034	8516.65
281.102	8502.84
281.171	8501.3
281.239	8512.13
281.307	8505.2
281.375	8492.64
281.443	8511.84
281.512	8513.14
281.58	8512.08
281.648	8498.94
281.716	8496.97
281.784	8492.49
281.852	8488.02
281.92	8486.09
281.989	8490.62
282.057	8474.98
282.125	8516.47
282.193	8513.82
282.261	8513.78
282.329	8510.6
282.397	8515.8
282.465	8521.62
282.533	8537.01
282.601	8525.95
282.67	8501.5
282.738	8490.24
282.806	8496.98
282.874	8489.9
282.942	8492.93
283.01	8491.92
283.078	8502.7
283.146	8500.82
283.214	8509.58
283.282	8508.09
283.35	8522.1
283.418	8517.14
283.486	8522.82
283.554	8479.49
283.622	8472.66
283.69	8468.96
283.758	8458.51
283.826	8461.4
283.894	8471.31
283.962	8493.79
284.03	8504.43
284.098	8503.42
284.165	8501.73
284.233	8506.74
284.301	8503.18
284.369	8487.87
284.437	8477
284.505	8468.24
284.573	8483.11
284.641	8471.61
284.709	8478.1
284.777	8454.76
284.845	8459.91
284.912	8465.21
284.98	8472.95
285.048	8473.1
285.116	8479.5
285.184	8494.85
285.252	8496.63
285.319	8482.58
285.387	8469.05
285.455	8456.97
285.523	8463.61
285.591	8467.17
285.659	8465.3
285.726	8472.47
285.794	8461.4
285.862	8460.73
285.93	8460.34
285.997	8454.76
286.065	8451.3
286.133	8445.62
286.201	8449.66
286.269	8438.01
286.336	8428.68
286.404	8421.46
286.472	8424.64
286.539	8402.03
286.607	8388.6
286.675	8393.6
286.743	8403.85
286.81	8404.72
286.878	8417.09
286.946	8407.27
287.013	8400.39
287.081	8398.32
287.149	8385.62
287.216	8401.3
287.284	8394.23
287.352	8396.35
287.419	8386.82
287.487	8401.45
287.555	8404.72
287.622	8403.32
287.69	8412.76
287.758	8425.75
287.825	8422.33
287.893	8412.23
287.96	8424.93
288.028	8438.45
288.096	8433.35
288.163	8434.31
288.231	8417.13
288.298	8413.04
288.366	8429.84
288.433	8427.57
288.501	8424.35
288.569	8430.51
288.636	8430.75
288.704	8441.67
288.771	8444.37
288.839	8442.64
288.906	8435.56
288.974	8444.27
289.041	8439.99
289.109	8427.29
289.176	8433.45
289.244	8439.27
289.311	8458.52
289.379	8467.52
289.446	8467.8
289.514	8466.94
289.581	8469.58
289.649	8474.01
289.716	8475.74
289.783	8466.02
289.851	8491.91
289.918	8489.17
289.986	8498.89
290.053	8503.12
290.121	8504.47
290.188	8507.45
290.255	8530.46
290.323	8525.45
290.39	8518.72
290.458	8521.07
290.525	8529.2
290.592	8522.56
290.66	8521.99
290.727	8515.68
290.794	8529.64
290.862	8528.58
290.929	8539.5
290.996	8533.15
291.064	8541.24
291.131	8558.75
291.198	8568.52
291.266	8558.47
291.333	8563.28
291.4	8563.42
291.468	8576.22
291.535	8568.33
291.602	8576.42
291.669	8567.75
291.737	8578.63
291.804	8577.47
291.871	8599.85
291.938	8611.74
292.006	8644.95
292.073	8657.95
292.14	8667.96
292.207	8660.74
292.275	8660.83
292.342	8670.61
292.409	8702.71
292.476	8723.22
292.543	8715.37
292.611	8713.25
292.678	8738.76
292.745	8765.81
292.812	8778.28
292.879	8775.87
292.946	8786.17
293.014	8800.22
293.081	8813.99
293.148	8819.33
293.215	8832.47
293.282	8820.92
293.349	8828.38
293.416	8802.91
293.484	8818.85
293.551	8818.13
293.618	8833.72
293.685	8856.68
293.752	8847.92
293.819	8841.95
293.886	8828.23
293.953	8830.4
294.02	8841.71
294.087	8840.75
294.154	8831.94
294.221	8845.8
294.288	8846.38
294.356	8863.66
294.423	8870.59
294.49	8859.67
294.557	8875.89
294.624	8873.67
294.691	8899.09
294.758	8904.53
294.825	8914.2
294.892	8903.71
294.959	8908.52
295.026	8916.51
295.093	8909.68
295.16	8914.35
295.226	8915.79
295.293	8945.83
295.36	8955.07
295.427	8967.3
295.494	8978.42
295.561	8987.66
295.628	9014.01
295.695	9029.65
295.762	9031.92
295.829	9041.3
295.896	9065.23
295.963	9070.52
296.03	9077.65
296.096	9081.98
296.163	9093.06
296.23	9107.21
296.297	9121.36
296.364	9128.15
296.431	9136.67
296.498	9139.03
296.564	9159.64
296.631	9156.31
296.698	9146.2
296.765	9158.91
296.832	9159.39
296.899	9146.97
296.965	9161.32
297.032	9136.62
297.099	9150.72
297.166	9156.65
297.233	9147.88
297.299	9135.41
297.366	9137.19
297.433	9145.14
297.5	9155.01
297.566	9154.05
297.633	9150.77
297.7	9151.45
297.767	9144.23
297.833	9146.01
297.9	9145.86
297.967	9129.78
298.033	9140.13
298.1	9165.85
298.167	9156.41
298.234	9156.41
298.3	9171.34
298.367	9169.31
298.434	9172.88
298.5	9165.08
298.567	9161.66
298.634	9162.33
298.7	9185.25
298.767	9187.42
298.834	9196.61
298.9	9192.04
298.967	9186.89
299.033	9201.04
299.1	9219.77
299.167	9233.93
299.233	9230.75
299.3	9239.03
299.366	9259.01
299.433	9280.97
299.5	9256.41
299.566	9263.15
299.633	9284.77
299.699	9295.65
299.766	9293.53
299.832	9302.73
299.899	9311.88
299.965	9330.27
300.032	9329.46
300.099	9336.15
300.165	9346.12
300.232	9343.47
300.298	9338.99
300.365	9351.17
300.431	9354.78
300.498	9343.71
300.564	9358.97
300.631	9370.19
300.697	9389.65
300.763	9383.92
300.83	9374.48
300.896	9384.01
300.963	9396
301.029	9396.96
301.096	9398.12
301.162	9405.97
301.229	9397.3
301.295	9384.49
301.361	9381.46
301.428	9387.38
301.494	9373.85
301.561	9375.39
301.627	9376.83
301.693	9386.51
301.76	9387.96
301.826	9379.48
301.892	9396.29
301.959	9401.44
302.025	9399.23
302.092	9392.92
302.158	9401.87
302.224	9413.29
302.291	9407.46
302.357	9405.53
302.423	9391.86
302.49	9384.73
302.556	9400.86
302.622	9406.88
302.688	9420.61
302.755	9435.87
302.821	9441.41
302.887	9448.3
302.954	9444.44
303.02	9453.5
303.086	9457.45
303.152	9456.72
303.219	9456.43
303.285	9457.49
303.351	9460.87
303.417	9463.42
303.483	9456.63
303.55	9453.4
303.616	9450.75
303.682	9451.43
303.748	9445.79
303.815	9469.92
303.881	9480.66
303.947	9468.33
304.013	9462.75
304.079	9456.82
304.145	9436.69
304.212	9436.93
304.278	9427.5
304.344	9430.77
304.41	9416.52
304.476	9406.84
304.542	9400.63
304.608	9396.24
304.674	9379.77
304.741	9375.68
304.807	9383.29
304.873	9388.54
304.939	9400.91
305.005	9380.59
305.071	9372.89
305.137	9376.36
305.203	9348.14
305.269	9342.45
305.335	9350.45
305.401	9350.59
305.467	9347.27
305.533	9355.75
305.599	9362.39
305.666	9372.6
305.732	9373.47
305.798	9385.17
305.864	9406.64
305.93	9415.65
305.996	9429.61
306.062	9430.43
306.128	9426.05
306.194	9401.73
306.259	9397.59
306.325	9393.31
306.391	9402.45
306.457	9418.2
306.523	9420.56
306.589	9443.38
306.655	9435.44
306.721	9417.67
306.787	9400.91
306.853	9417.67
306.919	9399.42
306.985	9389.02
307.051	9377.56
307.117	9370.58
307.183	9363.41
307.248	9334.18
307.314	9335.38
307.38	9335.67
307.446	9335.86
307.512	9322.67
307.578	9329.31
307.644	9327.05
307.709	9325.56
307.775	9321.37
307.841	9317.37
307.907	9313.61
307.973	9293.53
308.039	9299.6
308.104	9300.71
308.17	9306.34
308.236	9292.13
308.302	9292.81
308.368	9284.53
308.433	9290.3
308.499	9280.63
308.565	9269.65
308.631	9283.42
308.696	9259.59
308.762	9237.05
308.828	9238.93
308.894	9228.53
308.959	9208.17
309.025	9201.28
309.091	9194.83
309.156	9185.97
309.222	9187.46
309.288	9172.54
309.354	9151.79
309.419	9146.73
309.485	9143.55
309.551	9149.23
309.616	9131.76
309.682	9131.18
309.748	9122.9
309.813	9109.42
309.879	9103.26
309.945	9097.29
310.01	9085.3
310.076	9092.57
310.141	9088.43
310.207	9069.31
310.273	9069.79
310.338	9076.44
310.404	9064.83
310.469	9046.78
310.535	9040.38
310.601	9016.79
310.666	9025.74
310.732	9039.56
310.797	9024.05
310.863	9007.69
310.928	8998.68
310.994	8999.26
311.059	8999.98
311.125	9000.99
311.191	9019.39
311.256	9011.11
311.322	9014.19
311.387	8992.77
311.453	9279.66
311.518	9257.86
311.584	9260.94
311.649	9260.84
311.715	9252.08
311.78	9249.05
311.846	9247.65
311.911	9254.15
311.976	9254.15
312.042	9240
312.107	9220.21
312.173	9218
312.238	9214.44
312.304	9210.05
312.369	9201.1
312.434	9183.58
312.5	9176.12
312.565	9138.76
312.631	9137.8
312.696	9131.06
312.761	9139.82
312.827	8839.59
312.892	8881.13
312.958	8877.43
313.023	8878.05
313.088	8874.01
313.154	8858.56
313.219	8847.97
313.284	8838.01
313.35	8833
313.415	8819.86
313.48	8816.4
313.546	8818.99
313.611	8823.71
313.676	8815.1
313.741	8807.54
313.807	8823.71
313.872	8826.55
313.937	8841.14
314.003	8854.52
314.068	8853.65
314.133	8851.34
314.198	8842.34
314.264	8816.58
314.329	8805.47
314.394	8800.94
314.459	8799.79
314.525	8819.86
314.59	8812.78
314.655	8796.75
314.72	8798.92
314.785	8805.51
314.851	8803.64
314.916	8784.05
314.981	8774.32
315.046	8768.93
315.111	8761.42
315.176	8741.83
315.242	8742.51
315.307	8731.73
315.372	8706.89
315.437	8695.67
315.502	8686
315.567	8693.07
315.632	8680.32
315.698	8677.05
315.763	8671.8
315.828	8665.4
315.893	8664.05
315.958	8661.55
316.023	8660.15
316.088	8645.52
316.153	8619.83
316.218	8609.14
316.283	8593.17
316.348	8572.33
316.413	8560.49
316.479	8547.21
316.544	8518.1
316.609	8485.91
316.674	8452.47
316.739	8425.24
316.804	8394.83
316.869	8364.61
316.934	8328.86
316.999	8298.79
317.064	8254.44
317.129	8210.56
317.194	8174.57
317.259	8121.89
317.324	8071.63
317.389	8026.7
317.454	7991.34
317.518	7961.47
317.583	7935.93
317.648	7905.2
317.713	7872.59
317.778	7822.72
317.843	7795.01
317.908	7756.31
317.973	7714.38
318.038	7683.31
318.103	7643.51
318.168	7610.47
318.233	7577.92
318.297	7528.74
318.362	7492.3
318.427	7455.77
318.492	7431.58
318.557	7386.69
318.622	7355.83
318.687	7336.8
318.751	7296.91
318.816	7261.58
318.881	7228.09
318.946	7175.8
319.011	7132.41
319.075	7091.18
319.14	7057.02
319.205	7009.45
319.27	6976.63
319.335	6939.21
319.399	6903.37
319.464	6873.78
319.529	6826.13
319.594	6790.35
319.658	6761.62
319.723	6718.11
319.788	6690.79
319.853	6633.58
319.917	6600.65
319.982	6547.64
320.047	6510.28
320.112	6481.52
320.176	6431.01
320.241	6394.38
320.306	6368.21
320.37	6328.33
320.435	6293.63
320.5	6262.14
320.564	6221.15
320.629	6179.98
320.694	6147.92
320.758	6108.33
320.823	6064.96
320.888	6036.6
320.952	5986.47
321.017	5943.92
321.082	5910.58
321.146	5869.66
321.211	5838.96
321.275	5796.33
321.34	5759.75
321.405	5714.14
321.469	5667.15
321.534	5623.72
321.598	5572.95
321.663	5539.19
321.727	5509.51
321.792	5461.68
321.857	5417
321.921	5382.73
321.986	5341.9
322.05	5282.92
322.115	5247.7
322.179	5204.97
322.244	5151.12
322.308	5118.93
322.373	5074.77
322.437	5029.45
322.502	5004.2
322.566	4958.75
322.631	4930.21
322.695	4886.45
322.76	4841.88
322.824	4809.09
322.889	4774.1
322.953	4731.03
323.018	4663.35
323.082	4600.57
323.146	4555.5
323.211	4505.02
323.275	4461.48
323.34	4419.86
323.404	4387.63
323.468	4337.87
323.533	4296.27
323.597	4252.58
323.662	4203.08
323.726	4163.78
323.79	4117.59
323.855	4057.19
323.919	4011.49
323.983	3962.49
324.048	3901.02
324.112	4051.53
324.177	3924.76
324.241	3718.58
324.305	3521.99
324.37	3328.9
324.434	3142.45
324.498	3099.81
324.562	3052.42
324.627	2992.68
324.691	2935.12
324.755	2871.88
324.82	2799.26
324.884	2724.51
324.948	2653.46
325.012	2560.13
325.077	2449.37
