Data from 20250702_urea_0.5M_MAYP1162681_13-14-59-779.txt Node
Date: Wed Jul 02 13:14:59 BST 2025
User: adleo
Spectrometer: MAYP116268
Trigger mode: 0
Integration Time (sec): 1.000000E0
Scans to average: 1
Electric dark correction enabled: true
Nonlinearity correction enabled: true
Boxcar width: 10
XAxis mode: Wavelengths
Number of Pixels in Spectrum: 2068
>>>>>Begin Spectral Data<<<<<
179.565	1104.38
179.642	1157.43
179.718	1193.41
179.795	1227.25
179.871	1255.91
179.948	1269.08
180.024	1287.62
180.101	1310.98
180.177	1323.95
180.254	1344.3
180.33	1366.61
180.407	1411.85
180.483	1500.83
180.56	1582.97
180.636	1659.59
180.712	1651.8
180.789	1661.49
180.865	1674.03
180.942	1678.4
181.018	1688.23
181.095	1701.16
181.171	1706.62
181.248	1705.34
181.324	1720.83
181.4	1728.1
181.477	1739.18
181.553	1753.81
181.63	1773.15
181.706	1784.98
181.782	1791.07
181.859	1787.6
181.935	1790.35
182.011	1786.36
182.088	1801.05
182.164	1818.07
182.24	1832.56
182.317	1838.22
182.393	1836.6
182.469	1850.53
182.546	1866.41
182.622	1868.02
182.698	1861.51
182.775	1873.39
182.851	1888.65
182.927	1882.19
183.003	1876.96
183.08	1869.16
183.156	1878.48
183.232	1876.58
183.308	1866.17
183.385	1874.96
183.461	1895.35
183.537	1893.22
183.613	1904.2
183.69	1895.73
183.766	1886.75
183.842	1890.12
183.918	1895.35
183.995	1908.99
184.071	1907.23
184.147	1900.96
184.223	1891.83
184.299	1903.39
184.375	1894.26
184.452	1899.21
184.528	1954.71
184.604	1963.93
184.68	1975.15
184.756	1980.71
184.832	1982.85
184.908	1989.08
184.985	1990.46
185.061	1974.44
185.137	1984.75
185.213	1975.67
185.289	1976.39
185.365	1968.74
185.441	1966.69
185.517	1982.53
185.593	1977.97
185.669	1980.96
185.745	1989.33
185.822	2004.73
185.898	1998.55
185.974	2004.92
186.05	1996.97
186.126	1953.26
186.202	1950.6
186.278	1950.07
186.354	1941.18
186.43	1947.84
186.506	1945.89
186.582	1942.14
186.658	1949.08
186.734	1933.06
186.81	1935.24
186.886	1938.62
186.962	1949.41
187.038	1947.41
187.114	1936.85
187.19	1944.74
187.266	1934.67
187.341	1934.57
187.417	1929.44
187.493	1927.06
187.569	1930.77
187.645	1925.73
187.721	1916.17
187.797	1922.64
187.873	1924.73
187.949	1918.65
188.025	1912.89
188.101	1916.65
188.176	1923.78
188.252	1921.35
188.328	1928.43
188.404	1927.72
188.48	1923.87
188.556	1917.17
188.632	1914.46
188.707	1914.93
188.783	1910.18
188.859	1906.18
188.935	1897.48
189.011	1904.14
189.086	1898.91
189.162	1890.92
189.238	1886.98
189.314	1884.98
189.39	1878.71
189.465	1873.57
189.541	1889.93
189.617	1877.05
189.693	1869.77
189.768	1873.2
189.844	1896.79
189.92	1888.05
189.996	1895.32
190.071	1901.64
190.147	1900.83
190.223	1912.15
190.298	1903.26
190.374	1891.66
190.45	1902.21
190.526	1912.01
190.601	1906.16
190.677	1909.2
190.753	1933.79
190.828	1937.07
190.904	1950.57
190.98	1964.55
191.055	1973.83
191.131	1966.31
191.207	1986.33
191.282	1997.93
191.358	1987.61
191.433	1970.63
191.509	1982.84
191.585	1980.56
191.66	1982.7
191.736	1992.97
191.811	1984.65
191.887	2000.29
191.963	2019.17
192.038	2023.07
192.114	2019.69
192.189	2023.54
192.265	2020.55
192.34	2003.18
192.416	2003.47
192.491	2001.38
192.567	2002.33
192.642	2004.71
192.718	2004.52
192.793	1994.01
192.869	1990.15
192.944	1992.63
193.02	2001.38
193.095	2005.7
193.171	2009.08
193.246	2011.03
193.322	2006.51
193.397	2007.56
193.473	1993.1
193.548	1979.5
193.624	1984.45
193.699	1984.45
193.775	2001.62
193.85	2002.47
193.925	2009.32
194.001	2010.7
194.076	2005.38
194.152	1997.48
194.227	1989.63
194.302	1980.74
194.378	1981.89
194.453	1977.89
194.529	1990.02
194.604	1975.8
194.679	1969.19
194.755	1954.55
194.83	1966.11
194.905	1964.88
194.981	1975.29
195.056	1969.78
195.131	1974.63
195.207	1975.48
195.282	1965.93
195.357	1945.33
195.433	1958.83
195.508	1947.75
195.583	1950.7
195.659	1961.59
195.734	1968.25
195.809	1967.58
195.884	1977.14
195.96	1979.28
196.035	1994.73
196.11	1989.41
196.185	1999.11
196.261	2003.91
196.336	2032.63
196.411	2020.02
196.486	2022.21
196.561	2014.41
196.637	2023.3
196.712	2039.66
196.787	2040.04
196.862	2054.21
196.937	2065.63
197.013	2070.43
197.088	2081.32
197.163	2100.54
197.238	2117.96
197.313	2114.87
197.388	2128.04
197.464	2152.93
197.539	2162.49
197.614	2152.12
197.689	2165.78
197.764	2181.72
197.839	2199.6
197.914	2193.18
197.989	2212.88
198.065	2228.48
198.14	2274.29
198.215	2299.55
198.29	2308.22
198.365	2322.49
198.44	2334.39
198.515	2361
198.59	2378.9
198.665	2401.37
198.74	2412.89
198.815	2412.98
198.89	2432.69
198.965	2460.83
199.04	2460.93
199.115	2472.68
199.19	2514.52
199.265	2516.57
199.34	2525.47
199.415	2558.06
199.49	2580.58
199.565	2588.58
199.64	2609.63
199.715	2607.72
199.79	2611.34
199.865	2619.06
199.94	2617.91
200.015	2647.02
200.09	2651.31
200.165	2657.31
200.24	2663.45
200.315	2701.17
200.39	2715.94
200.464	2729.13
200.539	2732.18
200.614	2743.85
200.689	2767.48
200.764	2775.01
200.839	2792.25
200.914	2800.4
200.989	2792.06
201.063	2803.4
201.138	2786.07
201.213	2785.64
201.288	2765.53
201.363	2772.49
201.438	2773.2
201.512	2788.63
201.587	2775.15
201.662	2778.01
201.737	2788.16
201.812	2793.02
201.886	2760.45
201.961	2770.79
202.036	2754.74
202.111	2748.83
202.186	2725.36
202.26	2707.82
202.335	2687.29
202.41	2680.52
202.485	2659.9
202.559	2638.42
202.634	2614.51
202.709	2625.12
202.784	2606.83
202.858	2609.88
202.933	2592.17
203.008	2586.45
203.082	2565.64
203.157	2560.45
203.232	2520.93
203.306	2500.35
203.381	2472.64
203.456	2455.07
203.53	2431.86
203.605	2414.49
203.68	2393.68
203.754	2385.97
203.829	2372.16
203.904	2353.74
203.978	2344.17
204.053	2351.41
204.127	2339.94
204.202	2340.32
204.277	2322.38
204.351	2318.52
204.426	2310.72
204.5	2306.48
204.575	2273.79
204.65	2284.46
204.724	2277.79
204.799	2284.5
204.873	2280.69
204.948	2281.02
205.022	2267.13
205.097	2259.27
205.171	2272.4
205.246	2280.35
205.32	2279.88
205.395	2281.73
205.469	2273.17
205.544	2276.69
205.618	2257.66
205.693	2269.99
205.767	2257.28
205.842	2279.46
205.916	2275.46
205.991	2266.66
206.065	2270.32
206.14	2285.35
206.214	2282.73
206.289	2277.35
206.363	2288.92
206.438	2294.82
206.512	2300.72
206.586	2319.52
206.661	2328.38
206.735	2307.97
206.81	2311.83
206.884	2325.39
206.958	2315.92
207.033	2333.8
207.107	2345
207.181	2380.56
207.256	2378.8
207.33	2398.36
207.405	2414.9
207.479	2438.18
207.553	2448.98
207.628	2439.46
207.702	2456.65
207.776	2456.6
207.851	2470.22
207.925	2494.51
207.999	2498.84
208.073	2510.03
208.148	2523.7
208.222	2527.7
208.296	2575.36
208.371	2603.81
208.445	2634.11
208.519	2681.46
208.593	2712.76
208.668	2732.49
208.742	2759.29
208.816	2789.07
208.89	2833.03
208.965	2861.94
209.039	2901.71
209.113	2954.68
209.187	3013.38
209.261	3053.24
209.336	3117.15
209.41	3183.86
209.484	3232.78
209.558	3304.5
209.632	3373.93
209.707	3449.89
209.781	3535.45
209.855	3615.88
209.929	3705.65
210.003	3786.25
210.077	3862.27
210.151	3990.4
210.226	4103.06
210.3	4217.28
210.374	4329.34
210.448	4429.04
210.522	4540.17
210.596	4657.34
210.67	4776.44
210.744	4931.59
210.818	5080.93
210.892	5221.85
210.966	5340.19
211.041	5489.25
211.115	5622.54
211.189	5777.89
211.263	5928.4
211.337	6073.27
211.411	6235.63
211.485	6372.83
211.559	6537.32
211.633	6698.31
211.707	6826.88
211.781	7004.69
211.855	7134.37
211.929	7296.95
212.003	7450.51
212.077	7629.03
212.151	7815.13
212.225	8004.18
212.299	8182.73
212.373	8353.7
212.447	8532.33
212.52	8749.31
212.594	8940.36
212.668	9143.05
212.742	9330.43
212.816	9516.04
212.89	9709.71
212.964	9911.28
213.038	10124.03
213.112	10338.93
213.186	10551.55
213.26	10735.04
213.333	10897.52
213.407	11106.32
213.481	11314.19
213.555	11532.46
213.629	11726.34
213.703	11918.98
213.777	12123.29
213.85	12302.21
213.924	12534.43
213.998	12736.2
214.072	12927.76
214.146	13111.9
214.219	13310.3
214.293	13501.29
214.367	13706.39
214.441	13908.95
214.515	14081.28
214.588	14249.17
214.662	14411.91
214.736	14585.5
214.81	14782.6
214.883	14977.05
214.957	15159.98
215.031	15337.17
215.105	15505.98
215.178	15674.73
215.252	15841.89
215.326	15998.05
215.4	16164.53
215.473	16297.17
215.547	16453.38
215.621	16614.11
215.694	16794.51
215.768	16938.42
215.842	17098.72
215.915	17251.3
215.989	17385.81
216.063	17543.59
216.136	17707.88
216.21	17856.65
216.284	18019.64
216.357	18179.59
216.431	18329.17
216.504	18477.07
216.578	18638.66
216.652	18790.07
216.725	18929.44
216.799	19082.11
216.873	19215.36
216.946	19348.65
217.02	19477.9
217.093	19612.98
217.167	19714.18
217.24	19821.02
217.314	19937.88
217.387	20044.09
217.461	20150.5
217.535	20289.54
217.608	20387.75
217.682	20501.2
217.755	20617.3
217.829	20715.28
217.902	20814.61
217.976	20912.54
218.049	21008.45
218.123	21096.75
218.196	21190.69
218.27	21296.87
218.343	21371.72
218.417	21468.17
218.49	21568.81
218.563	21670.52
218.637	21766.68
218.71	21876.2
218.784	21968.46
218.857	22073.11
218.931	22161.9
219.004	22244.43
219.077	22324.31
219.151	22411.28
219.224	22471.25
219.298	22552.96
219.371	22634.25
219.444	22691.67
219.518	22759.16
219.591	22825.89
219.665	22914.85
219.738	22994.79
219.811	23045.12
219.885	23122.66
219.958	23191.9
220.031	23245.76
220.105	23310.23
220.178	23366.61
220.251	23423.36
220.325	23481.33
220.398	23531.15
220.471	23587.76
220.544	23649.73
220.618	23693.47
220.691	23743.91
220.764	23794.65
220.838	23843.16
220.911	23884.93
220.984	23952.45
221.057	24001.84
221.131	24044.47
221.204	24053.01
221.277	24096.47
221.35	24155.46
221.424	24179.86
221.497	24210.64
221.57	24242.28
221.643	24274.45
221.716	24308.46
221.79	24331.13
221.863	24364.18
221.936	24390.85
222.009	24417.38
222.082	24438.85
222.155	24456.07
222.229	24493.94
222.302	24533.21
222.375	24541.56
222.448	24570.5
222.521	24592.31
222.594	24615.13
222.667	24627.67
222.74	24654.68
222.814	24673.4
222.887	24688.07
222.96	24707.32
223.033	24729.22
223.106	24742.88
223.179	24762.9
223.252	24771.58
223.325	24781.86
223.398	24794.02
223.471	24806.03
223.544	24815.82
223.617	24846.37
223.69	24856.84
223.763	24858.62
223.837	24854.52
223.91	24867.59
223.983	24854.57
224.056	24843.76
224.129	24840.87
224.202	24854.33
224.275	24858.57
224.348	24836.47
224.42	24814.18
224.493	24799.37
224.566	24788.9
224.639	24797.93
224.712	24780.17
224.785	24774.19
224.858	24766.18
224.931	24745.14
225.004	24726.81
225.077	24715.86
225.15	24660.38
225.223	24642.33
225.296	24642.48
225.369	24608.52
225.442	24588.16
225.514	24589.27
225.587	24583.58
225.66	24572.05
225.733	24559.5
225.806	24545.61
225.879	24542.52
225.952	24529.01
226.025	24526.94
226.097	24526.55
226.17	24506.92
226.243	24472.62
226.316	24450.72
226.389	24438.03
226.461	24431.71
226.534	24423.27
226.607	24415.16
226.68	24443.05
226.753	24441.21
226.825	24410.63
226.898	24416.7
226.971	24400.98
227.044	24375.03
227.117	24353.9
227.189	24342.32
227.262	24338.22
227.335	24327.7
227.407	24303.2
227.48	24286.61
227.553	24276.86
227.626	24255.83
227.698	24230.7
227.771	24223.42
227.844	24195.25
227.916	24166.7
227.989	24133.65
228.062	24114.36
228.134	24115.42
228.207	24086.19
228.28	24055.37
228.352	24032.75
228.425	24012.15
228.498	23998.84
228.57	23970.92
228.643	23950.71
228.716	23925.14
228.788	23887.72
228.861	23858.29
228.934	23850.82
229.006	23834.08
229.079	23809.05
229.151	23770.66
229.224	23739.03
229.296	23716.94
229.369	23724.41
229.442	23737.77
229.514	23708.31
229.587	23692.1
229.659	23640.6
229.732	23616
229.804	23606.35
229.877	23604.96
229.949	23595.74
230.022	23593
230.094	23578.43
230.167	23563.1
230.239	23527.61
230.312	23504.8
230.384	23501.86
230.457	23477.65
230.529	23453.2
230.602	23434.39
230.674	23417.85
230.747	23412.84
230.819	23402.76
230.892	23344.46
230.964	23305.01
231.037	23286.5
231.109	23251.83
231.181	23237.89
231.254	23205.15
231.326	23173.66
231.399	23142.27
231.471	23103.94
231.544	23054.99
231.616	23034.6
231.688	23012.66
231.761	22985.66
231.833	22961.84
231.905	22911.45
231.978	22884.6
232.05	22857.79
232.122	22830.84
232.195	22803.4
232.267	22778.43
232.339	22741.59
232.412	22737.98
232.484	22703.26
232.556	22672.07
232.629	22674
232.701	22654.67
232.773	22627.57
232.846	22588.96
232.918	22562.44
232.99	22544.99
233.062	22525.8
233.135	22502.08
233.207	22455.03
233.279	22432.56
233.351	22406.53
233.424	22365.46
233.496	22311.32
233.568	22295.9
233.64	22237.9
233.713	22204.5
233.785	22169.6
233.857	22144.05
233.929	22090.01
234.001	22083.5
234.074	22059.16
234.146	21989.6
234.218	21941.83
234.29	21912.52
234.362	21872.56
234.434	21820.69
234.507	21771.33
234.579	21723.22
234.651	21677.09
234.723	21648.03
234.795	21617.76
234.867	21581.56
234.939	21570.23
235.012	21545.7
235.084	21517.31
235.156	21497.11
235.228	21460.38
235.3	21419.27
235.372	21392.86
235.444	21371.7
235.516	21299.2
235.588	21273.32
235.66	21247.92
235.732	21211.49
235.804	21218.81
235.876	21202.81
235.948	21178.76
236.02	21135.63
236.092	21109.45
236.164	21073.6
236.236	21030.61
236.308	20993.06
236.38	20950.84
236.452	20902.26
236.524	20871.42
236.596	20842.07
236.668	20818.16
236.74	20787.85
236.812	20754.64
236.884	20719.02
236.956	20692.08
237.028	20652.61
237.1	20603.6
237.172	20584.47
237.244	20569.19
237.316	20498.49
237.388	20455.31
237.46	20416.51
237.532	20401.38
237.604	20348.75
237.675	20325.23
237.747	20307.4
237.819	20260.66
237.891	20217
237.963	20174.15
238.035	20130.44
238.107	20065.58
238.178	20040.81
238.25	19995.6
238.322	19980.71
238.394	19922.45
238.466	19873.2
238.538	19841.92
238.609	19809.92
238.681	19759.76
238.753	19710.84
238.825	19671.52
238.897	19634.12
238.968	19604.25
239.04	19546.03
239.112	19535.24
239.184	19488.2
239.255	19448.21
239.327	19421.75
239.399	19400.26
239.471	19376.69
239.542	19349.95
239.614	19329.9
239.686	19258.63
239.758	19228.51
239.829	19183.64
239.901	19159.84
239.973	19118.68
240.044	19088.56
240.116	19054.64
240.188	19010.35
240.259	18973.05
240.331	18936.77
240.403	18910.55
240.474	18860.87
240.546	18831.95
240.618	18775.43
240.689	18734.13
240.761	18695.09
240.833	18669.6
240.904	18626.91
240.976	18584.02
241.048	18546.81
241.119	18511.06
241.191	18492.12
241.262	18472.17
241.334	18425.28
241.405	18388.99
241.477	18346.05
241.549	18307.84
241.62	18268.76
241.692	18240.85
241.763	18212.95
241.835	18164.86
241.906	18121.2
241.978	18068.04
242.049	18034.16
242.121	18007.71
242.192	17987.51
242.264	17934.55
242.335	17879.52
242.407	17843.42
242.478	17799.42
242.55	17755.91
242.621	17706.75
242.693	17659.47
242.764	17613.55
242.836	17574.51
242.907	17543.96
242.979	17515.62
243.05	17489.84
243.122	17455.09
243.193	17420.97
243.264	17358.75
243.336	17332.1
243.407	17304.1
243.479	17283.19
243.55	17250.9
243.622	17221.98
243.693	17182.75
243.764	17167.72
243.836	17126.32
243.907	17088.53
243.978	17048.72
244.05	17021.69
244.121	16971.13
244.192	16945.44
244.264	16891.9
244.335	16855.65
244.407	16803.99
244.478	16773.87
244.549	16724.52
244.62	16675.79
244.692	16631.84
244.763	16609.57
244.834	16561.71
244.906	16524.07
244.977	16497.61
245.048	16477.13
245.119	16429.17
245.191	16387.48
245.262	16332.39
245.333	16313.98
245.405	16282.7
245.476	16253.01
245.547	16226.5
245.618	16215.18
245.689	16180.42
245.761	16157
245.832	16128.47
245.903	16104.17
245.974	16072.89
246.045	16047.83
246.117	16033.08
246.188	15986.86
246.259	15942.18
246.33	15910.61
246.401	15867.56
246.473	15830.6
246.544	15788.18
246.615	15775.5
246.686	15736.13
246.757	15722.29
246.828	15681.66
246.899	15666.81
246.97	15630.95
247.042	15580.63
247.113	15547.95
247.184	15538.94
247.255	15499.6
247.326	15465.72
247.397	15423.69
247.468	15394.57
247.539	15361.12
247.61	15319.19
247.681	15302.65
247.752	15289.54
247.823	15247.46
247.894	15220.76
247.965	15170.82
248.037	15141.08
248.108	15086.13
248.179	15054.79
248.25	15015.8
248.321	14994.35
248.392	14950.72
248.463	14941.81
248.534	14918.72
248.605	14895.48
248.675	14857.31
248.746	14834.17
248.817	14813.1
248.888	14801.53
248.959	14756.51
249.03	14726.58
249.101	14694.81
249.172	14659.91
249.243	14608.86
249.314	14595.03
249.385	14565.43
249.456	14552.56
249.527	14520.45
249.598	14493.02
249.669	14466.56
249.739	14448.43
249.81	14419.85
249.881	14386.78
249.952	14357.33
250.023	14328.74
250.094	14285.4
250.165	14250.84
250.235	14221.2
250.306	14188.51
250.377	14138.76
250.448	14120.93
250.519	14078.55
250.59	14065.88
250.66	14030.25
250.731	14015.31
250.802	13988.31
250.873	13975.3
250.944	13952.11
251.014	13918.56
251.085	13922.8
251.156	13901.88
251.227	13882.16
251.297	13869.48
251.368	13856.08
251.439	13831.79
251.51	13817.37
251.58	13782.76
251.651	13747.14
251.722	13732.19
251.792	13688.37
251.863	13668.32
251.934	13647.25
252.005	13654.24
252.075	13634.86
252.146	13631.44
252.217	13622.18
252.287	13609.12
252.358	13575.04
252.429	13557.06
252.499	13528.9
252.57	13506.92
252.641	13490.72
252.711	13467.63
252.782	13427.67
252.852	13418.85
252.923	13401.01
252.994	13380.77
253.064	13373.78
253.135	13347.12
253.205	13321.38
253.276	13323.93
253.347	13314.58
253.417	13285.22
253.488	13253.6
253.558	13223.95
253.629	13198.35
253.699	13183.22
253.77	13161.72
253.841	13137.85
253.911	13119.15
253.982	13099.48
254.052	13077.31
254.123	13059.86
254.193	13032.86
254.264	13041.1
254.334	13006.88
254.405	12972.31
254.475	12935.34
254.546	12911.48
254.616	12905.64
254.687	12883.76
254.757	12869.97
254.827	12844.9
254.898	12834.11
254.968	12807.3
255.039	12779.39
255.109	12766.33
255.18	12732.54
255.25	12696.43
255.321	12680.24
255.391	12645.14
255.461	12639.41
255.532	12594.24
255.602	12561.6
255.673	12520.1
255.743	12495.71
255.813	12448.32
255.884	12442.49
255.954	12430.58
256.024	12428.27
256.095	12408.84
256.165	12381.46
256.235	12357.36
256.306	12330.32
256.376	12323.04
256.446	12312.15
256.517	12302.8
256.587	12287.47
256.657	12267.27
256.728	12248.28
256.798	12230.59
256.868	12204.94
256.938	12174.72
257.009	12160.94
257.079	12150.23
257.149	12158.72
257.219	12120.06
257.29	12108.44
257.36	12072.34
257.43	12060.14
257.5	12015.12
257.571	11989.43
257.641	11980.42
257.711	11953.76
257.781	11950.53
257.852	11927.44
257.922	11894.91
257.992	11871.44
258.062	11846.76
258.132	11835.86
258.202	11812.05
258.273	11791.38
258.343	11795.42
258.413	11773.73
258.483	11763.18
258.553	11738.65
258.623	11705.53
258.693	11684.37
258.764	11684.86
258.834	11677.34
258.904	11660.13
258.974	11629.28
259.044	11607.16
259.114	11586.53
259.184	11568.84
259.254	11538.58
259.324	11500.36
259.394	11485.56
259.464	11480.69
259.535	11457.12
259.605	11433.27
259.675	11410.23
259.745	11401.7
259.815	11369.84
259.885	11345.65
259.955	11346.66
260.025	11317.84
260.095	11304.64
260.165	11301.65
260.235	11298.9
260.305	11268.97
260.375	11240.97
260.445	11256.97
260.515	11256.78
260.585	11249.79
260.655	11234.71
260.725	11230.03
260.795	11219.72
260.865	11223.67
260.934	11195.33
261.004	11191.57
261.074	11172.39
261.144	11173.36
261.214	11158.95
261.284	11143.14
261.354	11140.44
261.424	11115.38
261.494	11116.49
261.564	11102.13
261.634	11083.28
261.703	11043.04
261.773	11034.66
261.843	11025.07
261.913	10998.61
261.983	10960.98
262.053	10953.99
262.123	10928.5
262.192	10899.68
262.262	10892.36
262.332	10855.25
262.402	10847.83
262.472	10828.51
262.541	10791.89
262.611	10786.11
262.681	10760.28
262.751	10748.66
262.821	10721.92
262.89	10691.27
262.96	10675.71
263.03	10680.1
263.1	10664.39
263.169	10652.15
263.239	10639.19
263.309	10643.33
263.379	10639.72
263.448	10628.44
263.518	10613.02
263.588	10607.14
263.657	10610.32
263.727	10605.65
263.797	10593.27
263.867	10571.2
263.936	10539.4
264.006	10544.36
264.076	10526.15
264.145	10510.59
264.215	10490.02
264.285	10493.97
264.354	10464.24
264.424	10448.44
264.494	10409.36
264.563	10392.59
264.633	10402.42
264.702	10397.08
264.772	10358.34
264.842	10333.91
264.911	10324.95
264.981	10295.27
265.05	10273.93
265.12	10247.29
265.19	10226.71
265.259	10223.97
265.329	10214.14
265.398	10206.14
265.468	10212.12
265.537	10189.96
265.607	10179.69
265.676	10176.42
265.746	10165.15
265.815	10168.57
265.885	10152.81
265.955	10136.39
266.024	10121.5
266.094	10081.71
266.163	10071.54
266.232	10070.53
266.302	10053.82
266.371	10039.75
266.441	10024.77
266.51	10023.95
266.58	10010.95
266.649	9991.68
266.719	9988.02
266.788	9985.17
266.858	9989.99
266.927	9954.39
266.996	9948.8
267.066	9942.98
267.135	9917.01
267.205	9914.56
267.274	9906.75
267.343	9906.99
267.413	9892.64
267.482	9890.52
267.552	9890.14
267.621	9864.56
267.69	9844.62
267.76	9843.75
267.829	9836.09
267.898	9824.68
267.968	9800.26
268.037	9801.51
268.106	9797.71
268.176	9772.13
268.245	9754.26
268.314	9740.24
268.384	9738.22
268.453	9725.22
268.522	9710.82
268.592	9713.99
268.661	9686.25
268.73	9673.82
268.799	9648.15
268.869	9655.19
268.938	9626.82
269.007	9602.84
269.076	9591.23
269.146	9580.44
269.215	9568.26
269.284	9573.89
269.353	9561.37
269.422	9551.74
269.492	9529.4
269.561	9493.28
269.63	9489.76
269.699	9474.16
269.768	9457.4
269.838	9445.22
269.907	9439.68
269.976	9419.84
270.045	9390.85
270.114	9381.32
270.183	9364.51
270.253	9361.48
270.322	9331.14
270.391	9321.37
270.46	9333.84
270.529	9339.47
270.598	9339.91
270.667	9325.85
270.736	9300.42
270.806	9294.21
270.875	9290.55
270.944	9273.75
271.013	9294.69
271.082	9284.82
271.151	9279.23
271.22	9258.05
271.289	9252.85
271.358	9243.41
271.427	9233.59
271.496	9220.35
271.565	9214.14
271.634	9203.26
271.703	9223.92
271.772	9225.41
271.841	9217.56
271.91	9189.64
271.979	9178.47
272.048	9148.62
272.117	9144.04
272.186	9132.87
272.255	9128.97
272.324	9128.49
272.393	9128.97
272.462	9107.4
272.531	9098.49
272.6	9083.66
272.669	9090.6
272.738	9074.52
272.807	9071.15
272.876	9058.2
272.945	9086.7
273.013	9081.98
273.082	9091.8
273.151	9047.26
273.22	9042.11
273.289	9029.69
273.358	9034.75
273.427	9018.14
273.496	9027.72
273.564	9023.67
273.633	9021.41
273.702	9005
273.771	8989.69
273.84	8985.07
273.909	8983.24
273.977	8973.42
274.046	8970.72
274.115	8968.41
274.184	8957.19
274.253	8945.74
274.322	8955.12
274.39	8921.66
274.459	8909.77
274.528	8883.39
274.597	8880.22
274.665	8880.36
274.734	8892.01
274.803	8883.58
274.872	8875.5
274.94	8858.51
275.009	8886.1
275.078	8868.91
275.147	8865.26
275.215	8862.56
275.284	8867.13
275.353	8859
275.421	8841.14
275.49	8854.81
275.559	8842.06
275.627	8834.6
275.696	8825.55
275.765	8817.46
275.833	8815.58
275.902	8818.28
275.971	8823.77
276.039	8836.62
276.108	8840.52
276.177	8835.66
276.245	8824.15
276.314	8823.77
276.383	8829.11
276.451	8789.15
276.52	8793.62
276.588	8806.38
276.657	8810.33
276.725	8795.31
276.794	8796.85
276.863	8808.26
276.931	8780.48
277	8788.76
277.068	8800.12
277.137	8813.45
277.205	8817.88
277.274	8834.58
277.342	8838.92
277.411	8821.97
277.48	8808.06
277.548	8794.1
277.617	8787.99
277.685	8780.77
277.754	8786.45
277.822	8778.61
277.89	8798.83
277.959	8794.01
278.027	8775.63
278.096	8767.78
278.164	8794.93
278.233	8788.72
278.301	8780.35
278.37	8789.15
278.438	8774.38
278.507	8774.43
278.575	8749.64
278.643	8742.37
278.712	8718.83
278.78	8702.13
278.849	8709.35
278.917	8714.07
278.985	8712.19
279.054	8718.25
279.122	8733.99
279.191	8733.41
279.259	8724.37
279.327	8700.06
279.396	8712.81
279.464	8710.41
279.532	8715.94
279.601	8708.62
279.669	8701.07
279.737	8715.41
279.806	8716.18
279.874	8721.09
279.942	8717.34
280.011	8713.82
280.079	8720.27
280.147	8741.16
280.215	8750.93
280.284	8745.35
280.352	8735.63
280.42	8740.05
280.488	8733.65
280.557	8726.87
280.625	8728.17
280.693	8735.82
280.761	8738.56
280.83	8724.94
280.898	8733.46
280.966	8712.67
281.034	8680.23
281.102	8665.26
281.171	8648.37
281.239	8654.1
281.307	8649.67
281.375	8640.19
281.443	8669.45
281.512	8664.06
281.58	8665.26
281.648	8650.59
281.716	8647.84
281.784	8646.06
281.852	8641.73
281.92	8641.39
281.989	8645.97
282.057	8624.02
282.125	8659.45
282.193	8651.56
282.261	8651.27
282.329	8645.3
282.397	8652.04
282.465	8660.51
282.533	8674.89
282.601	8665.99
282.67	8644.86
282.738	8640.53
282.806	8649.63
282.874	8629.41
282.942	8628.74
283.01	8618.87
283.078	8625.65
283.146	8621.85
283.214	8629.31
283.282	8621.9
283.35	8630.81
283.418	8625.75
283.486	8627.92
283.554	8585.8
283.622	8589.46
283.69	8589.41
283.758	8581.76
283.826	8584.31
283.894	8590.32
283.962	8609.82
284.03	8622.52
284.098	8628.39
284.165	8618.05
284.233	8617.61
284.301	8614.87
284.369	8612.13
284.437	8604.43
284.505	8596.82
284.573	8616.12
284.641	8606.25
284.709	8617.03
284.777	8599.37
284.845	8603.22
284.912	8611.35
284.98	8621.17
285.048	8610.87
285.116	8612.75
285.184	8623.38
285.252	8619.97
285.319	8604.23
285.387	8599.27
285.455	8587.48
285.523	8588.73
285.591	8590.32
285.659	8595.09
285.726	8602.45
285.794	8584.26
285.862	8586.81
285.93	8584.89
285.997	8580.07
286.065	8577.33
286.133	8566.89
286.201	8561.26
286.269	8548.26
286.336	8540.85
286.404	8529.64
286.472	8541.96
286.539	8523.63
286.607	8511.4
286.675	8515.93
286.743	8528.39
286.81	8521.99
286.878	8535.51
286.946	8529.83
287.013	8528.05
287.081	8523.43
287.149	8510.53
287.216	8525.74
287.284	8518.81
287.352	8518.95
287.419	8512.75
287.487	8532.38
287.555	8538.35
287.622	8536.76
287.69	8545.38
287.758	8555.58
287.825	8553.27
287.893	8538.06
287.96	8542.92
288.028	8558.9
288.096	8563.23
288.163	8565.35
288.231	8554.57
288.298	8551.92
288.366	8563.28
288.433	8562.17
288.501	8550.77
288.569	8556.16
288.636	8561.5
288.704	8574.54
288.771	8578.58
288.839	8570.88
288.906	8558.76
288.974	8566.07
289.041	8568.28
289.109	8551.97
289.176	8561.36
289.244	8565.64
289.311	8583.78
289.379	8595.19
289.446	8592.01
289.514	8585.85
289.581	8584.02
289.649	8582.96
289.716	8587.68
289.783	8582.1
289.851	8598.89
289.918	8606.83
289.986	8616.17
290.053	8614
290.121	8613.33
290.188	8620.74
290.255	8647.35
290.323	8639.32
290.39	8632.05
290.458	8637.25
290.525	8661.07
290.592	8655.82
290.66	8663.62
290.727	8656.74
290.794	8670.74
290.862	8670.31
290.929	8678.92
290.996	8679.12
291.064	8688.16
291.131	8694.9
291.198	8708.43
291.266	8712.66
291.333	8712.23
291.4	8715.65
291.468	8732.59
291.535	8728.16
291.602	8732.4
291.669	8728.07
291.737	8737.83
291.804	8742.84
291.871	8761.71
291.938	8771.58
292.006	8794.25
292.073	8802.67
292.14	8811.48
292.207	8800.8
292.275	8810.28
292.342	8815.19
292.409	8840.41
292.476	8865.59
292.543	8863.23
292.611	8860.68
292.678	8869.39
292.745	8896.15
292.812	8907.85
292.879	8904.68
292.946	8907.71
293.014	8918.44
293.081	8925.28
293.148	8937.07
293.215	8949.97
293.282	8942.27
293.349	8950.79
293.416	8933.27
293.484	8944.96
293.551	8957.29
293.618	8979.72
293.685	8996.33
293.752	8991.52
293.819	8987.33
293.886	8975.1
293.953	8982.99
294.02	8997.05
294.087	9007.54
294.154	9000.66
294.221	9018.28
294.288	9021.61
294.356	9038.98
294.423	9046.97
294.49	9042.83
294.557	9054.39
294.624	9050.01
294.691	9069.6
294.758	9062.43
294.825	9067.87
294.892	9058.29
294.959	9055.16
295.026	9055.11
295.093	9055.74
295.16	9056.65
295.226	9056.51
295.293	9074.99
295.36	9076.58
295.427	9083.23
295.494	9098.49
295.561	9102.44
295.628	9119.87
295.695	9128.15
295.762	9130.22
295.829	9138.75
295.896	9152.9
295.963	9164.41
296.03	9175.38
296.096	9179.81
296.163	9193.78
296.23	9211.74
296.297	9233.06
296.364	9233.64
296.431	9243.51
296.498	9231.67
296.564	9257.47
296.631	9263.35
296.698	9254.58
296.765	9274.57
296.832	9267.25
296.899	9252.22
296.965	9273.89
297.032	9251.16
297.099	9270.18
297.166	9278.32
297.233	9277.02
297.299	9268.35
297.366	9263.15
297.433	9262.67
297.5	9270.37
297.566	9273.5
297.633	9272.54
297.7	9269.36
297.767	9273.21
297.833	9274.56
297.9	9282.89
297.967	9264.6
298.033	9273.55
298.1	9298.74
298.167	9291.9
298.234	9297.68
298.3	9305.77
298.367	9302.11
298.434	9314.96
298.5	9305.33
298.567	9303.6
298.634	9305.67
298.7	9325.6
298.767	9330.85
298.834	9343.03
298.9	9341.01
298.967	9328.01
299.033	9342.89
299.1	9362.25
299.167	9376.79
299.233	9374
299.3	9388.06
299.366	9406.69
299.433	9422.25
299.5	9401.15
299.566	9407.41
299.633	9417.24
299.699	9430.67
299.766	9427.78
299.832	9424.89
299.899	9432.89
299.965	9444.35
300.032	9436.21
300.099	9442.86
300.165	9452.92
300.232	9451.77
300.298	9448.68
300.365	9469.73
300.431	9461.64
300.498	9450.13
300.564	9453.55
300.631	9471.46
300.697	9482.73
300.763	9482.34
300.83	9480.08
300.896	9491.73
300.963	9497.32
301.029	9504.45
301.096	9507.1
301.162	9511.57
301.229	9511.09
301.295	9501.12
301.361	9500.98
301.428	9505.46
301.494	9489.76
301.561	9491.78
301.627	9494.29
301.693	9497.7
301.76	9490.87
301.826	9491.78
301.892	9504.59
301.959	9512.15
302.025	9502.81
302.092	9498.33
302.158	9502.13
302.224	9500.55
302.291	9498.86
302.357	9495.92
302.423	9487.01
302.49	9485.33
302.556	9494.62
302.622	9495.78
302.688	9507.05
302.755	9522.27
302.821	9533
302.887	9541.77
302.954	9535.17
303.02	9542.54
303.086	9555.44
303.152	9557.51
303.219	9553.13
303.285	9557.37
303.351	9560.02
303.417	9565.61
303.483	9551.3
303.55	9547.98
303.616	9554.63
303.682	9548.03
303.748	9546.83
303.815	9564.31
303.881	9561.18
303.947	9555.45
304.013	9559.69
304.079	9552.27
304.145	9536.04
304.212	9531.8
304.278	9525.83
304.344	9518.51
304.41	9510.42
304.476	9497.56
304.542	9494.14
304.608	9496.17
304.674	9484.22
304.741	9480.9
304.807	9480.08
304.873	9489.33
304.939	9504.69
305.005	9479.12
305.071	9476.23
305.137	9474.16
305.203	9448.25
305.269	9450.13
305.335	9457.49
305.401	9443.58
305.467	9439.77
305.533	9441.65
305.599	9446.47
305.666	9455.28
305.732	9460.82
305.798	9463.95
305.864	9479.98
305.93	9483.98
305.996	9483.79
306.062	9482.25
306.128	9475.12
306.194	9460.87
306.259	9457.98
306.325	9448.97
306.391	9463.42
306.457	9472.47
306.523	9474.54
306.589	9498.28
306.655	9490.72
306.721	9473.58
306.787	9464.24
306.853	9484.32
306.919	9469.92
306.985	9462.65
307.051	9458.03
307.117	9451.09
307.183	9445.02
307.248	9419.79
307.314	9422.05
307.38	9428.17
307.446	9428.51
307.512	9429.08
307.578	9440.5
307.644	9438.38
307.709	9436.16
307.775	9430.67
307.841	9425.81
307.907	9422.68
307.973	9401.73
308.039	9398.26
308.104	9397.97
308.17	9406.4
308.236	9386.42
308.302	9390.99
308.368	9380.01
308.433	9377.56
308.499	9370.67
308.565	9362.87
308.631	9369.18
308.696	9349.63
308.762	9332.58
308.828	9330.27
308.894	9305.86
308.959	9277.84
309.025	9267.87
309.091	9258.48
309.156	9248.22
309.222	9250.53
309.288	9237.24
309.354	9218.95
309.419	9215.39
309.485	9203.98
309.551	9199.3
309.616	9189.92
309.682	9184.76
309.748	9183.17
309.813	9174.07
309.879	9169.26
309.945	9157.61
310.01	9151.69
310.076	9153.03
310.141	9148.94
310.207	9128.58
310.273	9136.52
310.338	9141.81
310.404	9126.6
310.469	9118.46
310.535	9111.48
310.601	9090.78
310.666	9095.84
310.732	9104.89
310.797	9094.15
310.863	9085.53
310.928	9082.74
310.994	9081.15
311.059	9078.41
311.125	9063.77
311.191	9074.9
311.256	9065.12
311.322	9070.37
311.387	9049.14
311.453	9385.34
311.518	9361.28
311.584	9362.82
311.649	9361.32
311.715	9351.21
311.78	9351.89
311.846	9340.86
311.911	9345.25
311.976	9345.49
312.042	9329.02
312.107	9317.56
312.173	9308.75
312.238	9302.06
312.304	9295.71
312.369	9286.22
312.434	9272.99
312.5	9274.81
312.565	9241.45
312.631	9240.88
312.696	9230.24
312.761	9230.67
312.827	8878.24
312.892	8911.27
312.958	8906.93
313.023	8904.29
313.088	8904.33
313.154	8892.45
313.219	8887.25
313.284	8873.05
313.35	8865.73
313.415	8861.3
313.48	8852.4
313.546	8853.94
313.611	8864.62
313.676	8852.01
313.741	8846.04
313.807	8852.54
313.872	8851.1
313.937	8857.4
314.003	8865.92
314.068	8863.66
314.133	8871.17
314.198	8864.62
314.264	8843.58
314.329	8838.24
314.394	8829.09
314.459	8825.87
314.525	8842.04
314.59	8840.65
314.655	8835.98
314.72	8846.04
314.785	8848.93
314.851	8845.22
314.916	8829.91
314.981	8816.05
315.046	8812.06
315.111	8799.74
315.176	8781.44
315.242	8781.69
315.307	8782.6
315.372	8762.53
315.437	8753.72
315.502	8739.28
315.567	8752.95
315.632	8739.76
315.698	8735.29
315.763	8736.59
315.828	8725.13
315.893	8717.62
315.958	8708.28
316.023	8696.88
316.088	8675.22
316.153	8643.17
316.218	8637.78
316.283	8616.56
316.348	8596.11
316.413	8589.9
316.479	8574.02
316.544	8548.04
316.609	8514.36
316.674	8470.62
316.739	8437.95
316.804	8408.7
316.869	8375.69
316.934	8330.31
316.999	8294.86
317.064	8246.07
317.129	8194.25
317.194	8159.62
317.259	8108.04
317.324	8061.48
317.389	8018.86
317.454	7981.53
317.518	7950.51
317.583	7915.25
317.648	7893.46
317.713	7856.05
317.778	7796.98
317.843	7767.98
317.908	7729.28
317.973	7692.97
318.038	7669.99
318.103	7636.33
318.168	7604.84
318.233	7577.72
318.297	7528.11
318.362	7493.3
318.427	7453.12
318.492	7432.79
318.557	7385.21
318.622	7360.21
318.687	7335.27
318.751	7292.45
318.816	7254.24
318.881	7222.09
318.946	7172.35
319.011	7122.32
319.075	7086.28
319.14	7046.07
319.205	6999.32
319.27	6964.69
319.335	6919.77
319.399	6876.87
319.464	6842.43
319.529	6789.98
319.594	6750.73
319.658	6719.22
319.723	6676.15
319.788	6651.08
319.853	6589.85
319.917	6563.73
319.982	6510.09
320.047	6473.21
320.112	6445.7
320.176	6393.04
320.241	6356.84
320.306	6326.69
320.37	6292.76
320.435	6255.12
320.5	6233.1
320.564	6196.43
320.629	6157.99
320.694	6129.25
320.758	6089.14
320.823	6047.97
320.888	6017.65
320.952	5967.61
321.017	5923.82
321.082	5884.4
321.146	5845.73
321.211	5817.2
321.275	5771.73
321.34	5731.79
321.405	5679.62
321.469	5632.06
321.534	5591.32
321.598	5540.02
321.663	5512.78
321.727	5474.86
321.792	5426.84
321.857	5377.65
321.921	5338.02
321.986	5295.81
322.05	5233.14
322.115	5194.28
322.179	5146.14
322.244	5089.53
322.308	5054.71
322.373	5011.61
322.437	4973.39
322.502	4944.64
322.566	4900.48
322.631	4864.96
322.695	4826.13
322.76	4785.92
322.824	4751.12
322.889	4710.49
322.953	4670.3
323.018	4599.5
323.082	4538.88
323.146	4489.47
323.211	4436.18
323.275	4386.38
323.34	4338.74
323.404	4306.62
323.468	4262.75
323.533	4222.73
323.597	4178.57
323.662	4126.36
323.726	4094.47
323.79	4047.86
323.855	3983.02
323.919	3935.27
323.983	3888.48
324.048	3819.85
324.112	3941.18
324.177	3810.77
324.241	3612.86
324.305	3414.65
324.37	3223.18
324.434	3039.27
324.498	2996.8
324.562	2950.98
324.627	2896.16
324.691	2841.86
324.755	2780.14
324.82	2702.97
324.884	2625.74
324.948	2558.61
325.012	2466.17
325.077	2342.98
