Data from 20250702_urea_0.5M_MAYP1162681_04-35-00-328.txt Node
Date: Thu Jul 03 04:35:00 BST 2025
User: adleo
Spectrometer: MAYP116268
Trigger mode: 0
Integration Time (sec): 1.000000E0
Scans to average: 1
Electric dark correction enabled: true
Nonlinearity correction enabled: true
Boxcar width: 10
XAxis mode: Wavelengths
Number of Pixels in Spectrum: 2068
>>>>>Begin Spectral Data<<<<<
179.565	1174.79
179.642	1226.44
179.718	1267.01
179.795	1302.85
179.871	1335.24
179.948	1349.98
180.024	1371.33
180.101	1394.18
180.177	1408.91
180.254	1431.99
180.33	1455.49
180.407	1505.85
180.483	1600.82
180.56	1687.48
180.636	1769.8
180.712	1758.44
180.789	1767.18
180.865	1778.92
180.942	1786.76
181.018	1797.55
181.095	1808.53
181.171	1813.14
181.248	1814.33
181.324	1831.21
181.4	1840.66
181.477	1851.27
181.553	1867.33
181.63	1886.34
181.706	1902.37
181.782	1911.92
181.859	1910.16
181.935	1914.39
182.011	1911.35
182.088	1925.52
182.164	1946.06
182.24	1960.8
182.317	1968.55
182.393	1968.88
182.469	1982.67
182.546	1997.41
182.622	2003.69
182.698	1999.88
182.775	2012.01
182.851	2026.46
182.927	2017
183.003	2010.44
183.08	2005.68
183.156	2011.1
183.232	2007.06
183.308	1995.36
183.385	2001.83
183.461	2017.52
183.537	2017.71
183.613	2030.65
183.69	2021.52
183.766	2010.57
183.842	2018.56
183.918	2023.27
183.995	2033.78
184.071	2037.11
184.147	2031.74
184.223	2019.14
184.299	2032.27
184.375	2022.71
184.452	2030.23
184.528	2085.94
184.604	2094.35
184.68	2104.2
184.756	2114.99
184.832	2120.37
184.908	2121.89
184.985	2121.37
185.061	2107.15
185.137	2115.57
185.213	2104.39
185.289	2106.15
185.365	2097.93
185.441	2094.12
185.517	2105.44
185.593	2104.06
185.669	2100.97
185.745	2112.39
185.822	2129.65
185.898	2118.94
185.974	2125.31
186.05	2115.99
186.126	2077.02
186.202	2074.6
186.278	2071.27
186.354	2060.99
186.43	2069.84
186.506	2072.12
186.582	2071.84
186.658	2079.78
186.734	2061.23
186.81	2062.95
186.886	2065.85
186.962	2079.73
187.038	2076.74
187.114	2071.6
187.19	2078.16
187.266	2066.94
187.341	2065.04
187.417	2057.43
187.493	2058.9
187.569	2062.13
187.645	2058.09
187.721	2045.49
187.797	2050.29
187.873	2055.66
187.949	2047.96
188.025	2039.44
188.101	2042.3
188.176	2044.96
188.252	2038.97
188.328	2048.95
188.404	2049.57
188.48	2045.62
188.556	2038.77
188.632	2037.16
188.707	2035.4
188.783	2033.83
188.859	2030.64
188.935	2020.84
189.011	2026.46
189.086	2020.56
189.162	2011.81
189.238	2011.1
189.314	2008.96
189.39	2005.25
189.465	1997.92
189.541	2014.66
189.617	1998.02
189.693	1992.03
189.768	1996.03
189.844	2020.38
189.92	2010.07
189.996	2020.29
190.071	2030.04
190.147	2027.28
190.223	2037.27
190.298	2032.47
190.374	2019.63
190.45	2030.18
190.526	2038.74
190.601	2034.99
190.677	2036.94
190.753	2065.39
190.828	2066.39
190.904	2081.99
190.98	2096.31
191.055	2105.4
191.131	2096.59
191.207	2118.42
191.282	2129.22
191.358	2123.51
191.433	2107.62
191.509	2120.26
191.585	2118.22
191.66	2118.74
191.736	2128.35
191.811	2119.07
191.887	2135.06
191.963	2159.32
192.038	2162.51
192.114	2164.7
192.189	2168.84
192.265	2165.89
192.34	2145.04
192.416	2143.19
192.491	2138.38
192.567	2142.14
192.642	2143.9
192.718	2148.04
192.793	2137.1
192.869	2129.49
192.944	2129.82
193.02	2137.62
193.095	2140.91
193.171	2143.71
193.246	2142.62
193.322	2139.53
193.397	2141.67
193.473	2124.16
193.548	2103.08
193.624	2112.36
193.699	2107.89
193.775	2124.02
193.85	2122.55
193.925	2130.73
194.001	2131.11
194.076	2126.4
194.152	2115.03
194.227	2107.84
194.302	2096.62
194.378	2101.66
194.453	2102.04
194.529	2112.84
194.604	2098.71
194.679	2093.67
194.755	2074.32
194.83	2087.69
194.905	2085.69
194.981	2092.83
195.056	2087.93
195.131	2095.54
195.207	2093.31
195.282	2083.37
195.357	2062.91
195.433	2081.27
195.508	2070.04
195.583	2076.55
195.659	2088.88
195.734	2095.78
195.809	2095.68
195.884	2102.48
195.96	2101.1
196.035	2113.75
196.11	2109.33
196.185	2123.07
196.261	2128.16
196.336	2162.22
196.411	2145.66
196.486	2150.8
196.561	2144.09
196.637	2154.6
196.712	2170.31
196.787	2172.83
196.862	2191
196.937	2203.61
197.013	2208.32
197.088	2218.45
197.163	2241.78
197.238	2256.49
197.313	2256.35
197.388	2270.53
197.464	2301.23
197.539	2311.27
197.614	2306.94
197.689	2317.41
197.764	2331.07
197.839	2349.72
197.914	2341.39
197.989	2365.62
198.065	2380.04
198.14	2432.06
198.215	2455.95
198.29	2466.43
198.365	2478.95
198.44	2491.62
198.515	2514.81
198.59	2532.09
198.665	2556.33
198.74	2561.28
198.815	2563.48
198.89	2585.76
198.965	2615.15
199.04	2612.06
199.115	2629.77
199.19	2671.97
199.265	2679.06
199.34	2690.88
199.415	2722.81
199.49	2746.48
199.565	2756.91
199.64	2776.59
199.715	2771.87
199.79	2779.25
199.865	2786.97
199.94	2785.31
200.015	2810.94
200.09	2817.86
200.165	2820.71
200.24	2828.86
200.315	2868.02
200.39	2884.94
200.464	2889.71
200.539	2890.71
200.614	2906.86
200.689	2929.89
200.764	2934.03
200.839	2953.28
200.914	2958
200.989	2947.89
201.063	2958.33
201.138	2939.95
201.213	2939.99
201.288	2919.78
201.363	2928.22
201.438	2926.08
201.512	2941.13
201.587	2926.64
201.662	2931.41
201.737	2945.8
201.812	2952.86
201.886	2923.71
201.961	2930.91
202.036	2918.91
202.111	2917.14
202.186	2888.94
202.26	2868.73
202.335	2850.57
202.41	2842.27
202.485	2826.65
202.559	2808.73
202.634	2786.24
202.709	2797.47
202.784	2784.61
202.858	2785.37
202.933	2765.02
203.008	2763.26
203.082	2745.35
203.157	2748.49
203.232	2707.16
203.306	2684.09
203.381	2654.31
203.456	2628.63
203.53	2605.75
203.605	2587.42
203.68	2562.65
203.754	2553.94
203.829	2540.08
203.904	2518.17
203.978	2509.36
204.053	2513.89
204.127	2498.13
204.202	2493.51
204.277	2477.37
204.351	2467.94
204.426	2458.94
204.5	2451.94
204.575	2417.23
204.65	2429
204.724	2416.47
204.799	2423.51
204.873	2421.84
204.948	2420.94
205.022	2410.66
205.097	2401.85
205.171	2418.65
205.246	2427.08
205.32	2427.32
205.395	2427.22
205.469	2418.32
205.544	2421.18
205.618	2404.14
205.693	2418.9
205.767	2410.8
205.842	2430.9
205.916	2424.95
205.991	2419.43
206.065	2424
206.14	2436.03
206.214	2427.94
206.289	2422.7
206.363	2434.46
206.438	2434.55
206.512	2440.36
206.586	2460.83
206.661	2470.12
206.735	2445.32
206.81	2448.09
206.884	2461.84
206.958	2451.66
207.033	2471.6
207.107	2478.6
207.181	2508.61
207.256	2504.84
207.33	2522.32
207.405	2536.52
207.479	2554
207.553	2561.23
207.628	2547.24
207.702	2563.09
207.776	2562.86
207.851	2570.33
207.925	2590.39
207.999	2591.68
208.073	2592.92
208.148	2602.16
208.222	2598.01
208.296	2636.86
208.371	2656.02
208.445	2675.89
208.519	2709.56
208.593	2729.43
208.668	2734.2
208.742	2744.4
208.816	2755.93
208.89	2778.95
208.965	2787.39
209.039	2809.94
209.113	2839.92
209.187	2873.44
209.261	2884.16
209.336	2915.05
209.41	2952.91
209.484	2969.6
209.558	3011.42
209.632	3045.89
209.707	3075.79
209.781	3119.43
209.855	3161.46
209.929	3206.92
210.003	3240.12
210.077	3268.94
210.151	3340.81
210.226	3406.93
210.3	3466.5
210.374	3525.48
210.448	3568.36
210.522	3614.97
210.596	3665.55
210.67	3718.03
210.744	3806.94
210.818	3883.3
210.892	3951.92
210.966	3994.44
211.041	4060.3
211.115	4107.8
211.189	4181.07
211.263	4252.74
211.337	4313.03
211.411	4380
211.485	4430.92
211.559	4500.64
211.633	4563.38
211.707	4596.74
211.781	4667.72
211.855	4701.03
211.929	4753.43
212.003	4801.13
212.077	4880.35
212.151	4961.24
212.225	5036.67
212.299	5095.96
212.373	5159.72
212.447	5230.02
212.52	5329.55
212.594	5406.63
212.668	5496.11
212.742	5561.07
212.816	5632.17
212.89	5705.43
212.964	5782.13
213.038	5871.47
213.112	5968.48
213.186	6069.02
213.26	6132.04
213.333	6170.86
213.407	6259.71
213.481	6345.68
213.555	6444.9
213.629	6523.28
213.703	6592.81
213.777	6683.54
213.85	6760.15
213.924	6876.41
213.998	6968.04
214.072	7052.86
214.146	7125.85
214.219	7211.2
214.293	7298.65
214.367	7389.35
214.441	7490.97
214.515	7576.93
214.588	7639.73
214.662	7689.83
214.736	7754.06
214.81	7852.61
214.883	7953.52
214.957	8036.72
215.031	8122.84
215.105	8185.98
215.178	8258.29
215.252	8338.25
215.326	8401.09
215.4	8458.68
215.473	8498.67
215.547	8560.95
215.621	8623.67
215.694	8714.64
215.768	8775.91
215.842	8843.92
215.915	8909.54
215.989	8960.23
216.063	9021.52
216.136	9096.19
216.21	9181.64
216.284	9271.87
216.357	9353.54
216.431	9423.7
216.504	9512.36
216.578	9611.04
216.652	9699.69
216.725	9779.55
216.799	9869.14
216.873	9947.41
216.946	10035.55
217.02	10110.4
217.093	10183.19
217.167	10241.72
217.24	10305.8
217.314	10375.55
217.387	10444.54
217.461	10518.11
217.535	10607.92
217.608	10673.45
217.682	10747.12
217.755	10828.26
217.829	10889.32
217.902	10955.82
217.976	11024.1
218.049	11084.63
218.123	11139.04
218.196	11219.47
218.27	11278.56
218.343	11332.63
218.417	11399.19
218.49	11464.16
218.563	11543.92
218.637	11623.3
218.71	11722.4
218.784	11796.48
218.857	11876.88
218.931	11952.11
219.004	12024.17
219.077	12103.03
219.151	12180.69
219.224	12249.86
219.298	12312.13
219.371	12393.07
219.444	12455.15
219.518	12526.49
219.591	12593.74
219.665	12689.09
219.738	12753.3
219.811	12816.35
219.885	12886.87
219.958	12962.8
220.031	13029.22
220.105	13104.76
220.178	13168.3
220.251	13221.81
220.325	13290.6
220.398	13361.22
220.471	13426.01
220.544	13491.38
220.618	13538.14
220.691	13600.47
220.764	13664.15
220.838	13737.81
220.911	13794.93
220.984	13878.86
221.057	13949.43
221.131	14008.63
221.204	14029.17
221.277	14105.33
221.35	14194.94
221.424	14254.04
221.497	14312.42
221.57	14374.75
221.643	14434.77
221.716	14494.59
221.79	14550.6
221.863	14611.44
221.936	14660.03
222.009	14719.56
222.082	14783.67
222.155	14842.91
222.229	14919.22
222.302	14982.27
222.375	15036.21
222.448	15101.86
222.521	15147.41
222.594	15199.62
222.667	15245.41
222.74	15317.81
222.814	15366.54
222.887	15404.19
222.96	15465.35
223.033	15531.68
223.106	15593.33
223.179	15647.7
223.252	15702.45
223.325	15756.49
223.398	15805.5
223.471	15853.08
223.544	15906.34
223.617	15953.77
223.69	16001.39
223.763	16034.07
223.837	16084.68
223.91	16127.14
223.983	16155.24
224.056	16190.67
224.129	16238.62
224.202	16289.71
224.275	16320.66
224.348	16347.26
224.42	16379.22
224.493	16404.38
224.566	16433.24
224.639	16476.72
224.712	16512
224.785	16545.88
224.858	16582.17
224.931	16611.52
225.004	16647.04
225.077	16680.54
225.15	16687.29
225.223	16730.28
225.296	16785.85
225.369	16796.59
225.442	16821.99
225.514	16860.5
225.587	16905.85
225.66	16944.7
225.733	16979.2
225.806	17019.25
225.879	17058.05
225.952	17085.86
226.025	17133.57
226.097	17183.5
226.17	17208.75
226.243	17216.61
226.316	17258.2
226.389	17280.17
226.461	17320.08
226.534	17357.67
226.607	17392.03
226.68	17458.15
226.753	17490.97
226.825	17498.78
226.898	17548.99
226.971	17588.71
227.044	17624.22
227.117	17658.01
227.189	17683.74
227.262	17730.92
227.335	17773.42
227.407	17803.21
227.48	17838.05
227.553	17859.35
227.626	17870.48
227.698	17897.66
227.771	17935.88
227.844	17943.49
227.916	17979.25
227.989	17986.14
228.062	18007.68
228.134	18054.04
228.207	18075.78
228.28	18096.02
228.352	18131.2
228.425	18163.82
228.498	18193.41
228.57	18212.11
228.643	18235.67
228.716	18255.96
228.788	18262.32
228.861	18262.95
228.934	18300.59
229.006	18326.95
229.079	18356.44
229.151	18381.69
229.224	18392.34
229.296	18423.42
229.369	18469.59
229.442	18502.84
229.514	18532.09
229.587	18566.45
229.659	18570.21
229.732	18588.33
229.804	18611.22
229.877	18643.41
229.949	18666.35
230.022	18711.94
230.094	18726.2
230.167	18751.98
230.239	18764.9
230.312	18792.32
230.384	18846.77
230.457	18866.58
230.529	18890.87
230.602	18912.36
230.674	18929.37
230.747	18960.89
230.819	18988.55
230.892	18970.19
230.964	18987.82
231.037	19013.17
231.109	19029.6
231.181	19044.35
231.254	19053.46
231.326	19074.23
231.399	19081.02
231.471	19085.5
231.544	19064.06
231.616	19094.56
231.688	19112.83
231.761	19124.15
231.833	19125.69
231.905	19115.67
231.978	19120.2
232.05	19118.42
232.122	19125.02
232.195	19124.59
232.267	19153.36
232.339	19155.91
232.412	19195.62
232.484	19194.75
232.556	19182.7
232.629	19213.01
232.701	19230.6
232.773	19244.48
232.846	19239.62
232.918	19252.82
232.99	19260.24
233.062	19281.78
233.135	19283.66
233.207	19268.63
233.279	19282.65
233.351	19300.24
233.424	19288.62
233.496	19285.83
233.568	19314.94
233.64	19308.62
233.713	19317.3
233.785	19299.47
233.857	19303.47
233.929	19277.97
234.001	19295.42
234.074	19317.01
234.146	19290.79
234.218	19291.61
234.29	19275.66
234.362	19268.19
234.434	19242.22
234.507	19234.36
234.579	19208.68
234.651	19202.03
234.723	19214.41
234.795	19219.81
234.867	19223.57
234.939	19242.31
235.012	19237.69
235.084	19225.59
235.156	19230.17
235.228	19218.99
235.3	19205.21
235.372	19191.47
235.444	19199.52
235.516	19171.57
235.588	19161.45
235.66	19158.46
235.732	19145.6
235.804	19203.96
235.876	19208.34
235.948	19225.26
236.02	19212.82
236.092	19204.82
236.164	19200
236.236	19172.97
236.308	19144.78
236.38	19118.03
236.452	19097.75
236.524	19082.85
236.596	19090.18
236.668	19080.16
236.74	19068.88
236.812	19067.29
236.884	19073.26
236.956	19068.06
237.028	19049.51
237.1	19025.56
237.172	19020.02
237.244	19016.26
237.316	18955.97
237.388	18927.2
237.46	18898.48
237.532	18897.13
237.604	18878.43
237.675	18869.81
237.747	18867.2
237.819	18845.52
237.891	18831.16
237.963	18798.58
238.035	18785.67
238.107	18734.2
238.178	18728.71
238.25	18703.41
238.322	18708.9
238.394	18664.04
238.466	18632.91
238.538	18613.53
238.609	18600.81
238.681	18557.01
238.753	18525.73
238.825	18508
238.897	18489.93
238.968	18482.55
239.04	18447.62
239.112	18453.93
239.184	18421.3
239.255	18391.47
239.327	18370.7
239.399	18352.87
239.471	18344.83
239.542	18327.04
239.614	18319.38
239.686	18270.9
239.758	18264.83
239.829	18226.04
239.901	18213.55
239.973	18193.03
240.044	18179.44
240.116	18154.14
240.188	18133.85
240.259	18103.92
240.331	18066.38
240.403	18046
240.474	17999.73
240.546	17974.19
240.618	17932.41
240.689	17898.72
240.761	17870.19
240.833	17865.13
240.904	17841.38
240.976	17815.11
241.048	17782.82
241.119	17761.23
241.191	17737.33
241.262	17720.66
241.334	17678.73
241.405	17651.5
241.477	17622.01
241.549	17582.83
241.62	17553.77
241.692	17523.98
241.763	17506.97
241.835	17476.95
241.906	17450.25
241.978	17411.79
242.049	17387.89
242.121	17359.36
242.192	17350.68
242.264	17311.69
242.335	17261.14
242.407	17232.51
242.478	17194.2
242.55	17165.86
242.621	17120.51
242.693	17085.67
242.764	17053.33
242.836	17020.03
242.907	16991.16
242.979	16966.39
243.05	16940.02
243.122	16916.7
243.193	16893.03
243.264	16845.13
243.336	16816.5
243.407	16799
243.479	16790.91
243.55	16765.99
243.622	16743.87
243.693	16705.94
243.764	16693.94
243.836	16656.73
243.907	16625.64
243.978	16600.53
244.05	16569.01
244.121	16526.21
244.192	16511.27
244.264	16462.64
244.335	16438.64
244.407	16404.08
244.478	16376.9
244.549	16351.31
244.62	16308.08
244.692	16276.65
244.763	16256.6
244.834	16225.95
244.906	16184.64
244.977	16164.64
245.048	16147.14
245.119	16109.98
245.191	16065.25
245.262	16011.51
245.333	15999.51
245.405	15962.59
245.476	15931.74
245.547	15906.44
245.618	15898.05
245.689	15864.36
245.761	15838.19
245.832	15819
245.903	15789.22
245.974	15763.19
246.045	15726.61
246.117	15716.58
246.188	15673.78
246.259	15627.7
246.33	15591.59
246.401	15553.52
246.473	15501.07
246.544	15467.53
246.615	15449.02
246.686	15419.95
246.757	15406.79
246.828	15374.83
246.899	15362.88
246.97	15310.39
247.042	15275.44
247.113	15242.66
247.184	15231.72
247.255	15195.09
247.326	15160.62
247.397	15121.82
247.468	15090.54
247.539	15063.88
247.61	15022.52
247.681	15006.28
247.752	14993.07
247.823	14961.55
247.894	14942.75
247.965	14904.09
248.037	14867.98
248.108	14818.57
248.179	14789.26
248.25	14763.91
248.321	14734.79
248.392	14686.4
248.463	14689.53
248.534	14658.44
248.605	14643.06
248.675	14614.38
248.746	14591.29
248.817	14569.31
248.888	14548.63
248.959	14501.29
249.03	14475.79
249.101	14447.06
249.172	14417.8
249.243	14373.93
249.314	14364.1
249.385	14335.71
249.456	14314.59
249.527	14284.03
249.598	14263.69
249.669	14241.9
249.739	14212.73
249.81	14183.81
249.881	14151.27
249.952	14126.2
250.023	14105.96
250.094	14063.01
250.165	14027.29
250.235	14003.28
250.306	13972.04
250.377	13937.77
250.448	13922.44
250.519	13892.02
250.59	13878.96
250.66	13848.1
250.731	13836.78
250.802	13814.36
250.873	13802.12
250.944	13785.05
251.014	13755.02
251.085	13761.04
251.156	13733.85
251.227	13726.62
251.297	13722.33
251.368	13712.4
251.439	13696.25
251.51	13679
251.58	13647.08
251.651	13614.78
251.722	13604.85
251.792	13564.7
251.863	13538.09
251.934	13525.89
252.005	13523.19
252.075	13498.85
252.146	13490.27
252.217	13477.35
252.287	13453.49
252.358	13415.26
252.429	13408.99
252.499	13375.92
252.57	13341.79
252.641	13328.63
252.711	13304.96
252.782	13260.27
252.852	13250.2
252.923	13223.15
252.994	13197.89
253.064	13179.67
253.135	13147.13
253.205	13105.96
253.276	13102.69
253.347	13104.95
253.417	13074.73
253.488	13040.5
253.558	13013.12
253.629	12983.04
253.699	12962.31
253.77	12954.6
253.841	12933.53
253.911	12911.07
253.982	12894.58
254.052	12884.84
254.123	12874.33
254.193	12848.16
254.264	12869.22
254.334	12833.84
254.405	12795.71
254.475	12765.25
254.546	12745.82
254.616	12742.4
254.687	12728.56
254.757	12715.93
254.827	12679.78
254.898	12662.47
254.968	12637.6
255.039	12602.22
255.109	12593.54
255.18	12562.3
255.25	12510
255.321	12494.43
255.391	12461.46
255.461	12465.41
255.532	12414.03
255.602	12380.04
255.673	12333.33
255.743	12295.4
255.813	12258.52
255.884	12252.16
255.954	12237.36
256.024	12235.87
256.095	12220.1
256.165	12189.45
256.235	12167.37
256.306	12141.34
256.376	12133.53
256.446	12125.87
256.517	12120.42
256.587	12104.8
256.657	12086.82
256.728	12071.3
256.798	12051.54
256.868	12023.05
256.938	11994.76
257.009	11989.36
257.079	11977.74
257.149	11990.28
257.219	11950.75
257.29	11933.35
257.36	11900.82
257.43	11891.32
257.5	11848.86
257.571	11812.56
257.641	11808.32
257.711	11779.54
257.781	11770.24
257.852	11751.93
257.922	11716.84
257.992	11691.44
258.062	11669.75
258.132	11666.28
258.202	11643.04
258.273	11623.81
258.343	11629.93
258.413	11599.67
258.483	11577.98
258.553	11546.26
258.623	11517.34
258.693	11504.14
258.764	11501.3
258.834	11495.56
258.904	11475.61
258.974	11451.94
259.044	11436.52
259.114	11423.7
259.184	11406.54
259.254	11390.3
259.324	11347.31
259.394	11336.56
259.464	11338.3
259.535	11325.14
259.605	11298.05
259.675	11278.78
259.745	11262.15
259.815	11224.66
259.885	11199.16
259.955	11212.51
260.025	11186.93
260.095	11167.89
260.165	11152.37
260.235	11154.44
260.305	11131.12
260.375	11103.79
260.445	11108.03
260.515	11109.72
260.585	11094.97
260.655	11082.2
260.725	11075.7
260.795	11072.52
260.865	11070.78
260.934	11052.76
261.004	11037.19
261.074	11021.14
261.144	11017.53
261.214	11020.13
261.284	11006.21
261.354	11007.99
261.424	10976.28
261.494	10984.66
261.564	10965.19
261.634	10964.57
261.703	10923.8
261.773	10915.37
261.843	10910.11
261.913	10889.83
261.983	10852.63
262.053	10849.88
262.123	10826.85
262.192	10791.62
262.262	10774.18
262.332	10743.97
262.402	10725.85
262.472	10707.87
262.541	10673.91
262.611	10667.59
262.681	10634.68
262.751	10631.98
262.821	10608.86
262.89	10577.97
262.96	10566.31
263.03	10574.45
263.1	10549.93
263.169	10533.64
263.239	10516.78
263.309	10514.27
263.379	10508.63
263.448	10498.28
263.518	10481.89
263.588	10463.15
263.657	10467.78
263.727	10471.53
263.797	10456.07
263.867	10440.75
263.936	10412.03
264.006	10408.81
264.076	10388.72
264.145	10378.4
264.215	10348.87
264.285	10339.67
264.354	10312.16
264.424	10284.51
264.494	10252.18
264.563	10237.1
264.633	10247.07
264.702	10242.64
264.772	10208.24
264.842	10184.06
264.911	10170.52
264.981	10141.08
265.05	10129.09
265.12	10114.4
265.19	10100.33
265.259	10099.56
265.329	10087.9
265.398	10077.78
265.468	10087.27
265.537	10069.93
265.607	10056.01
265.676	10056.1
265.746	10052.83
265.815	10052.4
265.885	10038.19
265.955	10014.44
266.024	9994.93
266.094	9952.98
266.163	9950.47
266.232	9949.56
266.302	9937.32
266.371	9930
266.441	9916.32
266.51	9918.05
266.58	9896.62
266.649	9873.88
266.719	9871.43
266.788	9863.24
266.858	9868.82
266.927	9834.58
266.996	9827.16
267.066	9817.81
267.135	9792.14
267.205	9781.64
267.274	9769.12
267.343	9769.79
267.413	9760.5
267.482	9760.5
267.552	9770.37
267.621	9745.61
267.69	9718.21
267.76	9711.23
267.829	9702.89
267.898	9689.79
267.968	9667.93
268.037	9663.21
268.106	9659.45
268.176	9623.43
268.245	9615.29
268.314	9594.09
268.384	9591.3
268.453	9576.23
268.522	9570.35
268.592	9571.22
268.661	9553.06
268.73	9544.3
268.799	9525.56
268.869	9533.56
268.938	9510.49
269.007	9494.26
269.076	9481.84
269.146	9486.94
269.215	9473.27
269.284	9476.83
269.353	9462.87
269.422	9448.9
269.492	9433.25
269.561	9391.94
269.63	9391.79
269.699	9368.34
269.768	9363.53
269.838	9356.69
269.907	9356.45
269.976	9329.63
270.045	9296.02
270.114	9295.54
270.183	9279.02
270.253	9270.64
270.322	9245.08
270.391	9232.61
270.46	9231.45
270.529	9227.41
270.598	9216.09
270.667	9208.77
270.736	9186.62
270.806	9180.89
270.875	9183.88
270.944	9171.41
271.013	9192.88
271.082	9187.49
271.151	9181.13
271.22	9149.89
271.289	9135.34
271.358	9121.14
271.427	9115.7
271.496	9108.96
271.565	9087.15
271.634	9078.73
271.703	9104.54
271.772	9104.3
271.841	9102.52
271.91	9081.24
271.979	9065.83
272.048	9047.39
272.117	9043.54
272.186	9024.43
272.255	9021.35
272.324	9014.46
272.393	9009.36
272.462	8996.17
272.531	8983.02
272.6	8975.37
272.669	8980.66
272.738	8969.88
272.807	8964.3
272.876	8938.64
272.945	8964.16
273.013	8966.66
273.082	8975.95
273.151	8928.86
273.22	8919.38
273.289	8904.12
273.358	8906.96
273.427	8900.32
273.496	8900.94
273.564	8899.11
273.633	8904.79
273.702	8885.06
273.771	8873.22
273.84	8868.89
273.909	8864.65
273.977	8864.46
274.046	8857.14
274.115	8861.76
274.184	8843.76
274.253	8836.54
274.322	8854.11
274.39	8823.93
274.459	8806.84
274.528	8778.1
274.597	8775.36
274.665	8780.56
274.734	8790.91
274.803	8785.03
274.872	8775.98
274.94	8758.56
275.009	8788.66
275.078	8777.44
275.147	8773.64
275.215	8770.27
275.284	8771.28
275.353	8761.08
275.421	8734.7
275.49	8745.34
275.559	8733.6
275.627	8734.46
275.696	8724.69
275.765	8715.07
275.833	8705.35
275.902	8711.36
275.971	8725.99
276.039	8740.87
276.108	8739.76
276.177	8735.09
276.245	8717.57
276.314	8716.03
276.383	8722.53
276.451	8685.74
276.52	8682.28
276.588	8699.94
276.657	8707.16
276.725	8704.9
276.794	8702.88
276.863	8721.21
276.931	8695.46
277	8695.41
277.068	8705.18
277.137	8723.28
277.205	8723.86
277.274	8739.4
277.342	8742.87
277.411	8722.13
277.48	8698.69
277.548	8680.01
277.617	8680.44
277.685	8683.19
277.754	8685.83
277.822	8677.08
277.89	8682.42
277.959	8675.3
278.027	8657.68
278.096	8642.13
278.164	8662.45
278.233	8659.42
278.301	8644.06
278.37	8651.72
278.438	8642.33
278.507	8637.57
278.575	8613.45
278.643	8617.3
278.712	8605.61
278.78	8587.8
278.849	8595.5
278.917	8612.35
278.985	8610.85
279.054	8610.13
279.122	8618.31
279.191	8610.04
279.259	8605.85
279.327	8585.63
279.396	8597.52
279.464	8590.54
279.532	8597.04
279.601	8587.89
279.669	8579.28
279.737	8590.88
279.806	8592.27
279.874	8600.36
279.942	8596.41
280.011	8597.04
280.079	8593.57
280.147	8603.49
280.215	8612.82
280.284	8609.89
280.352	8594.87
280.42	8605.22
280.488	8598.05
280.557	8589.48
280.625	8599.15
280.693	8602.09
280.761	8603.63
280.83	8586.93
280.898	8600.55
280.966	8585.34
281.034	8558.01
281.102	8545.54
281.171	8540.83
281.239	8550.41
281.307	8542.51
281.375	8533.47
281.443	8550.65
281.512	8549.88
281.58	8557.77
281.648	8542.28
281.716	8541.07
281.784	8538.28
281.852	8530.53
281.92	8534.14
281.989	8538.72
282.057	8516.1
282.125	8559.28
282.193	8555.24
282.261	8558.41
282.329	8554.99
282.397	8558.7
282.465	8561.73
282.533	8573.66
282.601	8565.43
282.67	8545.8
282.738	8536.75
282.806	8551.57
282.874	8535.26
282.942	8535.59
283.01	8529.91
283.078	8537.42
283.146	8529.77
283.214	8540.93
283.282	8540.89
283.35	8546.76
283.418	8544.83
283.486	8556.43
283.554	8512.34
283.622	8511.57
283.69	8510.84
283.758	8502.38
283.826	8507.91
283.894	8517.82
283.962	8538.9
284.03	8551.22
284.098	8549.92
284.165	8545.4
284.233	8543.38
284.301	8542.85
284.369	8539.87
284.437	8526.73
284.505	8521.82
284.573	8542.03
284.641	8528.84
284.709	8539.58
284.777	8524.37
284.845	8532.41
284.912	8533.27
284.98	8537.8
285.048	8537.03
285.116	8545.64
285.184	8560.17
285.252	8559.21
285.319	8543.72
285.387	8531.83
285.455	8517.2
285.523	8520.9
285.591	8522.16
285.659	8520.28
285.726	8527.59
285.794	8509.55
285.862	8512.39
285.93	8508.88
285.997	8499.78
286.065	8495.74
286.133	8484
286.201	8484.48
286.269	8473.12
286.336	8461.96
286.404	8458.01
286.472	8464.7
286.539	8440.88
286.607	8421.1
286.675	8417.88
286.743	8424.95
286.81	8425.39
286.878	8434.05
286.946	8427.89
287.013	8423.41
287.081	8420.05
287.149	8407.53
287.216	8429.38
287.284	8420.96
287.352	8416.39
287.419	8418.02
287.487	8432.8
287.555	8435.78
287.622	8425.39
287.69	8424.91
287.758	8434.91
287.825	8426.01
287.893	8416.72
287.96	8427.84
288.028	8442.13
288.096	8446.99
288.163	8450.79
288.231	8438.04
288.298	8440.59
288.366	8450.12
288.433	8454.3
288.501	8449.93
288.569	8457.43
288.636	8455.41
288.704	8470.67
288.771	8486.16
288.839	8476.2
288.906	8469.46
288.974	8476.97
289.041	8478.17
289.109	8472.49
289.176	8484
289.244	8494.63
289.311	8506.32
289.379	8512.87
289.446	8512.82
289.514	8511.18
289.581	8514.36
289.649	8512.82
289.716	8512.68
289.783	8508.87
289.851	8529.18
289.918	8530.48
289.986	8538.28
290.053	8536.5
290.121	8536.4
290.188	8538.47
290.255	8565.47
290.323	8562.92
290.39	8554.3
290.458	8560.32
290.525	8569.75
290.592	8561.71
290.66	8559.35
290.727	8550.06
290.794	8567.73
290.862	8572.97
290.929	8574.32
290.996	8572.88
291.064	8584.62
291.131	8592.46
291.198	8602.96
291.266	8599.88
291.333	8602.47
291.4	8609.5
291.468	8629.91
291.535	8617.35
291.602	8624.76
291.669	8619.61
291.737	8625.63
291.804	8630.29
291.871	8646.42
291.938	8656.09
292.006	8686.95
292.073	8703.4
292.14	8717.22
292.207	8701.96
292.275	8692.14
292.342	8704.03
292.409	8730.22
292.476	8756.79
292.543	8754.04
292.611	8754.67
292.678	8768.24
292.745	8789.95
292.812	8792.64
292.879	8785.95
292.946	8799.62
293.014	8815.79
293.081	8825.71
293.148	8838.51
293.215	8849.92
293.282	8847.56
293.349	8856.95
293.416	8837.64
293.484	8853.58
293.551	8864.94
293.618	8885.01
293.685	8914.9
293.752	8906.96
293.819	8899.35
293.886	8884
293.953	8889.34
294.02	8904.79
294.087	8912.98
294.154	8907.15
294.221	8924.24
294.288	8928.19
294.356	8944.7
294.423	8944.75
294.49	8934.98
294.557	8942.29
294.624	8932.62
294.691	8952.84
294.758	8950.96
294.825	8960.87
294.892	8950.62
294.959	8948.65
295.026	8954.33
295.093	8947.11
295.16	8954.37
295.226	8955.43
295.293	8979.26
295.36	8986
295.427	8994.62
295.494	9008.54
295.561	9019.99
295.628	9039.06
295.695	9050.95
295.762	9056.1
295.829	9062.75
295.896	9082.2
295.963	9097.6
296.03	9112.67
296.096	9121.43
296.163	9138.86
296.23	9153.21
296.297	9162.65
296.364	9163.18
296.431	9170.25
296.498	9174.1
296.564	9196.15
296.631	9198.66
296.698	9181.81
296.765	9201.26
296.832	9192.49
296.899	9173.62
296.965	9189.46
297.032	9176.6
297.099	9194.95
297.166	9202.65
297.233	9201.59
297.299	9191.29
297.366	9191
297.433	9194.18
297.5	9201.11
297.566	9202.03
297.633	9205.54
297.7	9212.33
297.767	9214.98
297.833	9221.58
297.9	9219.46
297.967	9206.84
298.033	9224.27
298.1	9263.57
298.167	9253.98
298.234	9255.43
298.3	9269.01
298.367	9265.68
298.434	9269.05
298.5	9261.16
298.567	9256.29
298.634	9253.5
298.7	9276.81
298.767	9279.79
298.834	9295.2
298.9	9286.58
298.967	9273.48
299.033	9277.43
299.1	9292.12
299.167	9303.19
299.233	9299.73
299.3	9319.08
299.366	9337.04
299.433	9353.32
299.5	9321.2
299.566	9328.81
299.633	9351.15
299.699	9361.84
299.766	9358.37
299.832	9365.16
299.899	9371.42
299.965	9385.05
300.032	9387.26
300.099	9383.07
300.165	9388.85
300.232	9386.11
300.298	9382.93
300.365	9398.29
300.431	9396.65
300.498	9394.58
300.564	9404.84
300.631	9419.91
300.697	9427.09
300.763	9422.32
300.83	9415.24
300.896	9432.81
300.963	9445.77
301.029	9444.76
301.096	9447.98
301.162	9457.52
301.229	9448.85
301.295	9438.74
301.361	9446.92
301.428	9451.02
301.494	9443.12
301.561	9444.76
301.627	9446.83
301.693	9454.72
301.76	9460.21
301.826	9455.59
301.892	9460.89
301.959	9466.72
302.025	9459.83
302.092	9455.21
302.158	9459.01
302.224	9462.19
302.291	9450.44
302.357	9442.49
302.423	9439.22
302.49	9437.39
302.556	9452.41
302.622	9455.59
302.688	9468.45
302.755	9477.6
302.821	9478.47
302.887	9490.31
302.954	9495.08
303.02	9506.11
303.086	9515.31
303.152	9514.25
303.219	9517.14
303.285	9519.59
303.351	9527.4
303.417	9526.48
303.483	9515.26
303.55	9511.36
303.616	9507.75
303.682	9509.34
303.748	9498.55
303.815	9516.08
303.881	9515.17
303.947	9501.3
304.013	9503.8
304.079	9498.84
304.145	9479.05
304.212	9486.46
304.278	9479
304.344	9466.19
304.41	9447.99
304.476	9437.39
304.542	9433.97
304.608	9441.24
304.674	9426.99
304.741	9419.04
304.807	9425.74
304.873	9433.15
304.939	9453.43
305.005	9438.26
305.071	9437.05
305.137	9441.63
305.203	9408.93
305.269	9417.31
305.335	9429.01
305.401	9421.93
305.467	9414.57
305.533	9419.33
305.599	9421.11
305.666	9424.2
305.732	9429.88
305.798	9444.08
305.864	9473.27
305.93	9478.9
305.996	9472.31
306.062	9470.62
306.128	9466.87
306.194	9453.86
306.259	9452.56
306.325	9433.2
306.391	9441.29
306.457	9448.71
306.523	9451.69
306.589	9479.34
306.655	9467.15
306.721	9448.56
306.787	9433.4
306.853	9447.46
306.919	9426.61
306.985	9421.5
307.051	9415.2
307.117	9404.46
307.183	9400.12
307.248	9364.87
307.314	9363.91
307.38	9370.51
307.446	9377.92
307.512	9364.87
307.578	9365.31
307.644	9353.85
307.709	9357.46
307.775	9353.41
307.841	9348.55
307.907	9350.57
307.973	9330.06
308.039	9324.57
308.104	9331.69
308.17	9335.88
308.236	9326.49
308.302	9330.82
308.368	9312.96
308.433	9318.88
308.499	9315.56
308.565	9306.8
308.631	9309.4
308.696	9287.68
308.762	9267.27
308.828	9262.11
308.894	9246.32
308.959	9231.16
309.025	9228.94
309.091	9227.45
309.156	9218.01
309.222	9218.97
309.288	9201.98
309.354	9176.17
309.419	9177.43
309.485	9158.6
309.551	9163.32
309.616	9143.1
309.682	9140.88
309.748	9140.06
309.813	9131.3
309.879	9121.96
309.945	9107.52
310.01	9096.73
310.076	9102.99
310.141	9098.27
310.207	9080.99
310.273	9086.57
310.338	9090.66
310.404	9075.79
310.469	9064.09
310.535	9055.76
310.601	9034.58
310.666	9043.58
310.732	9062.31
310.797	9045.07
310.863	9033.95
310.928	9026.63
310.994	9035.3
311.059	9034.96
311.125	9033.32
311.191	9043.58
311.256	9031.3
311.322	9035.73
311.387	9024.18
311.453	9369.16
311.518	9345.91
311.584	9349.57
311.649	9350.24
311.715	9337.44
311.78	9341.19
311.846	9329.73
311.911	9336.76
311.976	9338.64
312.042	9317.7
312.107	9299.55
312.173	9292.76
312.238	9290.74
312.304	9284.82
312.369	9268.84
312.434	9258.68
312.5	9252.13
312.565	9219.59
312.631	9229.17
312.696	9221.32
312.761	9220.5
312.827	8863.39
312.892	8901.61
312.958	8898.24
313.023	8895.89
313.088	8894.68
313.154	8878.13
313.219	8874.95
313.284	8865.56
313.35	8865.27
313.415	8863.92
313.48	8860.22
313.546	8870.23
313.611	8879.95
313.676	8873.7
313.741	8869.12
313.807	8874.03
313.872	8877.36
313.937	8877.31
314.003	8890.5
314.068	8888.24
314.133	8891.12
314.198	8878.61
314.264	8859.88
314.329	8849
314.394	8840.72
314.459	8838.12
314.525	8860.07
314.59	8851.02
314.655	8837.55
314.72	8841.97
314.785	8840.48
314.851	8833.79
314.916	8810.59
314.981	8797.36
315.046	8786.33
315.111	8772.38
315.176	8762.94
315.242	8761.11
315.307	8763.37
315.372	8737.24
315.437	8726.02
315.502	8723.95
315.567	8734.93
315.632	8714.57
315.698	8715.87
315.763	8718.22
315.828	8711.73
315.893	8704.41
315.958	8701.09
316.023	8691.66
316.088	8668.6
316.153	8646.51
316.218	8641.94
316.283	8623.71
316.348	8604.89
316.413	8601.91
316.479	8589.49
316.544	8554.42
316.609	8531.36
316.674	8497.3
316.739	8462.65
316.804	8432.44
316.869	8391.54
316.934	8354.82
316.999	8328.94
317.064	8276.07
317.129	8230.93
317.194	8188.22
317.259	8137.99
317.324	8087
317.389	8041.45
317.454	8003.06
317.518	7971.85
317.583	7944.24
317.648	7922.21
317.713	7888.73
317.778	7832.6
317.843	7806.58
317.908	7765.71
317.973	7716.66
318.038	7687.91
318.103	7649.3
318.168	7622.95
318.233	7597.56
318.297	7548.14
318.362	7509.72
318.427	7471.52
318.492	7446.13
318.557	7405.52
318.622	7381.38
318.687	7360.81
318.751	7320.69
318.816	7284.31
318.881	7252.92
318.946	7199.24
319.011	7152.38
319.075	7112.35
319.14	7072.04
319.205	7022.98
319.27	6992.19
319.335	6952.36
319.399	6913.26
319.464	6887.32
319.529	6828.24
319.594	6785.96
319.658	6757.86
319.723	6719.44
319.788	6692.26
319.853	6637.93
319.917	6608.79
319.982	6554.23
320.047	6512.94
320.112	6492.15
320.176	6445.77
320.241	6405.01
320.306	6375.1
320.37	6340.25
320.435	6308.61
320.5	6284.66
320.564	6247.47
320.629	6206.63
320.694	6178.51
320.758	6134.46
320.823	6089.21
320.888	6064.65
320.952	6017.1
321.017	5971.57
321.082	5931.52
321.146	5896.79
321.211	5865.75
321.275	5822.69
321.34	5782.31
321.405	5743.23
321.469	5696.95
321.534	5655.63
321.598	5608.5
321.663	5575.98
321.727	5539.11
321.792	5487.19
321.857	5447.11
321.921	5408.24
321.986	5368.81
322.05	5310.39
322.115	5274.41
322.179	5233.25
322.244	5179.55
322.308	5145.01
322.373	5101.52
322.437	5059.42
322.502	5031.29
322.566	4983.92
322.631	4949.39
322.695	4911.18
322.76	4866.66
322.824	4832.71
322.889	4791.69
322.953	4750.53
323.018	4685.57
323.082	4625.28
323.146	4573.13
323.211	4517.48
323.275	4472.03
323.34	4425.53
323.404	4389.33
323.468	4343.02
323.533	4300.27
323.597	4256.81
323.662	4206.22
323.726	4172.32
323.79	4126.61
323.855	4060.95
323.919	4012.43
323.983	3964.96
324.048	3899.71
324.112	4032.5
324.177	3905.24
324.241	3702.06
324.305	3500.17
324.37	3305.31
324.434	3117.23
324.498	3078.18
324.562	3029.04
324.627	2972.49
324.691	2917.9
324.755	2854.99
324.82	2781.22
324.884	2704.5
324.948	2632.49
325.012	2540.29
325.077	2416.55
