Data from 20250702_urea_0.5M_MAYP1162681_17-44-59-442.txt Node
Date: Wed Jul 02 17:44:59 BST 2025
User: adleo
Spectrometer: MAYP116268
Trigger mode: 0
Integration Time (sec): 1.000000E0
Scans to average: 1
Electric dark correction enabled: true
Nonlinearity correction enabled: true
Boxcar width: 10
XAxis mode: Wavelengths
Number of Pixels in Spectrum: 2068
>>>>>Begin Spectral Data<<<<<
179.565	1118.28
179.642	1171.73
179.718	1212.05
179.795	1247.18
179.871	1277.76
179.948	1297.16
180.024	1315.22
180.101	1337.14
180.177	1350.04
180.254	1373.37
180.33	1392.48
180.407	1440.04
180.483	1529.22
180.56	1613.45
180.636	1693.06
180.712	1679.57
180.789	1691.44
180.865	1704.08
180.942	1711.16
181.018	1723.51
181.095	1735.3
181.171	1740.57
181.248	1738.62
181.324	1753.55
181.4	1763.29
181.477	1772.27
181.553	1782.77
181.63	1802.93
181.706	1814.33
181.782	1821.32
181.859	1817.13
181.935	1824.79
182.011	1821.27
182.088	1837.34
182.164	1854.45
182.24	1863.29
182.317	1873.84
182.393	1871.04
182.469	1882.16
182.546	1897.8
182.622	1904.31
182.698	1900.41
182.775	1909.69
182.851	1924.14
182.927	1919.52
183.003	1912.25
183.08	1907.17
183.156	1917.39
183.232	1913.77
183.308	1908.59
183.385	1916.77
183.461	1932.31
183.537	1932.31
183.613	1944.24
183.69	1931.74
183.766	1922.75
183.842	1930.5
183.918	1937.06
183.995	1946.57
184.071	1952.8
184.147	1942.77
184.223	1929.27
184.299	1941.78
184.375	1931.51
184.452	1939.36
184.528	1988.68
184.604	1999.76
184.68	2011.02
184.756	2017.35
184.832	2022.06
184.908	2023.24
184.985	2024.15
185.061	2011.22
185.137	2020.97
185.213	2009.27
185.289	2014.4
185.365	2005.28
185.441	2005.13
185.517	2017.5
185.593	2016.93
185.669	2013.37
185.745	2028.2
185.822	2046.83
185.898	2039.56
185.974	2047.12
186.05	2039.5
186.126	2004.02
186.202	1997.32
186.278	1994.32
186.354	1985.48
186.43	1993.04
186.506	1992.33
186.582	1990.09
186.658	1995.8
186.734	1975.07
186.81	1978.35
186.886	1982.39
186.962	1995.7
187.038	1992.09
187.114	1983.9
187.19	1988.9
187.266	1978.68
187.341	1977.87
187.417	1970.12
187.493	1968.79
187.569	1971.73
187.645	1966.31
187.721	1953.43
187.797	1960.7
187.873	1966.07
187.949	1958.28
188.025	1950.76
188.101	1953.18
188.176	1959.51
188.252	1957.23
188.328	1965.45
188.404	1965.26
188.48	1958.46
188.556	1952.04
188.632	1952.47
188.707	1952.71
188.783	1950.61
188.859	1944.58
188.935	1930.69
189.011	1937.45
189.086	1928.37
189.162	1922.19
189.238	1918.29
189.314	1915.91
189.39	1910.92
189.465	1904.59
189.541	1922.52
189.617	1909.45
189.693	1905.64
189.768	1907.45
189.844	1929.95
189.92	1921.2
189.996	1930.62
190.071	1942.74
190.147	1942.17
190.223	1949.73
190.298	1940.89
190.374	1929.81
190.45	1945.97
190.526	1958.38
190.601	1952.44
190.677	1955.2
190.753	1979.7
190.828	1984.54
190.904	1999.57
190.98	2012.98
191.055	2022.68
191.131	2010.65
191.207	2029.39
191.282	2038.42
191.358	2030.86
191.433	2016.16
191.509	2030.04
191.585	2024.81
191.66	2024.28
191.736	2031.18
191.811	2025.9
191.887	2041.6
191.963	2062.62
192.038	2067.7
192.114	2065.8
192.189	2070.79
192.265	2068.7
192.34	2047.72
192.416	2046.11
192.491	2042.3
192.567	2045.82
192.642	2044.82
192.718	2049.77
192.793	2037.12
192.869	2033.03
192.944	2033.69
193.02	2040.78
193.095	2043.82
193.171	2052.1
193.246	2052.34
193.322	2049.1
193.397	2043.87
193.473	2031.17
193.548	2016.62
193.624	2020.09
193.699	2019.19
193.775	2034.7
193.85	2037.45
193.925	2046.39
194.001	2046.68
194.076	2038.74
194.152	2027.99
194.227	2022.8
194.302	2012.2
194.378	2017.57
194.453	2012.96
194.529	2025.33
194.604	2012.63
194.679	2006.3
194.755	1990
194.83	1999.56
194.905	2000.37
194.981	2011.83
195.056	2005.93
195.131	2011.64
195.207	2007.98
195.282	2000.37
195.357	1980.96
195.433	1992.37
195.508	1981.53
195.583	1984.76
195.659	1998.32
195.734	2005.98
195.809	2005.02
195.884	2013.58
195.96	2015.48
196.035	2030.79
196.11	2026.99
196.185	2037.31
196.261	2041.64
196.336	2069.17
196.411	2057.38
196.486	2062.37
196.561	2057.28
196.637	2063.75
196.712	2077.4
196.787	2080.45
196.862	2095.48
196.937	2105.6
197.013	2115.55
197.088	2127.06
197.163	2149.32
197.238	2164.13
197.313	2162.99
197.388	2177.97
197.464	2206
197.539	2213.52
197.614	2206.24
197.689	2219.14
197.764	2236.32
197.839	2256.44
197.914	2249.02
197.989	2270.34
198.065	2284
198.14	2329.94
198.215	2355.74
198.29	2367.88
198.365	2382.3
198.44	2389.92
198.515	2417.24
198.59	2431.19
198.665	2455.52
198.74	2464.9
198.815	2465.57
198.89	2486.18
198.965	2513.57
199.04	2510.14
199.115	2526.66
199.19	2568.22
199.265	2569.93
199.34	2577.41
199.415	2608.14
199.49	2630.42
199.565	2639.38
199.64	2659.19
199.715	2657.43
199.79	2668.43
199.865	2672.81
199.94	2670.34
200.015	2703.45
200.09	2707.17
200.165	2708.64
200.24	2715.46
200.315	2750.5
200.39	2764.79
200.464	2774.7
200.539	2772.42
200.614	2788.14
200.689	2811.35
200.764	2817.26
200.839	2834.88
200.914	2840.31
200.989	2832.68
201.063	2843.5
201.138	2826.17
201.213	2826.93
201.288	2807.63
201.363	2809.11
201.438	2809.92
201.512	2827.73
201.587	2808.81
201.662	2814.39
201.737	2828.78
201.812	2835.64
201.886	2807.7
201.961	2819.9
202.036	2805.14
202.111	2802.99
202.186	2773.28
202.26	2755.12
202.335	2735.06
202.41	2727.39
202.485	2711.43
202.559	2688.33
202.634	2664.98
202.709	2675.55
202.784	2659.88
202.858	2662.31
202.933	2645.83
203.008	2642.25
203.082	2620.87
203.157	2621.77
203.232	2580.92
203.306	2559.43
203.381	2528.71
203.456	2505.23
203.53	2483.92
203.605	2467.46
203.68	2447.45
203.754	2441.84
203.829	2429.84
203.904	2411.85
203.978	2402.8
204.053	2406.75
204.127	2396.37
204.202	2393.76
204.277	2378.38
204.351	2370.67
204.426	2363.29
204.5	2354.58
204.575	2319.36
204.65	2332.93
204.724	2324.07
204.799	2331.97
204.873	2330.78
204.948	2331.3
205.022	2320.08
205.097	2308.84
205.171	2321.16
205.246	2330.21
205.32	2329.78
205.395	2327.78
205.469	2318.6
205.544	2324.65
205.618	2308.99
205.693	2323.79
205.767	2313.42
205.842	2331.79
205.916	2325.23
205.991	2316.56
206.065	2322.47
206.14	2338.5
206.214	2331.02
206.289	2324.97
206.363	2335.97
206.438	2338.06
206.512	2344.3
206.586	2364.14
206.661	2373.33
206.735	2353.02
206.81	2355.68
206.884	2372.91
206.958	2361.92
207.033	2380.28
207.107	2387.43
207.181	2419.09
207.256	2413.43
207.33	2434.51
207.405	2448.14
207.479	2472.42
207.553	2482.13
207.628	2472.57
207.702	2485.75
207.776	2486.42
207.851	2495.89
207.925	2519.14
207.999	2525.29
208.073	2533.43
208.148	2544.96
208.222	2544.77
208.296	2585.23
208.371	2612.73
208.445	2634.51
208.519	2679.33
208.593	2707.62
208.668	2725.26
208.742	2748.91
208.816	2770.4
208.89	2807.92
208.965	2833.2
209.039	2865.05
209.113	2908.24
209.187	2954.88
209.261	2985.62
209.336	3037.78
209.41	3094.3
209.484	3130.19
209.558	3188.77
209.632	3243.39
209.707	3302.9
209.781	3371.8
209.855	3440.6
209.929	3512.71
210.003	3576.55
210.077	3638.16
210.151	3744.95
210.226	3841.55
210.3	3935.57
210.374	4027.29
210.448	4102.54
210.522	4189.1
210.596	4280.45
210.67	4375.29
210.744	4507.97
210.818	4631.67
210.892	4741.86
210.966	4831.46
211.041	4946.89
211.115	5049.51
211.189	5175.91
211.263	5296.49
211.337	5412.21
211.411	5537.42
211.485	5640.63
211.559	5771.8
211.633	5890.45
211.707	5984.75
211.781	6120.42
211.855	6212.76
211.929	6342.94
212.003	6462.24
212.077	6612.27
212.151	6755.97
212.225	6904.73
212.299	7039.55
212.373	7167.55
212.447	7307.65
212.52	7481.16
212.594	7632.42
212.668	7792.13
212.742	7936.94
212.816	8082.28
212.89	8233.55
212.964	8381.12
213.038	8543.72
213.112	8709.89
213.186	8882.56
213.26	9022.55
213.333	9138.87
213.407	9304.88
213.481	9464.09
213.555	9639.82
213.629	9789.13
213.703	9940.41
213.777	10107.76
213.85	10249.25
213.924	10450.43
213.998	10616.26
214.072	10775.08
214.146	10921.46
214.219	11077.39
214.293	11235.31
214.367	11401.9
214.441	11575.4
214.515	11738.78
214.588	11877.34
214.662	12011.43
214.736	12152.37
214.81	12314.55
214.883	12476.64
214.957	12624.86
215.031	12775.64
215.105	12901.4
215.178	13037.67
215.252	13181.27
215.326	13300.58
215.4	13431.17
215.473	13524.2
215.547	13645.39
215.621	13771.64
215.694	13919.1
215.768	14047.81
215.842	14165.63
215.915	14297.42
215.989	14405.93
216.063	14529.71
216.136	14668.11
216.21	14795.61
216.284	14934.43
216.357	15066.07
216.431	15187.21
216.504	15317.93
216.578	15457.67
216.652	15593.26
216.725	15714.14
216.799	15843.27
216.873	15961.07
216.946	16076.7
217.02	16191.51
217.093	16309.02
217.167	16400.84
217.24	16502.53
217.314	16598.3
217.387	16707.95
217.461	16804.49
217.535	16914.56
217.608	16999.77
217.682	17097.46
217.755	17210.38
217.829	17307.83
217.902	17406.72
217.976	17510.77
218.049	17600.12
218.123	17677.27
218.196	17768.45
218.27	17854.28
218.343	17930.18
218.417	18021.89
218.49	18116.35
218.563	18217.16
218.637	18312.73
218.71	18416.72
218.784	18505.92
218.857	18600.95
218.931	18689.62
219.004	18770.15
219.077	18861.85
219.151	18947.49
219.224	19023.53
219.298	19099.38
219.371	19188.49
219.444	19253.35
219.518	19311.81
219.591	19387.08
219.665	19492.71
219.738	19569.48
219.811	19623.74
219.885	19696.75
219.958	19781.18
220.031	19851.44
220.105	19922.91
220.178	19983.1
220.251	20045.07
220.325	20104.69
220.398	20168.49
220.471	20229.31
220.544	20296.83
220.618	20342.56
220.691	20405.79
220.764	20456.68
220.838	20512.88
220.911	20552.97
220.984	20620.25
221.057	20682.18
221.131	20727.14
221.204	20738.71
221.277	20800.06
221.35	20881.56
221.424	20928.84
221.497	20968.07
221.57	21011.78
221.643	21059.26
221.716	21111.07
221.79	21147.41
221.863	21188.33
221.936	21226.41
222.009	21260.05
222.082	21308.87
222.155	21346.37
222.229	21386.18
222.302	21432.74
222.375	21471.3
222.448	21514.06
222.521	21550.21
222.594	21588.43
222.667	21616.67
222.74	21653.69
222.814	21680.58
222.887	21705.55
222.96	21743.63
223.033	21782.15
223.106	21810.92
223.179	21841.92
223.252	21867.23
223.325	21898.32
223.398	21923.24
223.471	21958.91
223.544	21979.01
223.617	21995.35
223.69	22023.79
223.763	22041.05
223.837	22067.85
223.91	22094.8
223.983	22096.43
224.056	22103.13
224.129	22123.28
224.202	22158.86
224.275	22182.48
224.348	22196.75
224.42	22199.98
224.493	22193.13
224.566	22192.07
224.639	22209.86
224.712	22212.27
224.785	22220.42
224.858	22226.97
224.931	22240.18
225.004	22232.23
225.077	22249.92
225.15	22229.38
225.223	22236.42
225.296	22267.9
225.369	22259.27
225.442	22245.97
225.514	22260.24
225.587	22267.13
225.66	22268.53
225.733	22269.88
225.806	22269.35
225.879	22267.32
225.952	22262.31
226.025	22285.98
226.097	22314.52
226.17	22319
226.243	22307.72
226.316	22314.23
226.389	22316.69
226.461	22322.77
226.534	22328.02
226.607	22321.13
226.68	22351.5
226.753	22355.5
226.825	22333.8
226.898	22349.09
226.971	22348.89
227.044	22345.47
227.117	22341.42
227.189	22343.01
227.262	22351.93
227.335	22359.74
227.407	22363.74
227.48	22381.77
227.553	22383.84
227.626	22360.89
227.698	22354.43
227.771	22357.76
227.844	22341.47
227.916	22346.05
227.989	22319
228.062	22315
228.134	22341.37
228.207	22331.25
228.28	22315.58
228.352	22310.23
228.425	22296.3
228.498	22301.02
228.57	22287.52
228.643	22302.9
228.716	22308.59
228.788	22297.94
228.861	22286.51
228.934	22279.23
229.006	22261.54
229.079	22246.45
229.151	22229.82
229.224	22195.59
229.296	22186.63
229.369	22215.26
229.442	22221.68
229.514	22216.57
229.587	22218.88
229.659	22191.69
229.732	22181.76
229.804	22187.11
229.877	22201.43
229.949	22197.57
230.022	22203.12
230.094	22192.32
230.167	22191.98
230.239	22159.15
230.312	22141.46
230.384	22153.66
230.457	22147.34
230.529	22138.33
230.602	22134.96
230.674	22141.66
230.747	22160.31
230.819	22163.4
230.892	22112.87
230.964	22092.39
231.037	22089.98
231.109	22072.82
231.181	22062.11
231.254	22041.24
231.326	22021.57
231.399	22009.57
231.471	22000.89
231.544	21965.9
231.616	21970.81
231.688	21940.11
231.761	21925.45
231.833	21903.38
231.905	21859.9
231.978	21840.28
232.05	21816.8
232.122	21798.05
232.195	21773.9
232.267	21770.48
232.339	21744.07
232.412	21737.03
232.484	21716.01
232.556	21691.29
232.629	21692.59
232.701	21684.2
232.773	21673.21
232.846	21662.12
232.918	21631.66
232.99	21607.7
233.062	21602.98
233.135	21578.93
233.207	21552.66
233.279	21547.26
233.351	21533.67
233.424	21510.63
233.496	21482.96
233.568	21485.57
233.64	21444.6
233.713	21423.34
233.785	21394.52
233.857	21386.66
233.929	21350.46
234.001	21339.57
234.074	21323.96
234.146	21291.04
234.218	21263.66
234.29	21229.01
234.362	21189.53
234.434	21149.38
234.507	21120.71
234.579	21078.15
234.651	21047.06
234.723	21032.02
234.795	21000.17
234.867	20973.42
234.939	20962.57
235.012	20945.61
235.084	20925.03
235.156	20911.39
235.228	20874.09
235.3	20835.68
235.372	20790.85
235.444	20785.22
235.516	20738.13
235.588	20718.56
235.66	20680.68
235.732	20646.13
235.804	20680.68
235.876	20666.32
235.948	20663.24
236.02	20622.56
236.092	20597.6
236.164	20562.42
236.236	20529.36
236.308	20503.62
236.38	20485.31
236.452	20442.71
236.524	20410.66
236.596	20387.91
236.668	20369.02
236.74	20349.45
236.812	20326.85
236.884	20316.68
236.956	20279.38
237.028	20242.8
237.1	20202.9
237.172	20188.78
237.244	20176.3
237.316	20105.98
237.388	20063.82
237.46	20007.53
237.532	20003.53
237.604	19962.33
237.675	19954.52
237.747	19925.75
237.819	19885.75
237.891	19846.38
237.963	19809.9
238.035	19771.83
238.107	19706.87
238.178	19685.52
238.25	19638.53
238.322	19622.29
238.394	19570.39
238.466	19538.15
238.538	19515.02
238.609	19485.53
238.681	19431.75
238.753	19391.17
238.825	19360.23
238.897	19326.65
238.968	19321.83
239.04	19268.72
239.112	19262.36
239.184	19212.2
239.255	19172.97
239.327	19151.81
239.399	19119.86
239.471	19096.88
239.542	19064.06
239.614	19047.19
239.686	18981.56
239.758	18966.62
239.829	18926.77
239.901	18912.12
239.973	18881.52
240.044	18849.37
240.116	18809.09
240.188	18777.62
240.259	18734.68
240.331	18694.16
240.403	18669.14
240.474	18612.42
240.546	18571.17
240.618	18517.73
240.689	18486.07
240.761	18451.23
240.833	18431.23
240.904	18394.41
240.976	18356.29
241.048	18326.51
241.119	18293.55
241.191	18269.17
241.262	18243.67
241.334	18203.48
241.405	18158.52
241.477	18117.66
241.549	18085.61
241.62	18058.38
241.692	18034.43
241.763	18014.09
241.835	17979.01
241.906	17945.08
241.978	17900.55
242.049	17883.25
242.121	17858.39
242.192	17828.07
242.264	17788.27
242.335	17733.52
242.407	17708.51
242.478	17671.74
242.55	17639.26
242.621	17602.3
242.693	17558.63
242.764	17521.62
242.836	17479.12
242.907	17450.63
242.979	17420.56
243.05	17388.61
243.122	17357.43
243.193	17319.98
243.264	17264.08
243.336	17224.95
243.407	17200.13
243.479	17185.91
243.55	17158.78
243.622	17130.92
243.693	17097.81
243.764	17079.02
243.836	17030.92
243.907	16992.55
243.978	16954.43
244.05	16929.42
244.121	16881.8
244.192	16857.7
244.264	16808.98
244.335	16782.76
244.407	16729.22
244.478	16693.26
244.549	16651.57
244.62	16608.1
244.692	16567.81
244.763	16545.83
244.834	16507.51
244.906	16470.74
244.977	16438.88
245.048	16410.83
245.119	16360.71
245.191	16316.32
245.262	16261.18
245.333	16244.26
245.405	16206.43
245.476	16177.94
245.547	16142.52
245.618	16118.13
245.689	16086.9
245.761	16058.12
245.832	16020.67
245.903	15998.6
245.974	15967.41
246.045	15938.25
246.117	15924.13
246.188	15884.6
246.259	15840.21
246.33	15809.41
246.401	15762.37
246.473	15709.25
246.544	15665.05
246.615	15639.22
246.686	15601.86
246.757	15591.84
246.828	15543.88
246.899	15522.62
246.97	15479.38
247.042	15445.35
247.113	15413.35
247.184	15397.68
247.255	15358.3
247.326	15325.28
247.397	15291.4
247.468	15258.33
247.539	15224.54
247.61	15178.7
247.681	15156.62
247.752	15129.34
247.823	15095.65
247.894	15074.97
247.965	15050.05
248.037	15020.84
248.108	14980.83
248.179	14960.53
248.25	14916.67
248.321	14903.46
248.392	14870.92
248.463	14863.55
248.534	14822.72
248.605	14803.58
248.675	14777.55
248.746	14748.97
248.817	14727.61
248.888	14710.41
248.959	14667.6
249.03	14641.71
249.101	14618.24
249.172	14586.95
249.243	14543.37
249.314	14528.09
249.385	14491.6
249.456	14464.51
249.527	14435.59
249.598	14414.23
249.669	14385.7
249.739	14367.14
249.81	14344.96
249.881	14296.52
249.952	14264.27
250.023	14238.14
250.094	14198.03
250.165	14150.55
250.235	14127.27
250.306	14098.05
250.377	14053.61
250.448	14035.14
250.519	13989.35
250.59	13977.2
250.66	13945.19
250.731	13936.18
250.802	13905.33
250.873	13889.9
250.944	13865.02
251.014	13824.58
251.085	13815.37
251.156	13786.35
251.227	13766.49
251.297	13748.22
251.368	13746.68
251.439	13736.84
251.51	13726.86
251.58	13687
251.651	13666.37
251.722	13643.56
251.792	13604.95
251.863	13581.23
251.934	13571.06
252.005	13578.68
252.075	13546.72
252.146	13535.58
252.217	13522.76
252.287	13498.65
252.358	13474.55
252.429	13471.66
252.499	13450.59
252.57	13437.48
252.641	13429
252.711	13409.81
252.782	13370.81
252.852	13359
252.923	13333.98
252.994	13312.34
253.064	13303.03
253.135	13268.18
253.205	13241.76
253.276	13240.89
253.347	13232.8
253.417	13195.97
253.488	13159.43
253.558	13134.94
253.629	13105.05
253.699	13084.56
253.77	13074.49
253.841	13044.07
253.911	13017.12
253.982	13001.02
254.052	12973.2
254.123	12948.72
254.193	12924.28
254.264	12944.91
254.334	12909.33
254.405	12870.62
254.475	12830.85
254.546	12810.03
254.616	12802.32
254.687	12790.99
254.757	12759.89
254.827	12738.35
254.898	12725.43
254.968	12709.13
255.039	12681.85
255.109	12670.09
255.18	12640.49
255.25	12597.35
255.321	12584.81
255.391	12547.84
255.461	12544.71
255.532	12501.95
255.602	12481.66
255.673	12437.74
255.743	12396.62
255.813	12354.83
255.884	12347.02
255.954	12337.48
256.024	12337.48
256.095	12313.42
256.165	12276.74
256.235	12267.1
256.306	12237.5
256.376	12226.8
256.446	12213.35
256.517	12193.74
256.587	12181.06
256.657	12163.9
256.728	12147.56
256.798	12120.9
256.868	12098.34
256.938	12063.88
257.009	12055.25
257.079	12042.57
257.149	12053.32
257.219	12010.91
257.29	11995.53
257.36	11953.45
257.43	11944.97
257.5	11902.98
257.571	11885.83
257.641	11878.07
257.711	11847.55
257.781	11835.02
257.852	11817.43
257.922	11783.06
257.992	11760.7
258.062	11740.94
258.132	11731.49
258.202	11706.23
258.273	11696.98
258.343	11699.82
258.413	11678.71
258.483	11657.7
258.553	11619.96
258.623	11592.05
258.693	11583.18
258.764	11588.87
258.834	11585.74
258.904	11563.85
258.974	11538.07
259.044	11515.22
259.114	11498.45
259.184	11481.01
259.254	11463.12
259.324	11417.77
259.394	11400.42
259.464	11401.05
259.535	11379.12
259.605	11356.13
259.675	11333.09
259.745	11316.42
259.815	11283.36
259.885	11260.51
259.955	11272.66
260.025	11251.36
260.095	11226.11
260.165	11210.01
260.235	11200.03
260.305	11172.42
260.375	11141.86
260.445	11148.51
260.515	11145.67
260.585	11141.96
260.655	11132.13
260.725	11126.44
260.795	11128.9
260.865	11130.49
260.934	11104.95
261.004	11099.31
261.074	11081.62
261.144	11085.67
261.214	11075.26
261.284	11062.15
261.354	11053.91
261.424	11030.35
261.494	11033.57
261.564	11025.67
261.634	11016.66
261.703	10978.78
261.773	10974.3
261.843	10965.72
261.913	10949.72
261.983	10910.89
262.053	10899.99
262.123	10874.65
262.192	10841.54
262.262	10832.87
262.332	10800.01
262.402	10795.24
262.472	10778.56
262.541	10737.8
262.611	10725.56
262.681	10705.71
262.751	10692.89
262.821	10670.15
262.89	10635.74
262.96	10622.59
263.03	10619.79
263.1	10606.54
263.169	10599.22
263.239	10591.51
263.309	10596.28
263.379	10578.6
263.448	10572
263.518	10558.98
263.588	10549.64
263.657	10550.17
263.727	10543.33
263.797	10532.39
263.867	10510.66
263.936	10480.26
264.006	10477.7
264.076	10463.01
264.145	10440.65
264.215	10424.27
264.285	10421.86
264.354	10394.31
264.424	10372.82
264.494	10337.17
264.563	10321.07
264.633	10318.09
264.702	10303.15
264.772	10267.11
264.842	10246.68
264.911	10243.7
264.981	10206.55
265.05	10186.51
265.12	10160.93
265.19	10148.74
265.259	10144.65
265.329	10136.99
265.398	10127.16
265.468	10140.7
265.537	10121.38
265.607	10114.97
265.676	10108.37
265.746	10099.46
265.815	10098.74
265.885	10080
265.955	10063.19
266.024	10039.87
266.094	10005.29
266.163	10006.35
266.232	10008.71
266.302	9994.11
266.371	9973.88
266.441	9967.57
266.51	9965.36
266.58	9955.39
266.649	9927.3
266.719	9920.94
266.788	9914.1
266.858	9921.95
266.927	9883.95
266.996	9869.74
267.066	9856.3
267.135	9826.05
267.205	9817.91
267.274	9805.82
267.343	9806.4
267.413	9793.54
267.482	9805.92
267.552	9809.39
267.621	9771.24
267.69	9742.63
267.76	9735.17
267.829	9728.33
267.898	9712.1
267.968	9685.71
268.037	9686
268.106	9685.66
268.176	9664.47
268.245	9645.78
268.314	9619.91
268.384	9620.68
268.453	9613.65
268.522	9603.25
268.592	9603.01
268.661	9586.78
268.73	9576.04
268.799	9559.95
268.869	9570.69
268.938	9536.4
269.007	9512.71
269.076	9508.95
269.146	9510.44
269.215	9501.73
269.284	9511.26
269.353	9504.04
269.422	9496.14
269.492	9467.25
269.561	9425.6
269.63	9418.04
269.699	9404.12
269.768	9394.54
269.838	9378.6
269.907	9372.48
269.976	9350.86
270.045	9325.54
270.114	9321.78
270.183	9305.6
270.253	9294.38
270.322	9261.4
270.391	9245.9
270.46	9250.23
270.529	9245.56
270.598	9240.02
270.667	9218.74
270.736	9192.35
270.806	9182.24
270.875	9187.39
270.944	9180.94
271.013	9202.51
271.082	9198.51
271.151	9191.68
271.22	9168.04
271.289	9169.43
271.358	9154.84
271.427	9152.24
271.496	9143.72
271.565	9126.44
271.634	9119.51
271.703	9119.22
271.772	9125.72
271.841	9115.32
271.91	9093.08
271.979	9090.91
272.048	9067.17
272.117	9079.98
272.186	9064.24
272.255	9066.55
272.324	9059.61
272.393	9052.92
272.462	9038.62
272.531	9028.99
272.6	9015.27
272.669	9019.8
272.738	9001.31
272.807	8998.47
272.876	8981.19
272.945	9004.15
273.013	9006.9
273.082	9016.57
273.151	8999.24
273.22	8994.48
273.289	8988.75
273.358	9000.69
273.427	8983.07
273.496	8988.32
273.564	8977.96
273.633	8978.59
273.702	8960.97
273.771	8943.02
273.84	8938.15
273.909	8931.37
273.977	8925.78
274.046	8915.82
274.115	8920.63
274.184	8910.76
274.253	8903.35
274.322	8910.19
274.39	8880.29
274.459	8860.8
274.528	8829.7
274.597	8815.84
274.665	8811.51
274.734	8819.79
274.803	8810.01
274.872	8805.34
274.94	8786.62
275.009	8835.6
275.078	8821.59
275.147	8811.96
275.215	8815.62
275.284	8821.59
275.353	8812.83
275.421	8785.83
275.49	8797.81
275.559	8786.98
275.627	8778.51
275.696	8769.08
275.765	8767.15
275.833	8759.89
275.902	8768.36
275.971	8777.94
276.039	8796.85
276.108	8796.8
276.177	8794.3
276.245	8778.03
276.314	8771.05
276.383	8776.44
276.451	8721.16
276.52	8721.64
276.588	8734.01
276.657	8731.61
276.725	8723.81
276.794	8716.93
276.863	8730.88
276.931	8708.41
277	8709.46
277.068	8715
277.137	8734.49
277.205	8733
277.274	8747.92
277.342	8748.31
277.411	8726.41
277.48	8714.09
277.548	8708.02
277.617	8701.77
277.685	8700.85
277.754	8708.65
277.822	8694.93
277.89	8702.25
277.959	8695.66
278.027	8680.25
278.096	8672.94
278.164	8692.58
278.233	8694.12
278.301	8683.19
278.37	8686.27
278.438	8679.54
278.507	8683.34
278.575	8657.59
278.643	8649.26
278.712	8633.52
278.78	8619.57
278.849	8631.88
278.917	8640.84
278.985	8631.98
279.054	8638.57
279.122	8647
279.191	8637.9
279.259	8640.98
279.327	8618.12
279.396	8633.18
279.464	8625.15
279.532	8629.67
279.601	8625.48
279.669	8618.31
279.737	8627.74
279.806	8634.67
279.874	8642.09
279.942	8639.82
280.011	8632.56
280.079	8637.8
280.147	8651.38
280.215	8651.04
280.284	8645.84
280.352	8634
280.42	8636.99
280.488	8627.65
280.557	8620.72
280.625	8625.72
280.693	8616.87
280.761	8624.14
280.83	8611.19
280.898	8621.25
280.966	8605.22
281.034	8570.23
281.102	8551.18
281.171	8539.44
281.239	8546.32
281.307	8532.41
281.375	8520.28
281.443	8545.69
281.512	8543.67
281.58	8550.94
281.648	8537.61
281.716	8537.66
281.784	8529.33
281.852	8525.77
281.92	8525.1
281.989	8532.9
282.057	8516.25
282.125	8569
282.193	8559.86
282.261	8556.4
282.329	8554.28
282.397	8558.18
282.465	8566.74
282.533	8586.37
282.601	8584.35
282.67	8562.74
282.738	8558.41
282.806	8571.11
282.874	8563.56
282.942	8564.23
283.01	8558.94
283.078	8568.22
283.146	8564.71
283.214	8579.44
283.282	8582.85
283.35	8587.76
283.418	8578.04
283.486	8586.27
283.554	8540.78
283.622	8543.09
283.69	8543.52
283.758	8536.78
283.826	8538.8
283.894	8552.28
283.962	8573.5
284.03	8581.64
284.098	8583.13
284.165	8574.23
284.233	8572.69
284.301	8558.68
284.369	8550.36
284.437	8535.44
284.505	8527.35
284.573	8542.42
284.641	8524.56
284.709	8529.09
284.777	8516.33
284.845	8528.37
284.912	8531.4
284.98	8533.56
285.048	8532.55
285.116	8539.39
285.184	8555.17
285.252	8556.86
285.319	8541.98
285.387	8534.38
285.455	8521.15
285.523	8527.79
285.591	8528.32
285.659	8531.68
285.726	8545.83
285.794	8534.72
285.862	8535.73
285.93	8540.54
285.997	8539
286.065	8543.91
286.133	8531.73
286.201	8531.49
286.269	8515.9
286.336	8502.28
286.404	8493.04
286.472	8499.73
286.539	8479.67
286.607	8461.57
286.675	8459.79
286.743	8463.5
286.81	8452.19
286.878	8467.49
286.946	8460.18
287.013	8463.93
287.081	8459.16
287.149	8443.76
287.216	8462.34
287.284	8461.33
287.352	8461.52
287.419	8455.26
287.487	8462.67
287.555	8470.52
287.622	8470.66
287.69	8474.13
287.758	8494.96
287.825	8498.81
287.893	8480.24
287.96	8487.65
288.028	8496.84
288.096	8500.55
288.163	8503.72
288.231	8496.6
288.298	8492.41
288.366	8505.17
288.433	8495.64
288.501	8485.49
288.569	8491.31
288.636	8483.85
288.704	8493.28
288.771	8496.55
288.839	8487.56
288.906	8482.89
288.974	8495.84
289.041	8484.87
289.109	8477.74
289.176	8480.87
289.244	8485.88
289.311	8505.22
289.379	8509.94
289.446	8518.26
289.514	8514.61
289.581	8509.31
289.649	8509.7
289.716	8509.31
289.783	8503.78
289.851	8528.32
289.918	8534.14
289.986	8539.39
290.053	8543.67
290.121	8540.83
290.188	8542.13
290.255	8569.32
290.323	8559.7
290.39	8551.66
290.458	8566.28
290.525	8580.58
290.592	8569.89
290.66	8573.12
290.727	8570.47
290.794	8586.69
290.862	8584.76
290.929	8591.5
290.996	8594.48
291.064	8603
291.131	8620.43
291.198	8629.23
291.266	8627.36
291.333	8627.07
291.4	8636.21
291.468	8657.15
291.535	8658.55
291.602	8665.48
291.669	8660.47
291.737	8671.1
291.804	8662.83
291.871	8676.21
291.938	8679.96
292.006	8713.51
292.073	8719.62
292.14	8728.53
292.207	8716.11
292.275	8722.85
292.342	8732.72
292.409	8756.88
292.476	8786.53
292.543	8778.88
292.611	8781.38
292.678	8796.45
292.745	8820.85
292.812	8823.93
292.879	8812.38
292.946	8819.21
293.014	8834.57
293.081	8844
293.148	8856.47
293.215	8875.19
293.282	8868.79
293.349	8880
293.416	8859.64
293.484	8870.47
293.551	8879.76
293.618	8900.75
293.685	8917.79
293.752	8912.54
293.819	8913.84
293.886	8898.82
293.953	8904.98
294.02	8915.77
294.087	8921.98
294.154	8915.14
294.221	8934.64
294.288	8938.83
294.356	8958.18
294.423	8960.92
294.49	8950.72
294.557	8964.87
294.624	8956.11
294.691	8979.94
294.758	8980.95
294.825	8988.02
294.892	8983.69
294.959	8984.46
295.026	8993.27
295.093	8987.01
295.16	8983.45
295.226	8984.61
295.293	9012.77
295.36	9015.13
295.427	9018.79
295.494	9029.63
295.561	9040.79
295.628	9058.47
295.695	9079.26
295.762	9072.24
295.829	9082.3
295.896	9099.87
295.963	9110.99
296.03	9125.91
296.096	9131.5
296.163	9141.9
296.23	9157.21
296.297	9167.8
296.364	9168.23
296.431	9167.9
296.498	9168.43
296.564	9199.81
296.631	9203.04
296.698	9184.26
296.765	9205.54
296.832	9202.27
296.899	9187.25
296.965	9202.51
297.032	9183.87
297.099	9189.94
297.166	9202.75
297.233	9198.94
297.299	9196.92
297.366	9192.73
297.433	9191.67
297.5	9197.45
297.566	9201.59
297.633	9199.52
297.7	9203.47
297.767	9200.48
297.833	9205.15
297.9	9207.27
297.967	9187.97
298.033	9194.95
298.1	9225.86
298.167	9216.18
298.234	9220.61
298.3	9228.32
298.367	9228.89
298.434	9236.6
298.5	9228.65
298.567	9221.91
298.634	9218.88
298.7	9229.38
298.767	9235.44
298.834	9248.15
298.9	9245.36
298.967	9232.17
299.033	9242.57
299.1	9261.49
299.167	9277.96
299.233	9276.66
299.3	9286.53
299.366	9307.67
299.433	9322.02
299.5	9291.44
299.566	9297.07
299.633	9315.56
299.699	9329.91
299.766	9321.53
299.832	9325.82
299.899	9342.48
299.965	9355.1
300.032	9357.65
300.099	9369.11
300.165	9372.09
300.232	9367.09
300.298	9366.08
300.365	9382.35
300.431	9389.19
300.498	9375.85
300.564	9380.86
300.631	9392.13
300.697	9403.25
300.763	9399.59
300.83	9399.64
300.896	9414.23
300.963	9420.01
301.029	9420.68
301.096	9424.97
301.162	9440.04
301.229	9438.79
301.295	9425.16
301.361	9433.2
301.428	9436.23
301.494	9414.32
301.561	9413.65
301.627	9416.3
301.693	9420.05
301.76	9425.93
301.826	9418.51
301.892	9432
301.959	9442.11
302.025	9439.22
302.092	9435.99
302.158	9444.18
302.224	9443.17
302.291	9434.16
302.357	9430.99
302.423	9425.54
302.49	9414.8
302.556	9427.47
302.622	9424.44
302.688	9433.49
302.755	9442.16
302.821	9449.05
302.887	9461.32
302.954	9465.85
303.02	9479.77
303.086	9482.94
303.152	9478.37
303.219	9471
303.285	9480.68
303.351	9487.86
303.417	9488.82
303.483	9483.67
303.55	9478.57
303.616	9476.64
303.682	9478.66
303.748	9475.48
303.815	9491.81
303.881	9500.77
303.947	9484.01
304.013	9484.73
304.079	9482.71
304.145	9465.27
304.212	9463.59
304.278	9462
304.344	9457.91
304.41	9447.02
304.476	9439.8
304.542	9444.81
304.608	9453.47
304.674	9430.84
304.741	9422.89
304.807	9429.11
304.873	9434.55
304.939	9448.18
305.005	9430.74
305.071	9432.72
305.137	9438.35
305.203	9411.87
305.269	9412.11
305.335	9420.34
305.401	9418.61
305.467	9414.47
305.533	9415
305.599	9422.03
305.666	9425.4
305.732	9424.77
305.798	9430.7
305.864	9450.78
305.93	9449.28
305.996	9448.85
306.062	9455.64
306.128	9450.58
306.194	9433.01
306.259	9430.36
306.325	9419.96
306.391	9431.75
306.457	9436.62
306.523	9436.42
306.589	9460.21
306.655	9451.06
306.721	9434.74
306.787	9422.46
306.853	9430.84
306.919	9418.37
306.985	9405.9
307.051	9399.16
307.117	9388.13
307.183	9379.56
307.248	9351.87
307.314	9355.19
307.38	9354.33
307.446	9353.99
307.512	9343.44
307.578	9351
307.644	9342.09
307.709	9341.56
307.775	9332.08
307.841	9328.95
307.907	9326.97
307.973	9304.68
308.039	9304.2
308.104	9313.44
308.17	9314.69
308.236	9303.76
308.302	9308
308.368	9302.99
308.433	9300.68
308.499	9299.04
308.565	9291.39
308.631	9297.07
308.696	9273.04
308.762	9255.61
308.828	9255.71
308.894	9237.37
308.959	9220.18
309.025	9218.93
309.091	9211.37
309.156	9211.17
309.222	9211.17
309.288	9199.86
309.354	9180.6
309.419	9178
309.485	9156.86
309.551	9159.32
309.616	9143.05
309.682	9136.98
309.748	9128.36
309.813	9124.56
309.879	9114.78
309.945	9102.22
310.01	9091.24
310.076	9094.13
310.141	9096.73
310.207	9078.24
310.273	9081.42
310.338	9082.91
310.404	9067.46
310.469	9056.38
310.535	9046.47
310.601	9022.39
310.666	9020.13
310.732	9036.26
310.797	9024.17
310.863	9013.63
310.928	9004.48
310.994	9006.84
311.059	9003.67
311.125	9001.16
311.191	9011.8
311.256	8998.81
311.322	9005.02
311.387	8987.11
311.453	9185.11
311.518	9157
311.584	9153.29
311.649	9157.48
311.715	9144.68
311.78	9138.95
311.846	9131.83
311.911	9131.87
311.976	9136.11
312.042	9125.47
312.107	9104
312.173	9096.01
312.238	9094.18
312.304	9088.07
312.369	9077.72
312.434	9067.66
312.5	9057.64
312.565	9025.53
312.631	9033.33
312.696	9029.43
312.761	9034.53
312.827	8823.39
312.892	8856.75
312.958	8849.24
313.023	8844.96
313.088	8841.64
313.154	8833.07
313.219	8826.28
313.284	8816.03
313.35	8806.45
313.415	8801.83
313.48	8801.2
313.546	8802.84
313.611	8806.69
313.676	8802.79
313.741	8795.86
313.807	8802.94
313.872	8806.16
313.937	8811.46
314.003	8819.59
314.068	8813.19
314.133	8812.32
314.198	8802.74
314.264	8787.72
314.329	8782.09
314.394	8779.78
314.459	8782.14
314.525	8795.18
314.59	8784.16
314.655	8779.88
314.72	8790.9
314.785	8784.84
314.851	8776.66
314.916	8757.79
314.981	8744.51
315.046	8735.5
315.111	8724.48
315.176	8708.41
315.242	8710.62
315.307	8710.72
315.372	8694.74
315.437	8688.91
315.502	8684.73
315.567	8693.15
315.632	8674.71
315.698	8677.22
315.763	8670.19
315.828	8653.92
315.893	8657.63
315.958	8657.2
316.023	8635.16
316.088	8614.36
316.153	8593.24
316.218	8584.87
316.283	8571.11
316.348	8552.15
316.413	8544.55
316.479	8522.51
316.544	8490.18
316.609	8460.2
316.674	8424.4
316.739	8387.02
316.804	8352.04
316.869	8316
316.934	8276.55
316.999	8244.03
317.064	8193.7
317.129	8148.96
317.194	8116.63
317.259	8061.78
317.324	8009.79
317.389	7974.59
317.454	7937.74
317.518	7910.23
317.583	7883.58
317.648	7860.06
317.713	7829.62
317.778	7777.53
317.843	7753.73
317.908	7720.6
317.973	7683.09
318.038	7651.84
318.103	7617.03
318.168	7581.74
318.233	7549.43
318.297	7502.13
318.362	7464.59
318.427	7422.05
318.492	7399.84
318.557	7358.22
318.622	7327.12
318.687	7306.26
318.751	7265.9
318.816	7232.54
318.881	7193.76
318.946	7142.29
319.011	7092.79
319.075	7049.16
319.14	7008.81
319.205	6966.19
319.27	6932.04
319.335	6887.31
319.399	6847.96
319.464	6818.47
319.529	6768.72
319.594	6733.65
319.658	6703.59
319.723	6662.48
319.788	6638.95
319.853	6583.34
319.917	6552.56
319.982	6500.36
320.047	6461.57
320.112	6437.85
320.176	6383.36
320.241	6345.49
320.306	6310.73
320.37	6269.46
320.435	6238.6
320.5	6214.26
320.564	6178.75
320.629	6135.37
320.694	6101.35
320.758	6059.18
320.823	6012.59
320.888	5986.54
320.952	5936.17
321.017	5894.1
321.082	5859.09
321.146	5820.91
321.211	5784.03
321.275	5740.77
321.34	5695.13
321.405	5651.54
321.469	5601.01
321.534	5564.53
321.598	5517.07
321.663	5487.92
321.727	5457
321.792	5409.26
321.857	5363.05
321.921	5325.43
321.986	5283.46
322.05	5231.19
322.115	5195.06
322.179	5154.87
322.244	5101.94
322.308	5072.43
322.373	5025.6
322.437	4980.29
322.502	4956.62
322.566	4912.18
322.631	4872.78
322.695	4836.93
322.76	4794.42
322.824	4761.58
322.889	4715.02
322.953	4675.11
323.018	4608.63
323.082	4550.02
323.146	4499.22
323.211	4446.59
323.275	4397.55
323.34	4357.56
323.404	4321.03
323.468	4276.92
323.533	4232.64
323.597	4189.24
323.662	4135.21
323.726	4104.94
323.79	4061.3
323.855	3995.45
323.919	3947.61
323.983	3905.55
324.048	3842.61
324.112	3978.51
324.177	3849.29
324.241	3651.04
324.305	3453.59
324.37	3263.7
324.434	3076.92
324.498	3036.95
324.562	2989.34
324.627	2933.26
324.691	2875.84
324.755	2812.8
324.82	2735.68
324.884	2660.8
324.948	2589.82
325.012	2498.83
325.077	2375.52
