Data from 20250702_urea_0.5M_MAYP1162681_02-24-59-945.txt Node
Date: Thu Jul 03 02:24:59 BST 2025
User: adleo
Spectrometer: MAYP116268
Trigger mode: 0
Integration Time (sec): 1.000000E0
Scans to average: 1
Electric dark correction enabled: true
Nonlinearity correction enabled: true
Boxcar width: 10
XAxis mode: Wavelengths
Number of Pixels in Spectrum: 2068
>>>>>Begin Spectral Data<<<<<
179.565	1181.12
179.642	1240.58
179.718	1284.83
179.795	1321.76
179.871	1354.56
179.948	1374.72
180.024	1394.98
180.101	1416.19
180.177	1430.5
180.254	1453.71
180.33	1475.71
180.407	1529.74
180.483	1627.03
180.56	1717.25
180.636	1801.29
180.712	1790.88
180.789	1798.05
180.865	1810.36
180.942	1820.24
181.018	1831.36
181.095	1846.39
181.171	1852.76
181.248	1851.85
181.324	1866.88
181.4	1875.58
181.477	1887.18
181.553	1898.16
181.63	1918.65
181.706	1937.86
181.782	1949.31
181.859	1947.7
181.935	1953.78
182.011	1948.98
182.088	1964.01
182.164	1983.61
182.24	1995.97
182.317	2004.62
182.393	2005.19
182.469	2021.31
182.546	2036.05
182.622	2042.14
182.698	2038.62
182.775	2048.89
182.851	2064.15
182.927	2054.21
183.003	2050.84
183.08	2042.42
183.156	2054.6
183.232	2053.74
183.308	2039.62
183.385	2042.8
183.461	2059.26
183.537	2057.07
183.613	2070.01
183.69	2061.35
183.766	2047.46
183.842	2054.54
183.918	2058.01
183.995	2069.52
184.071	2072.9
184.147	2068.38
184.223	2058.21
184.299	2070.01
184.375	2059.12
184.452	2064.07
184.528	2119.92
184.604	2130
184.68	2143.41
184.756	2148.17
184.832	2152.83
184.908	2157.4
184.985	2158.68
185.061	2143.94
185.137	2158.02
185.213	2148.08
185.289	2149.6
185.365	2142.94
185.441	2140.57
185.517	2156.7
185.593	2154.08
185.669	2149.51
185.745	2157.22
185.822	2173.25
185.898	2164.54
185.974	2173.72
186.05	2165.39
186.126	2127.89
186.202	2120.62
186.278	2116.24
186.354	2107.49
186.43	2110.77
186.506	2111.44
186.582	2110.49
186.658	2116.95
186.734	2095.65
186.81	2095.74
186.886	2099.88
186.962	2115.24
187.038	2113.48
187.114	2102.92
187.19	2111.34
187.266	2103.16
187.341	2104.35
187.417	2095.88
187.493	2092.98
187.569	2096.93
187.645	2089.51
187.721	2075.14
187.797	2081.99
187.873	2086.94
187.949	2080.09
188.025	2074.24
188.101	2076.33
188.176	2082.94
188.252	2080.85
188.328	2088.26
188.404	2090.07
188.48	2082.51
188.556	2073.71
188.632	2074.04
188.707	2074.52
188.783	2067.38
188.859	2062.25
188.935	2050.88
189.011	2059.58
189.086	2056.39
189.162	2047.93
189.238	2046.12
189.314	2044.12
189.39	2039.99
189.465	2031.47
189.541	2048.41
189.617	2032.81
189.693	2028.91
189.768	2028.39
189.844	2050.27
189.92	2041.38
189.996	2049.04
190.071	2058.51
190.147	2061.55
190.223	2069.73
190.298	2062.93
190.374	2051.71
190.45	2062.02
190.526	2070.82
190.601	2065.59
190.677	2067.02
190.753	2094
190.828	2099.23
190.904	2114.45
190.98	2129.77
191.055	2141.95
191.131	2133.24
191.207	2156.22
191.282	2166.63
191.358	2161.21
191.433	2146.55
191.509	2159.53
191.585	2157.3
191.66	2157.16
191.736	2160.49
191.811	2152.68
191.887	2170.29
191.963	2193.12
192.038	2202.07
192.114	2205.3
192.189	2206.97
192.265	2204.02
192.34	2184.03
192.416	2185.41
192.491	2183.36
192.567	2183.93
192.642	2188.5
192.718	2188.31
192.793	2173.9
192.869	2166.76
192.944	2169.71
193.02	2177.27
193.095	2181.75
193.171	2188.55
193.246	2190.74
193.322	2188.46
193.397	2189.88
193.473	2173.89
193.548	2157.81
193.624	2161.19
193.699	2156.62
193.775	2173.47
193.85	2172.14
193.925	2181.18
194.001	2180.32
194.076	2172.42
194.152	2165
194.227	2153.15
194.302	2145.83
194.378	2152.2
194.453	2150.87
194.529	2163.53
194.604	2153.11
194.679	2147.4
194.755	2127.52
194.83	2140.66
194.905	2139.66
194.981	2142.51
195.056	2135.9
195.131	2144.23
195.207	2143.32
195.282	2133.14
195.357	2113.3
195.433	2129.9
195.508	2116.96
195.583	2124.67
195.659	2141.18
195.734	2146.03
195.809	2148.89
195.884	2158.78
195.96	2158.49
196.035	2172.1
196.11	2166.53
196.185	2175.19
196.261	2178.71
196.336	2211.44
196.411	2194.21
196.486	2197.97
196.561	2195.4
196.637	2204.06
196.712	2216.29
196.787	2218.24
196.862	2232.42
196.937	2246.02
197.013	2251.78
197.088	2262.35
197.163	2281.77
197.238	2296.68
197.313	2296.34
197.388	2310.19
197.464	2336.71
197.539	2344.75
197.614	2338.52
197.689	2350.51
197.764	2368.46
197.839	2389.93
197.914	2382.69
197.989	2406.45
198.065	2422.49
198.14	2473.32
198.215	2502.83
198.29	2514.31
198.365	2527.41
198.44	2540.55
198.515	2568.03
198.59	2582.46
198.665	2607.75
198.74	2615.32
198.815	2616.18
198.89	2639.08
198.965	2668.72
199.04	2665.58
199.115	2684.1
199.19	2726.59
199.265	2732.68
199.34	2738.78
199.415	2769.38
199.49	2791.2
199.565	2799.87
199.64	2822.12
199.715	2819.12
199.79	2825.27
199.865	2834.46
199.94	2832.75
200.015	2865.35
200.09	2869.26
200.165	2875.36
200.24	2883.37
200.315	2925.59
200.39	2940.22
200.464	2945.65
200.539	2945.8
200.614	2963.81
200.689	2987.27
200.764	2996.04
200.839	3009.81
200.914	3016.63
200.989	3008.14
201.063	3020.3
201.138	3004.58
201.213	3004.48
201.288	2984.65
201.363	2985.37
201.438	2983.27
201.512	3000.95
201.587	2982.69
201.662	2986.5
201.737	2999.47
201.812	3006.19
201.886	2971.41
201.961	2982.52
202.036	2973.61
202.111	2969.56
202.186	2938.97
202.26	2921.81
202.335	2900.3
202.41	2894.3
202.485	2877.14
202.559	2858.84
202.634	2835.11
202.709	2845.73
202.784	2827.71
202.858	2826
202.933	2813.04
203.008	2808.18
203.082	2787.55
203.157	2786.16
203.232	2742.82
203.306	2724.23
203.381	2694.59
203.456	2672.72
203.53	2649.55
203.605	2626.98
203.68	2606.92
203.754	2600.87
203.829	2584.82
203.904	2560.77
203.978	2550.67
204.053	2557.19
204.127	2546.48
204.202	2543.57
204.277	2525.29
204.351	2518
204.426	2513.43
204.5	2505.38
204.575	2471.87
204.65	2481.63
204.724	2474.06
204.799	2483.86
204.873	2478.19
204.948	2476
205.022	2462.86
205.097	2452.05
205.171	2465.66
205.246	2472.52
205.32	2470.81
205.395	2474.09
205.469	2468.34
205.544	2473.62
205.618	2453.06
205.693	2460.87
205.767	2449.63
205.842	2471.01
205.916	2464.44
205.991	2455.87
206.065	2461.35
206.14	2475.43
206.214	2471.1
206.289	2467.81
206.363	2479
206.438	2481.95
206.512	2489.38
206.586	2509.38
206.661	2519.43
206.735	2500.2
206.81	2500.29
206.884	2517.53
206.958	2502.29
207.033	2519.62
207.107	2526.58
207.181	2560.39
207.256	2556.06
207.33	2575.34
207.405	2588.02
207.479	2610.26
207.553	2617.17
207.628	2604.17
207.702	2618.74
207.776	2616.88
207.851	2619.08
207.925	2639.47
207.999	2643.04
208.073	2644.19
208.148	2651.29
208.222	2643.85
208.296	2682.85
208.371	2708.79
208.445	2726.8
208.519	2764.67
208.593	2785.93
208.668	2792.98
208.742	2804.95
208.816	2818.67
208.89	2843.6
208.965	2858.1
209.039	2880.13
209.113	2916.22
209.187	2952.47
209.261	2965.96
209.336	3003.01
209.41	3046.02
209.484	3065.67
209.558	3105.41
209.632	3143.6
209.707	3182.05
209.781	3231.6
209.855	3274.6
209.929	3318.93
210.003	3355.86
210.077	3386.69
210.151	3469.86
210.226	3537.06
210.3	3601.42
210.374	3666.38
210.448	3714.91
210.522	3763.4
210.596	3822.89
210.67	3875.2
210.744	3968.5
210.818	4049.47
210.892	4123.96
210.966	4170.94
211.041	4243.51
211.115	4299.5
211.189	4384.1
211.263	4461.88
211.337	4532.91
211.411	4606.89
211.485	4667.94
211.559	4744.01
211.633	4819.79
211.707	4857.88
211.781	4939.32
211.855	4981.85
211.929	5042.8
212.003	5096.75
212.077	5186.26
212.151	5274.2
212.225	5363.29
212.299	5435.37
212.373	5506.63
212.447	5588.26
212.52	5708.1
212.594	5797.98
212.668	5899.66
212.742	5970.32
212.816	6055.25
212.89	6142.33
212.964	6235.64
213.038	6331.33
213.112	6447.8
213.186	6551.87
213.26	6624.87
213.333	6677.94
213.407	6775.06
213.481	6878.96
213.555	6983.57
213.629	7066.98
213.703	7147.76
213.777	7244.99
213.85	7323.14
213.924	7460.3
213.998	7558.82
214.072	7646.83
214.146	7732.9
214.219	7827.45
214.293	7926.26
214.367	8025.88
214.441	8137.19
214.515	8226.05
214.588	8303.37
214.662	8362.21
214.736	8443.96
214.81	8548.68
214.883	8653.75
214.957	8742.53
215.031	8828.09
215.105	8908.3
215.178	8997.59
215.252	9087.9
215.326	9160.98
215.4	9232.76
215.473	9272.92
215.547	9345.54
215.621	9418.79
215.694	9511.11
215.768	9580.36
215.842	9659.73
215.915	9739.45
215.989	9803.03
216.063	9883.19
216.136	9965.99
216.21	10053.65
216.284	10150.1
216.357	10237.82
216.431	10315.24
216.504	10410.39
216.578	10521.78
216.652	10624.98
216.725	10707.71
216.799	10796.37
216.873	10892.07
216.946	10989.36
217.02	11070.6
217.093	11150.21
217.167	11211.79
217.24	11278.16
217.314	11356.61
217.387	11426.06
217.461	11496.81
217.535	11575.27
217.608	11644.96
217.682	11727.48
217.755	11812.55
217.829	11873.33
217.902	11955.85
217.976	12038.46
218.049	12104.4
218.123	12164.85
218.196	12237.44
218.27	12301.17
218.343	12366
218.417	12432.43
218.49	12506.37
218.563	12597.62
218.637	12673.78
218.71	12778.92
218.784	12862.03
218.857	12946
218.931	13028.14
219.004	13103.29
219.077	13189.29
219.151	13255.77
219.224	13324.41
219.298	13392
219.371	13477.61
219.444	13530.5
219.518	13600.2
219.591	13672.75
219.665	13771.19
219.738	13846.39
219.811	13916.05
219.885	13986.77
219.958	14062.64
220.031	14122.8
220.105	14189.38
220.178	14252.57
220.251	14299.14
220.325	14371.54
220.398	14436.23
220.471	14511.72
220.544	14586.3
220.618	14642.31
220.691	14712.79
220.764	14775.26
220.838	14843.23
220.911	14897.84
220.984	14978.77
221.057	15048.53
221.131	15114.27
221.204	15135
221.277	15210.2
221.35	15305.92
221.424	15367.77
221.497	15422.24
221.57	15481.24
221.643	15546.55
221.716	15621.84
221.79	15679.82
221.863	15734.87
221.936	15794.06
222.009	15840.81
222.082	15898.75
222.155	15944.82
222.229	16012.79
222.302	16069.76
222.375	16122.97
222.448	16192.95
222.521	16248.52
222.594	16304.82
222.667	16344.92
222.74	16409.12
222.814	16449.41
222.887	16482.71
222.96	16536.41
223.033	16599.45
223.106	16655.93
223.179	16701.04
223.252	16743.6
223.325	16791.8
223.398	16836.14
223.471	16885.15
223.544	16941.2
223.617	16982.99
223.69	17033.78
223.763	17066.27
223.837	17121.06
223.91	17172.05
223.983	17193.45
224.056	17217.26
224.129	17251.33
224.202	17302.56
224.275	17337.89
224.348	17366.18
224.42	17385.45
224.493	17406.32
224.566	17430.32
224.639	17476.35
224.712	17509.12
224.785	17546.61
224.858	17586.37
224.931	17617.07
225.004	17639.14
225.077	17670.8
225.15	17680.2
225.223	17709.69
225.296	17770.27
225.369	17774.12
225.442	17799.04
225.514	17834.51
225.587	17876.72
225.66	17919.18
225.733	17956.14
225.806	17989.83
225.879	18021.01
225.952	18046.12
226.025	18097.1
226.097	18147.99
226.17	18175.46
226.243	18189.34
226.316	18213.39
226.389	18240.9
226.461	18282.49
226.534	18311.36
226.607	18340.42
226.68	18393.76
226.753	18427.78
226.825	18421.91
226.898	18468.79
226.971	18498.91
227.044	18535.1
227.117	18564.31
227.189	18588.4
227.262	18613.12
227.335	18645.75
227.407	18673.51
227.48	18704.78
227.553	18726.76
227.626	18739.96
227.698	18766.42
227.771	18802.03
227.844	18815.04
227.916	18842.27
227.989	18846.51
228.062	18873.01
228.134	18912.33
228.207	18933.25
228.28	18953.78
228.352	18978.07
228.425	19006.59
228.498	19021.63
228.57	19022.98
228.643	19054.88
228.716	19069.53
228.788	19087.89
228.861	19103.84
228.934	19133.67
229.006	19157.14
229.079	19177.81
229.151	19186.87
229.224	19185.28
229.296	19200.46
229.369	19251.98
229.442	19285.23
229.514	19299.83
229.587	19327.59
229.659	19315.25
229.732	19331.01
229.804	19350.57
229.877	19394.09
229.949	19419.05
230.022	19464.93
230.094	19490.42
230.167	19509.31
230.239	19516.64
230.312	19535.57
230.384	19566.51
230.457	19581.16
230.529	19596.68
230.602	19609.5
230.674	19625.35
230.747	19650.17
230.819	19675.42
230.892	19639.95
230.964	19650.41
231.037	19660.29
231.109	19662.12
231.181	19676.67
231.254	19669.64
231.326	19685.35
231.399	19688.34
231.471	19684.72
231.544	19667.18
231.616	19682.41
231.688	19694.75
231.761	19700.53
231.833	19699.57
231.905	19687.37
231.978	19697.01
232.05	19699.42
232.122	19711.03
232.195	19708.53
232.267	19728.24
232.339	19722.94
232.412	19753.1
232.484	19745.01
232.556	19753.44
232.629	19780.38
232.701	19798.93
232.773	19813.92
232.846	19807.99
232.918	19816.72
232.99	19818.16
233.062	19826.02
233.135	19834.26
233.207	19815.66
233.279	19822.55
233.351	19833.1
233.424	19823.61
233.496	19804.91
233.568	19830.21
233.64	19809.54
233.713	19812.43
233.785	19800.28
233.857	19803.42
233.929	19784.28
234.001	19801.54
234.074	19802.4
234.146	19778.36
234.218	19771.75
234.29	19760.38
234.362	19743.47
234.434	19715.95
234.507	19696.29
234.579	19675.28
234.651	19655.09
234.723	19656.58
234.795	19655.33
234.867	19644
234.939	19657.83
235.012	19657.78
235.084	19648.15
235.156	19649.06
235.228	19639.91
235.3	19623.33
235.372	19618.46
235.444	19620.24
235.516	19585.79
235.588	19580.15
235.66	19568.68
235.732	19547.62
235.804	19594.51
235.876	19588.73
235.948	19595.38
236.02	19596.73
236.092	19585.4
236.164	19572.73
236.236	19557.16
236.308	19530.9
236.38	19503.19
236.452	19474.23
236.524	19447.53
236.596	19450.47
236.668	19443.97
236.74	19422.52
236.812	19413.32
236.884	19401.27
236.956	19390.33
237.028	19368.02
237.1	19335.35
237.172	19331.44
237.244	19331.25
237.316	19268.75
237.388	19248.51
237.46	19227.69
237.532	19217.57
237.604	19189.62
237.675	19186.53
237.747	19165.67
237.819	19141.77
237.891	19141.57
237.963	19118.2
238.035	19098.06
238.107	19036.62
238.178	19024.28
238.25	19006.59
238.322	19011.17
238.394	18957.97
238.466	18929.3
238.538	18910.5
238.609	18904.24
238.681	18861.98
238.753	18832.58
238.825	18811.28
238.897	18790.75
238.968	18776.68
239.04	18740.83
239.112	18746.13
239.184	18710.13
239.255	18684.73
239.327	18661.89
239.399	18631.29
239.471	18616.4
239.542	18596.79
239.614	18586.96
239.686	18527.01
239.758	18510.33
239.829	18473.04
239.901	18475.11
239.973	18446.48
240.044	18426.97
240.116	18392.94
240.188	18365.81
240.259	18330.3
240.331	18294.92
240.403	18266.39
240.474	18219.84
240.546	18180.76
240.618	18128.38
240.689	18088.14
240.761	18055.95
240.833	18052.43
240.904	18023.27
240.976	17985.64
241.048	17972.29
241.119	17952.63
241.191	17929.11
241.262	17912.96
241.334	17875.52
241.405	17844.87
241.477	17813.79
241.549	17777.93
241.62	17752.82
241.692	17729.21
241.763	17711.72
241.835	17680.39
241.906	17669.98
241.978	17631.04
242.049	17618.32
242.121	17604.3
242.192	17599.33
242.264	17563.04
242.335	17504.73
242.407	17482.42
242.478	17456.73
242.55	17416.15
242.621	17371.91
242.693	17346.51
242.764	17310.8
242.836	17270.18
242.907	17247.38
242.979	17220.15
243.05	17196.78
243.122	17174.13
243.193	17148.53
243.264	17103.67
243.336	17078.51
243.407	17048.44
243.479	17038.03
243.55	17011.95
243.622	16976.19
243.693	16928.82
243.764	16912.24
243.836	16872.48
243.907	16835.22
243.978	16804.47
244.05	16775.6
244.121	16728.9
244.192	16706.83
244.264	16657.96
244.335	16636.9
244.407	16582.43
244.478	16554.14
244.549	16515.06
244.62	16469.66
244.692	16436.35
244.763	16413.46
244.834	16369.89
244.906	16325.79
244.977	16295.23
245.048	16271.08
245.119	16234.79
245.191	16213.25
245.262	16163.65
245.333	16159.22
245.405	16132.42
245.476	16101.91
245.547	16087.26
245.618	16065.13
245.689	16039.49
245.761	16013.42
245.832	15977.32
245.903	15956.69
245.974	15924.83
246.045	15888.53
246.117	15875.71
246.188	15825.05
246.259	15775.94
246.33	15750.25
246.401	15719.88
246.473	15672.6
246.544	15641.03
246.615	15627
246.686	15580.44
246.757	15562.12
246.828	15525.34
246.899	15504.81
246.97	15460.9
247.042	15419.78
247.113	15394.24
247.184	15391.54
247.255	15360.54
247.326	15334.37
247.397	15297.59
247.468	15276
247.539	15255.99
247.61	15207.21
247.681	15194.78
247.752	15180.94
247.823	15147.3
247.894	15118.9
247.965	15080.53
248.037	15042.16
248.108	14988.03
248.179	14965.52
248.25	14933.47
248.321	14904.35
248.392	14864.39
248.463	14854.36
248.534	14822.89
248.605	14806.16
248.675	14761.48
248.746	14729.18
248.817	14705.03
248.888	14684.54
248.959	14637.69
249.03	14610.98
249.101	14591.46
249.172	14552.32
249.243	14499.97
249.314	14489.22
249.385	14464.54
249.456	14446.7
249.527	14412.38
249.598	14400.66
249.669	14369.67
249.739	14345.85
249.81	14321.85
249.881	14276.92
249.952	14244.96
250.023	14212.23
250.094	14170.24
250.165	14129.99
250.235	14107.53
250.306	14083.81
250.377	14044.47
250.448	14029.58
250.519	13989.66
250.59	13967.58
250.66	13946.61
250.731	13949.89
250.802	13920.63
250.873	13894.41
250.944	13870.21
251.014	13844.46
251.085	13838.63
251.156	13815.25
251.227	13802.81
251.297	13791.15
251.368	13783.44
251.439	13772.3
251.51	13757.11
251.58	13720.62
251.651	13690.69
251.722	13681.57
251.792	13636.79
251.863	13612.45
251.934	13596.73
252.005	13596.88
252.075	13571.13
252.146	13549.73
252.217	13527.8
252.287	13509.67
252.358	13479.01
252.429	13474.72
252.499	13446.23
252.57	13417.45
252.641	13410.56
252.711	13385.83
252.782	13348.61
252.852	13337.09
252.923	13311.16
252.994	13293.13
253.064	13282.38
253.135	13251.23
253.205	13217.06
253.276	13209.25
253.347	13206.93
253.417	13175.79
253.488	13144.51
253.558	13117.46
253.629	13100.06
253.699	13085.84
253.77	13067.38
253.841	13050.84
253.911	13024.23
253.982	13005.09
254.052	12991.84
254.123	12971.69
254.193	12951.05
254.264	12968.7
254.334	12929.75
254.405	12893.3
254.475	12854.4
254.546	12826.15
254.616	12815.98
254.687	12796.36
254.757	12776.07
254.827	12749.36
254.898	12735.67
254.968	12719.19
255.039	12696.05
255.109	12684.14
255.18	12646.25
255.25	12607.45
255.321	12591.01
255.391	12560.35
255.461	12556.35
255.532	12505.64
255.602	12477.34
255.673	12439.74
255.743	12403.01
255.813	12366.95
255.884	12357.8
255.954	12353.79
256.024	12361.8
256.095	12346.23
256.165	12317.35
256.235	12303.47
256.306	12275.95
256.376	12261.49
256.446	12239.07
256.517	12223.69
256.587	12209.96
256.657	12194.82
256.728	12172.99
256.798	12150.72
256.868	12120.98
256.938	12091.72
257.009	12085.45
257.079	12074.17
257.149	12075.09
257.219	12032.96
257.29	12024.76
257.36	11980.42
257.43	11966.15
257.5	11922.67
257.571	11894.33
257.641	11887.58
257.711	11858.95
257.781	11849.94
257.852	11832.2
257.922	11801.31
257.992	11778.22
258.062	11754.99
258.132	11757.78
258.202	11737.63
258.273	11722.21
258.343	11726.4
258.413	11702.26
258.483	11678.25
258.553	11645.09
258.623	11618.82
258.693	11603.3
258.764	11601.52
258.834	11607.45
258.904	11588.51
258.974	11558.39
259.044	11547.93
259.114	11527.49
259.184	11518.77
259.254	11499.2
259.324	11462.86
259.394	11451.68
259.464	11455.05
259.535	11437.36
259.605	11400.69
259.675	11379.19
259.745	11368.69
259.815	11332.1
259.885	11306.42
259.955	11323.29
260.025	11302.52
260.095	11285.26
260.165	11286.32
260.235	11279.38
260.305	11250.13
260.375	11217.6
260.445	11230.13
260.515	11223.38
260.585	11220.88
260.655	11196.97
260.725	11189.31
260.795	11183.67
260.865	11186.08
260.934	11159.96
261.004	11147.53
261.074	11131.48
261.144	11134.61
261.214	11122.61
261.284	11113.07
261.354	11109.41
261.424	11079.62
261.494	11085.11
261.564	11067.96
261.634	11041.98
261.703	11006.95
261.773	10997.36
261.843	10987.67
261.913	10963.24
261.983	10922.57
262.053	10913.27
262.123	10893.18
262.192	10863.35
262.262	10858.05
262.332	10829.04
262.402	10821.09
262.472	10809.62
262.541	10772.33
262.611	10758.06
262.681	10728.76
262.751	10717.92
262.821	10697.35
262.89	10669.98
262.96	10651.71
263.03	10656.77
263.1	10648.73
263.169	10637.31
263.239	10632.87
263.309	10637.65
263.379	10633.36
263.448	10627.38
263.518	10614.9
263.588	10603.53
263.657	10599.29
263.727	10588.11
263.797	10569.9
263.867	10544.12
263.936	10512.42
264.006	10513.38
264.076	10501.1
264.145	10487.99
264.215	10468.33
264.285	10465.54
264.354	10433.5
264.424	10404.35
264.494	10368.75
264.563	10344.7
264.633	10351.21
264.702	10335.31
264.772	10305.15
264.842	10283.52
264.911	10271.67
264.981	10234.04
265.05	10217.85
265.12	10202.87
265.19	10190.24
265.259	10188.46
265.329	10184.27
265.398	10174.01
265.468	10190.92
265.537	10170.54
265.607	10165.96
265.676	10159.75
265.746	10150.02
265.815	10149.15
265.885	10140.48
265.955	10121.36
266.024	10103.82
266.094	10061.43
266.163	10060.8
266.232	10057.87
266.302	10043.51
266.371	10038.89
266.441	10032.72
266.51	10030.17
266.58	10014.42
266.649	9994.91
266.719	9988.64
266.788	9977.56
266.858	9979.35
266.927	9935.56
266.996	9925.2
267.066	9911.38
267.135	9883.73
267.205	9877.85
267.274	9867.21
267.343	9861.96
267.413	9847.8
267.482	9853.53
267.552	9856.76
267.621	9831.04
267.69	9803.82
267.76	9791.25
267.829	9775.45
267.898	9757.34
267.968	9733.89
268.037	9726.47
268.106	9718.86
268.176	9696.56
268.245	9686.35
268.314	9669.83
268.384	9668.48
268.453	9656.2
268.522	9640.64
268.592	9644.16
268.661	9619.69
268.73	9610.97
268.799	9592.34
268.869	9601.44
268.938	9570.09
269.007	9552.12
269.076	9540.85
269.146	9539.65
269.215	9530.98
269.284	9546.97
269.353	9537.58
269.422	9530.17
269.492	9511.77
269.561	9473.49
269.63	9464
269.699	9442.48
269.768	9434.87
269.838	9429.81
269.907	9428.61
269.976	9413.05
270.045	9379.73
270.114	9379.11
270.183	9364.71
270.253	9363.99
270.322	9334.66
270.391	9328.07
270.46	9337.5
270.529	9334.71
270.598	9332.88
270.667	9325.95
270.736	9294.74
270.806	9286.55
270.875	9287.04
270.944	9277.6
271.013	9300.28
271.082	9294.74
271.151	9292.09
271.22	9255.55
271.289	9242.12
271.358	9226.32
271.427	9222.09
271.496	9217.66
271.565	9197.82
271.634	9188.38
271.703	9213.72
271.772	9214.44
271.841	9202.79
271.91	9173.17
271.979	9164.75
272.048	9136
272.117	9130.95
272.186	9110.3
272.255	9103.84
272.324	9097.58
272.393	9096.19
272.462	9082.03
272.531	9068.65
272.6	9060.8
272.669	9071.44
272.738	9064.99
272.807	9062.24
272.876	9042.55
272.945	9065.47
273.013	9069.61
273.082	9077.55
273.151	9029.02
273.22	9027.14
273.289	9025.5
273.358	9031.38
273.427	9020.69
273.496	9028.82
273.564	9026.42
273.633	9036.77
273.702	9024.64
273.771	9014.43
273.84	9008.46
273.909	9003.6
273.977	9008.22
274.046	8994.35
274.115	9001.34
274.184	8977.13
274.253	8964.66
274.322	8974.77
274.39	8946.07
274.459	8930.67
274.528	8902.46
274.597	8898.85
274.665	8895.63
274.734	8897.45
274.803	8887.59
274.872	8873.63
274.94	8858.51
275.009	8907.83
275.078	8893.92
275.147	8887.66
275.215	8884.29
275.284	8888.04
275.353	8874.76
275.421	8849.24
275.49	8872.4
275.559	8854.78
275.627	8851.37
275.696	8845.01
275.765	8845.54
275.833	8838.03
275.902	8839.77
275.971	8850.74
276.039	8859.79
276.108	8858.97
276.177	8855.12
276.245	8845.64
276.314	8839.48
276.383	8843.43
276.451	8783.71
276.52	8781.64
276.588	8794.54
276.657	8797.09
276.725	8785.49
276.794	8788.04
276.863	8794.93
276.931	8763.25
277	8774.9
277.068	8787.41
277.137	8804.93
277.205	8792.85
277.274	8815.23
277.342	8818.31
277.411	8795.74
277.48	8784.1
277.548	8772.06
277.617	8770.71
277.685	8764.02
277.754	8777.55
277.822	8774.47
277.89	8785.44
277.959	8776.16
278.027	8759.5
278.096	8744.34
278.164	8772.79
278.233	8765.43
278.301	8753.49
278.37	8760.81
278.438	8742.04
278.507	8739.44
278.575	8710.56
278.643	8712.96
278.712	8687.17
278.78	8673.59
278.849	8687.64
278.917	8695.73
278.985	8694.53
279.054	8697.51
279.122	8716.04
279.191	8707.91
279.259	8694.87
279.327	8673.2
279.396	8689.76
279.464	8681.82
279.532	8688.7
279.601	8683.84
279.669	8673.59
279.737	8682.59
279.806	8682.11
279.874	8695.54
279.942	8691.83
280.011	8693.56
280.079	8694.33
280.147	8715.7
280.215	8723.02
280.284	8715.56
280.352	8701.46
280.42	8706.9
280.488	8696.21
280.557	8681.53
280.625	8687.5
280.693	8694.48
280.761	8699.19
280.83	8682.44
280.898	8693.22
280.966	8683.16
281.034	8650.82
281.102	8638.35
281.171	8636.77
281.239	8647.45
281.307	8639.46
281.375	8633.98
281.443	8659.87
281.512	8659.44
281.58	8661.56
281.648	8645.67
281.716	8643.99
281.784	8643.46
281.852	8635.28
281.92	8632.05
281.989	8641.63
282.057	8624.64
282.125	8667.25
282.193	8661.67
282.261	8662.82
282.329	8662.49
282.397	8662.92
282.465	8663.83
282.533	8678.7
282.601	8667.63
282.67	8643.47
282.738	8637.07
282.806	8647.51
282.874	8632.74
282.942	8640.05
283.01	8631.77
283.078	8639.81
283.146	8639.42
283.214	8652.9
283.282	8658.05
283.35	8674.22
283.418	8669.84
283.486	8676.05
283.554	8633.73
283.622	8630.84
283.69	8626.03
283.758	8624.25
283.826	8623
283.894	8629.4
283.962	8649.33
284.03	8660.59
284.098	8663
284.165	8650.92
284.233	8649.28
284.301	8639.51
284.369	8630.22
284.437	8620.88
284.505	8618.09
284.573	8631.38
284.641	8612.94
284.709	8621.8
284.777	8603.22
284.845	8610.73
284.912	8611.12
284.98	8611.5
285.048	8613.47
285.116	8625.02
285.184	8634.41
285.252	8636.72
285.319	8625.6
285.387	8618.72
285.455	8602.84
285.523	8611.31
285.591	8614
285.659	8613.52
285.726	8625.94
285.794	8608.9
285.862	8612.32
285.93	8607.12
285.997	8603.37
286.065	8605.29
286.133	8594.85
286.201	8595.52
286.269	8584.65
286.336	8574.64
286.404	8566.17
286.472	8572.23
286.539	8547.79
286.607	8532.82
286.675	8529.4
286.743	8537.63
286.81	8530.22
286.878	8548.36
286.946	8538.01
287.013	8541.91
287.081	8540.66
287.149	8519.77
287.216	8540.76
287.284	8533.34
287.352	8539.7
287.419	8539.5
287.487	8550.91
287.555	8549.95
287.622	8544.8
287.69	8544.12
287.758	8557.84
287.825	8560.39
287.893	8553.56
287.96	8566.64
288.028	8575.64
288.096	8583.44
288.163	8590.71
288.231	8581.66
288.298	8580.94
288.366	8588.83
288.433	8578.2
288.501	8566.65
288.569	8577.52
288.636	8573.62
288.704	8581.76
288.771	8591.09
288.839	8574.68
288.906	8567.66
288.974	8576.75
289.041	8568.33
289.109	8556.4
289.176	8564.92
289.244	8564.49
289.311	8569.88
289.379	8575.27
289.446	8578.88
289.514	8579.36
289.581	8567.08
289.649	8569.88
289.716	8568.14
289.783	8565.45
289.851	8587.25
289.918	8589.36
289.986	8600.63
290.053	8600.19
290.121	8603.18
290.188	8601.73
290.255	8632.97
290.323	8627.62
290.39	8621.94
290.458	8631.62
290.525	8649.23
290.592	8642.83
290.66	8641.43
290.727	8634.79
290.794	8647.35
290.862	8643.02
290.929	8644.32
290.996	8650.96
291.064	8663.24
291.131	8670.36
291.198	8682.05
291.266	8680.61
291.333	8685.37
291.4	8687.3
291.468	8705.21
291.535	8698.61
291.602	8701.74
291.669	8696.11
291.737	8701.26
291.804	8706.17
291.871	8722.53
291.938	8727.92
292.006	8753.92
292.073	8773.02
292.14	8786.16
292.207	8780.68
292.275	8786.6
292.342	8797.14
292.409	8817.55
292.476	8837.33
292.543	8835.65
292.611	8838.54
292.678	8855.82
292.745	8880.22
292.812	8891.39
292.879	8889.37
292.946	8897.6
293.014	8905.78
293.081	8912.52
293.148	8922.72
293.215	8934.9
293.282	8932.83
293.349	8940.05
293.416	8924.02
293.484	8937.21
293.551	8946.7
293.618	8961.86
293.685	8991.56
293.752	8982.08
293.819	8981.74
293.886	8968.36
293.953	8983.76
294.02	8997.34
294.087	9000.33
294.154	8997
294.221	9009.04
294.288	9004.42
294.356	9020.4
294.423	9029.55
294.49	9022.47
294.557	9038.7
294.624	9033.06
294.691	9052.66
294.758	9053.23
294.825	9061.75
294.892	9053.91
294.959	9054.34
295.026	9058.38
295.093	9046.44
295.16	9051.74
295.226	9050.63
295.293	9079.04
295.36	9070.66
295.427	9078.41
295.494	9092.52
295.561	9096.18
295.628	9117.18
295.695	9137.49
295.762	9143.17
295.829	9156.13
295.896	9172.25
295.963	9183.43
296.03	9188.72
296.096	9197.97
296.163	9214.96
296.23	9223.77
296.297	9236.68
296.364	9235.42
296.431	9242.41
296.498	9233.02
296.564	9257.33
296.631	9262.39
296.698	9242.55
296.765	9270.28
296.832	9253.48
296.899	9240.33
296.965	9263.06
297.032	9238.45
297.099	9250.01
297.166	9257.28
297.233	9249.33
297.299	9245.1
297.366	9240.04
297.433	9245.91
297.5	9247.79
297.566	9245.19
297.633	9246.49
297.7	9249.82
297.767	9251.74
297.833	9263.88
297.9	9270.9
297.967	9254.15
298.033	9267.1
298.1	9300.43
298.167	9286.65
298.234	9298.69
298.3	9306.49
298.367	9298.98
298.434	9312.89
298.5	9306.78
298.567	9295.75
298.634	9297.05
298.7	9312.8
298.767	9321.95
298.834	9335.33
298.9	9332.73
298.967	9321.95
299.033	9330.9
299.1	9351.56
299.167	9365
299.233	9355.94
299.3	9370.34
299.366	9387.77
299.433	9404.43
299.5	9375.2
299.566	9381.27
299.633	9396.05
299.699	9409.29
299.766	9407.71
299.832	9410.21
299.899	9419.65
299.965	9439.78
300.032	9437.03
300.099	9444.98
300.165	9449.17
300.232	9442.91
300.298	9444.06
300.365	9459.71
300.431	9466.84
300.498	9449.21
300.564	9457.78
300.631	9467.9
300.697	9486.2
300.763	9486.15
300.83	9482.01
300.896	9501.94
300.963	9511.72
301.029	9515.72
301.096	9519.38
301.162	9529.92
301.229	9526.55
301.295	9512.01
301.361	9510.47
301.428	9513.45
301.494	9501.89
301.561	9505.99
301.627	9509.26
301.693	9512.34
301.76	9516.53
301.826	9511.96
301.892	9527.76
301.959	9533.44
302.025	9530.69
302.092	9519.28
302.158	9526.5
302.224	9527.66
302.291	9510.61
302.357	9504.98
302.423	9500.88
302.49	9494.77
302.556	9504.3
302.622	9504.64
302.688	9523.23
302.755	9537.68
302.821	9549.09
302.887	9558.38
302.954	9555.21
303.02	9564.45
303.086	9572.3
303.152	9575.58
303.219	9570.52
303.285	9572.64
303.351	9575.91
303.417	9577.65
303.483	9563.44
303.55	9557.81
303.616	9560.22
303.682	9564.31
303.748	9564.84
303.815	9579.48
303.881	9584.49
303.947	9573.22
304.013	9569.7
304.079	9553.96
304.145	9531.22
304.212	9525.06
304.278	9522.32
304.344	9517.11
304.41	9503.44
304.476	9492.41
304.542	9485.52
304.608	9494.19
304.674	9473.97
304.741	9470.02
304.807	9469.97
304.873	9483.79
304.939	9495.83
305.005	9475.79
305.071	9476.13
305.137	9473
305.203	9446.9
305.269	9447.43
305.335	9458.5
305.401	9457.73
305.467	9456.24
305.533	9465.15
305.599	9478.39
305.666	9478.73
305.732	9476.85
305.798	9491.3
305.864	9522.61
305.93	9526.8
305.996	9521.31
306.062	9525.11
306.128	9522.61
306.194	9516.49
306.259	9513.94
306.325	9508.59
306.391	9520.58
306.457	9525.98
306.523	9524.92
306.589	9551.6
306.655	9548.08
306.721	9532.24
306.787	9524.44
306.853	9538.88
306.919	9524.1
306.985	9512.4
307.051	9503.87
307.117	9499.83
307.183	9494.29
307.248	9458.8
307.314	9467.37
307.38	9470.64
307.446	9480.71
307.512	9471.56
307.578	9474.3
307.644	9474.78
307.709	9470.31
307.775	9465.2
307.841	9460.15
307.907	9465.49
307.973	9446.47
308.039	9439.68
308.104	9447.09
308.17	9446.23
308.236	9432.65
308.302	9435.87
308.368	9426.67
308.433	9432.21
308.499	9434.57
308.565	9421.76
308.631	9424.7
308.696	9398.26
308.762	9383.33
308.828	9376.64
308.894	9359.6
308.959	9336.92
309.025	9321.89
309.091	9315.15
309.156	9310.39
309.222	9311.44
309.288	9300.71
309.354	9280.48
309.419	9281.83
309.485	9265.22
309.551	9267.63
309.616	9256.12
309.682	9256.36
309.748	9241.82
309.813	9231.76
309.879	9217.7
309.945	9206.67
310.01	9201.42
310.076	9200.89
310.141	9196.9
310.207	9185.05
310.273	9188.28
310.338	9190.44
310.404	9175.52
310.469	9162.23
310.535	9148.27
310.601	9127.52
310.666	9133.01
310.732	9137.15
310.797	9120.73
310.863	9111.39
310.928	9108.07
310.994	9108.74
311.059	9102.63
311.125	9103.59
311.191	9113.75
311.256	9102.05
311.322	9108.74
311.387	9089.48
311.453	9500.87
311.518	9475.5
311.584	9472.13
311.649	9478.39
311.715	9467.27
311.78	9467.18
311.846	9465.63
311.911	9470.59
311.976	9474.64
312.042	9457.69
312.107	9444.21
312.173	9440.79
312.238	9436.03
312.304	9425.92
312.369	9416.1
312.434	9407.53
312.5	9403.77
312.565	9372.04
312.631	9378.69
312.696	9363.19
312.761	9367.47
312.827	8946.5
312.892	8987.86
312.958	8979.38
313.023	8971.2
313.088	8972.11
313.154	8963.07
313.219	8955.7
313.284	8943.91
313.35	8935.43
313.415	8923.35
313.48	8916.76
313.546	8916.56
313.611	8923.69
313.676	8918.3
313.741	8912.14
313.807	8912.62
313.872	8915.46
313.937	8919.02
314.003	8926.96
314.068	8930.14
314.133	8936.06
314.198	8924.27
314.264	8901.2
314.329	8891.67
314.394	8885.41
314.459	8882.33
314.525	8899.13
314.59	8898.32
314.655	8889.07
314.72	8898.56
314.785	8904.09
314.851	8897.88
314.916	8881.76
314.981	8863.27
315.046	8853.12
315.111	8846.48
315.176	8838.2
315.242	8835.65
315.307	8840.31
315.372	8820.34
315.437	8814.22
315.502	8800.84
315.567	8821.06
315.632	8801.76
315.698	8805.17
315.763	8798.68
315.828	8786.93
315.893	8776.58
315.958	8768.88
316.023	8757.62
316.088	8741.54
316.153	8717.34
316.218	8711.18
316.283	8691.83
316.348	8671.72
316.413	8668.4
316.479	8651.99
316.544	8618.21
316.609	8591.02
316.674	8545.78
316.739	8510.52
316.804	8476.98
316.869	8441.37
316.934	8395.99
316.999	8372.84
317.064	8321.12
317.129	8281.76
317.194	8246.02
317.259	8197.09
317.324	8143.12
317.389	8104.34
317.454	8057.58
317.518	8028.77
317.583	8003.13
317.648	7980.52
317.713	7949.74
317.778	7892.4
317.843	7859.41
317.908	7824.5
317.973	7785.49
318.038	7762.7
318.103	7726.3
318.168	7695.24
318.233	7670.43
318.297	7618.88
318.362	7575.47
318.427	7537.93
318.492	7515.47
318.557	7476.63
318.622	7452.59
318.687	7431.73
318.751	7389.39
318.816	7361.27
318.881	7323.78
318.946	7271.68
319.011	7227.36
319.075	7187.09
319.14	7152.79
319.205	7112.66
319.27	7078.12
319.335	7034.39
319.399	6994.42
319.464	6963
319.529	6912.56
319.594	6865.96
319.658	6840.5
319.723	6802.12
319.788	6772.06
319.853	6715.66
319.917	6679.98
319.982	6627.39
320.047	6587.29
320.112	6560.17
320.176	6507.83
320.241	6474.45
320.306	6443.1
320.37	6405.46
320.435	6372.2
320.5	6346.85
320.564	6307.29
320.629	6266.31
320.694	6233.48
320.758	6192.06
320.823	6150.84
320.888	6121.63
320.952	6078.01
321.017	6033.05
321.082	5991.65
321.146	5959.79
321.211	5924.63
321.275	5888.76
321.34	5846.08
321.405	5804.64
321.469	5760.28
321.534	5721.15
321.598	5667.69
321.663	5637.66
321.727	5603.76
321.792	5560.03
321.857	5512.52
321.921	5470
321.986	5425.86
322.05	5368.12
322.115	5331.65
322.179	5290.59
322.244	5237.75
322.308	5201.09
322.373	5157.21
322.437	5118.84
322.502	5090.28
322.566	5045.82
322.631	5007.46
322.695	4968.01
322.76	4926.39
322.824	4890.24
322.889	4845.2
322.953	4800.4
323.018	4730.08
323.082	4664.23
323.146	4613.26
323.211	4561.34
323.275	4518.51
323.34	4472.88
323.404	4440.79
323.468	4393.32
323.533	4352.57
323.597	4306.15
323.662	4255.83
323.726	4221.02
323.79	4174.3
323.855	4110.68
323.919	4061.77
323.983	4014.54
324.048	3947.29
324.112	4087.26
324.177	3959.23
324.241	3755.48
324.305	3555.89
324.37	3362.84
324.434	3174.34
324.498	3130.1
324.562	3080.3
324.627	3020.35
324.691	2968.21
324.755	2904.49
324.82	2829.85
324.884	2748.06
324.948	2678.08
325.012	2586.07
325.077	2461.83
