Data from 20250702_urea_0.5M_MAYP1162681_06-24-59-805.txt Node
Date: Thu Jul 03 06:24:59 BST 2025
User: adleo
Spectrometer: MAYP116268
Trigger mode: 0
Integration Time (sec): 1.000000E0
Scans to average: 1
Electric dark correction enabled: true
Nonlinearity correction enabled: true
Boxcar width: 10
XAxis mode: Wavelengths
Number of Pixels in Spectrum: 2068
>>>>>Begin Spectral Data<<<<<
179.565	1178.78
179.642	1234.26
179.718	1277.83
179.795	1313.61
179.871	1343.75
179.948	1361.15
180.024	1382.83
180.101	1405.16
180.177	1419.04
180.254	1442.82
180.33	1465.37
180.407	1517.69
180.483	1610.33
180.56	1698.98
180.636	1784.01
180.712	1771.7
180.789	1780.97
180.865	1792.7
180.942	1800.73
181.018	1810.66
181.095	1820.36
181.171	1828.3
181.248	1827.68
181.324	1840.76
181.4	1851.41
181.477	1863.91
181.553	1874.88
181.63	1895.04
181.706	1909.88
181.782	1920.62
181.859	1920.24
181.935	1924.71
182.011	1920.38
182.088	1937.54
182.164	1957.86
182.24	1969.12
182.317	1976.73
182.393	1976.2
182.469	1991.23
182.546	2006.02
182.622	2010.11
182.698	2008.2
182.775	2018.14
182.851	2033.98
182.927	2027.46
183.003	2019.71
183.08	2014.39
183.156	2025.04
183.232	2021.47
183.308	2009.39
183.385	2012.77
183.461	2028.99
183.537	2028.56
183.613	2042.16
183.69	2034.22
183.766	2022.66
183.842	2030.5
183.918	2037.02
183.995	2051.19
184.071	2056.23
184.147	2048.72
184.223	2037.12
184.299	2049.06
184.375	2038.46
184.452	2045.45
184.528	2103.31
184.604	2114.72
184.68	2123.38
184.756	2131.51
184.832	2134.41
184.908	2140.55
184.985	2143.02
185.061	2126.75
185.137	2138.41
185.213	2127.85
185.289	2129.51
185.365	2121.43
185.441	2117.77
185.517	2129.43
185.593	2124
185.669	2123.81
185.745	2134.94
185.822	2152.34
185.898	2141.97
185.974	2150.2
186.05	2141.3
186.126	2100.9
186.202	2096.09
186.278	2094
186.354	2083.39
186.43	2094.96
186.506	2094.67
186.582	2094.43
186.658	2101.33
186.734	2079.93
186.81	2080.36
186.886	2080.4
186.962	2093.91
187.038	2089.77
187.114	2081.92
187.19	2091.67
187.266	2076.98
187.341	2078.07
187.417	2071.7
187.493	2071.7
187.569	2076.36
187.645	2069.04
187.721	2056.86
187.797	2061.8
187.873	2067.7
187.949	2063.18
188.025	2051.24
188.101	2054.33
188.176	2057.8
188.252	2052.43
188.328	2064.03
188.404	2065.79
188.48	2062.89
188.556	2054.66
188.632	2056.75
188.707	2057.32
188.783	2052.8
188.859	2049.33
188.935	2037.01
189.011	2045.15
189.086	2039.87
189.162	2031.45
189.238	2029.88
189.314	2024.98
189.39	2020.51
189.465	2013.09
189.541	2027.5
189.617	2013.48
189.693	2010.05
189.768	2013.86
189.844	2039.31
189.92	2029.14
189.996	2039.08
190.071	2049.07
190.147	2049.07
190.223	2058.25
190.298	2051.97
190.374	2038.37
190.45	2050.3
190.526	2059.1
190.601	2053.01
190.677	2054.3
190.753	2081.13
190.828	2085.79
190.904	2101.87
190.98	2118.33
191.055	2125.18
191.131	2118.24
191.207	2137.88
191.282	2144.06
191.358	2132.65
191.433	2118.7
191.509	2131.87
191.585	2127.26
191.66	2129.78
191.736	2134.82
191.811	2126.45
191.887	2142.91
191.963	2167.36
192.038	2171.07
192.114	2170.5
192.189	2173.78
192.265	2168.89
192.34	2149.18
192.416	2148.99
192.491	2144.61
192.567	2145.99
192.642	2152.99
192.718	2155.32
192.793	2145.95
192.869	2141.76
192.944	2145.19
193.02	2153.09
193.095	2154.13
193.171	2158.22
193.246	2156.23
193.322	2155.56
193.397	2153.56
193.473	2139.81
193.548	2120.35
193.624	2124.73
193.699	2125.39
193.775	2142.24
193.85	2145.76
193.925	2153.61
194.001	2152.66
194.076	2146.09
194.152	2136.05
194.227	2126.16
194.302	2114.46
194.378	2117.88
194.453	2115.89
194.529	2126.97
194.604	2112.79
194.679	2105.7
194.755	2088.25
194.83	2103.15
194.905	2101.1
194.981	2108.86
195.056	2101.82
195.131	2110.19
195.207	2112.81
195.282	2102.87
195.357	2081.45
195.433	2099.1
195.508	2085.78
195.583	2091.49
195.659	2104.53
195.734	2112.43
195.809	2113.8
195.884	2122.98
195.96	2125.03
196.035	2142.06
196.11	2138.44
196.185	2149.53
196.261	2155.52
196.336	2186.68
196.411	2172.54
196.486	2176.02
196.561	2173.97
196.637	2183.15
196.712	2198.85
196.787	2198.52
196.862	2213.08
196.937	2224.68
197.013	2228.44
197.088	2239.29
197.163	2258.33
197.238	2276.04
197.313	2274.04
197.388	2289.61
197.464	2321.6
197.539	2328.93
197.614	2321.64
197.689	2335.3
197.764	2350.82
197.839	2370.86
197.914	2364.29
197.989	2386.14
198.065	2402.09
198.14	2449.63
198.215	2475.71
198.29	2484.33
198.365	2499.62
198.44	2512.57
198.515	2538.52
198.59	2554.33
198.665	2581.85
198.74	2590.57
198.815	2592.38
198.89	2617.57
198.965	2642.06
199.04	2634.44
199.115	2652.2
199.19	2693.69
199.265	2698.21
199.34	2709.93
199.415	2745.92
199.49	2765.3
199.565	2773.26
199.64	2796.13
199.715	2793.36
199.79	2800.61
199.865	2810.23
199.94	2808.47
200.015	2837.78
200.09	2843.31
200.165	2849.84
200.24	2855.18
200.315	2897.2
200.39	2911.5
200.464	2914.79
200.539	2919.55
200.614	2935.18
200.689	2959.83
200.764	2964.12
200.839	2980.03
200.914	2983.42
200.989	2973.35
201.063	2986.27
201.138	2970.55
201.213	2969.93
201.288	2952.01
201.363	2958.59
201.438	2956.87
201.512	2971.64
201.587	2954.1
201.662	2959.2
201.737	2969.21
201.812	2980.08
201.886	2946.97
201.961	2958.71
202.036	2945.46
202.111	2941.88
202.186	2915.35
202.26	2895.14
202.335	2874.02
202.41	2870.4
202.485	2852.29
202.559	2830.7
202.634	2805.73
202.709	2815.5
202.784	2797.44
202.858	2797.34
202.933	2776.28
203.008	2771.04
203.082	2752.32
203.157	2753.65
203.232	2711.64
203.306	2692.72
203.381	2659.74
203.456	2639.97
203.53	2616.08
203.605	2601.85
203.68	2577.6
203.754	2573.22
203.829	2560.83
203.904	2542.93
203.978	2531.92
204.053	2535.11
204.127	2524.16
204.202	2522.64
204.277	2502.64
204.351	2496.35
204.426	2490.16
204.5	2482.5
204.575	2447.27
204.65	2457.23
204.724	2448.84
204.799	2455.12
204.873	2452.36
204.948	2451.12
205.022	2434.23
205.097	2424.94
205.171	2433.74
205.246	2441.36
205.32	2440.84
205.395	2440.51
205.469	2429.9
205.544	2435.04
205.618	2421.76
205.693	2431.42
205.767	2419.95
205.842	2442.14
205.916	2435.34
205.991	2422
206.065	2426.38
206.14	2441.08
206.214	2435.46
206.289	2430.84
206.363	2444.08
206.438	2444.03
206.512	2449.98
206.586	2471.64
206.661	2481.5
206.735	2460.42
206.81	2461.71
206.884	2474.75
206.958	2460.52
207.033	2479.79
207.107	2485.99
207.181	2518.66
207.256	2513.09
207.33	2535.04
207.405	2548.72
207.479	2569.67
207.553	2581.81
207.628	2570.53
207.702	2585.72
207.776	2583.48
207.851	2587.24
207.925	2604.54
207.999	2605.4
208.073	2608.92
208.148	2616.02
208.222	2607.64
208.296	2645.01
208.371	2667.03
208.445	2686.85
208.519	2722.34
208.593	2741.06
208.668	2743.25
208.742	2749.26
208.816	2759.88
208.89	2780.9
208.965	2791.44
209.039	2809.08
209.113	2836.82
209.187	2868.11
209.261	2879.11
209.336	2911.81
209.41	2946.57
209.484	2963.79
209.558	3003.03
209.632	3033.78
209.707	3064.53
209.781	3109.31
209.855	3147.48
209.929	3188.97
210.003	3214.87
210.077	3239.25
210.151	3317
210.226	3381.69
210.3	3440.77
210.374	3495.26
210.448	3537.18
210.522	3579.88
210.596	3625.14
210.67	3671.08
210.744	3756.2
210.818	3825.96
210.892	3887.73
210.966	3923.46
211.041	3985.87
211.115	4028.82
211.189	4097.02
211.263	4162.6
211.337	4215.85
211.411	4280.13
211.485	4324.77
211.559	4389.79
211.633	4448.3
211.707	4470.89
211.781	4532.75
211.855	4555.91
211.929	4607.81
212.003	4646.22
212.077	4716.17
212.151	4792.68
212.225	4865.55
212.299	4921.76
212.373	4976.77
212.447	5037.42
212.52	5135.14
212.594	5204.05
212.668	5282.33
212.742	5339.16
212.816	5403
212.89	5467.5
212.964	5538.66
213.038	5615.87
213.112	5698.88
213.186	5787.96
213.26	5841.41
213.333	5871.58
213.407	5953.77
213.481	6034.1
213.555	6128.82
213.629	6199.14
213.703	6267.3
213.777	6348.44
213.85	6407.2
213.924	6518.66
213.998	6602.6
214.072	6677.11
214.146	6749.97
214.219	6827.21
214.293	6905.87
214.367	6990.23
214.441	7083.68
214.515	7154.08
214.588	7211.32
214.662	7265.52
214.736	7333.05
214.81	7423.42
214.883	7520.63
214.957	7590.8
215.031	7660.74
215.105	7711.25
215.178	7773.04
215.252	7840.94
215.326	7890
215.4	7948.18
215.473	7981.86
215.547	8034.43
215.621	8099.49
215.694	8174.98
215.768	8231.84
215.842	8291.26
215.915	8351.79
215.989	8407.81
216.063	8471.1
216.136	8546.12
216.21	8619.12
216.284	8699.5
216.357	8771.31
216.431	8833.46
216.504	8913.6
216.578	9007.62
216.652	9094.21
216.725	9168.98
216.799	9246.89
216.873	9323.97
216.946	9414.2
217.02	9476.79
217.093	9547.91
217.167	9594.43
217.24	9648.76
217.314	9716.18
217.387	9784.23
217.461	9847.13
217.535	9923.53
217.608	9979.01
217.682	10048.43
217.755	10127.53
217.829	10185.39
217.902	10254.09
217.976	10324.13
218.049	10384.07
218.123	10434.61
218.196	10508.86
218.27	10567.4
218.343	10613.65
218.417	10682.99
218.49	10742.45
218.563	10829.43
218.637	10899.69
218.71	10991.49
218.784	11063.39
218.857	11134.66
218.931	11209.25
219.004	11274.8
219.077	11347.23
219.151	11423.14
219.224	11479.09
219.298	11540.79
219.371	11615.15
219.444	11660.65
219.518	11724.03
219.591	11787.41
219.665	11884.87
219.738	11949.66
219.811	12005.42
219.885	12086.5
219.958	12152.82
220.031	12206.18
220.105	12265.33
220.178	12332.04
220.251	12388.73
220.325	12464.02
220.398	12532.42
220.471	12598.7
220.544	12670.05
220.618	12721.34
220.691	12784.58
220.764	12854.86
220.838	12921.92
220.911	12978.13
220.984	13073.72
221.057	13146.36
221.131	13221.61
221.204	13251.79
221.277	13327.72
221.35	13425.43
221.424	13485.4
221.497	13549.13
221.57	13614.64
221.643	13689.36
221.716	13752.61
221.79	13801.29
221.863	13856.63
221.936	13917.13
222.009	13975.7
222.082	14037.22
222.155	14096.56
222.229	14167.42
222.302	14224.5
222.375	14277.86
222.448	14339.18
222.521	14390.56
222.594	14437.9
222.667	14467.93
222.74	14524.62
222.814	14565.79
222.887	14608.11
222.96	14664.61
223.033	14726.79
223.106	14784.44
223.179	14835.64
223.252	14887.94
223.325	14944.24
223.398	14994.95
223.471	15050.29
223.544	15095.69
223.617	15151.51
223.69	15196.39
223.763	15233.75
223.837	15286.14
223.91	15339.12
223.983	15368.47
224.056	15399.22
224.129	15452.29
224.202	15512.45
224.275	15554
224.348	15594.34
224.42	15615.75
224.493	15641
224.566	15670.26
224.639	15714.12
224.712	15752.78
224.785	15788.4
224.858	15831.15
224.931	15867.16
225.004	15887.3
225.077	15928.71
225.15	15940.8
225.223	15976.62
225.296	16036.77
225.369	16061.2
225.442	16089.35
225.514	16133.98
225.587	16176.74
225.66	16214.62
225.733	16259.06
225.806	16302.87
225.879	16340.17
225.952	16381.38
226.025	16442.06
226.097	16500.38
226.17	16538.02
226.243	16554.36
226.316	16594.12
226.389	16632.34
226.461	16677.21
226.534	16732.3
226.607	16771.39
226.68	16836.02
226.753	16874.04
226.825	16886.62
226.898	16941.08
226.971	16978.1
227.044	17020.07
227.117	17061.71
227.189	17109.33
227.262	17148.17
227.335	17185.52
227.407	17214.58
227.48	17256.46
227.553	17284.46
227.626	17308.66
227.698	17338.39
227.771	17370.25
227.844	17396.8
227.916	17430.06
227.989	17437.24
228.062	17462.25
228.134	17506.3
228.207	17527.6
228.28	17543.02
228.352	17573.57
228.425	17599.5
228.498	17637.96
228.57	17658.39
228.643	17701.76
228.716	17718.29
228.788	17737.76
228.861	17753.52
228.934	17792.12
229.006	17820.22
229.079	17842.19
229.151	17861.47
229.224	17876.17
229.296	17910.43
229.369	17965.32
229.442	18004.12
229.514	18023.25
229.587	18050.52
229.659	18067.73
229.732	18096.21
229.804	18146.86
229.877	18193.46
229.949	18227.48
230.022	18268.44
230.094	18291.38
230.167	18307.57
230.239	18316.83
230.312	18343.76
230.384	18391.04
230.457	18410.46
230.529	18426.56
230.602	18452.58
230.674	18478.55
230.747	18521.35
230.819	18557.15
230.892	18539.75
230.964	18556.72
231.037	18589.25
231.109	18605.05
231.181	18626.83
231.254	18634.3
231.326	18644.71
231.399	18657.82
231.471	18667.27
231.544	18665.39
231.616	18688.32
231.688	18705.14
231.761	18711.55
231.833	18721.82
231.905	18719.99
231.978	18736.23
232.05	18749.14
232.122	18763.45
232.195	18773.96
232.267	18796.22
232.339	18791.16
232.412	18833.09
232.484	18833.33
232.556	18829.42
232.629	18868.84
232.701	18883.2
232.773	18890.53
232.846	18894.38
232.918	18908.17
232.99	18919.88
233.062	18932.26
233.135	18945.71
233.207	18938.04
233.279	18969.51
233.351	18982.47
233.424	18983.15
233.496	18987.68
233.568	19016.74
233.64	19005.12
233.713	19005.03
233.785	18999.05
233.857	19006.33
233.929	18990.91
234.001	19010.57
234.074	19043.53
234.146	19025.12
234.218	19020.4
234.29	19026.33
234.362	19030.57
234.434	19006.18
234.507	18996.11
234.579	18973.08
234.651	18970.72
234.723	18982.96
234.795	18978.04
234.867	18969.8
234.939	18983.92
235.012	18982.23
235.084	18976.5
235.156	18982.38
235.228	18973.41
235.3	18966.23
235.372	18964.55
235.444	18961.75
235.516	18941.95
235.588	18926.04
235.66	18915.73
235.732	18903.54
235.804	18945.27
235.876	18935.06
235.948	18942.28
236.02	18931.01
236.092	18931.49
236.164	18918
236.236	18903.15
236.308	18894.91
236.38	18889.13
236.452	18867.78
236.524	18849.57
236.596	18848.51
236.668	18848.6
236.74	18830.63
236.812	18822.29
236.884	18816.89
236.956	18810.82
237.028	18783.35
237.1	18767.4
237.172	18771.98
237.244	18777.96
237.316	18735.98
237.388	18722.68
237.46	18706.54
237.532	18704.37
237.604	18680.23
237.675	18681.05
237.747	18667.22
237.819	18642.06
237.891	18627.65
237.963	18608.86
238.035	18590.16
238.107	18541.68
238.178	18530.02
238.25	18513.83
238.322	18518.17
238.394	18486.6
238.466	18457.16
238.538	18444.96
238.609	18433.74
238.681	18399.23
238.753	18362.13
238.825	18330.32
238.897	18317.89
238.968	18309.21
239.04	18275.91
239.112	18287.91
239.184	18256.88
239.255	18233.41
239.327	18214.42
239.399	18198.47
239.471	18183.58
239.542	18179.87
239.614	18169.17
239.686	18127
239.758	18125.46
239.829	18083.1
239.901	18082.81
239.973	18066.04
240.044	18057.56
240.116	18034.72
240.188	18007.01
240.259	17983.35
240.331	17956.6
240.403	17929.95
240.474	17892.99
240.546	17863.25
240.618	17816.85
240.689	17783.26
240.761	17768.85
240.833	17763.98
240.904	17734.34
240.976	17706.82
241.048	17673.48
241.119	17659.16
241.191	17637.72
241.262	17622.2
241.334	17594.92
241.405	17549.14
241.477	17513.09
241.549	17474.44
241.62	17446.44
241.692	17423.98
241.763	17411.12
241.835	17384.27
241.906	17354.2
241.978	17312.61
242.049	17302.92
242.121	17286.87
242.192	17276.37
242.264	17229.96
242.335	17180.51
242.407	17159.21
242.478	17116.56
242.55	17086.97
242.621	17051.21
242.693	17015.35
242.764	16981.57
242.836	16952.12
242.907	16941.04
242.979	16921.13
243.05	16900.89
243.122	16876.02
243.193	16849.8
243.264	16797.7
243.336	16773.27
243.407	16759.53
243.479	16748.11
243.55	16725.7
243.622	16697.31
243.693	16660.68
243.764	16652.25
243.836	16609.11
243.907	16569.69
243.978	16550.12
244.05	16542.75
244.121	16499.13
244.192	16489.2
244.264	16439.41
244.335	16412.37
244.407	16366.3
244.478	16342.97
244.549	16307.3
244.62	16266.19
244.692	16240.02
244.763	16227.44
244.834	16188.93
244.906	16146.9
244.977	16128.92
245.048	16115.43
245.119	16074.89
245.191	16041.49
245.262	15984.38
245.333	15985.63
245.405	15953.53
245.476	15921.23
245.547	15873.76
245.618	15848.69
245.689	15815.53
245.761	15796.74
245.832	15768.01
245.903	15738.9
245.974	15710.94
246.045	15676.62
246.117	15666.88
246.188	15611.69
246.259	15567.64
246.33	15534.28
246.401	15498.42
246.473	15444.1
246.544	15397.54
246.615	15376.18
246.686	15337
246.757	15323.79
246.828	15273.56
246.899	15260.5
246.97	15215.67
247.042	15182.7
247.113	15164.72
247.184	15154.16
247.255	15117.63
247.326	15087.02
247.397	15054.1
247.468	15022.38
247.539	14999.72
247.61	14953.06
247.681	14933.73
247.752	14918.93
247.823	14881.48
247.894	14859.31
247.965	14814.96
248.037	14781.99
248.108	14738.26
248.179	14712.72
248.25	14680.56
248.321	14660.99
248.392	14621.13
248.463	14619.15
248.534	14591.48
248.605	14567.09
248.675	14526.41
248.746	14503.17
248.817	14485
248.888	14471.55
248.959	14429.23
249.03	14403.2
249.101	14380.2
249.172	14354.75
249.243	14303.22
249.314	14298.88
249.385	14275.79
249.456	14267.74
249.527	14238.86
249.598	14221.17
249.669	14195.19
249.739	14172.77
249.81	14148.38
249.881	14113.04
249.952	14090.1
250.023	14058.91
250.094	14016.73
250.165	13983.56
250.235	13953.96
250.306	13923.21
250.377	13885.95
250.448	13859.72
250.519	13814.17
250.59	13799.85
250.66	13776.18
250.731	13773.24
250.802	13745.33
250.873	13726
250.944	13701.7
251.014	13667.76
251.085	13663.38
251.156	13645.73
251.227	13635.71
251.297	13627.22
251.368	13613.72
251.439	13601.96
251.51	13593.33
251.58	13561.85
251.651	13535.87
251.722	13516.39
251.792	13471.03
251.863	13447.56
251.934	13438.83
252.005	13449.87
252.075	13418.97
252.146	13400.55
252.217	13384.79
252.287	13367.15
252.358	13336.73
252.429	13332.29
252.499	13307.61
252.57	13294.84
252.641	13283.12
252.711	13250.58
252.782	13210.33
252.852	13209.56
252.923	13175.24
252.994	13157.74
253.064	13149.21
253.135	13122.16
253.205	13102.11
253.276	13103.27
253.347	13089
253.417	13057.13
253.488	13025.75
253.558	13001.45
253.629	12976.82
253.699	12952.67
253.77	12936.13
253.841	12913.62
253.911	12891.98
253.982	12875.06
254.052	12848.11
254.123	12822.22
254.193	12808.2
254.264	12822.95
254.334	12780.57
254.405	12755.84
254.475	12712.99
254.546	12688.5
254.616	12677.99
254.687	12661.31
254.757	12639.33
254.827	12622.9
254.898	12610.55
254.968	12590.16
255.039	12563.46
255.109	12551.02
255.18	12526.05
255.25	12491.78
255.321	12473.9
255.391	12435.33
255.461	12433.21
255.532	12387.13
255.602	12358.74
255.673	12313.67
255.743	12280.4
255.813	12248.06
255.884	12233.55
255.954	12224.15
256.024	12222.56
256.095	12205.74
256.165	12169.63
256.235	12155.08
256.306	12122.25
256.376	12107.74
256.446	12091.84
256.517	12078.44
256.587	12075.25
256.657	12054.29
256.728	12027.58
256.798	12011
256.868	11991.34
256.938	11962.03
257.009	11955.38
257.079	11949.55
257.149	11955.52
257.219	11918.02
257.29	11900.09
257.36	11864.18
257.43	11860.62
257.5	11817.19
257.571	11789.23
257.641	11783.35
257.711	11752.46
257.781	11742.67
257.852	11731.15
257.922	11690.23
257.992	11670.57
258.062	11637.94
258.132	11636.15
258.202	11625.45
258.273	11607.19
258.343	11606.8
258.413	11578.36
258.483	11558.94
258.553	11523.76
258.623	11498.98
258.693	11483.08
258.764	11481.39
258.834	11474.5
258.904	11447.03
258.974	11417.34
259.044	11395.03
259.114	11375.55
259.184	11358.16
259.254	11336.08
259.324	11294.92
259.394	11292.76
259.464	11286.64
259.535	11271.26
259.605	11237.72
259.675	11211.36
259.745	11194.97
259.815	11161.91
259.885	11136.42
259.955	11147.84
260.025	11122.16
260.095	11099.07
260.165	11088.81
260.235	11078.3
260.305	11059.46
260.375	11033.67
260.445	11054.73
260.515	11054.93
260.585	11056.71
260.655	11036.37
260.725	11034.25
260.795	11034.69
260.865	11040.76
260.934	11015.65
261.004	11001.15
261.074	10989.29
261.144	10986.83
261.214	10988.76
261.284	10973.15
261.354	10974.06
261.424	10940.91
261.494	10946.4
261.564	10930.11
261.634	10915.75
261.703	10889.44
261.773	10876.09
261.843	10869.93
261.913	10842.02
261.983	10809.88
262.053	10795.76
262.123	10785.26
262.192	10751.68
262.262	10738.14
262.332	10703.73
262.402	10701.56
262.472	10686.14
262.541	10650.78
262.611	10643.45
262.681	10613.19
262.751	10601.15
262.821	10581.25
262.89	10553.11
262.96	10544.87
263.03	10550.26
263.1	10543.76
263.169	10528.29
263.239	10516.68
263.309	10516.34
263.379	10506.13
263.448	10494.42
263.518	10478.71
263.588	10460.69
263.657	10464.16
263.727	10456.36
263.797	10436.99
263.867	10417.48
263.936	10389.24
264.006	10387.9
264.076	10368.53
264.145	10346.17
264.215	10334.51
264.285	10326.81
264.354	10299.4
264.424	10276.03
264.494	10247.17
264.563	10225.15
264.633	10227.46
264.702	10212.43
264.772	10181.07
264.842	10164.45
264.911	10152.02
264.981	10124.22
265.05	10112.08
265.12	10094.02
265.19	10082.93
265.259	10079.95
265.329	10072.91
265.398	10068.48
265.468	10079.71
265.537	10062.7
265.607	10059.04
265.676	10054.08
265.746	10045.02
265.815	10043.68
265.885	10026.24
265.955	10005.43
266.024	9984.72
266.094	9947.77
266.163	9950.61
266.232	9951
266.302	9932.36
266.371	9923.45
266.441	9911.55
266.51	9899.27
266.58	9879.47
266.649	9858.37
266.719	9851.2
266.788	9836.74
266.858	9841.66
266.927	9803.17
266.996	9790.79
267.066	9780.01
267.135	9754.62
267.205	9751.64
267.274	9740.8
267.343	9743.11
267.413	9729.96
267.482	9731.55
267.552	9736.51
267.621	9706.17
267.69	9674.38
267.76	9671.11
267.829	9659.02
267.898	9650.16
267.968	9632.44
268.037	9632.92
268.106	9630.51
268.176	9605.56
268.245	9592.65
268.314	9563.42
268.384	9568.57
268.453	9561.88
268.522	9556.24
268.592	9555.52
268.661	9531.44
268.73	9527.59
268.799	9499.22
268.869	9507.8
268.938	9479.82
269.007	9459.93
269.076	9452.08
269.146	9453.48
269.215	9443.41
269.284	9452.18
269.353	9431.04
269.422	9424.78
269.492	9404.46
269.561	9368.15
269.63	9365.07
269.699	9352.45
269.768	9349.37
269.838	9333
269.907	9327.46
269.976	9303.96
270.045	9274.16
270.114	9277.14
270.183	9260.82
270.253	9260.67
270.322	9226.54
270.391	9223.36
270.46	9225.19
270.529	9217.68
270.598	9205.98
270.667	9194.04
270.736	9171.74
270.806	9172.51
270.875	9171.21
270.944	9158.07
271.013	9175.4
271.082	9168.76
271.151	9158.93
271.22	9129.81
271.289	9126.58
271.358	9108.53
271.427	9097.41
271.496	9094.76
271.565	9076.61
271.634	9066.11
271.703	9084.8
271.772	9088.02
271.841	9068.91
271.91	9046.72
271.979	9043.83
272.048	9027.46
272.117	9023.37
272.186	9010.56
272.255	9004.49
272.324	9000.31
272.393	9000.31
272.462	8984.37
272.531	8971.03
272.6	8963.23
272.669	8973.44
272.738	8958.8
272.807	8959.19
272.876	8945.18
272.945	8961.94
273.013	8960.35
273.082	8963.91
273.151	8922.27
273.22	8924.05
273.289	8922.31
273.358	8932.9
273.427	8917.11
273.496	8921.98
273.564	8924.34
273.633	8927.99
273.702	8908.84
273.771	8897.76
273.84	8889.87
273.909	8886.36
273.977	8884.05
274.046	8877.11
274.115	8878.85
274.184	8862.05
274.253	8847.9
274.322	8853.48
274.39	8819.88
274.459	8803.42
274.528	8776.85
274.597	8779.69
274.665	8770.11
274.734	8773.15
274.803	8764.58
274.872	8758.75
274.94	8742.34
275.009	8766.7
275.078	8752.84
275.147	8744.85
275.215	8742.88
275.284	8748.27
275.353	8739.89
275.421	8714.82
275.49	8726.23
275.559	8713.81
275.627	8709.38
275.696	8705.15
275.765	8706.11
275.833	8702.36
275.902	8706.45
275.971	8723.58
276.039	8730.61
276.108	8729.55
276.177	8730.71
276.245	8719.73
276.314	8714.97
276.383	8718.24
276.451	8679.77
276.52	8679.72
276.588	8696.42
276.657	8702.01
276.725	8695.94
276.794	8695.08
276.863	8707.88
276.931	8685.16
277	8689.1
277.068	8697.77
277.137	8717.16
277.205	8712.11
277.274	8731.65
277.342	8734.1
277.411	8706.53
277.48	8693.73
277.548	8693.05
277.617	8691.56
277.685	8680.59
277.754	8687.71
277.822	8677.27
277.89	8690.65
277.959	8683.05
278.027	8664.33
278.096	8648.92
278.164	8669.24
278.233	8658.41
278.301	8651.77
278.37	8654.7
278.438	8643.3
278.507	8648.45
278.575	8618.17
278.643	8613.51
278.712	8592.72
278.78	8581.5
278.849	8589.63
278.917	8596.9
278.985	8594.73
279.054	8594.64
279.122	8607.82
279.191	8607.39
279.259	8609.36
279.327	8584.91
279.396	8600.55
279.464	8597.48
279.532	8601.42
279.601	8597.52
279.669	8595.93
279.737	8606.76
279.806	8611.53
279.874	8619.8
279.942	8614.99
280.011	8611.34
280.079	8619.81
280.147	8640.07
280.215	8648.15
280.284	8650.17
280.352	8640.98
280.42	8640.35
280.488	8628.95
280.557	8624.62
280.625	8629.19
280.693	8625.39
280.761	8632.41
280.83	8609.94
280.898	8623.03
280.966	8609.27
281.034	8571.87
281.102	8561.14
281.171	8550.12
281.239	8557.24
281.307	8550.94
281.375	8535.35
281.443	8558.69
281.512	8555.75
281.58	8555.13
281.648	8537.18
281.716	8539.34
281.784	8531.06
281.852	8525.58
281.92	8524.47
281.989	8528.66
282.057	8506.81
282.125	8561.4
282.193	8556.73
282.261	8564.48
282.329	8557.98
282.397	8560.48
282.465	8565.3
282.533	8578.67
282.601	8574.49
282.67	8550.04
282.738	8542.96
282.806	8556.53
282.874	8543.2
282.942	8543.92
283.01	8538.15
283.078	8543.49
283.146	8533.87
283.214	8544.79
283.282	8544.31
283.35	8554.03
283.418	8550.8
283.486	8556.43
283.554	8506.99
283.622	8503.19
283.69	8499.92
283.758	8496.55
283.826	8501.51
283.894	8517.82
283.962	8536.35
284.03	8549.15
284.098	8549.83
284.165	8543.67
284.233	8543.47
284.301	8543.23
284.369	8535.73
284.437	8527.88
284.505	8527.16
284.573	8541.11
284.641	8532.21
284.709	8544.63
284.777	8534.86
284.845	8540.97
284.912	8546.22
284.98	8547.04
285.048	8543.23
285.116	8546.07
285.184	8563.35
285.252	8561.96
285.319	8543.67
285.387	8530.96
285.455	8514.5
285.523	8527.3
285.591	8525.33
285.659	8528.36
285.726	8535.49
285.794	8519.27
285.862	8516.82
285.93	8513.5
285.997	8512.53
286.065	8512.44
286.133	8499.49
286.201	8491.89
286.269	8476.83
286.336	8466.67
286.404	8459.89
286.472	8468.74
286.539	8445.94
286.607	8425.15
286.675	8424.66
286.743	8428.18
286.81	8427.02
286.878	8440.88
286.946	8433.18
287.013	8433.37
287.081	8429.33
287.149	8418.36
287.216	8435.58
287.284	8428.8
287.352	8430.29
287.419	8428.46
287.487	8436.64
287.555	8437.32
287.622	8439.63
287.69	8446.75
287.758	8464.27
287.825	8463.01
287.893	8452.62
287.96	8463.06
288.028	8471.63
288.096	8481.25
288.163	8487.51
288.231	8471.96
288.298	8469.85
288.366	8482.36
288.433	8478.75
288.501	8475.38
288.569	8479.13
288.636	8475.43
288.704	8489.58
288.771	8493.33
288.839	8486.5
288.906	8486.5
288.974	8494.82
289.041	8490.49
289.109	8481.93
289.176	8481.49
289.244	8482.7
289.311	8500.31
289.379	8510.22
289.446	8515.47
289.514	8512.1
289.581	8513.01
289.649	8515.28
289.716	8514.07
289.783	8502.28
289.851	8523.07
289.918	8513.3
289.986	8520.37
290.053	8526.39
290.121	8528.8
290.188	8530.72
290.255	8555.46
290.323	8546.46
290.39	8547.33
290.458	8556.57
290.525	8570.38
290.592	8564.89
290.66	8569.32
290.727	8560.8
290.794	8572.06
290.862	8568.93
290.929	8572.11
290.996	8573.02
291.064	8586.16
291.131	8600.26
291.198	8609.6
291.266	8609.65
291.333	8617.92
291.4	8621.48
291.468	8641.03
291.535	8635.97
291.602	8643.34
291.669	8633.52
291.737	8638.81
291.804	8629.95
291.871	8643.62
291.938	8649.4
292.006	8680.98
292.073	8695.22
292.14	8703.11
292.207	8695.99
292.275	8701
292.342	8710.24
292.409	8734.64
292.476	8759.34
292.543	8750.91
292.611	8756.5
292.678	8779.12
292.745	8803.14
292.812	8813.15
292.879	8806.02
292.946	8810.79
293.014	8816.13
293.081	8825.9
293.148	8836.54
293.215	8860.22
293.282	8853.67
293.349	8867.2
293.416	8847.27
293.484	8854.2
293.551	8865.27
293.618	8885.3
293.685	8907.3
293.752	8892.33
293.819	8888.62
293.886	8876.92
293.953	8884.19
294.02	8896.27
294.087	8899.02
294.154	8897.72
294.221	8917.7
294.288	8923.62
294.356	8943.6
294.423	8951.35
294.49	8943.02
294.557	8958.23
294.624	8951.54
294.691	8969.11
294.758	8970.21
294.825	8981.43
294.892	8977.39
294.959	8975.99
295.026	8978.25
295.093	8973.83
295.16	8983.11
295.226	8986.87
295.293	9008.63
295.36	9011.13
295.427	9022.01
295.494	9029.77
295.561	9036.55
295.628	9054.95
295.695	9070.02
295.762	9070.16
295.829	9081.96
295.896	9099
295.963	9106.22
296.03	9113.16
296.096	9124.04
296.163	9135.5
296.23	9150.52
296.297	9163.52
296.364	9161.73
296.431	9173.82
296.498	9168.48
296.564	9193.99
296.631	9198.18
296.698	9187.01
296.765	9206.27
296.832	9189.8
296.899	9178.77
296.965	9196.06
297.032	9173.38
297.099	9186.48
297.166	9198.27
297.233	9194.28
297.299	9191.77
297.366	9196.68
297.433	9203.13
297.5	9211.9
297.566	9204.92
297.633	9199.33
297.7	9210.74
297.767	9212.19
297.833	9212.57
297.9	9213.15
297.967	9196.01
298.033	9200.92
298.1	9221.19
298.167	9220.47
298.234	9230.29
298.3	9239.82
298.367	9235.83
298.434	9245.07
298.5	9231.11
298.567	9223.55
298.634	9225.38
298.7	9238.72
298.767	9237.32
298.834	9245.75
298.9	9238.67
298.967	9237.13
299.033	9248.35
299.1	9262.5
299.167	9280.61
299.233	9280.17
299.3	9300.01
299.366	9318.31
299.433	9342.72
299.5	9326.06
299.566	9325.39
299.633	9343.59
299.699	9352.54
299.766	9346.24
299.832	9351.53
299.899	9364.15
299.965	9383.75
300.032	9376.72
300.099	9384.28
300.165	9397.62
300.232	9400.99
300.298	9405.08
300.365	9419.58
300.431	9422.75
300.498	9411.58
300.564	9417.55
300.631	9420.63
300.697	9431.76
300.763	9428.48
300.83	9423.72
300.896	9439.17
300.963	9448.8
301.029	9450.44
301.096	9455.88
301.162	9470.76
301.229	9463.88
301.295	9456.7
301.361	9452.51
301.428	9464.11
301.494	9452.85
301.561	9447.07
301.627	9447.31
301.693	9445.72
301.76	9445.43
301.826	9441.43
301.892	9450.29
301.959	9456.8
302.025	9459.06
302.092	9454.15
302.158	9467.53
302.224	9466.81
302.291	9458.86
302.357	9451.64
302.423	9444.9
302.49	9436.42
302.556	9442.25
302.622	9443.46
302.688	9450
302.755	9465.22
302.821	9470.18
302.887	9471.24
302.954	9475.72
303.02	9481.74
303.086	9489.97
303.152	9486.99
303.219	9480.2
303.285	9482.66
303.351	9484.34
303.417	9486.41
303.483	9471.77
303.55	9462.33
303.616	9457.86
303.682	9451.69
303.748	9453.38
303.815	9470.47
303.881	9475.29
303.947	9468.4
304.013	9474.47
304.079	9466.91
304.145	9440.42
304.212	9440.86
304.278	9444.23
304.344	9436.81
304.41	9424
304.476	9414.71
304.542	9409.22
304.608	9416.64
304.674	9403.06
304.741	9399.83
304.807	9404.36
304.873	9411.63
304.939	9425.88
305.005	9411.77
305.071	9412.11
305.137	9411.34
305.203	9388.41
305.269	9387.89
305.335	9396.55
305.401	9393.42
305.467	9390
305.533	9406.47
305.599	9414.27
305.666	9421.74
305.732	9425.06
305.798	9436.23
305.864	9459.93
305.93	9465.99
305.996	9459.11
306.062	9456.7
306.128	9451.55
306.194	9438.64
306.259	9440.57
306.325	9435.51
306.391	9440.18
306.457	9445.38
306.523	9448.08
306.589	9472.06
306.655	9466.09
306.721	9449.86
306.787	9432.43
306.853	9452.8
306.919	9429.26
306.985	9421.21
307.051	9408.98
307.117	9400.07
307.183	9394.54
307.248	9367.86
307.314	9374.17
307.38	9378.07
307.446	9385.34
307.512	9379.08
307.578	9380.86
307.644	9377.58
307.709	9370.07
307.775	9373.54
307.841	9369.35
307.907	9369.88
307.973	9348.06
308.039	9345.32
308.104	9349.12
308.17	9352.01
308.236	9333.71
308.302	9344.88
308.368	9330.87
308.433	9335.2
308.499	9333.18
308.565	9323.74
308.631	9323.74
308.696	9305.21
308.762	9292.4
308.828	9293.07
308.894	9279.16
308.959	9254.8
309.025	9241.8
309.091	9242.13
309.156	9225.33
309.222	9228.17
309.288	9217.87
309.354	9195.86
309.419	9192.64
309.485	9179.69
309.551	9180.5
309.616	9168.37
309.682	9162.83
309.748	9160.23
309.813	9153.3
309.879	9144.35
309.945	9137.75
310.01	9129.95
310.076	9130.14
310.141	9130.05
310.207	9105.64
310.273	9108.96
310.338	9115.84
310.404	9100.58
310.469	9090.28
310.535	9085.66
310.601	9063.03
310.666	9067.94
310.732	9079.73
310.797	9072.13
310.863	9056.05
310.928	9052.2
310.994	9057.35
311.059	9051.86
311.125	9046.56
311.191	9058.55
311.256	9043
311.322	9042.14
311.387	9022.31
311.453	9374.13
311.518	9344.81
311.584	9349.14
311.649	9351.7
311.715	9342.26
311.78	9346.69
311.846	9333.45
311.911	9343.08
311.976	9346.16
312.042	9327.53
312.107	9309.38
312.173	9300.38
312.238	9298.64
312.304	9292.29
312.369	9275.39
312.434	9264.42
312.5	9255.08
312.565	9216.23
312.631	9222.29
312.696	9216.42
312.761	9224.07
312.827	8860.07
312.892	8894.88
312.958	8887.13
313.023	8884
313.088	8884.05
313.154	8877.74
313.219	8869.89
313.284	8855.88
313.35	8851.79
313.415	8840.77
313.48	8839.62
313.546	8841.78
313.611	8847.41
313.676	8838.8
313.741	8831.63
313.807	8834.18
313.872	8843.32
313.937	8857.76
314.003	8872.93
314.068	8867.58
314.133	8873.17
314.198	8868.35
314.264	8851.26
314.329	8845.1
314.394	8836.63
314.459	8832.78
314.525	8846.4
314.59	8843.46
314.655	8830.95
314.72	8833.89
314.785	8839.76
314.851	8829.75
314.916	8810.45
314.981	8801.11
315.046	8789.61
315.111	8784.36
315.176	8777.33
315.242	8778.73
315.307	8769.82
315.372	8745.95
315.437	8739.88
315.502	8731.12
315.567	8736.56
315.632	8716.2
315.698	8721.98
315.763	8716.11
315.828	8705.13
315.893	8696.04
315.958	8690.79
316.023	8681.31
316.088	8668.8
316.153	8649.21
316.218	8639.92
316.283	8627.75
316.348	8614.61
316.413	8611.63
316.479	8595.65
316.544	8563.08
316.609	8534.01
316.674	8500.18
316.739	8464.53
316.804	8433.83
316.869	8399.91
316.934	8359.58
316.999	8333.36
317.064	8279.19
317.129	8235.36
317.194	8207.26
317.259	8156.84
317.324	8110.04
317.389	8068
317.454	8020.23
317.518	7980.94
317.583	7957.94
317.648	7927.98
317.713	7890.17
317.778	7832.22
317.843	7806.01
317.908	7766.58
317.973	7722.48
318.038	7694.4
318.103	7659.68
318.168	7628.96
318.233	7596.74
318.297	7547.42
318.362	7516.55
318.427	7476.75
318.492	7457.66
318.557	7407.34
318.622	7377.25
318.687	7352.69
318.751	7317.17
318.816	7290.5
318.881	7261.85
318.946	7207.59
319.011	7164.2
319.075	7120.57
319.14	7089.82
319.205	7045.65
319.27	7011.31
319.335	6967.59
319.399	6927.71
319.464	6896.15
319.529	6845.57
319.594	6803.73
319.658	6773.95
319.723	6730.19
319.788	6698.26
319.853	6640.86
319.917	6610.57
319.982	6562.64
320.047	6523.99
320.112	6494.03
320.176	6442.7
320.241	6401.46
320.306	6377.55
320.37	6337.76
320.435	6307.75
320.5	6276.94
320.564	6235.52
320.629	6196.84
320.694	6166.46
320.758	6125.19
320.823	6086.37
320.888	6056
320.952	6007.07
321.017	5969.08
321.082	5927.82
321.146	5897.89
321.211	5862.2
321.275	5822.68
321.34	5781.45
321.405	5737.18
321.469	5690.91
321.534	5648.34
321.598	5600.78
321.663	5568.12
321.727	5535.81
321.792	5484.71
321.857	5441.85
321.921	5404.36
321.986	5360.9
322.05	5303.6
322.115	5266.75
322.179	5219.65
322.244	5166.1
322.308	5134.72
322.373	5088.11
322.437	5051.03
322.502	5023.1
322.566	4978.22
322.631	4942.35
322.695	4903.24
322.76	4862.68
322.824	4826.2
322.889	4785.81
322.953	4742.02
323.018	4672.9
323.082	4613.84
323.146	4567.1
323.211	4515.09
323.275	4469.72
323.34	4425.15
323.404	4392.63
323.468	4346.75
323.533	4305.86
323.597	4258.97
323.662	4211.05
323.726	4175.71
323.79	4129.61
323.855	4066.15
323.919	4019.21
323.983	3974.8
324.048	3910.31
324.112	4061.76
324.177	3936.29
324.241	3733.5
324.305	3536.19
324.37	3342.29
324.434	3151.92
324.498	3109.88
324.562	3062.62
324.627	3003.25
324.691	2952.49
324.755	2889.29
324.82	2816.2
324.884	2741.9
324.948	2676.63
325.012	2583.51
325.077	2465.71
