Data from 20250702_urea_0.5M_MAYP1162681_04-25-00-378.txt Node
Date: Thu Jul 03 04:25:00 BST 2025
User: adleo
Spectrometer: MAYP116268
Trigger mode: 0
Integration Time (sec): 1.000000E0
Scans to average: 1
Electric dark correction enabled: true
Nonlinearity correction enabled: true
Boxcar width: 10
XAxis mode: Wavelengths
Number of Pixels in Spectrum: 2068
>>>>>Begin Spectral Data<<<<<
179.565	1176.29
179.642	1231.18
179.718	1274.24
179.795	1312.58
179.871	1345.14
179.948	1360.73
180.024	1381.75
180.101	1404.32
180.177	1417.59
180.254	1440.9
180.33	1462.28
180.407	1514.21
180.483	1606.81
180.56	1693.04
180.636	1776.12
180.712	1762.81
180.789	1773.79
180.865	1788.04
180.942	1794.08
181.018	1803.3
181.095	1818.61
181.171	1822.93
181.248	1823.6
181.324	1836.72
181.4	1843.66
181.477	1852.03
181.553	1867.57
181.63	1887.06
181.706	1902.46
181.782	1908.97
181.859	1906.79
181.935	1909.97
182.011	1905.07
182.088	1919.67
182.164	1942.26
182.24	1954.43
182.317	1966.27
182.393	1962.23
182.469	1976.44
182.546	1991.23
182.622	1995.6
182.698	1990.66
182.775	2004.21
182.851	2018.57
182.927	2013.25
183.003	2008.16
183.08	2004.5
183.156	2011.54
183.232	2006.97
183.308	1995.46
183.385	2009.01
183.461	2025.42
183.537	2026.99
183.613	2040.35
183.69	2034.17
183.766	2020.32
183.842	2026.17
183.918	2031.31
183.995	2046.29
184.071	2046.53
184.147	2038.97
184.223	2028.18
184.299	2041.02
184.375	2027.42
184.452	2032.18
184.528	2084.6
184.604	2094.02
184.68	2107.43
184.756	2114.71
184.832	2119.46
184.908	2125.31
184.985	2119.98
185.061	2106.43
185.137	2116.85
185.213	2105.34
185.289	2106.1
185.365	2102.2
185.441	2101.63
185.517	2114.62
185.593	2107.82
185.669	2108.39
185.745	2119.66
185.822	2138.49
185.898	2129.07
185.974	2138.25
186.05	2131.06
186.126	2094.29
186.202	2089.48
186.278	2085.53
186.354	2077.5
186.43	2083.54
186.506	2079.45
186.582	2081.35
186.658	2088.15
186.734	2068.8
186.81	2072.27
186.886	2075.74
186.962	2086.25
187.038	2084.35
187.114	2076.45
187.19	2085.29
187.266	2075.55
187.341	2074.36
187.417	2065.18
187.493	2066.13
187.569	2071.22
187.645	2064.66
187.721	2051.1
187.797	2059.04
187.873	2061.99
187.949	2055.05
188.025	2048.29
188.101	2053.33
188.176	2058.52
188.252	2055.09
188.328	2064.5
188.404	2066.64
188.48	2060.51
188.556	2053.66
188.632	2053.14
188.707	2053.14
188.783	2048.62
188.859	2046.24
188.935	2037.54
189.011	2046.38
189.086	2040.11
189.162	2028.03
189.238	2029.26
189.314	2025.46
189.39	2019.51
189.465	2012.19
189.541	2029.07
189.617	2015.28
189.693	2011
189.768	2014.57
189.844	2035.7
189.92	2026.19
189.996	2030.47
190.071	2041.03
190.147	2039.6
190.223	2047.88
190.298	2037.51
190.374	2025.53
190.45	2035.46
190.526	2046.12
190.601	2040.51
190.677	2039.98
190.753	2069.29
190.828	2069.77
190.904	2089.22
190.98	2102.12
191.055	2111.44
191.131	2101.16
191.207	2120.76
191.282	2130.46
191.358	2119.04
191.433	2105.01
191.509	2119.08
191.585	2117.03
191.66	2119.32
191.736	2126.31
191.811	2119.7
191.887	2134.82
191.963	2160.27
192.038	2163.98
192.114	2159.27
192.189	2163.51
192.265	2165.17
192.34	2144.61
192.416	2142.61
192.491	2137.95
192.567	2141.66
192.642	2144.9
192.718	2147.85
192.793	2138.71
192.869	2132.15
192.944	2136.38
193.02	2145.42
193.095	2149.89
193.171	2154.6
193.246	2152.65
193.322	2148.37
193.397	2146.66
193.473	2136.67
193.548	2117.25
193.624	2123.2
193.699	2125.01
193.775	2138.81
193.85	2135.1
193.925	2143.71
194.001	2144.52
194.076	2134.44
194.152	2124.25
194.227	2115.41
194.302	2104.8
194.378	2106.13
194.453	2103.66
194.529	2114.65
194.604	2098.33
194.679	2091.86
194.755	2073.94
194.83	2086.26
194.905	2087.17
194.981	2095.97
195.056	2087.22
195.131	2095.21
195.207	2093.78
195.282	2085.79
195.357	2068.99
195.433	2086.02
195.508	2070.61
195.583	2078.88
195.659	2093.39
195.734	2101.05
195.809	2101.39
195.884	2110.95
195.96	2115.18
196.035	2129.69
196.11	2124.45
196.185	2134.73
196.261	2137.34
196.336	2168.97
196.411	2156.98
196.486	2162.83
196.561	2156.7
196.637	2167.78
196.712	2181.29
196.787	2183.91
196.862	2192.76
196.937	2202.27
197.013	2208.79
197.088	2224.06
197.163	2244.82
197.238	2262.81
197.313	2262.72
197.388	2277.57
197.464	2307.41
197.539	2314.03
197.614	2310.55
197.689	2323.98
197.764	2341.92
197.839	2362.48
197.914	2356.06
197.989	2377.05
198.065	2388.85
198.14	2439.34
198.215	2463.62
198.29	2474.53
198.365	2487.19
198.44	2499.47
198.515	2526.66
198.59	2540.19
198.665	2564.24
198.74	2570.14
198.815	2568.76
198.89	2590.05
198.965	2617.92
199.04	2613.15
199.115	2630.96
199.19	2675.16
199.265	2678.26
199.34	2689.65
199.415	2723.39
199.49	2746.25
199.565	2754.4
199.64	2777.93
199.715	2774.64
199.79	2784.08
199.865	2790.75
199.94	2790.22
200.015	2825.58
200.09	2831.4
200.165	2839.07
200.24	2846.94
200.315	2890.39
200.39	2903.11
200.464	2911.31
200.539	2917.46
200.614	2932.14
200.689	2954.97
200.764	2956.4
200.839	2975.6
200.914	2979.08
200.989	2965.2
201.063	2977.26
201.138	2961.69
201.213	2964.22
201.288	2943.24
201.363	2945.53
201.438	2945.29
201.512	2959.16
201.587	2940.99
201.662	2946.14
201.737	2957.54
201.812	2966.12
201.886	2929.62
201.961	2941.64
202.036	2928.35
202.111	2920.95
202.186	2891.95
202.26	2879.22
202.335	2859.29
202.41	2851.09
202.485	2834.94
202.559	2818.41
202.634	2790.53
202.709	2797.63
202.784	2779.47
202.858	2780.47
202.933	2762.22
203.008	2757.79
203.082	2740.55
203.157	2739.64
203.232	2697.11
203.306	2675.61
203.381	2643.68
203.456	2622.3
203.53	2601.94
203.605	2581.66
203.68	2559.5
203.754	2556.41
203.829	2537.02
203.904	2516.78
203.978	2503.35
204.053	2507.88
204.127	2494.78
204.202	2494.93
204.277	2480.59
204.351	2471.07
204.426	2462.21
204.5	2455.98
204.575	2423.08
204.65	2435.04
204.724	2429.61
204.799	2433.32
204.873	2430.51
204.948	2426.32
205.022	2415.75
205.097	2407.75
205.171	2423.22
205.246	2430.51
205.32	2428.51
205.395	2427.65
205.469	2419.52
205.544	2425.66
205.618	2407.33
205.693	2419.85
205.767	2407.09
205.842	2428.62
205.916	2423.67
205.991	2415.86
206.065	2419.05
206.14	2431.85
206.214	2423.04
206.289	2415.89
206.363	2429.6
206.438	2430.32
206.512	2438.41
206.586	2456.45
206.661	2462.93
206.735	2441.47
206.81	2443.13
206.884	2460.75
206.958	2449.94
207.033	2468.5
207.107	2480.08
207.181	2513.8
207.256	2508.18
207.33	2530.22
207.405	2541.9
207.479	2562.85
207.553	2572.19
207.628	2561.81
207.702	2577.86
207.776	2578.19
207.851	2583.9
207.925	2604.63
207.999	2603.96
208.073	2607.68
208.148	2618.06
208.222	2612.06
208.296	2649.39
208.371	2670.12
208.445	2683.13
208.519	2715.99
208.593	2736.05
208.668	2737.15
208.742	2745.92
208.816	2758.59
208.89	2784.62
208.965	2794.68
209.039	2813.47
209.113	2845.4
209.187	2878.17
209.261	2888.75
209.336	2926.36
209.41	2961.45
209.484	2981.53
209.558	3024.97
209.632	3056.05
209.707	3087.39
209.781	3133.07
209.855	3172.1
209.929	3217.8
210.003	3253.91
210.077	3286.3
210.151	3358.61
210.226	3427.55
210.3	3490.23
210.374	3545.34
210.448	3583.92
210.522	3626.9
210.596	3675.99
210.67	3723.51
210.744	3814.91
210.818	3891.46
210.892	3956.47
210.966	3998.46
211.041	4064.23
211.115	4113.36
211.189	4192.04
211.263	4264.43
211.337	4324.87
211.411	4394.61
211.485	4447.97
211.559	4521.39
211.633	4581.35
211.707	4618.69
211.781	4689.05
211.855	4717.29
211.929	4778.97
212.003	4832.85
212.077	4916.8
212.151	5000.14
212.225	5083.72
212.299	5143.39
212.373	5208.3
212.447	5280.68
212.52	5387.55
212.594	5466.84
212.668	5557.48
212.742	5623.07
212.816	5695.53
212.89	5768.93
212.964	5852.02
213.038	5939.93
213.112	6038.2
213.186	6137.83
213.26	6202.44
213.333	6240.31
213.407	6335.3
213.481	6424.98
213.555	6521
213.629	6596.49
213.703	6667.09
213.777	6755.28
213.85	6833.92
213.924	6955.86
213.998	7042.74
214.072	7121.95
214.146	7198.07
214.219	7284.87
214.293	7369.07
214.367	7461.74
214.441	7569.18
214.515	7646.6
214.588	7709.64
214.662	7753.68
214.736	7826
214.81	7917.44
214.883	8017.34
214.957	8094.77
215.031	8171.14
215.105	8236.54
215.178	8311.26
215.252	8398.97
215.326	8459.55
215.4	8523.26
215.473	8558.25
215.547	8622.07
215.621	8692.69
215.694	8775.77
215.768	8838.73
215.842	8909.49
215.915	8980.02
215.989	9025.71
216.063	9091.29
216.136	9169.52
216.21	9258.49
216.284	9354.37
216.357	9437.09
216.431	9508.89
216.504	9591.33
216.578	9693.92
216.652	9785.46
216.725	9865.08
216.799	9950.25
216.873	10028.43
216.946	10106.46
217.02	10176.49
217.093	10252.89
217.167	10313.31
217.24	10369.53
217.314	10440.21
217.387	10514.16
217.461	10576.75
217.535	10670.94
217.608	10740.28
217.682	10815.5
217.755	10893.8
217.829	10950.04
217.902	11019.14
217.976	11095.52
218.049	11165.4
218.123	11222.94
218.196	11298.22
218.27	11360.1
218.343	11416.49
218.417	11489.75
218.49	11559.64
218.563	11647.4
218.637	11717.43
218.71	11805.16
218.784	11887.05
218.857	11964.12
218.931	12033.67
219.004	12111.32
219.077	12186.13
219.151	12254.58
219.224	12318.59
219.298	12387.28
219.371	12471.44
219.444	12530.25
219.518	12599.38
219.591	12661.75
219.665	12749.2
219.738	12817.07
219.811	12872.94
219.885	12946.89
219.958	13021.27
220.031	13079.74
220.105	13151.09
220.178	13221.47
220.251	13285.2
220.325	13358.18
220.398	13427.41
220.471	13493.74
220.544	13560.89
220.618	13610.49
220.691	13682.42
220.764	13750.44
220.838	13824.87
220.911	13879.97
220.984	13962.74
221.057	14031.77
221.131	14100.12
221.204	14132.81
221.277	14199.57
221.35	14296.95
221.424	14347.08
221.497	14407.34
221.57	14482.01
221.643	14545.44
221.716	14612.93
221.79	14657.67
221.863	14710.4
221.936	14758.56
222.009	14821.56
222.082	14884.8
222.155	14941.3
222.229	15012.93
222.302	15068.36
222.375	15106.68
222.448	15162.84
222.521	15218.32
222.594	15274.23
222.667	15311.4
222.74	15383.27
222.814	15440.29
222.887	15489.6
222.96	15555.01
223.033	15612.8
223.106	15657.05
223.179	15711.37
223.252	15749.98
223.325	15809.94
223.398	15856.36
223.471	15915.26
223.544	15959.7
223.617	16004.57
223.69	16055.56
223.763	16084.24
223.837	16139.81
223.91	16199.1
223.983	16227.78
224.056	16253.52
224.129	16291.16
224.202	16348.27
224.275	16377.67
224.348	16405.34
224.42	16435.08
224.493	16453.82
224.566	16484
224.639	16534.7
224.712	16579.09
224.785	16616.53
224.858	16641.89
224.931	16683.29
225.004	16714.03
225.077	16758.86
225.15	16776.01
225.223	16814.09
225.296	16878.72
225.369	16898.38
225.442	16920.26
225.514	16963.25
225.587	17010.48
225.66	17051.98
225.733	17094.87
225.806	17138.58
225.879	17175.59
225.952	17198.53
226.025	17248.32
226.097	17301.33
226.17	17331.4
226.243	17343.64
226.316	17382.58
226.389	17423.65
226.461	17463.21
226.534	17497.81
226.607	17527.93
226.68	17578.39
226.753	17603.89
226.825	17608.37
226.898	17648.99
226.971	17687.55
227.044	17730.68
227.117	17762.34
227.189	17797.71
227.262	17831.5
227.335	17859.64
227.407	17881.57
227.48	17919.74
227.553	17953.9
227.626	17975.3
227.698	18012.55
227.771	18043.59
227.844	18063.49
227.916	18091.49
227.989	18100.4
228.062	18125.46
228.134	18167.29
228.207	18192.4
228.28	18214.33
228.352	18239.39
228.425	18277.31
228.498	18310.9
228.57	18312.35
228.643	18351.14
228.716	18365.21
228.788	18377.59
228.861	18393.69
228.934	18436.48
229.006	18459.95
229.079	18472.29
229.151	18487.71
229.224	18481.2
229.296	18501.06
229.369	18546.93
229.442	18590.55
229.514	18611.27
229.587	18636.91
229.659	18637
229.732	18656.42
229.804	18693.72
229.877	18735.79
229.949	18758.92
230.022	18796.27
230.094	18828.75
230.167	18844.27
230.239	18848.17
230.312	18870.96
230.384	18912.98
230.457	18928.36
230.529	18949.32
230.602	18977.8
230.674	18994.18
230.747	19033.12
230.819	19055.92
230.892	19040.3
230.964	19052.11
231.037	19067.19
231.109	19083.14
231.181	19101.94
231.254	19111.86
231.326	19118.32
231.399	19139.48
231.471	19136.59
231.544	19120.63
231.616	19140.2
231.688	19147.14
231.761	19163.76
231.833	19184.39
231.905	19170.56
231.978	19180.25
232.05	19175.81
232.122	19187.96
232.195	19189.79
232.267	19209.01
232.339	19213.98
232.412	19236.19
232.484	19235.71
232.556	19246.94
232.629	19281.88
232.701	19301.44
232.773	19304.67
232.846	19310.36
232.918	19301.97
232.99	19311.42
233.062	19334.07
233.135	19338.45
233.207	19342.02
233.279	19351.22
233.351	19335.85
233.424	19339.51
233.496	19333.63
233.568	19357.49
233.64	19345.92
233.713	19347.42
233.785	19346.4
233.857	19343.08
233.929	19333.2
234.001	19354.93
234.074	19360.91
234.146	19332.81
234.218	19325.39
234.29	19331.8
234.362	19322.26
234.434	19301.68
234.507	19279.28
234.579	19251.66
234.651	19232.72
234.723	19234.31
234.795	19242.55
234.867	19252.53
234.939	19250.8
235.012	19243.33
235.084	19241.16
235.156	19233.69
235.228	19219.28
235.3	19200.2
235.372	19201.35
235.444	19203.71
235.516	19164.97
235.588	19160.68
235.66	19145.69
235.732	19130.56
235.804	19161.84
235.876	19156.87
235.948	19170.8
236.02	19178.22
236.092	19174.75
236.164	19168.05
236.236	19151.19
236.308	19128.54
236.38	19117.41
236.452	19103.24
236.524	19091.14
236.596	19092.64
236.668	19090.76
236.74	19078.57
236.812	19071.39
236.884	19068.59
236.956	19057.8
237.028	19039.29
237.1	19014.52
237.172	19022.71
237.244	19030.18
237.316	18991.39
237.388	18971.1
237.46	18944.98
237.532	18936.5
237.604	18913.9
237.675	18911.92
237.747	18902.58
237.819	18880.51
237.891	18855.06
237.963	18826.97
238.035	18809.96
238.107	18747.07
238.178	18741.28
238.25	18725
238.322	18731.41
238.394	18688.81
238.466	18670.06
238.538	18654.69
238.609	18633.15
238.681	18586.55
238.753	18546.26
238.825	18514.65
238.897	18493.83
238.968	18483.18
239.04	18453.49
239.112	18458.84
239.184	18427.76
239.255	18394.85
239.327	18377.5
239.399	18359.48
239.471	18347.43
239.542	18329.89
239.614	18334.46
239.686	18280.3
239.758	18266.37
239.829	18223.96
239.901	18215.68
239.973	18186.52
240.044	18164.88
240.116	18142.04
240.188	18129.08
240.259	18105.8
240.331	18074.43
240.403	18065.03
240.474	18028.74
240.546	17991.93
240.618	17940.7
240.689	17908.12
240.761	17882.63
240.833	17868.31
240.904	17840.27
240.976	17812.89
241.048	17790.87
241.119	17762.15
241.191	17741.57
241.262	17733.19
241.334	17702.58
241.405	17673.14
241.477	17639.65
241.549	17614.15
241.62	17590.1
241.692	17561.62
241.763	17546.63
241.835	17516.85
241.906	17497.86
241.978	17451.74
242.049	17437.96
242.121	17416.51
242.192	17397.28
242.264	17354.25
242.335	17306.58
242.407	17278.44
242.478	17242.53
242.55	17205.96
242.621	17168.51
242.693	17138.44
242.764	17101.86
242.836	17069.86
242.907	17043.93
242.979	17021.81
243.05	16988.41
243.122	16969.04
243.193	16942.62
243.264	16893.8
243.336	16858.96
243.407	16820.4
243.479	16813.61
243.55	16786.86
243.622	16765.51
243.693	16743.05
243.764	16729.46
243.836	16696.11
243.907	16670.8
243.978	16646.22
244.05	16624.1
244.121	16582.65
244.192	16566.84
244.264	16516.05
244.335	16485.1
244.407	16438.69
244.478	16407.8
244.549	16378.83
244.62	16327.84
244.692	16291.69
244.763	16263.64
244.834	16237.8
244.906	16203.92
244.977	16175.44
245.048	16157.46
245.119	16119.77
245.191	16077.79
245.262	16027.08
245.333	16014.21
245.405	15980.71
245.476	15954.93
245.547	15927.79
245.618	15910.97
245.689	15879.54
245.761	15856.41
245.832	15825.8
245.903	15806.67
245.974	15778.37
246.045	15749.55
246.117	15734.22
246.188	15685.97
246.259	15645.92
246.33	15619.6
246.401	15580.36
246.473	15532.31
246.544	15493.65
246.615	15469.89
246.686	15438.27
246.757	15427.57
246.828	15382.21
246.899	15366.01
246.97	15315.11
247.042	15274.14
247.113	15252.16
247.184	15236.11
247.255	15199.48
247.326	15168.92
247.397	15134.88
247.468	15106.97
247.539	15071.21
247.61	15032.12
247.681	15017.51
247.752	15008.74
247.823	14973.79
247.894	14952.24
247.965	14912.14
248.037	14873.91
248.108	14830.72
248.179	14792.69
248.25	14763.86
248.321	14747.04
248.392	14705
248.463	14704.33
248.534	14681.24
248.605	14659.21
248.675	14628.7
248.746	14613.75
248.817	14594.91
248.888	14566.13
248.959	14521.39
249.03	14507.56
249.101	14478.78
249.172	14450.39
249.243	14393.79
249.314	14374.51
249.385	14343.42
249.456	14337.3
249.527	14307.27
249.598	14288.27
249.669	14265.91
249.739	14243.54
249.81	14217.55
249.881	14176.77
249.952	14151.27
250.023	14123.65
250.094	14078.63
250.165	14042.57
250.235	14012.15
250.306	13985.06
250.377	13956.13
250.448	13940.8
250.519	13895.35
250.59	13884.98
250.66	13853.26
250.731	13847.72
250.802	13817.4
250.873	13799.51
250.944	13775.07
251.014	13747.83
251.085	13740.22
251.156	13722
251.227	13701.17
251.297	13694.95
251.368	13689.26
251.439	13668.92
251.51	13655.76
251.58	13619.27
251.651	13587.31
251.722	13574.29
251.792	13524.93
251.863	13492.68
251.934	13480.24
252.005	13486.99
252.075	13465.05
252.146	13452.47
252.217	13438.59
252.287	13426.68
252.358	13400.51
252.429	13393.13
252.499	13368.35
252.57	13352.25
252.641	13342.8
252.711	13322.56
252.782	13282.83
252.852	13275.65
252.923	13254.87
252.994	13229.32
253.064	13223.11
253.135	13198.23
253.205	13164.44
253.276	13164.01
253.347	13162.41
253.417	13130.69
253.488	13089.48
253.558	13062
253.629	13043.44
253.699	13023.19
253.77	13002.8
253.841	12975.66
253.911	12954.16
253.982	12926.69
254.052	12905.33
254.123	12875.49
254.193	12850.28
254.264	12864.12
254.334	12826.85
254.405	12784.67
254.475	12753.58
254.546	12730.68
254.616	12716.37
254.687	12699.93
254.757	12685.71
254.827	12658.13
254.898	12641.6
254.968	12633.4
255.039	12600.67
255.109	12589.01
255.18	12558.16
255.25	12514
255.321	12502.87
255.391	12460.45
255.461	12467.77
255.532	12421.02
255.602	12394.79
255.673	12354.64
255.743	12321.09
255.813	12280.6
255.884	12275.59
255.954	12263
256.024	12255.48
256.095	12239.34
256.165	12207.38
256.235	12190.65
256.306	12165.49
256.376	12154.11
256.446	12131.22
256.517	12120.66
256.587	12102.87
256.657	12081.96
256.728	12064.07
256.798	12043.73
256.868	12025.17
256.938	11989.5
257.009	11981.6
257.079	11969.02
257.149	11980.97
257.219	11941.35
257.29	11923.42
257.36	11890.69
257.43	11877.44
257.5	11837.91
257.571	11812.56
257.641	11800.95
257.711	11765.33
257.781	11752.26
257.852	11738.96
257.922	11705.56
257.992	11692.98
258.062	11665.02
258.132	11656.64
258.202	11640.15
258.273	11614.56
258.343	11613.21
258.413	11592.82
258.483	11567.13
258.553	11542.36
258.623	11505.01
258.693	11486.69
258.764	11488.71
258.834	11481.15
258.904	11463.75
258.974	11442.06
259.044	11421.68
259.114	11409.19
259.184	11399.55
259.254	11379.6
259.324	11334.68
259.394	11328.47
259.464	11318.2
259.535	11304.75
259.605	11281.62
259.675	11258.25
259.745	11249.62
259.815	11214.53
259.885	11188.03
259.955	11203.4
260.025	11173.62
260.095	11162.2
260.165	11152.32
260.235	11150.73
260.305	11126.59
260.375	11096.56
260.445	11099.89
260.515	11096.32
260.585	11091.31
260.655	11071.31
260.725	11062.4
260.795	11062.93
260.865	11062.49
260.934	11037.1
261.004	11028.08
261.074	11017.39
261.144	11014.78
261.214	11008.95
261.284	10996.13
261.354	10988.57
261.424	10957.15
261.494	10959.12
261.564	10937.87
261.634	10925.44
261.703	10881.92
261.773	10871.37
261.843	10866.17
261.913	10849.2
261.983	10818.46
262.053	10804.34
262.123	10789.6
262.192	10768.49
262.262	10758.42
262.332	10722.76
262.402	10718.14
262.472	10698.19
262.541	10660.07
262.611	10657.09
262.681	10628.95
262.751	10623.12
262.821	10603.6
262.89	10574.69
262.96	10566.36
263.03	10579.32
263.1	10568.62
263.169	10566.84
263.239	10559.61
263.309	10560.24
263.379	10549.3
263.448	10540.72
263.518	10527.76
263.588	10511.57
263.657	10511.81
263.727	10503.04
263.797	10483.58
263.867	10465.99
263.936	10435.88
264.006	10435.69
264.076	10415.55
264.145	10402.3
264.215	10377.83
264.285	10379.47
264.354	10349.45
264.424	10334.71
264.494	10295.44
264.563	10273.57
264.633	10274.29
264.702	10262.63
264.772	10222.6
264.842	10199.91
264.911	10190.75
264.981	10161.08
265.05	10147.35
265.12	10125.23
265.19	10114.35
265.259	10117.04
265.329	10105.72
265.398	10104.37
265.468	10117.91
265.537	10100.09
265.607	10090.98
265.676	10083.85
265.746	10069.06
265.815	10071.09
265.885	10047.15
265.955	10027.88
266.024	10011.02
266.094	9978.84
266.163	9974.26
266.232	9981.73
266.302	9966.56
266.371	9958.27
266.441	9953.36
266.51	9951.1
266.58	9932.21
266.649	9905.67
266.719	9903.22
266.788	9890.55
266.858	9892.23
266.927	9848.88
266.996	9840.65
267.066	9824.08
267.135	9804.28
267.205	9802.26
267.274	9794.7
267.343	9798.98
267.413	9786.22
267.482	9788.97
267.552	9787.76
267.621	9759.06
267.69	9727.7
267.76	9717.64
267.829	9701.74
267.898	9681.66
267.968	9654.35
268.037	9659.55
268.106	9660.61
268.176	9633.74
268.245	9625.69
268.314	9606.38
268.384	9609.75
268.453	9600.02
268.522	9600.16
268.592	9603.97
268.661	9582.01
268.73	9568.47
268.799	9545.7
268.869	9556.77
268.938	9525.42
269.007	9498.5
269.076	9489.83
269.146	9491.23
269.215	9488.29
269.284	9492.92
269.353	9477.99
269.422	9471.15
269.492	9445.82
269.561	9403.5
269.63	9395.99
269.699	9373.69
269.768	9361.84
269.838	9350
269.907	9342.63
269.976	9314.17
270.045	9279.94
270.114	9282.34
270.183	9269.34
270.253	9261.21
270.322	9226.06
270.391	9217.73
270.46	9229.19
270.529	9228.27
270.598	9220.42
270.667	9209.69
270.736	9181.95
270.806	9176.17
270.875	9175.69
270.944	9162.98
271.013	9187.49
271.082	9176.65
271.151	9174.05
271.22	9145.07
271.289	9134.09
271.358	9125.81
271.427	9124.27
271.496	9117.39
271.565	9098.66
271.634	9090.71
271.703	9113.83
271.772	9116.28
271.841	9103.29
271.91	9080.32
271.979	9066.98
272.048	9042.34
272.117	9039.25
272.186	9027.84
272.255	9033.53
272.324	9026.16
272.393	9021.63
272.462	8999.29
272.531	8995.78
272.6	8985.53
272.669	8990.68
272.738	8982.93
272.807	8973.1
272.876	8945.91
272.945	8970.08
273.013	8966.71
273.082	8973.3
273.151	8933.29
273.22	8933.44
273.289	8925.93
273.358	8935.46
273.427	8926.89
273.496	8934.59
273.564	8932.67
273.633	8934.02
273.702	8910.09
273.771	8902.97
273.84	8898.15
273.909	8899.5
273.977	8891.41
274.046	8878.03
274.115	8880.58
274.184	8864.17
274.253	8857.34
274.322	8873.17
274.39	8847.94
274.459	8831.05
274.528	8800.39
274.597	8790.52
274.665	8785.18
274.734	8793.36
274.803	8781.18
274.872	8772.9
274.94	8753.46
275.009	8805.47
275.078	8791.03
275.147	8789.73
275.215	8787.61
275.284	8792.91
275.353	8784
275.421	8761.53
275.49	8779.34
275.559	8771.59
275.627	8765.62
275.696	8760.32
275.765	8754.79
275.833	8740.26
275.902	8747.43
275.971	8757.92
276.039	8771.88
276.108	8773.56
276.177	8770.43
276.245	8758.69
276.314	8756.86
276.383	8762.25
276.451	8695.46
276.52	8695.85
276.588	8706.48
276.657	8706.72
276.725	8695.56
276.794	8698.88
276.863	8711.78
276.931	8688.38
277	8692.04
277.068	8696.66
277.137	8711.97
277.205	8710.43
277.274	8732.37
277.342	8736.66
277.411	8719.53
277.48	8702.68
277.548	8690.79
277.617	8684.73
277.685	8675.3
277.754	8680.98
277.822	8675.54
277.89	8689.16
277.959	8686.03
278.027	8667.26
278.096	8656.72
278.164	8688.83
278.233	8677.95
278.301	8664.24
278.37	8669.72
278.438	8654.66
278.507	8657.21
278.575	8634.63
278.643	8635.4
278.712	8611.44
278.78	8593.1
278.849	8604.99
278.917	8617.84
278.985	8613.89
279.054	8619.23
279.122	8635.59
279.191	8622.94
279.259	8622.26
279.327	8599.4
279.396	8615.81
279.464	8613.98
279.532	8619.09
279.601	8606.57
279.669	8597.23
279.737	8614.94
279.806	8613.93
279.874	8622.93
279.942	8622.69
280.011	8609.84
280.079	8615.09
280.147	8633.91
280.215	8645.6
280.284	8641.08
280.352	8633.09
280.42	8639.68
280.488	8633.47
280.557	8618.51
280.625	8627.12
280.693	8625.58
280.761	8628.95
280.83	8610.03
280.898	8618.07
280.966	8595.69
281.034	8563.54
281.102	8559.65
281.171	8550.55
281.239	8558.2
281.307	8548.91
281.375	8539.34
281.443	8565.18
281.512	8559.6
281.58	8564.46
281.648	8541.55
281.716	8538.19
281.784	8537.27
281.852	8529.38
281.92	8525.48
281.989	8536.31
282.057	8518.26
282.125	8565.01
282.193	8565.63
282.261	8565.54
282.329	8560.34
282.397	8570.68
282.465	8579.63
282.533	8589.5
282.601	8576.41
282.67	8558.94
282.738	8555.38
282.806	8568.32
282.874	8555.57
282.942	8553.07
283.01	8546.18
283.078	8556.86
283.146	8551.67
283.214	8558.89
283.282	8561.82
283.35	8580.59
283.418	8582.33
283.486	8590.27
283.554	8544.05
283.622	8546.89
283.69	8548.38
283.758	8542.99
283.826	8542.61
283.894	8549.59
283.962	8576.69
284.03	8596.8
284.098	8590.5
284.165	8581.45
284.233	8576.64
284.301	8573.08
284.369	8568.07
284.437	8558.35
284.505	8549.79
284.573	8569.66
284.641	8556.91
284.709	8563.12
284.777	8539.15
284.845	8545.55
284.912	8547.28
284.98	8543.92
285.048	8534.05
285.116	8539.78
285.184	8553.97
285.252	8552.96
285.319	8538.62
285.387	8519.51
285.455	8498.24
285.523	8513.98
285.591	8514.7
285.659	8511.04
285.726	8522.98
285.794	8504.31
285.862	8502
285.93	8506.38
285.997	8497.18
286.065	8489.39
286.133	8482.03
286.201	8479.81
286.269	8455.37
286.336	8446.08
286.404	8445.41
286.472	8447.23
286.539	8418.56
286.607	8401.57
286.675	8406.48
286.743	8413.5
286.81	8406.24
286.878	8418.12
286.946	8403.49
287.013	8403.11
287.081	8406.04
287.149	8387.08
287.216	8412.15
287.284	8409.89
287.352	8412.2
287.419	8410.85
287.487	8431.3
287.555	8433.81
287.622	8430.49
287.69	8441.46
287.758	8460.8
287.825	8455.32
287.893	8444.59
287.96	8459.79
288.028	8476.54
288.096	8484.14
288.163	8489.92
288.231	8479.91
288.298	8481.59
288.366	8494.15
288.433	8497.86
288.501	8494.05
288.569	8498.87
288.636	8490.78
288.704	8500.93
288.771	8509.55
288.839	8497.57
288.906	8485.39
288.974	8491.12
289.041	8492.37
289.109	8484.48
289.176	8482.79
289.244	8486.07
289.311	8507.87
289.379	8515.66
289.446	8505.31
289.514	8495.74
289.581	8493.72
289.649	8502.42
289.716	8501.46
289.783	8500.11
289.851	8513.44
289.918	8509.45
289.986	8518.55
290.053	8527.98
290.121	8527.21
290.188	8522.11
290.255	8553.63
290.323	8550.36
290.39	8548.09
290.458	8554.83
290.525	8567.58
290.592	8563.49
290.66	8568.88
290.727	8561.18
290.794	8574.8
290.862	8583.75
290.929	8589.19
290.996	8590.3
291.064	8591.55
291.131	8602.33
291.198	8608.97
291.266	8605.17
291.333	8612.48
291.4	8613.06
291.468	8625
291.535	8623.07
291.602	8629.67
291.669	8620.95
291.737	8629.76
291.804	8626.01
291.871	8641.69
291.938	8655.12
292.006	8684.01
292.073	8698.93
292.14	8710.86
292.207	8706.96
292.275	8715.39
292.342	8725.78
292.409	8748.17
292.476	8773
292.543	8764.96
292.611	8771.7
292.678	8794.47
292.745	8810.88
292.812	8821.23
292.879	8818.63
292.946	8822.67
293.014	8831.77
293.081	8841.3
293.148	8850.35
293.215	8866.33
293.282	8867.92
293.349	8870.04
293.416	8850.15
293.484	8864.16
293.551	8871
293.618	8884.52
293.685	8902.53
293.752	8900.8
293.819	8898.05
293.886	8889.96
293.953	8901.08
294.02	8908.21
294.087	8907.15
294.154	8902.82
294.221	8917.55
294.288	8921.16
294.356	8933.09
294.423	8943.49
294.49	8938.53
294.557	8951.72
294.624	8948.55
294.691	8966.17
294.758	8969.68
294.825	8986.1
294.892	8977.38
294.959	8981.76
295.026	8987.93
295.093	8971.56
295.16	8967.32
295.226	8969.1
295.293	8988.02
295.36	8988.65
295.427	8996.55
295.494	9008.87
295.561	9021.87
295.628	9043.92
295.695	9055.14
295.762	9061.93
295.829	9073.19
295.896	9086.29
295.963	9097.99
296.03	9107.76
296.096	9107.13
296.163	9122.54
296.23	9128.13
296.297	9140.88
296.364	9138.57
296.431	9143.24
296.498	9146.37
296.564	9175.02
296.631	9180.46
296.698	9173.48
296.765	9197.07
296.832	9188.45
296.899	9181.85
296.965	9197.4
297.032	9181.32
297.099	9199.81
297.166	9209.39
297.233	9203.37
297.299	9202.94
297.366	9203.33
297.433	9202.12
297.5	9213
297.566	9207.85
297.633	9209.44
297.7	9209.54
297.767	9207.8
297.833	9212.43
297.9	9222.3
297.967	9203.42
298.033	9212.43
298.1	9243.25
298.167	9236.17
298.234	9245.51
298.3	9248.16
298.367	9234.72
298.434	9238.62
298.5	9232.12
298.567	9226.73
298.634	9225.33
298.7	9236.46
298.767	9230
298.834	9248.59
298.9	9243.2
298.967	9237.71
299.033	9251.91
299.1	9267.51
299.167	9283.02
299.233	9279.94
299.3	9286.87
299.366	9303.62
299.433	9317.44
299.5	9283.64
299.566	9286.77
299.633	9301.12
299.699	9318.55
299.766	9324.52
299.832	9331.12
299.899	9338.2
299.965	9349.61
300.032	9344.99
300.099	9356.16
300.165	9367.67
300.232	9366.65
300.298	9368.82
300.365	9384.08
300.431	9377.92
300.498	9371.37
300.564	9378.69
300.631	9393.38
300.697	9406.33
300.763	9407.97
300.83	9401.66
300.896	9421.45
300.963	9432.33
301.029	9439.65
301.096	9436.19
301.162	9447.98
301.229	9445.19
301.295	9431.75
301.361	9439.56
301.428	9447.21
301.494	9433.49
301.561	9442.44
301.627	9444.27
301.693	9449.57
301.76	9451.06
301.826	9443.94
301.892	9463.39
301.959	9470.67
302.025	9467.58
302.092	9468.16
302.158	9473.17
302.224	9474.81
302.291	9467.15
302.357	9460.12
302.423	9454.1
302.49	9453.81
302.556	9468.45
302.622	9467.68
302.688	9482.95
302.755	9494.99
302.821	9506.88
302.887	9515.93
302.954	9509.86
303.02	9511.6
303.086	9510.73
303.152	9503.85
303.219	9508.42
303.285	9504.18
303.351	9513.48
303.417	9512.56
303.483	9502.21
303.55	9498.93
303.616	9504.57
303.682	9500.38
303.748	9494.36
303.815	9506.21
303.881	9514.68
303.947	9497.2
304.013	9498.7
304.079	9495.66
304.145	9473.27
304.212	9471.63
304.278	9463.35
304.344	9463.4
304.41	9454.58
304.476	9448.04
304.542	9446.21
304.608	9448.66
304.674	9434.7
304.741	9425.01
304.807	9428.39
304.873	9426.7
304.939	9444.47
305.005	9418.71
305.071	9415.34
305.137	9418.52
305.203	9389.19
305.269	9391.64
305.335	9402.14
305.401	9399.4
305.467	9388.76
305.533	9399.54
305.599	9407.25
305.666	9413.41
305.732	9412.98
305.798	9425.93
305.864	9454.88
305.93	9466.63
305.996	9464.8
306.062	9467.78
306.128	9470.48
306.194	9454.92
306.259	9463.45
306.325	9452.52
306.391	9466.05
306.457	9469.18
306.523	9472.45
306.589	9499.08
306.655	9484.68
306.721	9470.33
306.787	9463.2
306.853	9474.91
306.919	9457.52
306.985	9446.59
307.051	9437.63
307.117	9426.46
307.183	9419.24
307.248	9389
307.314	9386.78
307.38	9390.25
307.446	9394.24
307.512	9375.61
307.578	9388.37
307.644	9381.19
307.709	9382.59
307.775	9382.49
307.841	9383.55
307.907	9388.46
307.973	9365.78
308.039	9364.63
308.104	9370.98
308.17	9366.41
308.236	9361.93
308.302	9365.4
308.368	9354.85
308.433	9358.7
308.499	9356.59
308.565	9344.4
308.631	9347.68
308.696	9323.75
308.762	9309.69
308.828	9302.51
308.894	9285.81
308.959	9260.38
309.025	9245.46
309.091	9239.58
309.156	9224.37
309.222	9226.39
309.288	9208.48
309.354	9192.88
309.419	9193.07
309.485	9173.38
309.551	9182.09
309.616	9166.35
309.682	9163.56
309.748	9154.65
309.813	9147.67
309.879	9136.79
309.945	9127.06
310.01	9120.8
310.076	9121.86
310.141	9117.34
310.207	9101.98
310.273	9111.08
310.338	9115.22
310.404	9104.24
310.469	9090.57
310.535	9086.72
310.601	9067.07
310.666	9077.14
310.732	9090.61
310.797	9076.07
310.863	9072.75
310.928	9061.97
310.994	9064.9
311.059	9053.69
311.125	9054.46
311.191	9066.16
311.256	9055.66
311.322	9058.89
311.387	9044.4
311.453	9323.67
311.518	9300.13
311.584	9296.95
311.649	9299.07
311.715	9293.15
311.78	9295.7
311.846	9285.59
311.911	9293.97
311.976	9294.4
312.042	9274.28
312.107	9253.58
312.173	9246.02
312.238	9235.43
312.304	9231.39
312.369	9214.39
312.434	9206.5
312.5	9193.36
312.565	9159.56
312.631	9165.24
312.696	9154.89
312.761	9149.74
312.827	8860.79
312.892	8900.03
312.958	8894.3
313.023	8888.81
313.088	8881.01
313.154	8871.1
313.219	8862.87
313.284	8850.16
313.35	8844.29
313.415	8836.68
313.48	8831.96
313.546	8841.11
313.611	8849.44
313.676	8842.02
313.741	8836.54
313.807	8841.21
313.872	8849.97
313.937	8854.3
314.003	8863.59
314.068	8867.34
314.133	8873.17
314.198	8863.11
314.264	8841.4
314.329	8834.37
314.394	8833.02
314.459	8832.25
314.525	8844.19
314.59	8840.43
314.655	8830.37
314.72	8840.05
314.785	8844.62
314.851	8844.14
314.916	8817.33
314.981	8796.68
315.046	8788.21
315.111	8772.52
315.176	8767.9
315.242	8774.3
315.307	8775.6
315.372	8761.4
315.437	8750.52
315.502	8747.25
315.567	8762.22
315.632	8743.26
315.698	8747.97
315.763	8740.37
315.828	8729.59
315.893	8729.88
315.958	8728.38
316.023	8720.73
316.088	8700.18
316.153	8672.6
316.218	8662.55
316.283	8650.61
316.348	8639.79
316.413	8634.78
316.479	8627.76
316.544	8589.84
316.609	8550.71
316.674	8515.35
316.739	8472.77
316.804	8436.68
316.869	8393.04
316.934	8354.44
316.999	8328.03
317.064	8275.25
317.129	8228.82
317.194	8197.5
317.259	8146.74
317.324	8095.75
317.389	8049.48
317.454	8007.82
317.518	7976.94
317.583	7950.58
317.648	7923.93
317.713	7890.32
317.778	7826.45
317.843	7798.55
317.908	7758.79
317.973	7717.87
318.038	7687.52
318.103	7654.74
318.168	7627.14
318.233	7601.22
318.297	7548
318.362	7512.28
318.427	7473.01
318.492	7445.36
318.557	7396.29
318.622	7368.26
318.687	7344.57
318.751	7308.96
318.816	7278.91
318.881	7242.1
318.946	7186.54
319.011	7141.42
319.075	7103.21
319.14	7071.22
319.205	7021.15
319.27	6992.95
319.335	6950.58
319.399	6912.96
319.464	6883.61
319.529	6835.77
319.594	6793.16
319.658	6766.98
319.723	6726.39
319.788	6701.13
319.853	6650.9
319.917	6619.11
319.982	6564.46
320.047	6523.26
320.112	6493.01
320.176	6442.46
320.241	6411.44
320.306	6382.2
320.37	6338.91
320.435	6302.09
320.5	6278.62
320.564	6241.81
320.629	6201.74
320.694	6173.19
320.758	6126.74
320.823	6081.63
320.888	6052.89
320.952	6002.72
321.017	5963.23
321.082	5921.73
321.146	5888.2
321.211	5853.9
321.275	5814.1
321.34	5772.86
321.405	5730.95
321.469	5681.75
321.534	5643.4
321.598	5597.89
321.663	5570.75
321.727	5539.83
321.792	5495.34
321.857	5450.42
321.921	5413.32
321.986	5372.83
322.05	5315.14
322.115	5278.77
322.179	5240.59
322.244	5186.64
322.308	5157.66
322.373	5110.43
322.437	5066.08
322.502	5036.89
322.566	4992.97
322.631	4958.78
322.695	4920.33
322.76	4879.16
322.824	4847.37
322.889	4803.52
322.953	4755.8
323.018	4687.82
323.082	4630.4
323.146	4577.49
323.211	4524.28
323.275	4480.01
323.34	4432.94
323.404	4400.38
323.468	4355.7
323.533	4309.69
323.597	4262.84
323.662	4213.53
323.726	4177.38
323.79	4134.36
323.855	4070.07
323.919	4020.79
323.983	3976.47
324.048	3912.99
324.112	4053.62
324.177	3926.32
324.241	3722.09
324.305	3522.07
324.37	3326.97
324.434	3136.79
324.498	3097.29
324.562	3048.98
324.627	2989.11
324.691	2935.19
324.755	2871.33
324.82	2798.56
324.884	2723.77
324.948	2655.3
325.012	2562.13
325.077	2442.54
