Data from 20250702_urea_0.5M_MAYP1162681_18-05-00-344.txt Node
Date: Wed Jul 02 18:05:00 BST 2025
User: adleo
Spectrometer: MAYP116268
Trigger mode: 0
Integration Time (sec): 1.000000E0
Scans to average: 1
Electric dark correction enabled: true
Nonlinearity correction enabled: true
Boxcar width: 10
XAxis mode: Wavelengths
Number of Pixels in Spectrum: 2068
>>>>>Begin Spectral Data<<<<<
179.565	1124.91
179.642	1177.3
179.718	1215.64
179.795	1251.93
179.871	1283.51
179.948	1298.3
180.024	1317.93
180.101	1340.41
180.177	1353.44
180.254	1372.3
180.33	1393.93
180.407	1441.11
180.483	1530.52
180.56	1612.57
180.636	1691.52
180.712	1679.73
180.789	1688.71
180.865	1698.97
180.942	1706.33
181.018	1721.87
181.095	1739.65
181.171	1744.02
181.248	1747.16
181.324	1762.7
181.4	1770.3
181.477	1779.48
181.553	1793.25
181.63	1812.69
181.706	1827.67
181.782	1837.79
181.859	1842.25
181.935	1846.39
182.011	1843.35
182.088	1858.27
182.164	1876.91
182.24	1887.75
182.317	1895.78
182.393	1896.4
182.469	1908.61
182.546	1922.68
182.622	1922.16
182.698	1915.41
182.775	1924.39
182.851	1935.19
182.927	1927.29
183.003	1920.59
183.08	1914.56
183.156	1923.87
183.232	1919.59
183.308	1907.99
183.385	1914.32
183.461	1927.96
183.537	1928.58
183.613	1940.32
183.69	1932.91
183.766	1923.44
183.842	1932.14
183.918	1939.51
183.995	1953.02
184.071	1957.73
184.147	1953.35
184.223	1945.75
184.299	1956.78
184.375	1948.7
184.452	1954.21
184.528	2007.53
184.604	2018.27
184.68	2031.06
184.756	2039.34
184.832	2045.85
184.908	2049.56
184.985	2046.76
185.061	2033.54
185.137	2042.67
185.213	2030.88
185.289	2031.87
185.365	2025.55
185.441	2023.65
185.517	2034.59
185.593	2028.55
185.669	2024.37
185.745	2032.07
185.822	2047.66
185.898	2039.86
185.974	2046.57
186.05	2041.86
186.126	2002.57
186.202	1997.77
186.278	1992.87
186.354	1982.26
186.43	1987.92
186.506	1987.16
186.582	1987.07
186.658	1992.11
186.734	1973.23
186.81	1976.13
186.886	1978.27
186.962	1990.87
187.038	1989.83
187.114	1981.45
187.19	1990.25
187.266	1981.41
187.341	1980.74
187.417	1971.19
187.493	1971.23
187.569	1977.65
187.645	1969.9
187.721	1959.77
187.797	1968.81
187.873	1973.66
187.949	1967.43
188.025	1960.3
188.101	1963.1
188.176	1969.52
188.252	1965.76
188.328	1973.13
188.404	1974.22
188.48	1967.66
188.556	1962.05
188.632	1957.68
188.707	1958.96
188.783	1953.97
188.859	1950.74
188.935	1941.84
189.011	1950.73
189.086	1944.17
189.162	1933.14
189.238	1931.05
189.314	1929.81
189.39	1921.4
189.465	1915.31
189.541	1929.77
189.617	1913.89
189.693	1909.75
189.768	1912.65
189.844	1937.44
189.92	1928.65
189.996	1935.97
190.071	1948.04
190.147	1945.9
190.223	1955.37
190.298	1948.71
190.374	1939.29
190.45	1949.85
190.526	1956.88
190.601	1952.13
190.677	1955.46
190.753	1981.53
190.828	1985.85
190.904	1999.74
190.98	2014.29
191.055	2023.95
191.131	2020
191.207	2041.49
191.282	2050.9
191.358	2041.58
191.433	2026.02
191.509	2038.43
191.585	2037.14
191.66	2041.04
191.736	2048.18
191.811	2040.47
191.887	2057.36
191.963	2078.48
192.038	2084.76
192.114	2088.61
192.189	2092.51
192.265	2087.52
192.34	2068.49
192.416	2066.96
192.491	2064.06
192.567	2067.92
192.642	2069.53
192.718	2065.21
192.793	2052.75
192.869	2048.66
192.944	2051.46
193.02	2054.98
193.095	2061.21
193.171	2063.54
193.246	2057.93
193.322	2054.7
193.397	2053.36
193.473	2038
193.548	2019.97
193.624	2021.73
193.699	2016.88
193.775	2031.86
193.85	2037.43
193.925	2043.42
194.001	2041.75
194.076	2033.15
194.152	2022.25
194.227	2015.78
194.302	2006.04
194.378	2010.89
194.453	2007.56
194.529	2019.07
194.604	2006.47
194.679	1999.24
194.755	1981.75
194.83	1993.78
194.905	1992.36
194.981	2003.72
195.056	1996.07
195.131	2000.3
195.207	2003.39
195.282	1996.88
195.357	1976.61
195.433	1989.98
195.508	1980.23
195.583	1987.36
195.659	2003.15
195.734	2009.67
195.809	2010.19
195.884	2021.98
195.96	2023.22
196.035	2040.96
196.11	2036.91
196.185	2049.85
196.261	2055.17
196.336	2084.94
196.411	2073.62
196.486	2080.47
196.561	2074.43
196.637	2084.13
196.712	2100.07
196.787	2102.21
196.862	2115.38
196.937	2126.98
197.013	2130.65
197.088	2141.68
197.163	2162.29
197.238	2176.38
197.313	2177
197.388	2189.84
197.464	2217.21
197.539	2225.01
197.614	2216.63
197.689	2230.96
197.764	2247.61
197.839	2264.03
197.914	2259.22
197.989	2280.45
198.065	2289.25
198.14	2336.2
198.215	2361.14
198.29	2373.61
198.365	2382.42
198.44	2393.65
198.515	2419.5
198.59	2434.93
198.665	2458.35
198.74	2467.16
198.815	2468.54
198.89	2492.39
198.965	2519.59
199.04	2515.54
199.115	2532.25
199.19	2572.39
199.265	2573.87
199.34	2581.91
199.415	2614.46
199.49	2637.88
199.565	2648.17
199.64	2673.65
199.715	2671.08
199.79	2680.41
199.865	2687.18
199.94	2685.13
200.015	2712.86
200.09	2718.86
200.165	2723.63
200.24	2729.68
200.315	2770.54
200.39	2784.36
200.464	2786.32
200.539	2786.22
200.614	2800.03
200.689	2822.15
200.764	2826.2
200.839	2842.15
200.914	2846.73
200.989	2836.52
201.063	2848.82
201.138	2830.01
201.213	2830.54
201.288	2812.57
201.363	2815.43
201.438	2816.29
201.512	2836.44
201.587	2822.19
201.662	2826.24
201.737	2838.72
201.812	2845.3
201.886	2809.2
201.961	2821.5
202.036	2810.59
202.111	2807.97
202.186	2782.83
202.26	2767.58
202.335	2748.28
202.41	2741.8
202.485	2727.84
202.559	2709.45
202.634	2683.44
202.709	2693.91
202.784	2676.05
202.858	2678.34
202.933	2662.14
203.008	2655.42
203.082	2635.56
203.157	2634.23
203.232	2591.28
203.306	2572.22
203.381	2542.59
203.456	2524.97
203.53	2497.47
203.605	2477.77
203.68	2459.76
203.754	2455
203.829	2443.19
203.904	2422.82
203.978	2411.73
204.053	2413.44
204.127	2400.78
204.202	2398.35
204.277	2382.98
204.351	2374.79
204.426	2368.74
204.5	2358.36
204.575	2324.67
204.65	2334.72
204.724	2327.1
204.799	2334.66
204.873	2330.09
204.948	2331.37
205.022	2316.62
205.097	2309.48
205.171	2324.19
205.246	2331.52
205.32	2330.23
205.395	2325.33
205.469	2316.25
205.544	2320.44
205.618	2304.78
205.693	2317.63
205.767	2306.83
205.842	2328.39
205.916	2325.73
205.991	2315.92
206.065	2321.01
206.14	2335.47
206.214	2329
206.289	2323.57
206.363	2337.75
206.438	2339.08
206.512	2342.46
206.586	2362.69
206.661	2373.79
206.735	2355.37
206.81	2355.99
206.884	2372.08
206.958	2362.08
207.033	2383.78
207.107	2395.59
207.181	2428.4
207.256	2424.45
207.33	2443.68
207.405	2453.16
207.479	2472.97
207.553	2481.73
207.628	2469.83
207.702	2486.3
207.776	2486.4
207.851	2496.49
207.925	2518.88
207.999	2527.93
208.073	2539.31
208.148	2552.36
208.222	2548.84
208.296	2590.26
208.371	2613.66
208.445	2638.25
208.519	2682.35
208.593	2706.79
208.668	2720.76
208.742	2741.31
208.816	2763.32
208.89	2801.5
208.965	2827.11
209.039	2859.3
209.113	2903.92
209.187	2954.65
209.261	2983.53
209.336	3039.14
209.41	3088.93
209.484	3125.48
209.558	3185.55
209.632	3239.27
209.707	3293.33
209.781	3363.38
209.855	3428.69
209.929	3498.49
210.003	3560.18
210.077	3618.02
210.151	3728.19
210.226	3823.92
210.3	3916.79
210.374	4011.9
210.448	4085.48
210.522	4174.24
210.596	4266.77
210.67	4354.29
210.744	4483.62
210.818	4601.77
210.892	4708.56
210.966	4800.29
211.041	4905.37
211.115	5003.82
211.189	5126
211.263	5246.76
211.337	5363.53
211.411	5484.56
211.485	5597.68
211.559	5723.24
211.633	5841.3
211.707	5929.55
211.781	6060.06
211.855	6153.16
211.929	6265.95
212.003	6374.86
212.077	6512.77
212.151	6657.91
212.225	6809.06
212.299	6936.21
212.373	7061.69
212.447	7200.01
212.52	7367.87
212.594	7518.23
212.668	7667.78
212.742	7803.09
212.816	7944.19
212.89	8088.28
212.964	8245.66
213.038	8398.2
213.112	8570.14
213.186	8741.06
213.26	8877.86
213.333	8988.43
213.407	9153.96
213.481	9321.99
213.555	9504.73
213.629	9655.32
213.703	9802.12
213.777	9958.81
213.85	10101.25
213.924	10293.88
213.998	10458.22
214.072	10619.44
214.146	10770.53
214.219	10930.69
214.293	11082.9
214.367	11246.6
214.441	11411.41
214.515	11554.4
214.588	11691.42
214.662	11803.24
214.736	11939.63
214.81	12103.02
214.883	12280.29
214.957	12422
215.031	12562.12
215.105	12687.68
215.178	12818.41
215.252	12956.18
215.326	13075.39
215.4	13193.05
215.473	13293.71
215.547	13413.6
215.621	13543.56
215.694	13690.01
215.768	13805.75
215.842	13938.41
215.915	14060.99
215.989	14166.32
216.063	14288.43
216.136	14417.18
216.21	14544.06
216.284	14682.21
216.357	14812.36
216.431	14920.67
216.504	15052.7
216.578	15197.59
216.652	15322.25
216.725	15449.02
216.799	15574.24
216.873	15696.77
216.946	15827.78
217.02	15936.42
217.093	16042.41
217.167	16126.95
217.24	16226.48
217.314	16339.27
217.387	16443.61
217.461	16536.34
217.535	16653.51
217.608	16742.05
217.682	16839.69
217.755	16959.94
217.829	17045.34
217.902	17140.33
217.976	17240.77
218.049	17320.58
218.123	17401.54
218.196	17501.11
218.27	17583.76
218.343	17662.6
218.417	17752.09
218.49	17840.86
218.563	17950.59
218.637	18055.89
218.71	18154.59
218.784	18233.67
218.857	18318.24
218.931	18397.47
219.004	18488.12
219.077	18578.33
219.151	18668.73
219.224	18748.05
219.298	18822.99
219.371	18921.44
219.444	18982.84
219.518	19050.93
219.591	19138.01
219.665	19237.95
219.738	19306.77
219.811	19370.86
219.885	19448.11
219.958	19523.1
220.031	19587.33
220.105	19656.68
220.178	19707.95
220.251	19768.92
220.325	19840.86
220.398	19906.31
220.471	19975.27
220.544	20045.97
220.618	20098.25
220.691	20158.59
220.764	20222.11
220.838	20276.9
220.911	20312.47
220.984	20388.42
221.057	20446.83
221.131	20496.18
221.204	20512.08
221.277	20585.38
221.35	20663.07
221.424	20705.72
221.497	20760.71
221.57	20814.55
221.643	20855.13
221.716	20892.72
221.79	20931.27
221.863	20976.87
221.936	21019.38
222.009	21062.51
222.082	21104.06
222.155	21133.21
222.229	21182.14
222.302	21224.16
222.375	21259.59
222.448	21311.5
222.521	21347.69
222.594	21383.22
222.667	21401.43
222.74	21448.19
222.814	21474.79
222.887	21499.76
222.96	21538.13
223.033	21564.5
223.106	21588.21
223.179	21632.07
223.252	21671.65
223.325	21696.32
223.398	21717.34
223.471	21743.18
223.544	21761.93
223.617	21779.33
223.69	21808.25
223.763	21813.55
223.837	21832.01
223.91	21867.78
223.983	21870.72
224.056	21873.9
224.129	21890.1
224.202	21916.65
224.275	21929.62
224.348	21921.96
224.42	21928.08
224.493	21924.85
224.566	21933.14
224.639	21953.58
224.712	21947.84
224.785	21965
224.858	21984.28
224.931	21986.4
225.004	21978.88
225.077	21995.13
225.15	21979.37
225.223	21993.35
225.296	22024.25
225.369	22017.98
225.442	22008.05
225.514	22019.57
225.587	22030.9
225.66	22042.9
225.733	22053.31
225.806	22067.25
225.879	22075.83
225.952	22075.49
226.025	22103.98
226.097	22125.62
226.17	22125.04
226.243	22109.72
226.316	22108.46
226.389	22113.33
226.461	22128.81
226.534	22154.93
226.607	22153.82
226.68	22184.19
226.753	22188.77
226.825	22176.33
226.898	22198.32
226.971	22200.24
227.044	22213.89
227.117	22213.16
227.189	22223.29
227.262	22235.1
227.335	22223.43
227.407	22225.41
227.48	22225.99
227.553	22221.41
227.626	22201.26
227.698	22201.4
227.771	22212.92
227.844	22199.71
227.916	22199.38
227.989	22185.59
228.062	22177.01
228.134	22190.84
228.207	22191.86
228.28	22179.61
228.352	22178.16
228.425	22168.43
228.498	22181.59
228.57	22162.21
228.643	22175.95
228.716	22155.12
228.788	22138.25
228.861	22137.14
228.934	22153.39
229.006	22151.55
229.079	22141.53
229.151	22135.12
229.224	22121.09
229.296	22115.55
229.369	22134.88
229.442	22143.7
229.514	22133.82
229.587	22135.36
229.659	22108.99
229.732	22100.84
229.804	22098.67
229.877	22102.34
229.949	22096.41
230.022	22099.93
230.094	22099.49
230.167	22088.31
230.239	22079.34
230.312	22060.11
230.384	22066.28
230.457	22049.99
230.529	22038.03
230.602	22031
230.674	22031.24
230.747	22034.52
230.819	22037.46
230.892	21997.3
230.964	21990.94
231.037	21979.03
231.109	21964.09
231.181	21963.66
231.254	21932.42
231.326	21922.2
231.399	21914.49
231.471	21901.47
231.544	21867.59
231.616	21854.91
231.688	21840.21
231.761	21828.16
231.833	21819.67
231.905	21778.22
231.978	21757.78
232.05	21742.84
232.122	21725.44
232.195	21705.58
232.267	21700.61
232.339	21677.67
232.412	21682.58
232.484	21642.77
232.556	21620.84
232.629	21614.81
232.701	21599.92
232.773	21590.62
232.846	21567.29
232.918	21546.56
232.99	21527.09
233.062	21518.8
233.135	21506.46
233.207	21478.5
233.279	21468.14
233.351	21462.21
233.424	21446.31
233.496	21416.33
233.568	21409.87
233.64	21374.64
233.713	21353.24
233.785	21321.81
233.857	21299.35
233.929	21258.72
234.001	21265.27
234.074	21263.68
234.146	21230.19
234.218	21210.04
234.29	21192.64
234.362	21166.28
234.434	21123.33
234.507	21101.21
234.579	21057.83
234.651	21028.14
234.723	21011.52
234.795	20990.94
234.867	20962.4
234.939	20944.72
235.012	20929.25
235.084	20903.46
235.156	20892.14
235.228	20857.05
235.3	20827.65
235.372	20801.34
235.444	20787.31
235.516	20730.92
235.588	20701.09
235.66	20676.03
235.732	20637.33
235.804	20654.25
235.876	20636.66
235.948	20629.28
236.02	20593.91
236.092	20570.3
236.164	20538.29
236.236	20511.45
236.308	20469.76
236.38	20442.63
236.452	20407.74
236.524	20384.51
236.596	20373.04
236.668	20353.14
236.74	20321.62
236.812	20300.75
236.884	20279.16
236.956	20254.2
237.028	20225.96
237.1	20187.21
237.172	20169.62
237.244	20157.62
237.316	20095.69
237.388	20053.87
237.46	20022.15
237.532	20006.16
237.604	19962.78
237.675	19948.42
237.747	19927.03
237.819	19894.06
237.891	19860.33
237.963	19828.48
238.035	19783.51
238.107	19716.24
238.178	19690.94
238.25	19664.39
238.322	19648.58
238.394	19595.86
238.466	19565.55
238.538	19537.31
238.609	19511.34
238.681	19454.71
238.753	19406.96
238.825	19370.96
238.897	19351.78
238.968	19325.32
239.04	19278.72
239.112	19279.64
239.184	19227.35
239.255	19175.45
239.327	19144.03
239.399	19117.19
239.471	19089.14
239.542	19061.05
239.614	19042.93
239.686	18978.21
239.758	18951.37
239.829	18907.42
239.901	18893.88
239.973	18847.47
240.044	18809.16
240.116	18778.61
240.188	18745.84
240.259	18715.53
240.331	18679.91
240.403	18636.3
240.474	18589.03
240.546	18549.51
240.618	18493.81
240.689	18460.89
240.761	18435.59
240.833	18422.19
240.904	18383.64
240.976	18352.56
241.048	18327.6
241.119	18300.66
241.191	18276.85
241.262	18257.48
241.334	18219.36
241.405	18183.56
241.477	18146.11
241.549	18119.41
241.62	18082.79
241.692	18061.59
241.763	18029.88
241.835	17994.79
241.906	17970.84
241.978	17916.87
242.049	17898.94
242.121	17872.19
242.192	17841.98
242.264	17789.16
242.335	17726.46
242.407	17702.85
242.478	17661.31
242.55	17625.84
242.621	17578.95
242.693	17547.38
242.764	17506.13
242.836	17473.6
242.907	17435.57
242.979	17416.73
243.05	17388.68
243.122	17360.88
243.193	17317.12
243.264	17267.38
243.336	17228.83
243.407	17199.81
243.479	17174.94
243.55	17135.62
243.622	17107.47
243.693	17078.46
243.764	17060.73
243.836	17023.76
243.907	16977.97
243.978	16938.55
244.05	16905.59
244.121	16865.15
244.192	16835.85
244.264	16786.3
244.335	16749.24
244.407	16698.97
244.478	16660.75
244.549	16616.9
244.62	16571.54
244.692	16532.65
244.763	16505.27
244.834	16468.26
244.906	16416.06
244.977	16392.59
245.048	16371.24
245.119	16326.32
245.191	16282.36
245.262	16227.47
245.333	16208.52
245.405	16179.6
245.476	16155.94
245.547	16124.61
245.618	16097.62
245.689	16067.21
245.761	16036.6
245.832	16000.11
245.903	15989.17
245.974	15953.31
246.045	15917.55
246.117	15897.88
246.188	15860.67
246.259	15819.7
246.33	15788.23
246.401	15761.38
246.473	15719.45
246.544	15684.98
246.615	15665.56
246.686	15626.13
246.757	15614.71
246.828	15576
246.899	15551.61
246.97	15503.65
247.042	15468.22
247.113	15441.47
247.184	15418.43
247.255	15380.11
247.326	15350.32
247.397	15301.3
247.468	15272.72
247.539	15243.75
247.61	15202.34
247.681	15183.74
247.752	15167.2
247.823	15124.88
247.894	15099.14
247.965	15057.54
248.037	15021.63
248.108	14975.12
248.179	14958
248.25	14918.09
248.321	14887.34
248.392	14851.71
248.463	14839.13
248.534	14802.4
248.605	14782.06
248.675	14754.1
248.746	14739.01
248.817	14719.44
248.888	14703.83
248.959	14664.78
249.03	14641.16
249.101	14613.63
249.172	14579.41
249.243	14529.23
249.314	14520.94
249.385	14490.9
249.456	14474.37
249.527	14447.52
249.598	14421.49
249.669	14386.3
249.739	14363.98
249.81	14346.34
249.881	14304.4
249.952	14284.15
250.023	14255.66
250.094	14209
250.165	14171.45
250.235	14137.99
250.306	14108.59
250.377	14071.47
250.448	14057.34
250.519	14017.19
250.59	14008.03
250.66	13975.92
250.731	13968.98
250.802	13932.3
250.873	13906.41
250.944	13887.46
251.014	13848.37
251.085	13843.4
251.156	13820.89
251.227	13808.36
251.297	13798.57
251.368	13779.92
251.439	13760.63
251.51	13750.7
251.58	13715.85
251.651	13687.55
251.722	13672.22
251.792	13627.54
251.863	13610.61
251.934	13592.92
252.005	13588.54
252.075	13555.23
252.146	13551.32
252.217	13540.96
252.287	13527.07
252.358	13504.8
252.429	13488.84
252.499	13459.54
252.57	13433.02
252.641	13417.79
252.711	13395.28
252.782	13352.32
252.852	13355.02
252.923	13326.92
252.994	13306.09
253.064	13303.54
253.135	13269.7
253.205	13240.58
253.276	13234.02
253.347	13217.73
253.417	13186.35
253.488	13162.44
253.558	13138.82
253.629	13107.53
253.699	13081.45
253.77	13067.76
253.841	13041.87
253.911	13028.18
253.982	13015.65
254.052	13003.45
254.123	12977.13
254.193	12954.96
254.264	12972.22
254.334	12929.17
254.405	12893.21
254.475	12862.6
254.546	12832.66
254.616	12830.4
254.687	12813.28
254.757	12800.03
254.827	12773.18
254.898	12759.53
254.968	12729.89
255.039	12708.87
255.109	12698.7
255.18	12670.45
255.25	12626.25
255.321	12614.34
255.391	12571.63
255.461	12569.75
255.532	12519.52
255.602	12501.3
255.673	12457.1
255.743	12419.26
255.813	12381.22
255.884	12374.81
255.954	12365.22
256.024	12365.36
256.095	12339.43
256.165	12311.04
256.235	12288.24
256.306	12259.99
256.376	12243.17
256.446	12238.64
256.517	12212.13
256.587	12197.95
256.657	12177.18
256.728	12165.47
256.798	12144.88
256.868	12124.69
256.938	12092.73
257.009	12085.26
257.079	12064.24
257.149	12075.76
257.219	12042.45
257.29	12026.07
257.36	11983.31
257.43	11962.1
257.5	11913.42
257.571	11887.1
257.641	11865.37
257.711	11839.63
257.781	11826.08
257.852	11811.09
257.922	11763.9
257.992	11740.82
258.062	11712.86
258.132	11711.27
258.202	11682.11
258.273	11661.48
258.343	11656.95
258.413	11633.62
258.483	11616.56
258.553	11592.51
258.623	11559.69
258.693	11543.25
258.764	11541.85
258.834	11545.13
258.904	11527.97
258.974	11506.48
259.044	11487.25
259.114	11485.85
259.184	11465.61
259.254	11446.38
259.324	11403.29
259.394	11396.06
259.464	11402.23
259.535	11387.58
259.605	11355.29
259.675	11334.61
259.745	11320.88
259.815	11295.62
259.885	11268.63
259.955	11275.09
260.025	11249.41
260.095	11233.5
260.165	11213.6
260.235	11212.73
260.305	11177.79
260.375	11153.17
260.445	11160.68
260.515	11157.36
260.585	11137.26
260.655	11119.24
260.725	11118.85
260.795	11117.41
260.865	11118.18
260.934	11082.8
261.004	11071.14
261.074	11058.56
261.144	11063.58
261.214	11057.07
261.284	11039.67
261.354	11032.11
261.424	11000.83
261.494	11007.29
261.564	10990.23
261.634	10984.35
261.703	10943.43
261.773	10940.25
261.843	10921.56
261.913	10899.15
261.983	10867.78
262.053	10863.15
262.123	10850.38
262.192	10815.45
262.262	10808.7
262.332	10775.16
262.402	10771.55
262.472	10752.85
262.541	10717.34
262.611	10699.37
262.681	10674.07
262.751	10662.51
262.821	10645.31
262.89	10614.27
262.96	10600.73
263.03	10598.57
263.1	10583.68
263.169	10572.98
263.239	10562.72
263.309	10569.37
263.379	10565.27
263.448	10551.3
263.518	10539.54
263.588	10520.56
263.657	10523.06
263.727	10510.87
263.797	10502.35
263.867	10483.46
263.936	10463.22
264.006	10461.83
264.076	10444.87
264.145	10426.51
264.215	10410.08
264.285	10407.96
264.354	10385.8
264.424	10362.92
264.494	10332.75
264.563	10316.04
264.633	10323.02
264.702	10315.75
264.772	10287.8
264.842	10266.03
264.911	10259.18
264.981	10230.81
265.05	10226.71
265.12	10203.59
265.19	10190.15
265.259	10178.25
265.329	10173.19
265.398	10159.07
265.468	10171.07
265.537	10154.4
265.607	10147.51
265.676	10138.12
265.746	10124.05
265.815	10124
265.885	10113.65
265.955	10091.01
266.024	10075.26
266.094	10041
266.163	10039.7
266.232	10038.31
266.302	10021.45
266.371	10014.7
266.441	10000.64
266.51	9986.09
266.58	9971.06
266.649	9949.82
266.719	9952.32
266.788	9936.43
266.858	9933.49
266.927	9891.2
266.996	9885.03
267.066	9876.99
267.135	9853.92
267.205	9850.83
267.274	9835.08
267.343	9825.35
267.413	9814.08
267.482	9809.85
267.552	9812.4
267.621	9777.33
267.69	9744
267.76	9731.87
267.829	9718.43
267.898	9709.42
267.968	9688.13
268.037	9686.74
268.106	9680.77
268.176	9654.03
268.245	9641.75
268.314	9624.36
268.384	9629.42
268.453	9612.66
268.522	9597.73
268.592	9591.66
268.661	9569.08
268.73	9564.11
268.799	9544.42
268.869	9550.15
268.938	9520.72
269.007	9494.86
269.076	9487.83
269.146	9483.5
269.215	9479.89
269.284	9479.6
269.353	9455.33
269.422	9439.01
269.492	9423.16
269.561	9387.67
269.63	9382.04
269.699	9363.45
269.768	9353.39
269.838	9341.35
269.907	9347.8
269.976	9327.29
270.045	9301.1
270.114	9298.02
270.183	9283.14
270.253	9277.46
270.322	9251.21
270.391	9242.88
270.46	9244.28
270.529	9239.03
270.598	9240.19
270.667	9224.49
270.736	9207.3
270.806	9209.03
270.875	9216.01
270.944	9204.94
271.013	9224.49
271.082	9218.81
271.151	9215.24
271.22	9190.4
271.289	9177.88
271.358	9161.17
271.427	9158.09
271.496	9154.77
271.565	9140.52
271.634	9131.08
271.703	9152.46
271.772	9158.77
271.841	9152.46
271.91	9128.54
271.979	9123.58
272.048	9096.28
272.117	9093.58
272.186	9078.18
272.255	9081.45
272.324	9080.58
272.393	9070.33
272.462	9052.61
272.531	9041.06
272.6	9032.78
272.669	9035.76
272.738	9031.28
272.807	9020.02
272.876	9004.95
272.945	9029.02
273.013	9025.32
273.082	9028.35
273.151	8988.43
273.22	8978.42
273.289	8970.82
273.358	8985.93
273.427	8969.37
273.496	8972.74
273.564	8978.85
273.633	8982.08
273.702	8960.37
273.771	8945.59
273.84	8941.64
273.909	8940.92
273.977	8937.93
274.046	8924.36
274.115	8929.27
274.184	8908.67
274.253	8900.58
274.322	8906.36
274.39	8873.48
274.459	8862.84
274.528	8837.38
274.597	8830.11
274.665	8827.03
274.734	8833.05
274.803	8820.72
274.872	8810.37
274.94	8793.82
275.009	8812.21
275.078	8796.62
275.147	8788
275.215	8784.87
275.284	8794.21
275.353	8783.09
275.421	8757.39
275.49	8769.33
275.559	8755.32
275.627	8749.35
275.696	8742.42
275.765	8734.14
275.833	8728.66
275.902	8722.64
275.971	8735.49
276.039	8749.79
276.108	8749.21
276.177	8747.67
276.245	8734.63
276.314	8735.54
276.383	8745.12
276.451	8709.59
276.52	8710.16
276.588	8721.23
276.657	8720.75
276.725	8708.24
276.794	8700.3
276.863	8718.15
276.931	8696.44
277	8709.58
277.068	8720.85
277.137	8740
277.205	8739.95
277.274	8758
277.342	8770.81
277.411	8751.41
277.48	8735.58
277.548	8729.03
277.617	8726.96
277.685	8722.39
277.754	8729.18
277.822	8720.37
277.89	8736.06
277.959	8727.74
278.027	8710.27
278.096	8703.05
278.164	8720.66
278.233	8719.75
278.301	8702.42
278.37	8708.01
278.438	8691.4
278.507	8689.76
278.575	8661.7
278.643	8652.22
278.712	8634.7
278.78	8616.99
278.849	8629.07
278.917	8634.94
278.985	8631.14
279.054	8626.09
279.122	8639.37
279.191	8632.53
279.259	8624.4
279.327	8600
279.396	8618.91
279.464	8620.21
279.532	8622.91
279.601	8619.1
279.669	8615.69
279.737	8627.81
279.806	8630.56
279.874	8634.31
279.942	8631.76
280.011	8626.85
280.079	8633.4
280.147	8648.7
280.215	8654.96
280.284	8646.87
280.352	8638.11
280.42	8645.38
280.488	8640.47
280.557	8629.93
280.625	8633.73
280.693	8639.17
280.761	8640.23
280.83	8617.9
280.898	8625.31
280.966	8610.2
281.034	8581.52
281.102	8567.61
281.171	8562.89
281.239	8569.82
281.307	8564.82
281.375	8557.75
281.443	8581.04
281.512	8586.38
281.58	8587.34
281.648	8571.51
281.716	8571.03
281.784	8573.87
281.852	8563.95
281.92	8562.17
281.989	8569.73
282.057	8555.73
282.125	8597.65
282.193	8592.22
282.261	8594.57
282.329	8592.31
282.397	8597.12
282.465	8596.55
282.533	8615.75
282.601	8609.68
282.67	8593.7
282.738	8581.77
282.806	8590.34
282.874	8573.44
282.942	8571.08
283.01	8569.16
283.078	8575.85
283.146	8568.49
283.214	8573.63
283.282	8575.85
283.35	8585.96
283.418	8581.91
283.486	8584.22
283.554	8544.17
283.622	8547.3
283.69	8547.25
283.758	8540.51
283.826	8543.74
283.894	8561.3
283.962	8576.03
284.03	8582.91
284.098	8584.31
284.165	8582.87
284.233	8574.49
284.301	8569.97
284.369	8564.58
284.437	8550.24
284.505	8543.21
284.573	8561.06
284.641	8545.9
284.709	8557.17
284.777	8541.33
284.845	8550.57
284.912	8552.98
284.98	8549.37
285.048	8543.89
285.116	8554.47
285.184	8568.43
285.252	8567.08
285.319	8543.45
285.387	8532.58
285.455	8519.15
285.523	8519.15
285.591	8519.68
285.659	8524.97
285.726	8542.92
285.794	8530.08
285.862	8527.67
285.93	8533.06
285.997	8528.97
286.065	8522.52
286.133	8502.6
286.201	8502.07
286.269	8486.09
286.336	8483.68
286.404	8481.23
286.472	8488.4
286.539	8464.53
286.607	8444.71
286.675	8448.65
286.743	8465.25
286.81	8460.2
286.878	8475.45
286.946	8469.49
287.013	8472.66
287.081	8470.74
287.149	8456.78
287.216	8472.71
287.284	8469.1
287.352	8468.67
287.419	8466.98
287.487	8486.23
287.555	8495.28
287.622	8491.43
287.69	8499.08
287.758	8507.36
287.825	8510.53
287.893	8499.85
287.96	8497.44
288.028	8507.84
288.096	8507.69
288.163	8505.14
288.231	8493.79
288.298	8490.18
288.366	8502.45
288.433	8498.12
288.501	8492.68
288.569	8492.78
288.636	8485.41
288.704	8493.21
288.771	8502.55
288.839	8487.72
288.906	8480.55
288.974	8489.94
289.041	8485.99
289.109	8474.44
289.176	8484.79
289.244	8484.65
289.311	8501.01
289.379	8522.95
289.446	8528.2
289.514	8532
289.581	8537.97
289.649	8546.39
289.716	8545.62
289.783	8536.52
289.851	8551.44
289.918	8556.44
289.986	8566.26
290.053	8572.85
290.121	8577.96
290.188	8576.99
290.255	8613.14
290.323	8605.29
290.39	8597.93
290.458	8609.04
290.525	8618.52
290.592	8607.65
290.66	8610.92
290.727	8602.45
290.794	8604.47
290.862	8597.64
290.929	8598.79
290.996	8592.73
291.064	8596.43
291.131	8612.12
291.198	8629.16
291.266	8633.16
291.333	8631.95
291.4	8637.73
291.468	8653.9
291.535	8644.18
291.602	8644.81
291.669	8634.7
291.737	8642.2
291.804	8638.69
291.871	8652.31
291.938	8658.81
292.006	8685.09
292.073	8692.6
292.14	8704.97
292.207	8707.28
292.275	8718.01
292.342	8720.08
292.409	8749.35
292.476	8775.29
292.543	8767.06
292.611	8766.82
292.678	8780.49
292.745	8803.88
292.812	8815.05
292.879	8814.47
292.946	8821.79
293.014	8839.55
293.081	8845.37
293.148	8860.58
293.215	8883.59
293.282	8878.01
293.349	8890.23
293.416	8873
293.484	8889.75
293.551	8897.93
293.618	8910.79
293.685	8928.02
293.752	8922.2
293.819	8916.9
293.886	8900.77
293.953	8910.45
294.02	8921.33
294.087	8926.43
294.154	8918.2
294.221	8931.58
294.288	8925.9
294.356	8944.53
294.423	8944.72
294.49	8935.53
294.557	8947.66
294.624	8937.7
294.691	8956.76
294.758	8959.65
294.825	8965.95
294.892	8959.26
294.959	8960.37
295.026	8969.37
295.093	8965.57
295.16	8972.59
295.226	8970.28
295.293	8997.24
295.36	8998.3
295.427	9008.46
295.494	9018.14
295.561	9027.33
295.628	9044.82
295.695	9059.26
295.762	9065.08
295.829	9076.98
295.896	9095.65
295.963	9106.05
296.03	9113.27
296.096	9119.15
296.163	9125.41
296.23	9140.23
296.297	9150.49
296.364	9150.34
296.431	9151.55
296.498	9149.29
296.564	9175.96
296.631	9184.62
296.698	9174.85
296.765	9196.9
296.832	9188.04
296.899	9184.19
296.965	9203.11
297.032	9181.63
297.099	9197.67
297.166	9205.08
297.233	9202.67
297.299	9196.03
297.366	9194.15
297.433	9200.31
297.5	9208.45
297.566	9212.79
297.633	9216.59
297.7	9218.95
297.767	9217.94
297.833	9225.74
297.9	9224.63
297.967	9204.7
298.033	9213.8
298.1	9239.03
298.167	9229.64
298.234	9231.42
298.3	9234.07
298.367	9223.43
298.434	9233.21
298.5	9225.74
298.567	9225.55
298.634	9225.12
298.7	9242.88
298.767	9243.07
298.834	9258.68
298.9	9259.45
298.967	9248.32
299.033	9257.52
299.1	9273.22
299.167	9289.16
299.233	9283.28
299.3	9297.53
299.366	9317.95
299.433	9332.1
299.5	9307.21
299.566	9308.89
299.633	9332.05
299.699	9347.18
299.766	9352.33
299.832	9358.11
299.899	9370.87
299.965	9380.06
300.032	9373.66
300.099	9389.99
300.165	9398.94
300.232	9388.4
300.298	9387.92
300.365	9409.29
300.431	9407.51
300.498	9398.89
300.564	9397.98
300.631	9412.47
300.697	9426.92
300.763	9429.18
300.83	9423.69
300.896	9440.35
300.963	9452.44
301.029	9451.96
301.096	9451.96
301.162	9464.38
301.229	9460.14
301.295	9452.73
301.361	9452.78
301.428	9462.65
301.494	9442.95
301.561	9448.1
301.627	9452.92
301.693	9452.19
301.76	9454.51
301.826	9456.87
301.892	9475.21
301.959	9486.96
302.025	9481.28
302.092	9479.36
302.158	9484.12
302.224	9486.92
302.291	9481.14
302.357	9476.18
302.423	9471.84
302.49	9462.84
302.556	9473.96
302.622	9468.91
302.688	9479.5
302.755	9492.79
302.821	9497.56
302.887	9500.55
302.954	9494.09
303.02	9503.39
303.086	9513.84
303.152	9508.97
303.219	9493.66
303.285	9489.04
303.351	9501.51
303.417	9507.72
303.483	9494.96
303.55	9485.52
303.616	9486.25
303.682	9488.12
303.748	9484.03
303.815	9492.8
303.881	9502.09
303.947	9484.32
304.013	9494.96
304.079	9479.75
304.145	9459.04
304.212	9452.39
304.278	9445.6
304.344	9448.06
304.41	9437.42
304.476	9424.75
304.542	9421.67
304.608	9433.76
304.674	9423.4
304.741	9406.98
304.807	9408.04
304.873	9413.58
304.939	9436.4
305.005	9420.66
305.071	9408.91
305.137	9408.81
305.203	9387.82
305.269	9381.75
305.335	9388.68
305.401	9378.14
305.467	9375.05
305.533	9385.7
305.599	9397.78
305.666	9406.93
305.732	9404.86
305.798	9418.25
305.864	9443.29
305.93	9442.23
305.996	9441.56
306.062	9441.32
306.128	9441.8
306.194	9426.39
306.259	9429.95
306.325	9412.04
306.391	9422.34
306.457	9428.31
306.523	9433.9
306.589	9456.92
306.655	9455.28
306.721	9443.43
306.787	9433.23
306.853	9454.75
306.919	9437.71
306.985	9432.36
307.051	9424.17
307.117	9412.62
307.183	9399.86
307.248	9372.36
307.314	9378.43
307.38	9378.67
307.446	9382.95
307.512	9382.04
307.578	9385.02
307.644	9375.39
307.709	9376.5
307.775	9368.55
307.841	9366.29
307.907	9360.9
307.973	9336.82
308.039	9326.9
308.104	9331.14
308.17	9336.48
308.236	9315.63
308.302	9322.42
308.368	9306.1
308.433	9307.69
308.499	9308.99
308.565	9302.92
308.631	9301.96
308.696	9279.71
308.762	9269.89
308.828	9261.65
308.894	9239.02
308.959	9220.92
309.025	9216.54
309.091	9210.33
309.156	9203.97
309.222	9203.01
309.288	9193.91
309.354	9174.36
309.419	9177.06
309.485	9163.1
309.551	9161.56
309.616	9148.89
309.682	9141.67
309.748	9136.23
309.813	9128.77
309.879	9117.94
309.945	9106.62
310.01	9104.99
310.076	9114.33
310.141	9101.38
310.207	9086.59
310.273	9083.51
310.338	9088.62
310.404	9073.74
310.469	9061.7
310.535	9052.65
310.601	9031.61
310.666	9031.42
310.732	9041.43
310.797	9025.64
310.863	9014.19
310.928	9010.19
310.994	9012.12
311.059	9004.65
311.125	9002.05
311.191	9014.48
311.256	9003.31
311.322	9007.06
311.387	8981.31
311.453	9261.12
311.518	9243.74
311.584	9247.21
311.649	9255.44
311.715	9240.86
311.78	9237.39
311.846	9226.95
311.911	9228.63
311.976	9229.5
312.042	9219.05
312.107	9208.8
312.173	9204.8
312.238	9196.72
312.304	9190.99
312.369	9180.35
312.434	9172.79
312.5	9166.1
312.565	9135.53
312.631	9141.93
312.696	9131.34
312.761	9132.98
312.827	8838.87
312.892	8868.38
312.958	8857.98
313.023	8845.75
313.088	8846.09
313.154	8837.09
313.219	8830.54
313.284	8818.12
313.35	8818.65
313.415	8806.14
313.48	8799.59
313.546	8802.86
313.611	8813.74
313.676	8802.48
313.741	8797.62
313.807	8802.57
313.872	8803.15
313.937	8802.48
314.003	8814.13
314.068	8816.97
314.133	8824.43
314.198	8813.7
314.264	8795.21
314.329	8792.37
314.394	8797.23
314.459	8796.12
314.525	8813.07
314.59	8805.32
314.655	8801.18
314.72	8804.12
314.785	8813.02
314.851	8809.27
314.916	8786.93
314.981	8770.04
315.046	8758.34
315.111	8742.85
315.176	8725.28
315.242	8730.33
315.307	8729.42
315.372	8702.08
315.437	8692.64
315.502	8687.54
315.567	8697.17
315.632	8683.16
315.698	8683.4
315.763	8677.44
315.828	8669.88
315.893	8662.32
315.958	8661.36
316.023	8651.35
316.088	8630.99
316.153	8602.26
316.218	8591.15
316.283	8577.82
316.348	8560.35
316.413	8556.31
316.479	8541.64
316.544	8510.51
316.609	8481.1
316.674	8443.19
316.739	8408.12
316.804	8375.74
316.869	8338.98
316.934	8298.51
316.999	8272.34
317.064	8222.54
317.129	8176.21
317.194	8133.97
317.259	8084.03
317.324	8034.01
317.389	7984.81
317.454	7948.63
317.518	7918
317.583	7891.83
317.648	7868.17
317.713	7837.48
317.778	7778.52
317.843	7751.55
317.908	7718.9
317.973	7680.19
318.038	7655.23
318.103	7620.96
318.168	7581.82
318.233	7549.27
318.297	7498.99
318.362	7462.16
318.427	7419.86
318.492	7392.65
318.557	7346.9
318.622	7324.12
318.687	7300.38
318.751	7263.57
318.816	7226.32
318.881	7190.13
318.946	7133.38
319.011	7090.17
319.075	7047.46
319.14	7015.56
319.205	6971.64
319.27	6940.61
319.335	6896.7
319.399	6854.81
319.464	6827.91
319.529	6781.61
319.594	6743.18
319.658	6714.71
319.723	6672.97
319.788	6645.16
319.853	6593.68
319.917	6568.38
319.982	6513.73
320.047	6472.25
320.112	6447.09
320.176	6395.49
320.241	6364.71
320.306	6337.97
320.37	6293.53
320.435	6261.61
320.5	6233.63
320.564	6197.3
320.629	6153.77
320.694	6119.66
320.758	6079.4
320.823	6034.06
320.888	6009.78
320.952	5958.98
321.017	5915.33
321.082	5869.81
321.146	5832.78
321.211	5797.87
321.275	5755.57
321.34	5710.31
321.405	5669.36
321.469	5624.34
321.534	5590.25
321.598	5537.04
321.663	5504.24
321.727	5477.63
321.792	5426.06
321.857	5382.2
321.921	5339.11
321.986	5295.94
322.05	5240.75
322.115	5201.8
322.179	5159.5
322.244	5104.03
322.308	5072.27
322.373	5031.51
322.437	4990.57
322.502	4966.37
322.566	4921.36
322.631	4883.29
322.695	4845.62
322.76	4803.73
322.824	4765.72
322.889	4723.79
322.953	4680.77
323.018	4615.11
323.082	4548.35
323.146	4504.92
323.211	4451.1
323.275	4407.66
323.34	4361.94
323.404	4325.98
323.468	4286.99
323.533	4242.38
323.597	4198.64
323.662	4147.24
323.726	4108.94
323.79	4069.65
323.855	4000.79
323.919	3953.19
323.983	3911.75
324.048	3845.75
324.112	3974.53
324.177	3848.12
324.241	3645.28
324.305	3448.74
324.37	3258.18
324.434	3073.74
324.498	3028.7
324.562	2982.41
324.627	2924.39
324.691	2872.42
324.755	2809.62
324.82	2729.55
324.884	2655.75
324.948	2582.94
325.012	2493.06
325.077	2374.62
