Data from 20250702_urea_0.5M_MAYP1162681_07-24-59-498.txt Node
Date: Thu Jul 03 07:24:59 BST 2025
User: adleo
Spectrometer: MAYP116268
Trigger mode: 0
Integration Time (sec): 1.000000E0
Scans to average: 1
Electric dark correction enabled: true
Nonlinearity correction enabled: true
Boxcar width: 10
XAxis mode: Wavelengths
Number of Pixels in Spectrum: 2068
>>>>>Begin Spectral Data<<<<<
179.565	1179.29
179.642	1234.92
179.718	1279.54
179.795	1319.43
179.871	1347.54
179.948	1364.16
180.024	1385.92
180.101	1407.1
180.177	1421.16
180.254	1445.24
180.33	1465.99
180.407	1519.68
180.483	1612.99
180.56	1702.97
180.636	1784.82
180.712	1769.75
180.789	1783.15
180.865	1798.64
180.942	1805.2
181.018	1814.42
181.095	1832.11
181.171	1836.96
181.248	1836.05
181.324	1849.7
181.4	1856.59
181.477	1871.71
181.553	1885.73
181.63	1903.42
181.706	1919.15
181.782	1929.89
181.859	1926.14
181.935	1934.32
182.011	1929.28
182.088	1947.87
182.164	1965.56
182.24	1983.58
182.317	1997.17
182.393	1990.85
182.469	2001.65
182.546	2016.34
182.622	2020.43
182.698	2013.15
182.775	2028.22
182.851	2044.34
182.927	2038.07
183.003	2032.69
183.08	2024.42
183.156	2029.27
183.232	2027.61
183.308	2020.85
183.385	2026.84
183.461	2044.01
183.537	2041.82
183.613	2052.9
183.69	2042.68
183.766	2033.21
183.842	2036.4
183.918	2040.25
183.995	2054.52
184.071	2055.37
184.147	2049.81
184.223	2039.4
184.299	2050.29
184.375	2036.97
184.452	2044.87
184.528	2101.98
184.604	2113.01
184.68	2124.52
184.756	2135.27
184.832	2139.64
184.908	2141.45
184.985	2141.59
185.061	2127.42
185.137	2138.46
185.213	2130.8
185.289	2131.94
185.365	2122.71
185.441	2122.33
185.517	2135.85
185.593	2132.57
185.669	2132.95
185.745	2138.89
185.822	2156.25
185.898	2151.25
185.974	2161.05
186.05	2152
186.126	2109.12
186.202	2101.71
186.278	2097.62
186.354	2089.58
186.43	2096.57
186.506	2096.67
186.582	2095.95
186.658	2101.99
186.734	2082.25
186.81	2084.2
186.886	2087.06
186.962	2101.13
187.038	2094.76
187.114	2086.96
187.19	2093.66
187.266	2083.49
187.341	2085.44
187.417	2078.54
187.493	2077.45
187.569	2080.35
187.645	2074.31
187.721	2062.65
187.797	2067.79
187.873	2073.5
187.949	2068.22
188.025	2060.56
188.101	2058.75
188.176	2063.51
188.252	2059.37
188.328	2066.22
188.404	2064.74
188.48	2060.7
188.556	2052.19
188.632	2050.76
188.707	2050.57
188.783	2048.52
188.859	2044.39
188.935	2035.21
189.011	2045.29
189.086	2037.06
189.162	2029.36
189.238	2026.03
189.314	2023.51
189.39	2021.04
189.465	2014.24
189.541	2030.36
189.617	2016.95
189.693	2015.91
189.768	2019.05
189.844	2045.07
189.92	2037.13
189.996	2045.55
190.071	2055.73
190.147	2056.39
190.223	2065.57
190.298	2055.54
190.374	2041.6
190.45	2052.35
190.526	2061.91
190.601	2052.63
190.677	2056.06
190.753	2082.94
190.828	2086.94
190.904	2101.21
190.98	2114.34
191.055	2126.28
191.131	2113.67
191.207	2133.84
191.282	2144.21
191.358	2135.26
191.433	2119.46
191.509	2133.01
191.585	2131.02
191.66	2132.82
191.736	2143.81
191.811	2139.77
191.887	2156.85
191.963	2179.83
192.038	2185.25
192.114	2186.15
192.189	2191.76
192.265	2188.34
192.34	2167.16
192.416	2166.26
192.491	2166.78
192.567	2171.16
192.642	2170.92
192.718	2171.54
192.793	2157.74
192.869	2153.61
192.944	2156.41
193.02	2164.26
193.095	2167.16
193.171	2172.35
193.246	2170.68
193.322	2164.02
193.397	2163.45
193.473	2152.75
193.548	2136.05
193.624	2143.18
193.699	2141.76
193.775	2158.22
193.85	2158.94
193.925	2167.88
194.001	2169.36
194.076	2158.75
194.152	2148.47
194.227	2143.33
194.302	2139.71
194.378	2144.38
194.453	2142.14
194.529	2154.08
194.604	2140.1
194.679	2135.1
194.755	2116.6
194.83	2129.93
194.905	2128.03
194.981	2135.73
195.056	2128.69
195.131	2135.16
195.207	2132.69
195.282	2123.22
195.357	2103.24
195.433	2117.31
195.508	2105.18
195.583	2110.46
195.659	2125.64
195.734	2134.35
195.809	2133.64
195.884	2138.91
195.96	2138.63
196.035	2150.47
196.11	2145.43
196.185	2155.32
196.261	2158.94
196.336	2187.53
196.411	2172.63
196.486	2179.15
196.561	2172.82
196.637	2180.96
196.712	2196.71
196.787	2197.9
196.862	2209.74
196.937	2219.4
197.013	2225.59
197.088	2234.58
197.163	2254.95
197.238	2272.72
197.313	2268.77
197.388	2284.04
197.464	2317.13
197.539	2331.55
197.614	2324.13
197.689	2337.02
197.764	2353.92
197.839	2373.34
197.914	2365.63
197.989	2385.43
198.065	2399
198.14	2450.68
198.215	2475.29
198.29	2487.54
198.365	2499.39
198.44	2510.53
198.515	2537.77
198.59	2554.1
198.665	2580.96
198.74	2589.72
198.815	2591.01
198.89	2613.77
198.965	2641.22
199.04	2634.59
199.115	2645.12
199.19	2691.32
199.265	2691.79
199.34	2704.71
199.415	2738.93
199.49	2763.65
199.565	2776.6
199.64	2800.67
199.715	2797.23
199.79	2804.19
199.865	2808.76
199.94	2811.96
200.015	2845.41
200.09	2850.7
200.165	2857.66
200.24	2866.86
200.315	2906.59
200.39	2919.13
200.464	2925.52
200.539	2927.66
200.614	2944.29
200.689	2971.32
200.764	2973.8
200.839	2994.1
200.914	2996.72
200.989	2986.08
201.063	3002.72
201.138	2985.48
201.213	2983.04
201.288	2963.5
201.363	2972.32
201.438	2973.8
201.512	2988.23
201.587	2971.93
201.662	2974.45
201.737	2985.23
201.812	2989.66
201.886	2955.03
201.961	2966.48
202.036	2953.75
202.111	2948.65
202.186	2917.97
202.26	2900.09
202.335	2880.64
202.41	2874.4
202.485	2859.3
202.559	2837.23
202.634	2808.16
202.709	2816.64
202.784	2801.29
202.858	2800.1
202.933	2780.04
203.008	2774.08
203.082	2752.03
203.157	2749.07
203.232	2709.92
203.306	2688.95
203.381	2660.84
203.456	2640.73
203.53	2614.18
203.605	2596.04
203.68	2570.83
203.754	2565.6
203.829	2549.45
203.904	2528.02
203.978	2515.69
204.053	2518.21
204.127	2509.21
204.202	2508.16
204.277	2491.31
204.351	2482.02
204.426	2473.93
204.5	2466.16
204.575	2431.27
204.65	2444.89
204.724	2439.46
204.799	2445.31
204.873	2442.84
204.948	2440.03
205.022	2426.7
205.097	2422.51
205.171	2437.27
205.246	2447.41
205.32	2446.55
205.395	2446.98
205.469	2436.61
205.544	2442.18
205.618	2426.71
205.693	2436.23
205.767	2424.66
205.842	2445.23
205.916	2439.76
205.991	2434.52
206.065	2440.24
206.14	2456.32
206.214	2449.03
206.289	2440.31
206.363	2455.12
206.438	2459.12
206.512	2468.22
206.586	2489.54
206.661	2493.78
206.735	2472.84
206.81	2475.18
206.884	2492.5
206.958	2480.84
207.033	2502.16
207.107	2510.79
207.181	2539.94
207.256	2534.56
207.33	2551.6
207.405	2565.33
207.479	2587.57
207.553	2596.28
207.628	2579.67
207.702	2593.05
207.776	2588.72
207.851	2595.1
207.925	2609.82
207.999	2607.54
208.073	2608.11
208.148	2611.59
208.222	2604.2
208.296	2641.67
208.371	2661.41
208.445	2676.32
208.519	2708.95
208.593	2726.96
208.668	2730.34
208.742	2742.69
208.816	2754.22
208.89	2777.28
208.965	2782.48
209.039	2800.08
209.113	2826.24
209.187	2859.72
209.261	2866.3
209.336	2901.52
209.41	2936.8
209.484	2951.34
209.558	2986.77
209.632	3014.23
209.707	3046.08
209.781	3088.8
209.855	3126.11
209.929	3166.31
210.003	3197.55
210.077	3227.47
210.151	3299.81
210.226	3357.28
210.3	3412.41
210.374	3463.5
210.448	3502.41
210.522	3548.54
210.596	3590.75
210.67	3633.19
210.744	3718.32
210.818	3787.92
210.892	3846.4
210.966	3878.54
211.041	3936.72
211.115	3978.52
211.189	4049.39
211.263	4109.03
211.337	4165.68
211.411	4223.63
211.485	4265.78
211.559	4327.02
211.633	4376.06
211.707	4396.98
211.781	4462.27
211.855	4482.18
211.929	4528.08
212.003	4567.3
212.077	4632.98
212.151	4703.64
212.225	4775.06
212.299	4826.47
212.373	4876.78
212.447	4936.18
212.52	5030.86
212.594	5100.99
212.668	5183.14
212.742	5232.59
212.816	5300.59
212.89	5358.42
212.964	5427.36
213.038	5503.41
213.112	5586.26
213.186	5672.3
213.26	5726.46
213.333	5749.19
213.407	5829.83
213.481	5908.4
213.555	5995.33
213.629	6056.51
213.703	6113.28
213.777	6184.94
213.85	6235.91
213.924	6348.06
213.998	6426.46
214.072	6493.65
214.146	6551.65
214.219	6620.8
214.293	6691.76
214.367	6766.69
214.441	6852.14
214.515	6920.12
214.588	6968.98
214.662	7009.05
214.736	7069.15
214.81	7145.86
214.883	7234.39
214.957	7298.05
215.031	7363.54
215.105	7410.49
215.178	7471.05
215.252	7537.24
215.326	7587.34
215.4	7642.62
215.473	7674.56
215.547	7724.28
215.621	7785.61
215.694	7867.33
215.768	7917.06
215.842	7980.74
215.915	8039.14
215.989	8090.43
216.063	8149.95
216.136	8222.59
216.21	8295.09
216.284	8373.19
216.357	8447.62
216.431	8517.74
216.504	8589.15
216.578	8682.95
216.652	8767.64
216.725	8843.4
216.799	8925.19
216.873	8997.25
216.946	9077.87
217.02	9135.11
217.093	9206.46
217.167	9249.41
217.24	9302.66
217.314	9364.24
217.387	9423.08
217.461	9481.58
217.535	9557.53
217.608	9611.8
217.682	9675.67
217.755	9746.27
217.829	9804.17
217.902	9868.08
217.976	9934.89
218.049	9989.75
218.123	10042.56
218.196	10110.96
218.27	10164.14
218.343	10213.62
218.417	10284.3
218.49	10340.67
218.563	10421.27
218.637	10489.98
218.71	10577.47
218.784	10646.96
218.857	10729.35
218.931	10799.4
219.004	10868.36
219.077	10937.51
219.151	11004.78
219.224	11064.49
219.298	11134.41
219.371	11203.62
219.444	11260.87
219.518	11321.21
219.591	11393.45
219.665	11485.84
219.738	11551.25
219.811	11613.13
219.885	11689.33
219.958	11755.75
220.031	11820.77
220.105	11888.82
220.178	11948.21
220.251	12006.58
220.325	12072.33
220.398	12131.04
220.471	12196.83
220.544	12265.62
220.618	12326.5
220.691	12401.16
220.764	12473.81
220.838	12542.3
220.911	12607.14
220.984	12693.38
221.057	12765.54
221.131	12828.78
221.204	12852.36
221.277	12929.44
221.35	13022.67
221.424	13073.33
221.497	13129.93
221.57	13194.76
221.643	13258.49
221.716	13327.67
221.79	13385.9
221.863	13449.82
221.936	13505.31
222.009	13572.7
222.082	13636.53
222.155	13684.59
222.229	13753.91
222.302	13808.43
222.375	13855.33
222.448	13911.59
222.521	13965.44
222.594	14018.22
222.667	14062.52
222.74	14132.09
222.814	14183.42
222.887	14220.45
222.96	14289.48
223.033	14353.25
223.106	14419.15
223.179	14479.21
223.252	14532.67
223.325	14577.98
223.398	14624.26
223.471	14673.57
223.544	14725.49
223.617	14773.26
223.69	14828.41
223.763	14862.78
223.837	14918.64
223.91	14974.99
223.983	15010.91
224.056	15044.36
224.129	15089.96
224.202	15152.82
224.275	15195.38
224.348	15220.59
224.42	15253.41
224.493	15281.32
224.566	15318.39
224.639	15353.48
224.712	15388.09
224.785	15424.87
224.858	15468.73
224.931	15512.59
225.004	15553.04
225.077	15593.67
225.15	15603.31
225.223	15645.63
225.296	15714.89
225.369	15740.87
225.442	15773.02
225.514	15811.05
225.587	15854.43
225.66	15899.35
225.733	15945.38
225.806	15991.51
225.879	16037.68
225.952	16075.66
226.025	16124.87
226.097	16173.79
226.17	16214.14
226.243	16230.38
226.316	16273.42
226.389	16320.22
226.461	16352.56
226.534	16401.96
226.607	16441.63
226.68	16511.18
226.753	16548.82
226.825	16553.11
226.898	16605.3
226.971	16645.02
227.044	16694.56
227.117	16737.22
227.189	16775.29
227.262	16817.32
227.335	16848.88
227.407	16882.62
227.48	16925.76
227.553	16958.24
227.626	16991.06
227.698	17030.48
227.771	17070.82
227.844	17081.33
227.916	17112.12
227.989	17136.37
228.062	17159.6
228.134	17198.54
228.207	17224.71
228.28	17250.68
228.352	17289.43
228.425	17314.39
228.498	17350.73
228.57	17361.82
228.643	17395.45
228.716	17418.59
228.788	17428.56
228.861	17451.69
228.934	17490.54
229.006	17518.97
229.079	17548.75
229.151	17567.74
229.224	17580.9
229.296	17611.16
229.369	17671.64
229.442	17716.99
229.514	17736.08
229.587	17774.15
229.659	17775.69
229.732	17802.53
229.804	17828.75
229.877	17873.42
229.949	17912.94
230.022	17952.5
230.094	17983.25
230.167	18013.8
230.239	18033.37
230.312	18062.09
230.384	18107.92
230.457	18129.94
230.529	18155.44
230.602	18172.06
230.674	18204.88
230.747	18240.73
230.819	18283.04
230.892	18278.18
230.964	18293.02
231.037	18323.62
231.109	18339.38
231.181	18379.23
231.254	18390.75
231.326	18422.51
231.399	18429.25
231.471	18437.54
231.544	18429.88
231.616	18468.19
231.688	18488.63
231.761	18499.03
231.833	18522.6
231.905	18518.12
231.978	18539.56
232.05	18549.97
232.122	18571.7
232.195	18576.48
232.267	18595.75
232.339	18601.2
232.412	18630.4
232.484	18637.82
232.556	18647.51
232.629	18683.22
232.701	18700.95
232.773	18713.48
232.846	18706.44
232.918	18716.95
232.99	18728.42
233.062	18754.1
233.135	18761.72
233.207	18755.36
233.279	18774.58
233.351	18780.7
233.424	18782.01
233.496	18766.73
233.568	18784.85
233.64	18785.28
233.713	18801.62
233.785	18810.2
233.857	18810.29
233.929	18799.16
234.001	18826.77
234.074	18848.6
234.146	18823.54
234.218	18827.74
234.29	18835.26
234.362	18828.22
234.434	18818.29
234.507	18804.99
234.579	18789.38
234.651	18784.7
234.723	18785.62
234.795	18789.28
234.867	18788.27
234.939	18802.44
235.012	18812.8
235.084	18820.65
235.156	18824.94
235.228	18804.41
235.3	18790.68
235.372	18793.28
235.444	18805.09
235.516	18775.79
235.588	18770.39
235.66	18768.71
235.732	18751.31
235.804	18793.86
235.876	18811.35
235.948	18825.91
236.02	18828.03
236.092	18821.67
236.164	18807.21
236.236	18794.53
236.308	18779.55
236.38	18776.75
236.452	18764.66
236.524	18761.38
236.596	18763.74
236.668	18756.22
236.74	18751.65
236.812	18745.62
236.884	18737.33
236.956	18722.3
237.028	18700.03
237.1	18670.4
237.172	18685.48
237.244	18695.41
237.316	18649.87
237.388	18632.81
237.46	18606.5
237.532	18615.61
237.604	18587.61
237.675	18592.43
237.747	18592.04
237.819	18573.1
237.891	18544.48
237.963	18508.43
238.035	18482.75
238.107	18433.54
238.178	18427.66
238.25	18402.94
238.322	18410.51
238.394	18379.71
238.466	18363.91
238.538	18355.33
238.609	18349.02
238.681	18303.72
238.753	18270.71
238.825	18254.28
238.897	18235.72
238.968	18231.14
239.04	18197.17
239.112	18217.8
239.184	18181.46
239.255	18164.88
239.327	18146.04
239.399	18138.33
239.471	18138.38
239.542	18125.08
239.614	18121.99
239.686	18077.08
239.758	18074.24
239.829	18036.31
239.901	18029.42
239.973	18004.65
240.044	17986.14
240.116	17974.43
240.188	17960.46
240.259	17932.89
240.331	17895.06
240.403	17869.71
240.474	17834.53
240.546	17804.51
240.618	17749.67
240.689	17723.21
240.761	17690.63
240.833	17680.61
240.904	17646.83
240.976	17622.44
241.048	17596.32
241.119	17579.4
241.191	17566.1
241.262	17558.68
241.334	17531.31
241.405	17501.91
241.477	17465.53
241.549	17431.74
241.62	17396.75
241.692	17368.32
241.763	17357.14
241.835	17337.82
241.906	17316.08
241.978	17271.69
242.049	17254.15
242.121	17247.45
242.192	17230.97
242.264	17192.37
242.335	17157.38
242.407	17142.97
242.478	17106.77
242.55	17088.03
242.621	17039.5
242.693	17006.1
242.764	16965.28
242.836	16929.03
242.907	16898.96
242.979	16882.24
243.05	16860.07
243.122	16838.04
243.193	16810.72
243.264	16751.58
243.336	16717.84
243.407	16701.55
243.479	16694.95
243.55	16669.94
243.622	16637.31
243.693	16609.45
243.764	16595.38
243.836	16549.74
243.907	16519.32
243.978	16489.49
244.05	16470.4
244.121	16438.5
244.192	16420.86
244.264	16375.79
244.335	16339.74
244.407	16303.4
244.478	16274.48
244.549	16243.68
244.62	16199.63
244.692	16168.59
244.763	16164.16
244.834	16132.59
244.906	16091.86
244.977	16066.89
245.048	16048.53
245.119	16008.19
245.191	15967.36
245.262	15914.39
245.333	15911.21
245.405	15873.86
245.476	15852.41
245.547	15819.87
245.618	15791.72
245.689	15757.69
245.761	15734.37
245.832	15710.94
245.903	15685.78
245.974	15664.81
246.045	15630.11
246.117	15622.01
246.188	15579.79
246.259	15535.01
246.33	15499.48
246.401	15469.07
246.473	15426.12
246.544	15391.9
246.615	15384.57
246.686	15355.89
246.757	15342.73
246.828	15287.97
246.899	15280.55
246.97	15237.27
247.042	15188.58
247.113	15175.37
247.184	15167.61
247.255	15129.68
247.326	15103.31
247.397	15074.77
247.468	15037.32
247.539	15008.35
247.61	14961.69
247.681	14940.87
247.752	14925.3
247.823	14896.95
247.894	14873.04
247.965	14832.17
248.037	14793.41
248.108	14737.93
248.179	14712.33
248.25	14679.5
248.321	14668.8
248.392	14619.44
248.463	14613.46
248.534	14598.23
248.605	14579.48
248.675	14544.92
248.746	14527.42
248.817	14507.75
248.888	14486.35
248.959	14450.24
249.03	14436.26
249.101	14415.87
249.172	14388.49
249.243	14344.29
249.314	14335.42
249.385	14302.64
249.456	14279.93
249.527	14251.2
249.598	14229.94
249.669	14201.79
249.739	14183.04
249.81	14159.23
249.881	14123.94
249.952	14097.14
250.023	14065.71
250.094	14012.92
250.165	13974.45
250.235	13945.63
250.306	13916.65
250.377	13882.57
250.448	13861.7
250.519	13807.27
250.59	13789.87
250.66	13761.04
250.731	13750.34
250.802	13716.16
250.873	13692.49
250.944	13672.25
251.014	13635.61
251.085	13635.08
251.156	13614.25
251.227	13603.5
251.297	13592.66
251.368	13582.1
251.439	13563.59
251.51	13553.61
251.58	13528.64
251.651	13494.8
251.722	13482.84
251.792	13444.9
251.863	13414.68
251.934	13406.97
252.005	13418.92
252.075	13393.95
252.146	13384.6
252.217	13368.35
252.287	13360.3
252.358	13338.99
252.429	13337.74
252.499	13314.8
252.57	13293.49
252.641	13287.41
252.711	13260.13
252.782	13212.84
252.852	13212.79
252.923	13192.11
252.994	13166.99
253.064	13157.59
253.135	13136.38
253.205	13108.57
253.276	13109.29
253.347	13104.52
253.417	13074.87
253.488	13050.48
253.558	13024.93
253.629	12995.57
253.699	12975.76
253.77	12950.5
253.841	12928.18
253.911	12902.97
253.982	12889.37
254.052	12877.56
254.123	12845.22
254.193	12819.62
254.264	12838.42
254.334	12793.16
254.405	12755.51
254.475	12720.03
254.546	12692.12
254.616	12687.97
254.687	12675.58
254.757	12653.7
254.827	12627.57
254.898	12607.13
254.968	12574.45
255.039	12546.93
255.109	12531.6
255.18	12501.13
255.25	12460.16
255.321	12444.88
255.391	12410.7
255.461	12405.54
255.532	12352.61
255.602	12327.6
255.673	12291.25
255.743	12258.23
255.813	12218.08
255.884	12202.7
255.954	12189.4
256.024	12181.35
256.095	12159.75
256.165	12115.99
256.235	12100.8
256.306	12072.56
256.376	12062.92
256.446	12060.46
256.517	12052.12
256.587	12050.14
256.657	12036.89
256.728	12026.19
256.798	12003
256.868	11978.23
256.938	11947.47
257.009	11942.36
257.079	11925.64
257.149	11938.17
257.219	11899.71
257.29	11888.33
257.36	11857.77
257.43	11851.31
257.5	11819.79
257.571	11791.79
257.641	11786
257.711	11752.99
257.781	11742
257.852	11726.67
257.922	11686.71
257.992	11659.14
258.062	11628.3
258.132	11618.41
258.202	11592.29
258.273	11572.48
258.343	11574.41
258.413	11552.82
258.483	11534.99
258.553	11513.78
258.623	11477.68
258.693	11460.81
258.764	11463.41
258.834	11459.17
258.904	11439.41
258.974	11408.28
259.044	11386.78
259.114	11374.64
259.184	11362.88
259.254	11343.65
259.324	11306.44
259.394	11299.36
259.464	11303.55
259.535	11286.59
259.605	11256.7
259.675	11238.78
259.745	11229.91
259.815	11201.76
259.885	11178.54
259.955	11187.21
260.025	11164.08
260.095	11146.44
260.165	11138.06
260.235	11130.73
260.305	11105.48
260.375	11079.45
260.445	11083.7
260.515	11079.36
260.585	11068.95
260.655	11045.91
260.725	11042.3
260.795	11036.61
260.865	11034.3
260.934	11005.91
261.004	10999.12
261.074	10981.53
261.144	10981.63
261.214	10972.9
261.284	10950.16
261.354	10941.92
261.424	10914.69
261.494	10910.35
261.564	10895.17
261.634	10883.22
261.703	10841.59
261.773	10828.77
261.843	10820.63
261.913	10808.58
261.983	10777.79
262.053	10765.12
262.123	10748.3
262.192	10715.68
262.262	10702.57
262.332	10669.86
262.402	10657.33
262.472	10635.5
262.541	10604.86
262.611	10589.05
262.681	10563.23
262.751	10558.74
262.821	10536.87
262.89	10504.49
262.96	10496.4
263.03	10505.74
263.1	10496.11
263.169	10496.83
263.239	10490.61
263.309	10488.73
263.379	10479.63
263.448	10468.79
263.518	10457.75
263.588	10450.33
263.657	10454.09
263.727	10453.75
263.797	10441.81
263.867	10424.41
263.936	10396.13
264.006	10395.94
264.076	10388.18
264.145	10373.06
264.215	10351.43
264.285	10351.28
264.354	10324.88
264.424	10304.36
264.494	10268.17
264.563	10242.64
264.633	10243.6
264.702	10237.24
264.772	10201.93
264.842	10183.53
264.911	10178.76
264.981	10151.34
265.05	10132.03
265.12	10110.11
265.19	10091.08
265.259	10084.53
265.329	10079.27
265.398	10074.55
265.468	10079.52
265.537	10052.54
265.607	10038.57
265.676	10037.37
265.746	10028.89
265.815	10029.37
265.885	10017.38
265.955	9993.2
266.024	9977.88
266.094	9935.97
266.163	9925.42
266.232	9924.75
266.302	9906.92
266.371	9895.46
266.441	9878.02
266.51	9873.59
266.58	9860.2
266.649	9835.15
266.719	9828.65
266.788	9817.52
266.858	9814.68
266.927	9780.24
266.996	9773.84
267.066	9769.12
267.135	9743.01
267.205	9738.44
267.274	9728.95
267.343	9723.7
267.413	9710.55
267.482	9710.17
267.552	9717.82
267.621	9690.52
267.69	9663.88
267.76	9649.1
267.829	9639.56
267.898	9636.09
267.968	9612.88
268.037	9604.94
268.106	9600.46
268.176	9577.77
268.245	9561.2
268.314	9545.07
268.384	9549.89
268.453	9537.61
268.522	9532.55
268.592	9533.56
268.661	9510.83
268.73	9498.5
268.799	9479.19
268.869	9486.7
268.938	9462.72
269.007	9444.27
269.076	9435.27
269.146	9437.15
269.215	9435.08
269.284	9437.29
269.353	9419.81
269.422	9411.82
269.492	9393.81
269.561	9362.03
269.63	9360.97
269.699	9350.19
269.768	9339.5
269.838	9330.06
269.907	9325.34
269.976	9297.89
270.045	9263.56
270.114	9257.3
270.183	9240.07
270.253	9231.79
270.322	9209.4
270.391	9199.67
270.46	9204.63
270.529	9203.48
270.598	9201.98
270.667	9185.37
270.736	9157.73
270.806	9145.89
270.875	9148.78
270.944	9139.82
271.013	9160.19
271.082	9148.01
271.151	9145.17
271.22	9116.28
271.289	9102.27
271.358	9092.4
271.427	9092.88
271.496	9089.8
271.565	9078.3
271.634	9074.06
271.703	9079.64
271.772	9078.35
271.841	9064.72
271.91	9034.92
271.979	9024.95
272.048	8995.15
272.117	9001.85
272.186	8991.74
272.255	8992.65
272.324	8984.03
272.393	8979.89
272.462	8962.18
272.531	8953.41
272.6	8940.08
272.669	8950.91
272.738	8943.93
272.807	8937.81
272.876	8911.73
272.945	8934.83
273.013	8933.58
273.082	8940.71
273.151	8918.8
273.22	8915.77
273.289	8913.79
273.358	8923.81
273.427	8913.07
273.496	8918.37
273.564	8910.95
273.633	8911.39
273.702	8894.01
273.771	8885.87
273.84	8879.86
273.909	8879.04
273.977	8871.24
274.046	8856.56
274.115	8862.77
274.184	8844.24
274.253	8834.28
274.322	8843.95
274.39	8810.83
274.459	8796.59
274.528	8767.13
274.597	8757.94
274.665	8753.17
274.734	8756.88
274.803	8749.85
274.872	8745.03
274.94	8726.17
275.009	8776.15
275.078	8760.56
275.147	8763.98
275.215	8758.15
275.284	8765.95
275.353	8755.75
275.421	8741.36
275.49	8757.53
275.559	8741.4
275.627	8736.21
275.696	8732.02
275.765	8736.54
275.833	8733.13
275.902	8729.08
275.971	8741.79
276.039	8759.89
276.108	8756.81
276.177	8755.84
276.245	8742.8
276.314	8740.3
276.383	8745.69
276.451	8683.43
276.52	8686.41
276.588	8692.72
276.657	8694.74
276.725	8682.22
276.794	8681.74
276.863	8692.43
276.931	8670.33
277	8675.82
277.068	8687.75
277.137	8702.72
277.205	8691.17
277.274	8705.37
277.342	8714.37
277.411	8688.19
277.48	8665.28
277.548	8655.56
277.617	8655.66
277.685	8648.05
277.754	8644.3
277.822	8639.44
277.89	8654.12
277.959	8647.82
278.027	8635.74
278.096	8627.7
278.164	8653.16
278.233	8642.43
278.301	8627.66
278.37	8635.41
278.438	8622.41
278.507	8617.02
278.575	8595.36
278.643	8594.93
278.712	8578.04
278.78	8569.28
278.849	8582.75
278.917	8599.35
278.985	8598.01
279.054	8594.93
279.122	8607.77
279.191	8613.12
279.259	8610.47
279.327	8584.19
279.396	8600.99
279.464	8588.72
279.532	8596.47
279.601	8589.73
279.669	8586.07
279.737	8598.72
279.806	8594.15
279.874	8599.4
279.942	8602.14
280.011	8597.28
280.079	8602.19
280.147	8616.58
280.215	8622.93
280.284	8621.58
280.352	8605.89
280.42	8611.53
280.488	8606.9
280.557	8596.99
280.625	8596.08
280.693	8596.75
280.761	8599.45
280.83	8577.55
280.898	8590.2
280.966	8563.02
281.034	8528.84
281.102	8520.38
281.171	8510.37
281.239	8520.91
281.307	8516.77
281.375	8503.15
281.443	8524.71
281.512	8521.34
281.58	8530.25
281.648	8508.98
281.716	8506.52
281.784	8502.14
281.852	8492.09
281.92	8490.55
281.989	8501.08
282.057	8489.29
282.125	8535.07
282.193	8535.7
282.261	8540.41
282.329	8534.64
282.397	8540.61
282.465	8549.41
282.533	8563.75
282.601	8556.77
282.67	8536.8
282.738	8527.32
282.806	8540.07
282.874	8523.71
282.942	8534.92
283.01	8527.42
283.078	8532.23
283.146	8527.22
283.214	8538.82
283.282	8548.49
283.35	8558.36
283.418	8555.09
283.486	8550.8
283.554	8503.1
283.622	8499.35
283.69	8504.78
283.758	8502.91
283.826	8510.08
283.894	8513.49
283.962	8526.59
284.03	8535.68
284.098	8535.25
284.165	8530
284.233	8529.18
284.301	8523.41
284.369	8507.86
284.437	8499.49
284.505	8495.64
284.573	8508.49
284.641	8496.65
284.709	8502.86
284.777	8484.19
284.845	8482.17
284.912	8493.38
284.98	8494.1
285.048	8490.3
285.116	8490.25
285.184	8505.79
285.252	8500.6
285.319	8488.57
285.387	8478.6
285.455	8467.01
285.523	8471.92
285.591	8473.99
285.659	8469.51
285.726	8486.31
285.794	8473.6
285.862	8473.22
285.93	8479.47
285.997	8475.86
286.065	8476.01
286.133	8466.19
286.201	8464.46
286.269	8457.34
286.336	8446.41
286.404	8445.93
286.472	8456.47
286.539	8439.2
286.607	8420.24
286.675	8429.67
286.743	8442.37
286.81	8436.6
286.878	8453.53
286.946	8447.9
287.013	8446.41
287.081	8448.58
287.149	8431.64
287.216	8448.91
287.284	8439.77
287.352	8433.32
287.419	8431.93
287.487	8440.49
287.555	8442.9
287.622	8443.62
287.69	8447.81
287.758	8457.57
287.825	8453.87
287.893	8440.59
287.96	8445.4
288.028	8457.43
288.096	8457.67
288.163	8457.19
288.231	8446.07
288.298	8441.69
288.366	8456.9
288.433	8456.61
288.501	8444.92
288.569	8441.94
288.636	8436.07
288.704	8451.75
288.771	8460.42
288.839	8450.12
288.906	8447.38
288.974	8462.15
289.041	8464.51
289.109	8457
289.176	8467.78
289.244	8469.9
289.311	8486.65
289.379	8495.55
289.446	8493.86
289.514	8490.78
289.581	8494.83
289.649	8501.95
289.716	8503.63
289.783	8491.6
289.851	8509.36
289.918	8514.27
289.986	8523.36
290.053	8530.43
290.121	8525.04
290.188	8528.36
290.255	8557.91
290.323	8549.54
290.39	8539.14
290.458	8536.45
290.525	8546.51
290.592	8538.42
290.66	8539.72
290.727	8533.32
290.794	8547.27
290.862	8552.47
290.929	8558.44
290.996	8554.73
291.064	8561.62
291.131	8573.41
291.198	8587.27
291.266	8582.65
291.333	8584.09
291.4	8589.1
291.468	8602.14
291.535	8601.42
291.602	8599.11
291.669	8594.34
291.737	8601.66
291.804	8598.34
291.871	8618.93
291.938	8632.84
292.006	8666.01
292.073	8682.9
292.14	8693.44
292.207	8679.15
292.275	8675.73
292.342	8683.58
292.409	8710.15
292.476	8736.48
292.543	8727.14
292.611	8732.87
292.678	8748.9
292.745	8773.58
292.812	8788.22
292.879	8780.76
292.946	8781.57
293.014	8800.97
293.081	8808.96
293.148	8821.43
293.215	8839.28
293.282	8833.85
293.349	8843.52
293.416	8818.34
293.484	8834.61
293.551	8846.99
293.618	8874.57
293.685	8904.27
293.752	8898.92
293.819	8888.86
293.886	8877.93
293.953	8888.33
294.02	8892.95
294.087	8907.54
294.154	8904.41
294.221	8922.7
294.288	8929.64
294.356	8953.17
294.423	8959.48
294.49	8946.2
294.557	8963.38
294.624	8955.05
294.691	8978.88
294.758	8974.26
294.825	8983.6
294.892	8969.93
294.959	8967.09
295.026	8966.36
295.093	8956.93
295.16	8958.85
295.226	8967.33
295.293	8991.3
295.36	8995.97
295.427	9004.2
295.494	9015.9
295.561	9023.94
295.628	9045.52
295.695	9057.26
295.762	9057.17
295.829	9062.08
295.896	9090.82
295.963	9094.19
296.03	9108.39
296.096	9111.86
296.163	9125.14
296.23	9137.95
296.297	9152.54
296.364	9154.37
296.431	9170.21
296.498	9167.51
296.564	9193.75
296.631	9193.36
296.698	9174.92
296.765	9192.93
296.832	9188.79
296.899	9172.71
296.965	9191.87
297.032	9166.25
297.099	9184.55
297.166	9191.05
297.233	9188.45
297.299	9176.6
297.366	9177.18
297.433	9169.29
297.5	9176.32
297.566	9173.33
297.633	9180.46
297.7	9182.53
297.767	9178.53
297.833	9177.38
297.9	9179.4
297.967	9165.44
298.033	9179.25
298.1	9205.4
298.167	9197.99
298.234	9204.92
298.3	9215.22
298.367	9213.44
298.434	9222.59
298.5	9213.44
298.567	9213.82
298.634	9218.25
298.7	9234.48
298.767	9238.28
298.834	9262.02
298.9	9254.85
298.967	9251.76
299.033	9254.7
299.1	9267.22
299.167	9278.92
299.233	9275.5
299.3	9290.09
299.366	9303.14
299.433	9318.98
299.5	9300.49
299.566	9307.28
299.633	9322.64
299.699	9330.39
299.766	9325.14
299.832	9332.08
299.899	9340.79
299.965	9348.93
300.032	9343.35
300.099	9348.64
300.165	9354.85
300.232	9353.94
300.298	9357.89
300.365	9373.59
300.431	9377.58
300.498	9377.1
300.564	9390.97
300.631	9400.98
300.697	9417.94
300.763	9425.74
300.83	9425.25
300.896	9438.93
300.963	9450.54
301.029	9456.17
301.096	9462.19
301.162	9476.88
301.229	9470.71
301.295	9458.82
301.361	9467.44
301.428	9471.29
301.494	9454.82
301.561	9457.57
301.627	9460.51
301.693	9464.55
301.76	9468.55
301.826	9463.59
301.892	9473.17
301.959	9481.16
302.025	9478.32
302.092	9474.23
302.158	9477.94
302.224	9476.59
302.291	9464.36
302.357	9454.39
302.423	9446.25
302.49	9437.54
302.556	9444.04
302.622	9443.41
302.688	9459.16
302.755	9467.59
302.821	9475.58
302.887	9495.56
302.954	9495.47
303.02	9497.15
303.086	9500.71
303.152	9491.32
303.219	9488.19
303.285	9492.91
303.351	9493.64
303.417	9496.04
303.483	9485.45
303.55	9473.89
303.616	9475.53
303.682	9480.97
303.748	9475.87
303.815	9494.99
303.881	9504.72
303.947	9490.17
304.013	9488.63
304.079	9470.91
304.145	9451.12
304.212	9448.08
304.278	9436.57
304.344	9428.34
304.41	9420.83
304.476	9411.53
304.542	9413.89
304.608	9414.86
304.674	9399.49
304.741	9394.77
304.807	9398.92
304.873	9404.6
304.939	9421.79
305.005	9400.17
305.071	9398.05
305.137	9401.42
305.203	9367.04
305.269	9362.75
305.335	9374.5
305.401	9375.66
305.467	9379.07
305.533	9391.59
305.599	9402.48
305.666	9408.5
305.732	9413.46
305.798	9425.06
305.864	9445.96
305.93	9449.04
305.996	9451.79
306.062	9448.13
306.128	9442.93
306.194	9430.75
306.259	9429.64
306.325	9422.37
306.391	9436.09
306.457	9445.67
306.523	9448.8
306.589	9474.95
306.655	9471.58
306.721	9449.33
306.787	9434.41
306.853	9448.51
306.919	9431.56
306.985	9423.23
307.051	9415.24
307.117	9411.29
307.183	9402.33
307.248	9385.19
307.314	9392.22
307.38	9394.48
307.446	9397.86
307.512	9390.58
307.578	9388.32
307.644	9387.84
307.709	9389.91
307.775	9378.11
307.841	9373.87
307.907	9374.79
307.973	9362.85
308.039	9358.75
308.104	9368.48
308.17	9374.06
308.236	9359.28
308.302	9362.51
308.368	9349.99
308.433	9349.99
308.499	9348.3
308.565	9338.29
308.631	9334.29
308.696	9310.55
308.762	9296.59
308.828	9297.55
308.894	9285.27
308.959	9267.7
309.025	9252.68
309.091	9245.02
309.156	9241.51
309.222	9238.42
309.288	9225.52
309.354	9204.96
309.419	9198.94
309.485	9187.63
309.551	9187.72
309.616	9177.52
309.682	9170.63
309.748	9164.37
309.813	9158.69
309.879	9142.23
309.945	9129.76
310.01	9124.7
310.076	9122.2
310.141	9118.97
310.207	9100.58
310.273	9096.58
310.338	9102.31
310.404	9086.57
310.469	9071.4
310.535	9062.06
310.601	9037.66
310.666	9039.29
310.732	9042.61
310.797	9039.77
310.863	9026.15
310.928	9023.36
310.994	9024.66
311.059	9025.86
311.125	9020.42
311.191	9027.45
311.256	9017.29
311.322	9023.31
311.387	8998.14
311.453	9347.83
311.518	9319.91
311.584	9320.73
311.649	9326.94
311.715	9312.79
311.78	9312.69
311.846	9301.72
311.911	9312.74
311.976	9316.93
312.042	9308.07
312.107	9293.92
312.173	9276.15
312.238	9268.45
312.304	9263.98
312.369	9252.33
312.434	9242.41
312.5	9234.51
312.565	9205.82
312.631	9211.07
312.696	9202.12
312.761	9207.12
312.827	8848.47
312.892	8887.9
312.958	8886.21
313.023	8880.58
313.088	8883.57
313.154	8871.87
313.219	8869.13
313.284	8851.89
313.35	8849.73
313.415	8833.46
313.48	8832.64
313.546	8843.28
313.611	8857.33
313.676	8845.68
313.741	8837.16
313.807	8837.5
313.872	8841.83
313.937	8848.72
314.003	8861.33
314.068	8859.16
314.133	8869.7
314.198	8860.41
314.264	8839.81
314.329	8825.27
314.394	8822.43
314.459	8816.27
314.525	8832.63
314.59	8826.52
314.655	8815.16
314.72	8824.93
314.785	8832.68
314.851	8826.04
314.916	8804.57
314.981	8785.18
315.046	8780.56
315.111	8773.24
315.176	8767.61
315.242	8775.7
315.307	8773.19
315.372	8749.22
315.437	8744.75
315.502	8734.25
315.567	8745.13
315.632	8727.32
315.698	8732.71
315.763	8727.75
315.828	8720.68
315.893	8715.67
315.958	8713.27
316.023	8703.21
316.088	8677.7
316.153	8649.31
316.218	8640.65
316.283	8621.16
316.348	8607.93
316.413	8600.75
316.479	8585.65
316.544	8547.25
316.609	8513.61
316.674	8477.86
316.739	8447.79
316.804	8413.1
316.869	8377.2
316.934	8335.96
316.999	8307.38
317.064	8254.32
317.129	8210.15
317.194	8174.84
317.259	8125.91
317.324	8069.11
317.389	8028.22
317.454	7990.31
317.518	7962.52
317.583	7934.76
317.648	7912.01
317.713	7874.74
317.778	7820.82
317.843	7790.37
317.908	7754.6
317.973	7715.7
318.038	7687.61
318.103	7647.18
318.168	7615.93
318.233	7586.84
318.297	7541.26
318.362	7506.88
318.427	7471.12
318.492	7447.32
318.557	7405.22
318.622	7381.04
318.687	7363.45
318.751	7323.85
318.816	7289.87
318.881	7254.02
318.946	7199.71
319.011	7158.19
319.075	7119.22
319.14	7077.28
319.205	7036.19
319.27	7001.08
319.335	6959.95
319.399	6914.6
319.464	6892.89
319.529	6843.89
319.594	6800.51
319.658	6769.24
319.723	6726.78
319.788	6698.31
319.853	6639.62
319.917	6607.83
319.982	6553.27
320.047	6514.04
320.112	6486.82
320.176	6436.75
320.241	6405.49
320.306	6377.02
320.37	6330.56
320.435	6301.28
320.5	6282.7
320.564	6243.77
320.629	6206.35
320.694	6175.77
320.758	6139.59
320.823	6092.66
320.888	6066.9
320.952	6022.57
321.017	5984.52
321.082	5946.05
321.146	5911.17
321.211	5885.56
321.275	5842.49
321.34	5799.96
321.405	5760.3
321.469	5716.18
321.534	5678.89
321.598	5628.16
321.663	5598.37
321.727	5575.69
321.792	5522.72
321.857	5476.4
321.921	5438.92
321.986	5394.31
322.05	5329.92
322.115	5295.22
322.179	5253.49
322.244	5196.62
322.308	5161.89
322.373	5113.98
322.437	5074.13
322.502	5044.52
322.566	4996.81
322.631	4963.76
322.695	4928.19
322.76	4884.86
322.824	4851.87
322.889	4813.05
322.953	4768.73
323.018	4703.05
323.082	4635.33
323.146	4586.05
323.211	4529.44
323.275	4485.42
323.34	4445.43
323.404	4415.26
323.468	4370.57
323.533	4325.9
323.597	4280.68
323.662	4231.18
323.726	4195.17
323.79	4144.88
323.855	4082.36
323.919	4034.37
323.983	3989.24
324.048	3924.42
324.112	4063.03
324.177	3936.05
324.241	3727.71
324.305	3528.02
324.37	3332.16
324.434	3144.99
324.498	3104.85
324.562	3058.2
324.627	2997.34
324.691	2940.42
324.755	2878.58
324.82	2800.94
324.884	2725.39
324.948	2655.2
325.012	2562.1
325.077	2443.78
