Data from 20250702_urea_0.5M_MAYP1162681_22-35-00-040.txt Node
Date: Wed Jul 02 22:35:00 BST 2025
User: adleo
Spectrometer: MAYP116268
Trigger mode: 0
Integration Time (sec): 1.000000E0
Scans to average: 1
Electric dark correction enabled: true
Nonlinearity correction enabled: true
Boxcar width: 10
XAxis mode: Wavelengths
Number of Pixels in Spectrum: 2068
>>>>>Begin Spectral Data<<<<<
179.565	1222.31
179.642	1276.51
179.718	1317.61
179.795	1354.34
179.871	1386.1
179.948	1406.72
180.024	1429.2
180.101	1452.23
180.177	1469.68
180.254	1494.23
180.33	1520.1
180.407	1576.45
180.483	1672.99
180.56	1766.5
180.636	1853.24
180.712	1839.4
180.789	1848.24
180.865	1860.74
180.942	1871.48
181.018	1881.56
181.095	1892.88
181.171	1899.82
181.248	1903.43
181.324	1921.88
181.4	1934.2
181.477	1948.27
181.553	1960.11
181.63	1980.98
181.706	2001.53
181.782	2006.99
181.859	2004.66
181.935	2006.28
182.011	2002.52
182.088	2020.79
182.164	2042.29
182.24	2054.89
182.317	2068.49
182.393	2065.5
182.469	2079.19
182.546	2091.98
182.622	2096.31
182.698	2095.08
182.775	2107.44
182.851	2119.9
182.927	2112.53
183.003	2107.82
183.08	2099.74
183.156	2110.68
183.232	2108.58
183.308	2093.84
183.385	2106.15
183.461	2123.75
183.537	2125.51
183.613	2137.88
183.69	2130.74
183.766	2114.71
183.842	2121.99
183.918	2123.79
183.995	2137.54
184.071	2142.63
184.147	2140.54
184.223	2128.79
184.299	2140.5
184.375	2128.61
184.452	2137.32
184.528	2191.9
184.604	2202.37
184.68	2214.35
184.756	2221.06
184.832	2224.2
184.908	2228.96
184.985	2227.1
185.061	2210.45
185.137	2221.35
185.213	2210.69
185.289	2209.65
185.365	2204.18
185.441	2199.9
185.517	2214.94
185.593	2211.46
185.669	2208.46
185.745	2218.31
185.822	2237.05
185.898	2227.77
185.974	2238.24
186.05	2230.1
186.126	2189.93
186.202	2180.13
186.278	2178.18
186.354	2167.66
186.43	2173.38
186.506	2171.9
186.582	2168.9
186.658	2178.27
186.734	2157.63
186.81	2160.1
186.886	2162.48
186.962	2173.8
187.038	2172.71
187.114	2164.33
187.19	2172.85
187.266	2161.86
187.341	2159.38
187.417	2152.34
187.493	2151.01
187.569	2151.39
187.645	2144.59
187.721	2131.93
187.797	2140.3
187.873	2144.06
187.949	2138.69
188.025	2131.55
188.101	2135.64
188.176	2140.92
188.252	2133.41
188.328	2140.54
188.404	2139.97
188.48	2135.64
188.556	2131.69
188.632	2133.45
188.707	2133.21
188.783	2127.41
188.859	2121.51
188.935	2110.81
189.011	2117.04
189.086	2114.19
189.162	2106.1
189.238	2104.24
189.314	2105.24
189.39	2100.53
189.465	2092.54
189.541	2111
189.617	2096.5
189.693	2090.31
189.768	2095.21
189.844	2120.86
189.92	2112.83
189.996	2119.44
190.071	2129.19
190.147	2124.91
190.223	2133
190.298	2127.05
190.374	2116.2
190.45	2130.8
190.526	2141.89
190.601	2137.18
190.677	2136.23
190.753	2164.17
190.828	2166.97
190.904	2180.01
190.98	2192.57
191.055	2205.61
191.131	2192.95
191.207	2218.45
191.282	2231.11
191.358	2222.21
191.433	2206.84
191.509	2217.96
191.585	2216.2
191.66	2217.77
191.736	2227.24
191.811	2218.72
191.887	2236.95
191.963	2262.51
192.038	2269.02
192.114	2268.26
192.189	2272.4
192.265	2271.07
192.34	2249.65
192.416	2248.98
192.491	2247.41
192.567	2251.79
192.642	2253.17
192.718	2256.45
192.793	2241.99
192.869	2234.33
192.944	2233.9
193.02	2242.37
193.095	2249.51
193.171	2256.79
193.246	2258.02
193.322	2256.26
193.397	2254.98
193.473	2240.17
193.548	2221.04
193.624	2224.09
193.699	2223.66
193.775	2238.6
193.85	2239.27
193.925	2249.41
194.001	2248.88
194.076	2237.94
194.152	2227.71
194.227	2217.38
194.302	2205.44
194.378	2206.49
194.453	2206.2
194.529	2220.15
194.604	2205.49
194.679	2198.16
194.755	2179.47
194.83	2192.18
194.905	2191.18
194.981	2202.03
195.056	2191.95
195.131	2196.85
195.207	2196.75
195.282	2184.67
195.357	2164.92
195.433	2182.19
195.508	2167.63
195.583	2174.72
195.659	2187.75
195.734	2196.89
195.809	2198.7
195.884	2207.55
195.96	2210.64
196.035	2224.77
196.11	2221.25
196.185	2236.38
196.261	2239.61
196.336	2270.73
196.411	2254.64
196.486	2258.02
196.561	2252.17
196.637	2260.3
196.712	2275.73
196.787	2279.82
196.862	2300.61
196.937	2312.7
197.013	2318.94
197.088	2331.12
197.163	2353.4
197.238	2374.79
197.313	2371.69
197.388	2385.4
197.464	2419.44
197.539	2430.3
197.614	2423.21
197.689	2434.82
197.764	2450.68
197.839	2472.39
197.914	2465.67
197.989	2488.19
198.065	2501.76
198.14	2550.36
198.215	2579.55
198.29	2593.17
198.365	2602.84
198.44	2611.22
198.515	2638.61
198.59	2650.76
198.665	2679.25
198.74	2687.78
198.815	2689.11
198.89	2714.02
198.965	2745.19
199.04	2740.23
199.115	2754.43
199.19	2796.87
199.265	2801.73
199.34	2807.69
199.415	2843.97
199.49	2867.13
199.565	2874.99
199.64	2900.82
199.715	2899.96
199.79	2907.78
199.865	2914.5
199.94	2915.69
200.015	2943.15
200.09	2951.3
200.165	2958.45
200.24	2960.6
200.315	3003.06
200.39	3015.13
200.464	3017.18
200.539	3019.61
200.614	3035.67
200.689	3060.99
200.764	3068.86
200.839	3088.02
200.914	3096.75
200.989	3082
201.063	3094.35
201.138	3080.44
201.213	3079.3
201.288	3060.03
201.363	3066.09
201.438	3064.75
201.512	3081.63
201.587	3071.37
201.662	3073.09
201.737	3089.11
201.812	3100.75
201.886	3064.34
201.961	3076.74
202.036	3069.16
202.111	3064.16
202.186	3035.47
202.26	3017.63
202.335	2997.84
202.41	2989.88
202.485	2971.1
202.559	2951.18
202.634	2926.87
202.709	2936.59
202.784	2918.09
202.858	2918
202.933	2896.93
203.008	2891.5
203.082	2869.62
203.157	2862.62
203.232	2820.5
203.306	2797.8
203.381	2765.11
203.456	2742.81
203.53	2716.67
203.605	2696.67
203.68	2672.17
203.754	2665.08
203.829	2649.74
203.904	2625.73
203.978	2613.63
204.053	2616.2
204.127	2603.2
204.202	2600.39
204.277	2582.38
204.351	2574.53
204.426	2563.9
204.5	2556.47
204.575	2524.47
204.65	2536.34
204.724	2532.05
204.799	2538.38
204.873	2533.23
204.948	2531.76
205.022	2517.67
205.097	2512.61
205.171	2526.42
205.246	2533.09
205.32	2532.04
205.395	2530
205.469	2524.62
205.544	2532.24
205.618	2517.05
205.693	2530.43
205.767	2518.29
205.842	2538.87
205.916	2533.15
205.991	2525.73
206.065	2530.49
206.14	2544.1
206.214	2539.62
206.289	2534.38
206.363	2547.66
206.438	2551.33
206.512	2556.29
206.586	2581.14
206.661	2588.2
206.735	2566.82
206.81	2570.49
206.884	2588.35
206.958	2576.78
207.033	2594.49
207.107	2597.82
207.181	2631.75
207.256	2624.6
207.33	2647.32
207.405	2661.05
207.479	2682.44
207.553	2690.87
207.628	2677.77
207.702	2690.01
207.776	2686.54
207.851	2691.78
207.925	2713.13
207.999	2713.04
208.073	2718.47
208.148	2724.28
208.222	2716.85
208.296	2756.04
208.371	2779.84
208.445	2796.76
208.519	2838.21
208.593	2860.23
208.668	2873.58
208.742	2887.65
208.816	2907.95
208.89	2933.8
208.965	2948.64
209.039	2975.01
209.113	3014.97
209.187	3057.19
209.261	3077.26
209.336	3121.38
209.41	3165.64
209.484	3192.27
209.558	3245.05
209.632	3290.36
209.707	3333.84
209.781	3390.81
209.855	3441.46
209.929	3497.6
210.003	3543.77
210.077	3586.46
210.151	3682.11
210.226	3757.03
210.3	3833.95
210.374	3903.06
210.448	3962.61
210.522	4025.75
210.596	4089.62
210.67	4155.49
210.744	4265.21
210.818	4361.92
210.892	4452.78
210.966	4517.3
211.041	4602.47
211.115	4674.2
211.189	4772.66
211.263	4868.2
211.337	4954.52
211.411	5052.42
211.485	5128.85
211.559	5228.8
211.633	5312.08
211.707	5362.9
211.781	5467.35
211.855	5525.31
211.929	5616.65
212.003	5690.51
212.077	5803.76
212.151	5924.41
212.225	6035.81
212.299	6131.01
212.373	6224.77
212.447	6325.22
212.52	6469.44
212.594	6581.18
212.668	6699.63
212.742	6797.18
212.816	6905.31
212.89	7014.49
212.964	7127.82
213.038	7246.43
213.112	7379.54
213.186	7519.82
213.26	7619.92
213.333	7690.6
213.407	7813.27
213.481	7939.52
213.555	8072.16
213.629	8182.33
213.703	8287.7
213.777	8409.05
213.85	8512.42
213.924	8672.4
213.998	8788.73
214.072	8894.31
214.146	9009.46
214.219	9133.33
214.293	9247.32
214.367	9361.48
214.441	9489.37
214.515	9600.04
214.588	9702.42
214.662	9786.66
214.736	9891.47
214.81	10014.27
214.883	10138.28
214.957	10244.96
215.031	10347.18
215.105	10446.75
215.178	10543.54
215.252	10651.71
215.326	10741.18
215.4	10833.84
215.473	10895.96
215.547	10994.8
215.621	11095.62
215.694	11207.67
215.768	11291.33
215.842	11392.49
215.915	11494.04
215.989	11575.25
216.063	11664.85
216.136	11772.09
216.21	11869.26
216.284	11978.96
216.357	12087.56
216.431	12188.39
216.504	12299.5
216.578	12428.44
216.652	12538.19
216.725	12644.48
216.799	12756.22
216.873	12857.31
216.946	12963.5
217.02	13051.38
217.093	13138.63
217.167	13208.14
217.24	13284.4
217.314	13378.12
217.387	13461.37
217.461	13545.97
217.535	13654.92
217.608	13738.36
217.682	13830
217.755	13938.17
217.829	14011.93
217.902	14107.18
217.976	14200.56
218.049	14280.19
218.123	14349.56
218.196	14435.22
218.27	14517.89
218.343	14577.86
218.417	14666.26
218.49	14740.74
218.563	14847.99
218.637	14939.15
218.71	15044.9
218.784	15133.5
218.857	15220.75
218.931	15300.91
219.004	15384.11
219.077	15472.26
219.151	15551.12
219.224	15618.03
219.298	15693.84
219.371	15775.4
219.444	15832.37
219.518	15908.48
219.591	15987.82
219.665	16092.21
219.738	16164.36
219.811	16217.72
219.885	16303.56
219.958	16374.46
220.031	16446.8
220.105	16518.38
220.178	16583.15
220.251	16637.13
220.325	16707.64
220.398	16776.18
220.471	16856.81
220.544	16921.24
220.618	16977.82
220.691	17044.77
220.764	17112.91
220.838	17177.69
220.911	17240.82
220.984	17320.73
221.057	17377.74
221.131	17431.33
221.204	17444.1
221.277	17518.94
221.35	17611.28
221.424	17659.42
221.497	17718.12
221.57	17781.01
221.643	17842.26
221.716	17907.71
221.79	17961.2
221.863	18010.6
221.936	18060.52
222.009	18114.69
222.082	18170.06
222.155	18210.16
222.229	18278.78
222.302	18333.33
222.375	18375.79
222.448	18424.46
222.521	18468.6
222.594	18523.83
222.667	18558.19
222.74	18623.1
222.814	18669.79
222.887	18708.3
222.96	18762.51
223.033	18808.49
223.106	18852.77
223.179	18885.88
223.252	18919.66
223.325	18968.19
223.398	19010.74
223.471	19053.48
223.544	19082.25
223.617	19126.63
223.69	19165.86
223.763	19194.49
223.837	19235.69
223.91	19277.47
223.983	19299.25
224.056	19323.54
224.129	19350.19
224.202	19399.97
224.275	19421.27
224.348	19439.53
224.42	19452.64
224.493	19469.5
224.566	19493.89
224.639	19528.01
224.712	19552.01
224.785	19576.39
224.858	19602.51
224.931	19632.63
225.004	19650.07
225.077	19680.67
225.15	19676.29
225.223	19695.76
225.296	19747.8
225.369	19744.14
225.442	19752.33
225.514	19786.69
225.587	19811.22
225.66	19834.16
225.733	19860.19
225.806	19884.52
225.879	19905.63
225.952	19925.72
226.025	19953
226.097	19996.81
226.17	20014.49
226.243	20018.73
226.316	20045.14
226.389	20068.18
226.461	20085.29
226.534	20111.21
226.607	20121.04
226.68	20165.67
226.753	20202.68
226.825	20188.8
226.898	20233.76
226.971	20265.91
227.044	20287.88
227.117	20308.46
227.189	20329.81
227.262	20360.22
227.335	20386.05
227.407	20397.67
227.48	20414.77
227.553	20442.2
227.626	20436.65
227.698	20440.41
227.771	20460.51
227.844	20456.51
227.916	20466.77
227.989	20468.65
228.062	20483.26
228.134	20524.7
228.207	20537.76
228.28	20532.56
228.352	20547.79
228.425	20549.52
228.498	20558.1
228.57	20553.71
228.643	20579.69
228.716	20596.08
228.788	20584.12
228.861	20578.2
228.934	20599.69
229.006	20603.02
229.079	20597.09
229.151	20598.49
229.224	20593.28
229.296	20608.46
229.369	20640.85
229.442	20662.01
229.514	20663.11
229.587	20670.83
229.659	20658.44
229.732	20668.8
229.804	20685.52
229.877	20706.73
229.949	20730.35
230.022	20758.93
230.094	20765.82
230.167	20767.22
230.239	20752.56
230.312	20759.6
230.384	20799.94
230.457	20807.51
230.529	20831.32
230.602	20844.67
230.674	20860.33
230.747	20889.05
230.819	20906.31
230.892	20883.08
230.964	20882.06
231.037	20892.33
231.109	20893.73
231.181	20905.1
231.254	20893.82
231.326	20895.8
231.399	20898.4
231.471	20892.43
231.544	20855.89
231.616	20872.91
231.688	20882.93
231.761	20884.91
231.833	20886.21
231.905	20858.69
231.978	20856.28
232.05	20841.34
232.122	20834.54
232.195	20820.08
232.267	20830.98
232.339	20815.75
232.412	20826.3
232.484	20820.57
232.556	20803.65
232.629	20822.06
232.701	20825.19
232.773	20818.88
232.846	20805.24
232.918	20788.28
232.99	20778.06
233.062	20792.85
233.135	20779.79
233.207	20754.44
233.279	20754.73
233.351	20749
233.424	20737.48
233.496	20716.66
233.568	20729
233.64	20705.09
233.713	20699.5
233.785	20670.34
233.857	20664.8
233.929	20644.71
234.001	20646.63
234.074	20647.74
234.146	20612.13
234.218	20596.08
234.29	20588.65
234.362	20575.98
234.434	20550.2
234.507	20520.17
234.579	20481.43
234.651	20466.97
234.723	20458.2
234.795	20438.44
234.867	20419.83
234.939	20421.38
235.012	20406.49
235.084	20391.21
235.156	20388.51
235.228	20368.08
235.3	20351.3
235.372	20336.17
235.444	20334.24
235.516	20286.73
235.588	20275.98
235.66	20260.94
235.732	20233.43
235.804	20269.57
235.876	20258.97
235.948	20262.97
236.02	20242.49
236.092	20227.74
236.164	20204.13
236.236	20167.74
236.308	20147.12
236.38	20136.37
236.452	20099.07
236.524	20086.54
236.596	20080.52
236.668	20060.95
236.74	20044.66
236.812	20034.4
236.884	20013.39
236.956	19990.25
237.028	19969.24
237.1	19936.47
237.172	19928.33
237.244	19924.38
237.316	19858.16
237.388	19828.52
237.46	19783.46
237.532	19772.24
237.604	19740.09
237.675	19728.58
237.747	19722.5
237.819	19689.78
237.891	19662.03
237.963	19631.38
238.035	19597.26
238.107	19531.04
238.178	19523.38
238.25	19485.75
238.322	19476.16
238.394	19432.74
238.466	19399.1
238.538	19381.03
238.609	19355.3
238.681	19304.55
238.753	19258.29
238.825	19228.8
238.897	19197.81
238.968	19192.51
239.04	19159.26
239.112	19165.23
239.184	19124.47
239.255	19091.31
239.327	19075.65
239.399	19049.1
239.471	19037.05
239.542	19022.06
239.614	18997.25
239.686	18926.45
239.758	18924.04
239.829	18880.43
239.901	18860.43
239.973	18840.72
240.044	18811.47
240.116	18782.17
240.188	18755.81
240.259	18717.74
240.331	18681.46
240.403	18657.7
240.474	18607.15
240.546	18574.43
240.618	18521.13
240.689	18480.22
240.761	18450.05
240.833	18435.98
240.904	18395.88
240.976	18358.97
241.048	18322.49
241.119	18315.31
241.191	18300.66
241.262	18271.89
241.334	18236.57
241.405	18213.34
241.477	18162.98
241.549	18134.21
241.62	18107.85
241.692	18078.26
241.763	18064.86
241.835	18033.49
241.906	18006.02
241.978	17962.36
242.049	17943.56
242.121	17917.54
242.192	17901.88
242.264	17850.46
242.335	17797.45
242.407	17772.1
242.478	17732.77
242.55	17701.64
242.621	17651.81
242.693	17621.6
242.764	17584.92
242.836	17544.39
242.907	17506.51
242.979	17485.74
243.05	17453.94
243.122	17428.44
243.193	17393.36
243.264	17340.73
243.336	17313.07
243.407	17281.5
243.479	17278.75
243.55	17251.86
243.622	17228.97
243.693	17197.69
243.764	17185.79
243.836	17149.35
243.907	17121.4
243.978	17084.97
244.05	17055.76
244.121	17012.34
244.192	16990.75
244.264	16940.58
244.335	16910.65
244.407	16868.19
244.478	16842.74
244.549	16809.29
244.62	16759.65
244.692	16737.82
244.763	16718.88
244.834	16674.83
244.906	16640.08
244.977	16607.26
245.048	16581.28
245.119	16539.01
245.191	16496.5
245.262	16438.91
245.333	16409.55
245.405	16378.37
245.476	16353.36
245.547	16330.46
245.618	16309.16
245.689	16274.36
245.761	16254.17
245.832	16222.65
245.903	16194.83
245.974	16164.42
246.045	16124.56
246.117	16109.57
246.188	16057.85
246.259	16006.33
246.33	15976.73
246.401	15929.84
246.473	15878.89
246.544	15841.15
246.615	15818.64
246.686	15785.38
246.757	15775.46
246.828	15742.73
246.899	15719.3
246.97	15671.39
247.042	15636.35
247.113	15613.16
247.184	15597.98
247.255	15550.65
247.326	15517.82
247.397	15486.73
247.468	15452.61
247.539	15426.15
247.61	15381.56
247.681	15360.64
247.752	15349.5
247.823	15316.92
247.894	15300.68
247.965	15265.54
248.037	15231.6
248.108	15186.87
248.179	15154.14
248.25	15122.52
248.321	15098.51
248.392	15057.64
248.463	15050.41
248.534	15006.78
248.605	14985.77
248.675	14951.98
248.746	14927.97
248.817	14910.52
248.888	14884.98
248.959	14837.16
249.03	14813.15
249.101	14789.82
249.172	14760.51
249.243	14714.57
249.314	14703.25
249.385	14676.3
249.456	14654.66
249.527	14625.25
249.598	14601.87
249.669	14582.4
249.739	14554.53
249.81	14534.77
249.881	14492.88
249.952	14468.49
250.023	14442.22
250.094	14395.07
250.165	14357.91
250.235	14338.29
250.306	14308.35
250.377	14273.55
250.448	14255.28
250.519	14210.45
250.59	14199.26
250.66	14167.4
250.731	14152.07
250.802	14119.72
250.873	14092.68
250.944	14068.38
251.014	14036.18
251.085	14039.75
251.156	14018.2
251.227	14013.33
251.297	13999.88
251.368	13986.53
251.439	13974.09
251.51	13963.73
251.58	13922.7
251.651	13892.24
251.722	13874.11
251.792	13830.24
251.863	13807.44
251.934	13795.78
252.005	13796.16
252.075	13765.84
252.146	13750.99
252.217	13741.16
252.287	13724.86
252.358	13699.84
252.429	13693.24
252.499	13663.11
252.57	13628.45
252.641	13608.73
252.711	13579.04
252.782	13540.43
252.852	13537.77
252.923	13510.83
252.994	13489.18
253.064	13490.05
253.135	13459.1
253.205	13435
253.276	13434.81
253.347	13426.47
253.417	13395.28
253.488	13368.76
253.558	13344.56
253.629	13317.42
253.699	13299.34
253.77	13282.81
253.841	13262.9
253.911	13241.16
253.982	13216.62
254.052	13202.16
254.123	13181.96
254.193	13158.87
254.264	13172.37
254.334	13139.15
254.405	13095.72
254.475	13053.54
254.546	13029
254.616	13020.28
254.687	12993.96
254.757	12978.05
254.827	12952.12
254.898	12936.45
254.968	12917.07
255.039	12888.48
255.109	12877.93
255.18	12845.73
255.25	12800.17
255.321	12782.48
255.391	12747.63
255.461	12753.51
255.532	12705.4
255.602	12681.83
255.673	12641.62
255.743	12605.18
255.813	12558.61
255.884	12558.42
255.954	12547.86
256.024	12545.89
256.095	12524.2
256.165	12491.71
256.235	12475.56
256.306	12445.62
256.376	12438.15
256.446	12426.15
256.517	12413.33
256.587	12404.99
256.657	12383.3
256.728	12370.28
256.798	12351.96
256.868	12327.09
256.938	12298.41
257.009	12298.55
257.079	12289.68
257.149	12293.15
257.219	12254.93
257.29	12246.01
257.36	12202.68
257.43	12198.87
257.5	12155.05
257.571	12130.66
257.641	12124.88
257.711	12091.67
257.781	12084.39
257.852	12071.81
257.922	12027.7
257.992	12002.16
258.062	11976.13
258.132	11975.45
258.202	11951.69
258.273	11931.69
258.343	11934.1
258.413	11900.55
258.483	11873.99
258.553	11840.25
258.623	11816.87
258.693	11806.37
258.764	11806.51
258.834	11802.85
258.904	11774.31
258.974	11748.29
259.044	11734.26
259.114	11717.39
259.184	11700.71
259.254	11677.58
259.324	11634.78
259.394	11630.63
259.464	11638.92
259.535	11616.03
259.605	11587.88
259.675	11563.49
259.745	11552.89
259.815	11516.5
259.885	11493.95
259.955	11506.82
260.025	11481.18
260.095	11464.36
260.165	11446.14
260.235	11440.79
260.305	11414.62
260.375	11390.67
260.445	11397.56
260.515	11391.34
260.585	11391.53
260.655	11374.9
260.725	11371.29
260.795	11366.13
260.865	11359.34
260.934	11332.83
261.004	11327.38
261.074	11308.39
261.144	11307.82
261.214	11300.54
261.284	11293.94
261.354	11298.13
261.424	11261.45
261.494	11260.68
261.564	11236.54
261.634	11226.22
261.703	11184.97
261.773	11175.09
261.843	11166.17
261.913	11145.02
261.983	11110.27
262.053	11097.93
262.123	11078.51
262.192	11041.6
262.262	11025.26
262.332	11004.4
262.402	10986.71
262.472	10971.34
262.541	10927.35
262.611	10917.71
262.681	10884.55
262.751	10869.52
262.821	10848.65
262.89	10826.29
262.96	10817.33
263.03	10819.98
263.1	10807.98
263.169	10795.16
263.239	10786.39
263.309	10788.71
263.379	10781.48
263.448	10766.3
263.518	10749.82
263.588	10737.82
263.657	10744.57
263.727	10744.37
263.797	10719.13
263.867	10701.68
263.936	10671.71
264.006	10676.96
264.076	10665.01
264.145	10651.47
264.215	10629.17
264.285	10617.07
264.354	10578.19
264.424	10559.88
264.494	10533.52
264.563	10507.89
264.633	10513.67
264.702	10508.61
264.772	10472.91
264.842	10452.48
264.911	10445.93
264.981	10413.89
265.05	10391.77
265.12	10376.93
265.19	10362.91
265.259	10357.18
265.329	10351.49
265.398	10336.46
265.468	10352.12
265.537	10334.97
265.607	10328.46
265.676	10320.37
265.746	10317
265.815	10323.4
265.885	10301.48
265.955	10276.77
266.024	10259.91
266.094	10219.83
266.163	10209.81
266.232	10213.13
266.302	10193.86
266.371	10183.36
266.441	10172.38
266.51	10176.76
266.58	10157.92
266.649	10136.05
266.719	10136.63
266.788	10128.39
266.858	10136.34
266.927	10097.9
266.996	10085.66
267.066	10070.77
267.135	10048.57
267.205	10031.95
267.274	10021.35
267.343	10017.93
267.413	10008.68
267.482	10017.02
267.552	10024.77
267.621	10001.5
267.69	9972.12
267.76	9968.36
267.829	9954.54
267.898	9946.78
267.968	9921.5
268.037	9909.26
268.106	9900.98
268.176	9873.09
268.245	9856.95
268.314	9840.71
268.384	9842.74
268.453	9826.41
268.522	9815.04
268.592	9815.81
268.661	9800.06
268.73	9793.75
268.799	9777.95
268.869	9783.64
268.938	9752.19
269.007	9730.75
269.076	9721.51
269.146	9722.66
269.215	9718.71
269.284	9731.86
269.353	9710.62
269.422	9697.57
269.492	9679.66
269.561	9640.22
269.63	9637.76
269.699	9618.83
269.768	9613.48
269.838	9604.57
269.907	9601.54
269.976	9582.66
270.045	9558.25
270.114	9549.82
270.183	9535.71
270.253	9530.36
270.322	9498
270.391	9488.13
270.46	9496.65
270.529	9495.98
270.598	9492.85
270.667	9469.83
270.736	9443
270.806	9436.98
270.875	9434.87
270.944	9424.13
271.013	9449.55
271.082	9443.87
271.151	9440.6
271.22	9402.94
271.289	9389.41
271.358	9384.26
271.427	9381.32
271.496	9368.9
271.565	9360.66
271.634	9344.53
271.703	9367.8
271.772	9379.83
271.841	9371.26
271.91	9339.48
271.979	9326.1
272.048	9300.86
272.117	9303.17
272.186	9291.52
272.255	9285.07
272.324	9286.47
272.393	9284.88
272.462	9273.56
272.531	9258.87
272.6	9250.06
272.669	9261.52
272.738	9249.53
272.807	9243.03
272.876	9224.49
272.945	9252.66
273.013	9251.02
273.082	9260.65
273.151	9214.57
273.22	9201.66
273.289	9190.5
273.358	9205.28
273.427	9192.23
273.496	9194.4
273.564	9189.39
273.633	9186.31
273.702	9171.48
273.771	9157.66
273.84	9148.23
273.909	9134.12
273.977	9133.15
274.046	9117.36
274.115	9116.3
274.184	9102.05
274.253	9091.27
274.322	9095.7
274.39	9058.67
274.459	9046.49
274.528	9014.96
274.597	9012.51
274.665	9007.55
274.734	9017.27
274.803	9005.57
274.872	9001.96
274.94	8984.82
275.009	9036.5
275.078	9023.31
275.147	9019.03
275.215	9017.05
275.284	9029.33
275.353	9022.06
275.421	9002.13
275.49	9021.29
275.559	9009.4
275.627	9000.02
275.696	8985.29
275.765	8984.28
275.833	8979.51
275.902	8973.3
275.971	8985.77
276.039	8997.85
276.108	9001.51
276.177	8994.53
276.245	8975.13
276.314	8973.45
276.383	8976.96
276.451	8915.36
276.52	8915.36
276.588	8934.47
276.657	8939.43
276.725	8930.14
276.794	8926.48
276.863	8931.01
276.931	8906.65
277	8913.92
277.068	8922.58
277.137	8944.19
277.205	8941.45
277.274	8960.32
277.342	8971.1
277.411	8950.46
277.48	8929.66
277.548	8914.88
277.617	8915.55
277.685	8913.44
277.754	8911.08
277.822	8906.51
277.89	8918.11
277.959	8906.41
278.027	8881.57
278.096	8863.04
278.164	8890.29
278.233	8884.8
278.301	8881.19
278.37	8884.37
278.438	8872.39
278.507	8874.41
278.575	8845.86
278.643	8839.31
278.712	8820.11
278.78	8808.94
278.849	8822.66
278.917	8837.05
278.985	8838.06
279.054	8843.31
279.122	8854.52
279.191	8851.34
279.259	8844.37
279.327	8824.87
279.396	8849.18
279.464	8848.98
279.532	8855.63
279.601	8842.34
279.669	8843.25
279.737	8854.32
279.806	8857.64
279.874	8868.67
279.942	8866.5
280.011	8860.92
280.079	8868.43
280.147	8882.19
280.215	8885.23
280.284	8880.46
280.352	8869.82
280.42	8877.04
280.488	8857.4
280.557	8851.24
280.625	8854.81
280.693	8856.68
280.761	8855.09
280.83	8833.05
280.898	8842.05
280.966	8826.31
281.034	8790.54
281.102	8774.18
281.171	8763.93
281.239	8770.62
281.307	8760.27
281.375	8748.57
281.443	8773.41
281.512	8767.88
281.58	8776.64
281.648	8758.59
281.716	8760.51
281.784	8757.87
281.852	8749.68
281.92	8759.65
281.989	8771.01
282.057	8749.73
282.125	8795.57
282.193	8796.72
282.261	8798.26
282.329	8800.09
282.397	8806.4
282.465	8820.5
282.533	8839.61
282.601	8832.77
282.67	8811.01
282.738	8801.15
282.806	8815.3
282.874	8805.24
282.942	8809.28
283.01	8804.56
283.078	8815.05
283.146	8811.49
283.214	8816.74
283.282	8813.99
283.35	8817.41
283.418	8807.74
283.486	8814.91
283.554	8768.06
283.622	8764.6
283.69	8766.86
283.758	8763.1
283.826	8764.88
283.894	8775.14
283.962	8780.29
284.03	8792.8
284.098	8792.9
284.165	8787.36
284.233	8781.4
284.301	8774.9
284.369	8771.14
284.437	8751.79
284.505	8738.99
284.573	8753.77
284.641	8744.96
284.709	8753.77
284.777	8742.51
284.845	8751.27
284.912	8756.03
284.98	8763.35
285.048	8758.1
285.116	8759.74
285.184	8765.03
285.252	8766.48
285.319	8743.76
285.387	8738.56
285.455	8720.12
285.523	8729.51
285.591	8726.38
285.659	8728.07
285.726	8732.45
285.794	8709.3
285.862	8708.72
285.93	8715.65
285.997	8710.65
286.065	8699.87
286.133	8690.96
286.201	8683.69
286.269	8665.74
286.336	8662.23
286.404	8650.68
286.472	8661.07
286.539	8638.31
286.607	8623.92
286.675	8621.94
286.743	8630.13
286.81	8623.44
286.878	8639.85
286.946	8627.09
287.013	8628.1
287.081	8632.58
287.149	8624.06
287.216	8644.51
287.284	8643.89
287.352	8643.21
287.419	8633.16
287.487	8655.49
287.555	8660.2
287.622	8660.45
287.69	8669.73
287.758	8679.22
287.825	8674.07
287.893	8662.95
287.96	8671.47
288.028	8682.05
288.096	8685.81
288.163	8685.28
288.231	8679.74
288.298	8676.37
288.366	8689.66
288.433	8696.01
288.501	8685.28
288.569	8689.46
288.636	8682.49
288.704	8695.34
288.771	8699.24
288.839	8691.34
288.906	8680.8
288.974	8691.1
289.041	8687.45
289.109	8681.14
289.176	8688.6
289.244	8695.2
289.311	8705.45
289.379	8718.68
289.446	8719.55
289.514	8720.41
289.581	8721.96
289.649	8725.32
289.716	8724.31
289.783	8717.14
289.851	8729.99
289.918	8726.86
289.986	8731.92
290.053	8737.65
290.121	8731.92
290.188	8729.94
290.255	8765.32
290.323	8762.96
290.39	8755.5
290.458	8771.67
290.525	8783.66
290.592	8777.02
290.66	8782.98
290.727	8778.94
290.794	8791.55
290.862	8791.02
290.929	8789.05
290.996	8783.9
291.064	8786.84
291.131	8799.4
291.198	8813.45
291.266	8811.82
291.333	8817.5
291.4	8829.29
291.468	8849.32
291.535	8852.11
291.602	8860.72
291.669	8845.85
291.737	8854.75
291.804	8861.2
291.871	8866.88
291.938	8869.15
292.006	8903.76
292.073	8916.95
292.14	8930.72
292.207	8917.68
292.275	8917
292.342	8928.75
292.409	8962.49
292.476	8988.06
292.543	8977.51
292.611	8976.31
292.678	8990.37
292.745	9017.23
292.812	9023.82
292.879	9016.89
292.946	9022.19
293.014	9032.78
293.081	9046.59
293.148	9051.36
293.215	9060.75
293.282	9056.61
293.349	9067.34
293.416	9038.94
293.484	9047.02
293.551	9054.97
293.618	9074.99
293.685	9102.77
293.752	9096.18
293.819	9095.89
293.886	9086.98
293.953	9091.51
294.02	9100.32
294.087	9109.99
294.154	9098.2
294.221	9110.86
294.288	9115.2
294.356	9129.83
294.423	9139.89
294.49	9124.34
294.557	9142.35
294.624	9132.29
294.691	9150.87
294.758	9153.81
294.825	9160.02
294.892	9157.13
294.959	9158.24
295.026	9165.22
295.093	9156.22
295.16	9161.22
295.226	9156.55
295.293	9184.24
295.36	9199.31
295.427	9211.68
295.494	9224.49
295.561	9235.71
295.628	9255.5
295.695	9272.02
295.762	9277.12
295.829	9289.02
295.896	9306.83
295.963	9317.81
296.03	9332.25
296.096	9338.75
296.163	9352.24
296.23	9373.47
296.297	9385.27
296.364	9383.78
296.431	9390.47
296.498	9383.49
296.564	9407.51
296.631	9409.63
296.698	9392.63
296.765	9408.67
296.832	9399.95
296.899	9382.09
296.965	9397.3
297.032	9378.23
297.099	9397.35
297.166	9410.02
297.233	9404
297.299	9398.12
297.366	9399.57
297.433	9399.42
297.5	9416.33
297.566	9414.26
297.633	9411.66
297.7	9414.84
297.767	9414.26
297.833	9423.36
297.9	9429.67
297.967	9412.81
298.033	9429.86
298.1	9457.5
298.167	9449.61
298.234	9453.55
298.3	9465.79
298.367	9459.86
298.434	9473.06
298.5	9456.2
298.567	9444.21
298.634	9439.49
298.7	9458.66
298.767	9452.92
298.834	9471.03
298.9	9458.7
298.967	9449.02
299.033	9462.61
299.1	9473.83
299.167	9492.03
299.233	9485.38
299.3	9507.53
299.366	9529.35
299.433	9548.95
299.5	9524.87
299.566	9528.29
299.633	9547.17
299.699	9556.32
299.766	9553.28
299.832	9550.63
299.899	9562.72
299.965	9577.17
300.032	9574.62
300.099	9585.94
300.165	9600.82
300.232	9596.77
300.298	9603.08
300.365	9619.98
300.431	9614.4
300.498	9616.61
300.564	9616.66
300.631	9626.2
300.697	9636.84
300.763	9635.3
300.83	9625.09
300.896	9639.63
300.963	9651.24
301.029	9659.04
301.096	9667.85
301.162	9682.59
301.229	9679.41
301.295	9665.59
301.361	9670.79
301.428	9673.54
301.494	9662.17
301.561	9663.57
301.627	9667.32
301.693	9665.97
301.76	9668.38
301.826	9667.76
301.892	9671.51
301.959	9686.59
302.025	9684.81
302.092	9672.86
302.158	9677.58
302.224	9682.98
302.291	9673.44
302.357	9667.37
302.423	9666.02
302.49	9659.18
302.556	9672.38
302.622	9669.68
302.688	9681.1
302.755	9694.2
302.821	9705.52
302.887	9712.02
302.954	9705.81
303.02	9713.66
303.086	9721.65
303.152	9719.72
303.219	9716.64
303.285	9726.42
303.351	9726.08
303.417	9729.65
303.483	9721.17
303.55	9710.67
303.616	9712.12
303.682	9716.26
303.748	9710.29
303.815	9718.04
303.881	9722.47
303.947	9707.49
304.013	9715.63
304.079	9713.42
304.145	9690.68
304.212	9689.05
304.278	9678.4
304.344	9677.97
304.41	9661.88
304.476	9651.39
304.542	9646.86
304.608	9648.21
304.674	9628.17
304.741	9620.46
304.807	9624.12
304.873	9635.68
304.939	9654.95
305.005	9635.06
305.071	9630.34
305.137	9632.5
305.203	9609.34
305.269	9611.7
305.335	9622.1
305.401	9614.63
305.467	9612.13
305.533	9619.55
305.599	9631.06
305.666	9644.49
305.732	9643.58
305.798	9654.56
305.864	9679.22
305.93	9687.55
305.996	9687.31
306.062	9686.2
306.128	9682.98
306.194	9670.74
306.259	9664.19
306.325	9648.97
306.391	9654.27
306.457	9659.95
306.523	9665.2
306.589	9688.37
306.655	9677.24
306.721	9657.4
306.787	9649.17
306.853	9667.28
306.919	9648.78
306.985	9635.06
307.051	9628.51
307.117	9618.54
307.183	9611.17
307.248	9583.48
307.314	9585.6
307.38	9595.08
307.446	9609
307.512	9599.71
307.578	9604.04
307.644	9604.53
307.709	9611.94
307.775	9612.57
307.841	9612.38
307.907	9610.5
307.973	9578.33
308.039	9576.93
308.104	9592.39
308.17	9592.87
308.236	9571.39
308.302	9580.15
308.368	9578.37
308.433	9574.13
308.499	9572.25
308.565	9561.18
308.631	9563.25
308.696	9539.51
308.762	9520.87
308.828	9508.06
308.894	9491.49
308.959	9465.11
309.025	9457.16
309.091	9448.11
309.156	9433.76
309.222	9434.53
309.288	9425.23
309.354	9414.06
309.419	9414.06
309.485	9391.33
309.551	9392.73
309.616	9382.66
309.682	9376.26
309.748	9368.31
309.813	9364.03
309.879	9352.76
309.945	9345.01
310.01	9336.34
310.076	9339.33
310.141	9325.6
310.207	9308.89
310.273	9316.45
310.338	9325.99
310.404	9301.19
310.469	9287.85
310.535	9282.17
310.601	9253.57
310.666	9259.25
310.732	9269.7
310.797	9256.31
310.863	9249.81
310.928	9244.9
310.994	9244.76
311.059	9244.27
311.125	9235.99
311.191	9248.32
311.256	9234.6
311.322	9239.03
311.387	9219
311.453	9517.43
311.518	9496.1
311.584	9501.45
311.649	9504
311.715	9490.23
311.78	9498.07
311.846	9489.55
311.911	9494.42
311.976	9502.26
312.042	9482.23
312.107	9469.86
312.173	9464.23
312.238	9456.86
312.304	9447.09
312.369	9436.01
312.434	9422.72
312.5	9418.97
312.565	9382.81
312.631	9388.97
312.696	9377.32
312.761	9383.96
312.827	9071.96
312.892	9115.15
312.958	9105.71
313.023	9101.33
313.088	9102.58
313.154	9088.09
313.219	9081.98
313.284	9068.25
313.35	9061.08
313.415	9047.51
313.48	9037.59
313.546	9033.3
313.611	9039.18
313.676	9030.08
313.741	9021.22
313.807	9028.35
313.872	9029.98
313.937	9037.97
314.003	9051.31
314.068	9052.61
314.133	9058.24
314.198	9059.11
314.264	9035.56
314.329	9027.91
314.394	9025.89
314.459	9017.27
314.525	9039.56
314.59	9031.76
314.655	9019.68
314.72	9020.88
314.785	9026.08
314.851	9023.87
314.916	9004.27
314.981	8989.69
315.046	8983.05
315.111	8977.17
315.176	8961
315.242	8960.95
315.307	8956.23
315.372	8932.74
315.437	8921.09
315.502	8909.87
315.567	8913.39
315.632	8899.86
315.698	8899.62
315.763	8891.24
315.828	8888.35
315.893	8880.65
315.958	8878.39
316.023	8869.34
316.088	8851.09
316.153	8830.78
316.218	8823.37
316.283	8814.71
316.348	8798.88
316.413	8798.06
316.479	8772.36
316.544	8744.06
316.609	8714.12
316.674	8674.18
316.739	8643.05
316.804	8613.07
316.869	8583.04
316.934	8538.14
316.999	8509.02
317.064	8450.8
317.129	8406.29
317.194	8364.67
317.259	8313.9
317.324	8265.21
317.389	8225.67
317.454	8193.1
317.518	8156.06
317.583	8126.95
317.648	8095.58
317.713	8062.87
317.778	8003.22
317.843	7981.77
317.908	7944.2
317.973	7902.79
318.038	7877.35
318.103	7837.2
318.168	7806.52
318.233	7770.35
318.297	7724.81
318.362	7686.29
318.427	7651.97
318.492	7625.43
318.557	7584.28
318.622	7556.77
318.687	7535.28
318.751	7493.28
318.816	7454.72
318.881	7421.84
318.946	7366.18
319.011	7322.53
319.075	7276.78
319.14	7239.82
319.205	7193.06
319.27	7158.41
319.335	7117.71
319.399	7075.09
319.464	7054.76
319.529	6997.45
319.594	6957.57
319.658	6929.95
319.723	6886.32
319.788	6860.24
319.853	6805.05
319.917	6770.04
319.982	6719.12
320.047	6676.08
320.112	6646.21
320.176	6596.32
320.241	6561.36
320.306	6537.11
320.37	6494.62
320.435	6464.09
320.5	6433.5
320.564	6394.62
320.629	6352.91
320.694	6318.92
320.758	6277.46
320.823	6228.83
320.888	6208.87
320.952	6159.2
321.017	6115.24
321.082	6073.88
321.146	6039.19
321.211	6007.96
321.275	5969.97
321.34	5921.81
321.405	5878.74
321.469	5836.63
321.534	5797.31
321.598	5747.53
321.663	5713.37
321.727	5681.39
321.792	5631.71
321.857	5588.61
321.921	5550.97
321.986	5507.45
322.05	5448.98
322.115	5412.84
322.179	5367.12
322.244	5310.58
322.308	5274.98
322.373	5228.6
322.437	5189.02
322.502	5166.97
322.566	5119.83
322.631	5084.57
322.695	5047.07
322.76	5005.12
322.824	4968.58
322.889	4925.92
322.953	4880.93
323.018	4812.31
323.082	4751.67
323.146	4699.41
323.211	4648.53
323.275	4603.11
323.34	4557.52
323.404	4525.13
323.468	4477.95
323.533	4434.28
323.597	4386.51
323.662	4338.05
323.726	4304.33
323.79	4258.56
323.855	4186.7
323.919	4136.78
323.983	4088.34
324.048	4020.93
324.112	4176.49
324.177	4043.73
324.241	3834.77
324.305	3630.77
324.37	3431.04
324.434	3235.7
324.498	3195.73
324.562	3145.85
324.627	3085.74
324.691	3030.61
324.755	2964.63
324.82	2892.2
324.884	2815.8
324.948	2745.55
325.012	2650.89
325.077	2524.05
