Data from 20250702_urea_0.5M_MAYP1162681_12-25-00-025.txt Node
Date: Wed Jul 02 12:25:00 BST 2025
User: adleo
Spectrometer: MAYP116268
Trigger mode: 0
Integration Time (sec): 1.000000E0
Scans to average: 1
Electric dark correction enabled: true
Nonlinearity correction enabled: true
Boxcar width: 10
XAxis mode: Wavelengths
Number of Pixels in Spectrum: 2068
>>>>>Begin Spectral Data<<<<<
179.565	1067.59
179.642	1115.53
179.718	1151.41
179.795	1185.8
179.871	1215.34
179.948	1228.78
180.024	1245.1
180.101	1266.26
180.177	1278.62
180.254	1300.63
180.33	1321.29
180.407	1363.34
180.483	1445.3
180.56	1523.31
180.636	1597.93
180.712	1586.72
180.789	1596.12
180.865	1604.58
180.942	1613.41
181.018	1624.19
181.095	1635.12
181.171	1641.2
181.248	1641.35
181.324	1656.17
181.4	1663.82
181.477	1672.37
181.553	1685.86
181.63	1705.44
181.706	1720.93
181.782	1727.72
181.859	1724.59
181.935	1725.82
182.011	1721.26
182.088	1737.42
182.164	1755.19
182.24	1767.26
182.317	1775.39
182.393	1773.77
182.469	1786.89
182.546	1798.67
182.622	1801.14
182.698	1797.91
182.775	1807.32
182.851	1821.01
182.927	1815.16
183.003	1808.27
183.08	1804.57
183.156	1812.79
183.232	1808.27
183.308	1796.63
183.385	1804.51
183.461	1820.29
183.537	1824.52
183.613	1838.92
183.69	1831.41
183.766	1821.29
183.842	1826.28
183.918	1830.65
183.995	1842.25
184.071	1844.72
184.147	1840.49
184.223	1831.18
184.299	1842.49
184.375	1834.03
184.452	1840.07
184.528	1891.76
184.604	1902.45
184.68	1914.52
184.756	1921.7
184.832	1926.41
184.908	1930.4
184.985	1930.16
185.061	1916.52
185.137	1924.84
185.213	1912.77
185.289	1914.15
185.365	1908.68
185.441	1906.92
185.517	1921.33
185.593	1920.09
185.669	1918.24
185.745	1925.32
185.822	1940.58
185.898	1932.69
185.974	1942.29
186.05	1936.82
186.126	1899.49
186.202	1893.6
186.278	1887.75
186.354	1878.76
186.43	1886.37
186.506	1885.94
186.582	1884.61
186.658	1891.55
186.734	1871.87
186.81	1876.67
186.886	1881.05
186.962	1891.5
187.038	1892.74
187.114	1883.27
187.19	1889.74
187.266	1881.19
187.341	1880.47
187.417	1873.11
187.493	1874.25
187.569	1872.96
187.645	1867.35
187.721	1856.94
187.797	1864.16
187.873	1866.68
187.949	1860.93
188.025	1854.56
188.101	1855.61
188.176	1858.89
188.252	1854.66
188.328	1862.78
188.404	1862.26
188.48	1855.75
188.556	1849.19
188.632	1845.19
188.707	1847.29
188.783	1841.87
188.859	1838.97
188.935	1832.88
189.011	1839.82
189.086	1833.98
189.162	1829.03
189.238	1827.75
189.314	1824.71
189.39	1818.05
189.465	1813.63
189.541	1829.65
189.617	1816.44
189.693	1810.64
189.768	1814.73
189.844	1836.51
189.92	1828.1
189.996	1834.76
190.071	1846.21
190.147	1848.25
190.223	1856.29
190.298	1851.2
190.374	1841.74
190.45	1853.72
190.526	1857.95
190.601	1853.86
190.677	1852.82
190.753	1877.88
190.828	1880.73
190.904	1895.42
190.98	1910.11
191.055	1919.91
191.131	1912.06
191.207	1929.84
191.282	1938.53
191.358	1929.46
191.433	1915.9
191.509	1930.63
191.585	1927.5
191.66	1928.35
191.736	1934.2
191.811	1927.4
191.887	1938.86
191.963	1956.55
192.038	1960.82
192.114	1961.35
192.189	1964.2
192.265	1963.77
192.34	1943.37
192.416	1940.66
192.491	1933.62
192.567	1935.52
192.642	1936.38
192.718	1936.85
192.793	1926.54
192.869	1924.82
192.944	1927.82
193.02	1931.53
193.095	1932.1
193.171	1937.47
193.246	1937.04
193.322	1936.42
193.397	1938.09
193.473	1924.11
193.548	1911.75
193.624	1915.93
193.699	1916.5
193.775	1932.24
193.85	1932.24
193.925	1938.76
194.001	1938.23
194.076	1934.19
194.152	1924.78
194.227	1917.93
194.302	1907.95
194.378	1912.75
194.453	1910.37
194.529	1921.07
194.604	1911.37
194.679	1907.38
194.755	1891.84
194.83	1903.82
194.905	1900.92
194.981	1908.53
195.056	1905.11
195.131	1911.34
195.207	1906.91
195.282	1898.69
195.357	1884.23
195.433	1896.93
195.508	1888.37
195.583	1895.78
195.659	1906.01
195.734	1914.23
195.809	1913.38
195.884	1923.45
195.96	1923.88
196.035	1938.38
196.11	1935
196.185	1945.84
196.261	1948.65
196.336	1976.56
196.411	1962.43
196.486	1967
196.561	1961.72
196.637	1967.37
196.712	1979.36
196.787	1984.54
196.862	1996.43
196.937	2002.23
197.013	2008.98
197.088	2017.4
197.163	2034.71
197.238	2051.47
197.313	2050.23
197.388	2063.64
197.464	2086.9
197.539	2092.75
197.614	2086.85
197.689	2098.7
197.764	2111.73
197.839	2130.09
197.914	2123.72
197.989	2142.32
198.065	2155.68
198.14	2200
198.215	2226.55
198.29	2236.07
198.365	2247.58
198.44	2258.43
198.515	2284.08
198.59	2298.07
198.665	2323.96
198.74	2332.96
198.815	2335.01
198.89	2355.99
198.965	2383.18
199.04	2381.85
199.115	2399.79
199.19	2438.44
199.265	2439.63
199.34	2451.86
199.415	2482.54
199.49	2502.24
199.565	2514.81
199.64	2533.66
199.715	2531.71
199.79	2539.71
199.865	2548.14
199.94	2548.33
200.015	2576.29
200.09	2580
200.165	2586.24
200.24	2592
200.315	2630.71
200.39	2643.71
200.464	2649.57
200.539	2651.43
200.614	2667.14
200.689	2686.77
200.764	2693.06
200.839	2713.96
200.914	2716.1
200.989	2706.86
201.063	2720.44
201.138	2701.77
201.213	2704.35
201.288	2687.77
201.363	2689.01
201.438	2688.25
201.512	2703.77
201.587	2690.95
201.662	2695.72
201.737	2707.06
201.812	2711.3
201.886	2679.64
201.961	2687.41
202.036	2678.03
202.111	2673.17
202.186	2647.22
202.26	2636.02
202.335	2612.54
202.41	2606.25
202.485	2592.73
202.559	2574.4
202.634	2548.25
202.709	2556.67
202.784	2537.15
202.858	2536.34
202.933	2520.48
203.008	2517.1
203.082	2499.72
203.157	2494.82
203.232	2455.17
203.306	2434.69
203.381	2407.22
203.456	2386.22
203.53	2366.16
203.605	2345.85
203.68	2324.42
203.754	2316.96
203.829	2299.86
203.904	2284.92
203.978	2276.21
204.053	2277.35
204.127	2267.41
204.202	2267.98
204.277	2253.89
204.351	2249.33
204.426	2239.66
204.5	2231.38
204.575	2197.66
204.65	2207.22
204.724	2201.46
204.799	2208.79
204.873	2206.98
204.948	2203.69
205.022	2194.56
205.097	2189.37
205.171	2201.41
205.246	2211.45
205.32	2210.07
205.395	2210.31
205.469	2202.18
205.544	2202.8
205.618	2187.48
205.693	2199.37
205.767	2185.82
205.842	2207.61
205.916	2201.52
205.991	2197.53
206.065	2205.33
206.14	2220.45
206.214	2216.07
206.289	2211.22
206.363	2226.44
206.438	2227.06
206.512	2237.91
206.586	2253.7
206.661	2260.08
206.735	2241.92
206.81	2244.63
206.884	2262.95
206.958	2253.62
207.033	2272.32
207.107	2280.84
207.181	2314.4
207.256	2309.59
207.33	2335.81
207.405	2350.82
207.479	2374.09
207.553	2383.99
207.628	2374.66
207.702	2392.99
207.776	2394.7
207.851	2406.98
207.925	2427.99
207.999	2439.46
208.073	2449.41
208.148	2467.46
208.222	2472.56
208.296	2520.25
208.371	2549.75
208.445	2579.19
208.519	2627.91
208.593	2659.16
208.668	2681.13
208.742	2712.65
208.816	2745.76
208.89	2786.57
208.965	2821.01
209.039	2864.88
209.113	2920.56
209.187	2982.22
209.261	3020.73
209.336	3083.97
209.41	3150.85
209.484	3205.93
209.558	3280.38
209.632	3350.23
209.707	3421.78
209.781	3508.1
209.855	3592.74
209.929	3680.1
210.003	3762.7
210.077	3841.64
210.151	3972.87
210.226	4095.87
210.3	4213.3
210.374	4326.65
210.448	4434.73
210.522	4546.69
210.596	4666.83
210.67	4789.09
210.744	4949.68
210.818	5105.29
210.892	5253.2
210.966	5380.31
211.041	5529.34
211.115	5665.34
211.189	5826.59
211.263	5985.77
211.337	6141.26
211.411	6304.06
211.485	6463.66
211.559	6635.66
211.633	6801.9
211.707	6943.99
211.781	7117.64
211.855	7258.93
211.929	7432.68
212.003	7589.59
212.077	7773.61
212.151	7964.15
212.225	8153.31
212.299	8328.17
212.373	8502.91
212.447	8690.32
212.52	8908.29
212.594	9102.19
212.668	9305.47
212.742	9494.79
212.816	9695.25
212.89	9888.65
212.964	10096.88
213.038	10298.34
213.112	10515.81
213.186	10734.76
213.26	10912.49
213.333	11084.27
213.407	11295.32
213.481	11503.2
213.555	11728.33
213.629	11930.46
213.703	12132.31
213.777	12345.3
213.85	12544.95
213.924	12787.4
213.998	13002.24
214.072	13207.68
214.146	13407.63
214.219	13614.04
214.293	13816.06
214.367	14024.11
214.441	14239.33
214.515	14432.44
214.588	14617.3
214.662	14788.13
214.736	14974.77
214.81	15183.3
214.883	15390.04
214.957	15566.99
215.031	15744.42
215.105	15910.71
215.178	16089.72
215.252	16266.56
215.326	16430.68
215.4	16595.08
215.473	16733.21
215.547	16889.26
215.621	17052.98
215.694	17235.3
215.768	17381.76
215.842	17539.26
215.915	17691.26
215.989	17833.71
216.063	17981.13
216.136	18137.42
216.21	18295
216.284	18452.93
216.357	18607.96
216.431	18746.94
216.504	18919.08
216.578	19102.88
216.652	19265.48
216.725	19418
216.799	19560.12
216.873	19695.63
216.946	19829.31
217.02	19963.09
217.093	20095.09
217.167	20200.24
217.24	20304.48
217.314	20432.29
217.387	20547.47
217.461	20657.59
217.535	20781.12
217.608	20884.88
217.682	20995.78
217.755	21116.03
217.829	21218.3
217.902	21330.41
217.976	21435.44
218.049	21530.15
218.123	21609.25
218.196	21707.3
218.27	21784.23
218.343	21881.46
218.417	21973.19
218.49	22068.68
218.563	22160.7
218.637	22258.23
218.71	22364.43
218.784	22469.19
218.857	22574.39
218.931	22664.68
219.004	22759.66
219.077	22859.13
219.151	22944.8
219.224	23029.95
219.298	23091.38
219.371	23182.23
219.444	23245.68
219.518	23320.9
219.591	23384.41
219.665	23476.23
219.738	23536.94
219.811	23600.06
219.885	23655.81
219.958	23726.22
220.031	23788.76
220.105	23861.2
220.178	23914.79
220.251	23974.84
220.325	24031.22
220.398	24079.27
220.471	24140.52
220.544	24198.5
220.618	24232.99
220.691	24286.29
220.764	24327.63
220.838	24389.13
220.911	24419.62
220.984	24470.07
221.057	24522.41
221.131	24572.2
221.204	24582.67
221.277	24642.15
221.35	24703.95
221.424	24734.1
221.497	24773.08
221.57	24798.89
221.643	24837.73
221.716	24870.35
221.79	24887.28
221.863	24913.87
221.936	24931.43
222.009	24949.86
222.082	24971.87
222.155	24991.31
222.229	25035.75
222.302	25062.87
222.375	25074.16
222.448	25096.4
222.521	25112.18
222.594	25123.38
222.667	25118.55
222.74	25142.44
222.814	25153.39
222.887	25166.86
222.96	25193.3
223.033	25209.9
223.106	25230.21
223.179	25236.87
223.252	25236.97
223.325	25251.59
223.398	25250.38
223.471	25261
223.544	25271.37
223.617	25282.62
223.69	25280.3
223.763	25257.14
223.837	25263.02
223.91	25276.68
223.983	25267.42
224.056	25253.47
224.129	25251.88
224.202	25264.57
224.275	25257.62
224.348	25247.39
224.42	25226.35
224.493	25203.48
224.566	25191.46
224.639	25191.27
224.712	25179.88
224.785	25182.58
224.858	25168.78
224.931	25164.73
225.004	25153.63
225.077	25134.57
225.15	25082.89
225.223	25076.38
225.296	25085.26
225.369	25042.89
225.442	25022.53
225.514	25009.79
225.587	25022.39
225.66	25007.14
225.733	25000.53
225.806	24985.52
225.879	24972.59
225.952	24952.33
226.025	24958.41
226.097	24955.27
226.17	24928.35
226.243	24888.54
226.316	24860.6
226.389	24845.65
226.461	24825.67
226.534	24803
226.607	24785.68
226.68	24790.45
226.753	24772.84
226.825	24728.12
226.898	24731.98
226.971	24707.52
227.044	24681.95
227.117	24650.01
227.189	24635.15
227.262	24624.2
227.335	24616.38
227.407	24585.7
227.48	24564.47
227.553	24545.75
227.626	24525.87
227.698	24515.07
227.771	24509.04
227.844	24484.15
227.916	24462.34
227.989	24420.76
228.062	24397.94
228.134	24396.54
228.207	24379.56
228.28	24350.24
228.352	24335.19
228.425	24319.85
228.498	24304.02
228.57	24285.65
228.643	24272.09
228.716	24248.02
228.788	24207.79
228.861	24165.3
228.934	24151.31
229.006	24133.9
229.079	24103.17
229.151	24066.65
229.224	24029.51
229.296	24001.68
229.369	24000.58
229.442	23989
229.514	23967.92
229.587	23967.01
229.659	23934.35
229.732	23912.02
229.804	23901.22
229.877	23905.08
229.949	23884.53
230.022	23884.53
230.094	23864.81
230.167	23850.92
230.239	23820.53
230.312	23797.05
230.384	23800.61
230.457	23777.66
230.529	23758.22
230.602	23734.74
230.674	23719.01
230.747	23704.88
230.819	23699.15
230.892	23643.49
230.964	23624.93
231.037	23606.07
231.109	23567.83
231.181	23547.48
231.254	23512.23
231.326	23478.67
231.399	23435.65
231.471	23398.27
231.544	23339.87
231.616	23324.35
231.688	23290.35
231.761	23255.54
231.833	23228.68
231.905	23176.36
231.978	23142.51
232.05	23110.83
232.122	23081.9
232.195	23038.6
232.267	23014.35
232.339	22974.86
232.412	22968.15
232.484	22924.18
232.556	22890.19
232.629	22880.54
232.701	22854.65
232.773	22830.84
232.846	22794
232.918	22768.4
232.99	22744.97
233.062	22726.94
233.135	22694.92
233.207	22647.34
233.279	22634.56
233.351	22606.5
233.424	22573.48
233.496	22531.78
233.568	22513.03
233.64	22460.91
233.713	22426.3
233.785	22388.94
233.857	22353.5
233.929	22301.73
234.001	22286.01
234.074	22267.65
234.146	22202.95
234.218	22169.88
234.29	22125.92
234.362	22092.46
234.434	22044.45
234.507	22000.92
234.579	21953.68
234.651	21911.69
234.723	21886.92
234.795	21848.88
234.867	21816.88
234.939	21802.8
235.012	21768.92
235.084	21745.59
235.156	21731.99
235.228	21708.18
235.3	21673.86
235.372	21639.45
235.444	21610.86
235.516	21550.52
235.588	21516.29
235.66	21495.28
235.732	21441.3
235.804	21464.43
235.876	21437.25
235.948	21417.97
236.02	21379.51
236.092	21340.37
236.164	21306.15
236.236	21262.58
236.308	21217.13
236.38	21179.3
236.452	21123.29
236.524	21105.36
236.596	21078.9
236.668	21043.52
236.74	20996.73
236.812	20964.68
236.884	20942.22
236.956	20907.42
237.028	20875.23
237.1	20829.15
237.172	20804.62
237.244	20779.95
237.316	20704.95
237.388	20663.6
237.46	20608.08
237.532	20586.92
237.604	20545.43
237.675	20528.8
237.747	20505.43
237.819	20458.01
237.891	20419.26
237.963	20374.44
238.035	20317.48
238.107	20247.94
238.178	20218.68
238.25	20175.02
238.322	20158.3
238.394	20101.29
238.466	20063.7
238.538	20027.6
238.609	19989.82
238.681	19928.23
238.753	19889.29
238.825	19844.62
238.897	19806.36
238.968	19789.49
239.04	19747.47
239.112	19736.67
239.184	19675.62
239.255	19627.62
239.327	19599.43
239.399	19558.9
239.471	19529.7
239.542	19498.42
239.614	19460.49
239.686	19402.38
239.758	19379.68
239.829	19325.42
239.901	19306.77
239.973	19269.95
240.044	19231.01
240.116	19195.45
240.188	19165.57
240.259	19128.32
240.331	19085.96
240.403	19065.24
240.474	19013.53
240.546	18967.61
240.618	18910.65
240.689	18871.71
240.761	18840.15
240.833	18820.53
240.904	18787.62
240.976	18754.71
241.048	18728.35
241.119	18697.02
241.191	18659.34
241.262	18635.19
241.334	18593.37
241.405	18538.38
241.477	18498.29
241.549	18456.31
241.62	18418.82
241.692	18382.58
241.763	18351.79
241.835	18314.97
241.906	18267.46
241.978	18226.54
242.049	18189.63
242.121	18155.07
242.192	18128.28
242.264	18077.05
242.335	18023.08
242.407	17993.11
242.478	17953.78
242.55	17919.32
242.621	17879.52
242.693	17839.66
242.764	17796.97
242.836	17756.05
242.907	17734.17
242.979	17701.02
243.05	17675.23
243.122	17647.43
243.193	17606.51
243.264	17548.01
243.336	17510.46
243.407	17480.44
243.479	17447.04
243.55	17423.81
243.622	17395.81
243.693	17352.39
243.764	17331.96
243.836	17286.7
243.907	17241.79
243.978	17199.47
244.05	17158.8
244.121	17114.12
244.192	17091.57
244.264	17037.35
244.335	17001.06
244.407	16943.42
244.478	16913.92
244.549	16869.49
244.62	16818.11
244.692	16784.04
244.763	16762.16
244.834	16721.38
244.906	16683.16
244.977	16654.63
245.048	16633.04
245.119	16588.75
245.191	16554.96
245.262	16494.38
245.333	16480.98
245.405	16447.68
245.476	16425.27
245.547	16397.17
245.618	16371.82
245.689	16334.61
245.761	16311.23
245.832	16278.27
245.903	16258.65
245.974	16229.2
246.045	16198.55
246.117	16190.45
246.188	16150.01
246.259	16108.17
246.33	16078.44
246.401	16041.37
246.473	15991.82
246.544	15941.31
246.615	15918.85
246.686	15874.36
246.757	15868.34
246.828	15820.57
246.899	15808.52
246.97	15758.01
247.042	15713.61
247.113	15679.34
247.184	15669.61
247.255	15629.07
247.326	15600.44
247.397	15563.47
247.468	15525.3
247.539	15490.45
247.61	15440.85
247.681	15414.82
247.752	15399.54
247.823	15365.12
247.894	15338.51
247.965	15298.12
248.037	15270.31
248.108	15224.18
248.179	15203.98
248.25	15169.18
248.321	15144.16
248.392	15089.69
248.463	15082.42
248.534	15050.6
248.605	15039.85
248.675	14998.01
248.746	14975.16
248.817	14949.13
248.888	14923.68
248.959	14878.76
249.03	14861.98
249.101	14826.31
249.172	14793.72
249.243	14743.79
249.314	14726.29
249.385	14700.06
249.456	14687.1
249.527	14655.19
249.598	14633.98
249.669	14599.61
249.739	14569.43
249.81	14546
249.881	14506.09
249.952	14485.17
250.023	14461.16
250.094	14407.65
250.165	14373.48
250.235	14339.93
250.306	14318.81
250.377	14276.97
250.448	14258.07
250.519	14206.01
250.59	14197.91
250.66	14170.34
250.731	14154.38
250.802	14123.77
250.873	14099.81
250.944	14070.5
251.014	14037.63
251.085	14031.46
251.156	14009.96
251.227	13997.09
251.297	13984.6
251.368	13978.19
251.439	13956.01
251.51	13944.25
251.58	13912.72
251.651	13877.39
251.722	13871.46
251.792	13815.88
251.863	13794.52
251.934	13781.41
252.005	13788.35
252.075	13758.46
252.146	13741.64
252.217	13731.56
252.287	13711.99
252.358	13680.37
252.429	13670.25
252.499	13638.57
252.57	13615.77
252.641	13608.4
252.711	13581.55
252.782	13542.93
252.852	13538.06
252.923	13502.68
252.994	13472.98
253.064	13470.33
253.135	13447.48
253.205	13413.64
253.276	13422.13
253.347	13418.56
253.417	13388.96
253.488	13356.47
253.558	13330.1
253.629	13310.14
253.699	13285.94
253.77	13274.33
253.841	13250.61
253.911	13242.8
253.982	13217.78
254.052	13202.26
254.123	13174.39
254.193	13146.14
254.264	13156.8
254.334	13114.33
254.405	13087.82
254.475	13056.58
254.546	13024.04
254.616	13019.03
254.687	12997.14
254.757	12974.82
254.827	12948.84
254.898	12930.42
254.968	12904.63
255.039	12878.89
255.109	12861.39
255.18	12825.09
255.25	12771.44
255.321	12756.06
255.391	12707.52
255.461	12710.51
255.532	12661.39
255.602	12638.59
255.673	12604.75
255.743	12571.53
255.813	12528.49
255.884	12511.33
255.954	12500.77
256.024	12499.03
256.095	12476.09
256.165	12448.66
256.235	12432.56
256.306	12399.25
256.376	12388.07
256.446	12379.97
256.517	12360.98
256.587	12351.67
256.657	12343.38
256.728	12338.56
256.798	12316.39
256.868	12301.45
256.938	12272.96
257.009	12263.9
257.079	12248.18
257.149	12252.91
257.219	12215.88
257.29	12209.28
257.36	12179.69
257.43	12170.33
257.5	12126.47
257.571	12093.45
257.641	12082.12
257.711	12045.73
257.781	12035.27
257.852	12018.45
257.922	11988.66
257.992	11968.51
258.062	11948.36
258.132	11935.3
258.202	11917.18
258.273	11899.87
258.343	11893.85
258.413	11869.99
258.483	11846.42
258.553	11815.14
258.623	11778.41
258.693	11760.09
258.764	11751.9
258.834	11744.09
258.904	11720.18
258.974	11699.85
259.044	11686.83
259.114	11672.47
259.184	11657.62
259.254	11641.43
259.324	11597.71
259.394	11583.25
259.464	11584.03
259.535	11554.19
259.605	11529.18
259.675	11496.4
259.745	11483.15
259.815	11460.69
259.885	11439.77
259.955	11454.96
260.025	11430.67
260.095	11421.17
260.165	11409.27
260.235	11406.86
260.305	11379
260.375	11354.08
260.445	11358.52
260.515	11354.32
260.585	11345.79
260.655	11328.97
260.725	11315.72
260.795	11314.23
260.865	11310.23
260.934	11276.54
261.004	11270.66
261.074	11256.2
261.144	11259.77
261.214	11251.81
261.284	11233.31
261.354	11225.89
261.424	11192.53
261.494	11199.52
261.564	11180.29
261.634	11168.34
261.703	11134.03
261.773	11131.71
261.843	11125.93
261.913	11106.8
261.983	11078.37
262.053	11062.13
262.123	11044.54
262.192	11015.72
262.262	11003.53
262.332	10971.14
262.402	10963.43
262.472	10951.43
262.541	10909.23
262.611	10905.23
262.681	10875.69
262.751	10859.54
262.821	10839.3
262.89	10810.58
262.96	10792.03
263.03	10799.26
263.1	10787.93
263.169	10781.09
263.239	10766.25
263.309	10760.76
263.379	10742.25
263.448	10725.2
263.518	10716.81
263.588	10698.74
263.657	10700.62
263.727	10694.74
263.797	10680.38
263.867	10666.94
263.936	10634.08
264.006	10636.01
264.076	10618.71
264.145	10606.71
264.215	10587.68
264.285	10581.99
264.354	10550.58
264.424	10528.76
264.494	10490.83
264.563	10467.47
264.633	10462.65
264.702	10453.88
264.772	10420.63
264.842	10404.49
264.911	10396.35
264.981	10365.99
265.05	10357.71
265.12	10338.77
265.19	10322.97
265.259	10318.15
265.329	10310.68
265.398	10300.08
265.468	10316.66
265.537	10292.62
265.607	10280.72
265.676	10277.92
265.746	10270.17
265.815	10271.47
265.885	10255.86
265.955	10235.58
266.024	10217.03
266.094	10181.96
266.163	10176.32
266.232	10175.79
266.302	10163.61
266.371	10148.48
266.441	10136.97
266.51	10122.85
266.58	10106.57
266.649	10086.43
266.719	10082.77
266.788	10069.86
266.858	10070.15
266.927	10030.79
266.996	10019.47
267.066	10012.78
267.135	9985.66
267.205	9974.53
267.274	9962.49
267.343	9959.45
267.413	9947.8
267.482	9951.99
267.552	9960.17
267.621	9931.46
267.69	9899.67
267.76	9892.74
267.829	9880.94
267.898	9862.73
267.968	9852.09
268.037	9846.35
268.106	9838.98
268.176	9806.42
268.245	9794.43
268.314	9780.99
268.384	9780.27
268.453	9775.26
268.522	9765.14
268.592	9763.46
268.661	9746.79
268.73	9739.33
268.799	9721.12
268.869	9728.78
268.938	9697.09
269.007	9668.14
269.076	9659.52
269.146	9662.94
269.215	9649.31
269.284	9663.37
269.353	9650.95
269.422	9628.85
269.492	9606.69
269.561	9572.26
269.63	9575.34
269.699	9555.55
269.768	9537.54
269.838	9527.28
269.907	9520.1
269.976	9498.38
270.045	9466.32
270.114	9464.15
270.183	9448.16
270.253	9446.81
270.322	9419.7
270.391	9415.13
270.46	9418.5
270.529	9411.23
270.598	9404.05
270.667	9392.35
270.736	9366.39
270.806	9359.74
270.875	9366.15
270.944	9359.07
271.013	9376.93
271.082	9363.45
271.151	9356.61
271.22	9330.37
271.289	9315.98
271.358	9301.38
271.427	9293.58
271.496	9293.83
271.565	9270.42
271.634	9263.44
271.703	9257.42
271.772	9254.97
271.841	9241.44
271.91	9221.12
271.979	9213.51
272.048	9192.08
272.117	9190.74
272.186	9177.83
272.255	9185.73
272.324	9181.73
272.393	9177.74
272.462	9162.57
272.531	9154.48
272.6	9149.9
272.669	9153.76
272.738	9141.14
272.807	9134.4
272.876	9113.32
272.945	9135.85
273.013	9138.98
273.082	9139.65
273.151	9117.7
273.22	9117.12
273.289	9111.25
273.358	9116.69
273.427	9106.72
273.496	9111.15
273.564	9103.74
273.633	9105.47
273.702	9082.12
273.771	9075.43
273.84	9067.34
273.909	9063.39
273.977	9063.63
274.046	9055.69
274.115	9060.12
274.184	9043.42
274.253	9033.69
274.322	9047.94
274.39	9016.36
274.459	9003.84
274.528	8977.99
274.597	8973.18
274.665	8969.28
274.734	8979.24
274.803	8972.07
274.872	8963.93
274.94	8949.2
275.009	8998.81
275.078	8977.24
275.147	8972.76
275.215	8961.4
275.284	8971.94
275.353	8964.39
275.421	8939.36
275.49	8953.41
275.559	8945.42
275.627	8943.69
275.696	8932.96
275.765	8925.98
275.833	8920.25
275.902	8914.57
275.971	8927.28
276.039	8939.6
276.108	8936.66
276.177	8927.56
276.245	8916.68
276.314	8914.95
276.383	8913.31
276.451	8856.58
276.52	8862.84
276.588	8871.17
276.657	8876.03
276.725	8868.23
276.794	8864.29
276.863	8873.58
276.931	8846.86
277	8854.08
277.068	8861.83
277.137	8880.31
277.205	8877.37
277.274	8890.08
277.342	8904.33
277.411	8884.02
277.48	8872.03
277.548	8866.55
277.617	8863.9
277.685	8862.5
277.754	8861.97
277.822	8853.02
277.89	8868.43
277.959	8865.11
278.027	8852.88
278.096	8844.12
278.164	8860.49
278.233	8854.33
278.301	8842.3
278.37	8846.19
278.438	8828.29
278.507	8827.28
278.575	8805.66
278.643	8803.55
278.712	8783.09
278.78	8764.46
278.849	8777.79
278.917	8789.54
278.985	8777.17
279.054	8779.38
279.122	8780.2
279.191	8776.45
279.259	8777.07
279.327	8752.18
279.396	8759.98
279.464	8751.37
279.532	8754.25
279.601	8747.95
279.669	8739.62
279.737	8755.07
279.806	8750.79
279.874	8762.15
279.942	8764.74
280.011	8758.06
280.079	8762.77
280.147	8782.8
280.215	8787.42
280.284	8778.99
280.352	8765.95
280.42	8777.4
280.488	8770.42
280.557	8764.36
280.625	8767.58
280.693	8761.42
280.761	8760.27
280.83	8742.56
280.898	8751.56
280.966	8737.84
281.034	8709.54
281.102	8704.43
281.171	8695.96
281.239	8712.72
281.307	8704.97
281.375	8698.52
281.443	8722.49
281.512	8719.12
281.58	8722.49
281.648	8705.4
281.716	8703.04
281.784	8701.45
281.852	8698.13
281.92	8700.2
281.989	8714.5
282.057	8699.19
282.125	8741.41
282.193	8745.36
282.261	8751.04
282.329	8754.36
282.397	8755.8
282.465	8762.73
282.533	8775.68
282.601	8764.27
282.67	8738.52
282.738	8727.31
282.806	8730.58
282.874	8717.78
282.942	8720.37
283.01	8715.32
283.078	8728.46
283.146	8729.37
283.214	8741.31
283.282	8736.11
283.35	8739.77
283.418	8735
283.486	8740.3
283.554	8700.25
283.622	8698.71
283.69	8696.11
283.758	8685.86
283.826	8692.83
283.894	8698.61
283.962	8714.98
284.03	8730.57
284.098	8730.62
284.165	8732.98
284.233	8734.47
284.301	8730.67
284.369	8728.45
284.437	8716.66
284.505	8710.84
284.573	8724.36
284.641	8703.47
284.709	8714.01
284.777	8702.56
284.845	8704.39
284.912	8707.47
284.98	8716.13
285.048	8709.05
285.116	8714.11
285.184	8724.21
285.252	8718.05
285.319	8698.23
285.387	8688.55
285.455	8672.57
285.523	8680.32
285.591	8677.53
285.659	8676.13
285.726	8682.34
285.794	8660.4
285.862	8660.06
285.93	8653.32
285.997	8651.69
286.065	8649.23
286.133	8642.11
286.201	8642.59
286.269	8631.71
286.336	8629.5
286.404	8624.01
286.472	8630.51
286.539	8609.77
286.607	8594.9
286.675	8591.24
286.743	8605.19
286.81	8596.39
286.878	8609.57
286.946	8603.27
287.013	8598.31
287.081	8599.27
287.149	8588.49
287.216	8609.62
287.284	8605.67
287.352	8608.37
287.419	8602.21
287.487	8615.88
287.555	8618.43
287.622	8615.54
287.69	8621.31
287.758	8628.29
287.825	8625.69
287.893	8613.42
287.96	8624.3
288.028	8635.46
288.096	8641.77
288.163	8645.76
288.231	8634.98
288.298	8634.45
288.366	8647.11
288.433	8647.98
288.501	8644.18
288.569	8641.72
288.636	8637.58
288.704	8654.67
288.771	8663.09
288.839	8661.98
288.906	8659.14
288.974	8666.65
289.041	8662.47
289.109	8657.08
289.176	8661.46
289.244	8661.6
289.311	8677.53
289.379	8680.56
289.446	8682.34
289.514	8682.01
289.581	8680.13
289.649	8692.45
289.716	8694.86
289.783	8684.56
289.851	8703.95
289.918	8694.95
289.986	8708.86
290.053	8712.33
290.121	8705.06
290.188	8709.1
290.255	8723.25
290.323	8716.8
290.39	8713.72
290.458	8721.52
290.525	8730.62
290.592	8729.32
290.66	8742.17
290.727	8737.4
290.794	8753.81
290.862	8757.62
290.929	8757.23
290.996	8760.02
291.064	8765.32
291.131	8774.08
291.198	8789.05
291.266	8791.5
291.333	8797.18
291.4	8806.14
291.468	8823.22
291.535	8819.04
291.602	8820.14
291.669	8817.4
291.737	8828.57
291.804	8831.26
291.871	8845.36
291.938	8853.84
292.006	8882.87
292.073	8884.02
292.14	8894.57
292.207	8888.31
292.275	8891.1
292.342	8910.55
292.409	8927.59
292.476	8952.48
292.543	8946.41
292.611	8949.78
292.678	8964.66
292.745	8989.93
292.812	8995.51
292.879	8990.51
292.946	8995.99
293.014	9011.11
293.081	9021.03
293.148	9037.97
293.215	9052.42
293.282	9048.71
293.349	9056.56
293.416	9034.46
293.484	9053.81
293.551	9062.33
293.618	9076.73
293.685	9099.31
293.752	9088.43
293.819	9091.07
293.886	9071.82
293.953	9077.59
294.02	9090.54
294.087	9096.95
294.154	9087.8
294.221	9107.01
294.288	9104.17
294.356	9123.48
294.423	9125.4
294.49	9123.86
294.557	9134.84
294.624	9124.83
294.691	9138.64
294.758	9134.02
294.825	9144.9
294.892	9132.72
294.959	9135.71
295.026	9145.91
295.093	9134.84
295.16	9138.93
295.226	9141.72
295.293	9173.7
295.36	9185.92
295.427	9193.77
295.494	9198.35
295.561	9212.07
295.628	9229.84
295.695	9252.32
295.762	9259.6
295.829	9268.94
295.896	9285.74
295.963	9285.93
296.03	9295.37
296.096	9305.14
296.163	9320.7
296.23	9338.71
296.297	9352.19
296.364	9349.68
296.431	9353.53
296.498	9355.32
296.564	9378.04
296.631	9383.1
296.698	9362.92
296.765	9378.52
296.832	9367.11
296.899	9359.31
296.965	9379.05
297.032	9357.14
297.099	9370.29
297.166	9371.15
297.233	9369.18
297.299	9357.29
297.366	9362.1
297.433	9367.25
297.5	9376.84
297.566	9378.86
297.633	9378.57
297.7	9388.3
297.767	9389.65
297.833	9392.29
297.9	9397.35
297.967	9383.34
298.033	9394.9
298.1	9424.18
298.167	9413.77
298.234	9424.13
298.3	9431.69
298.367	9427.16
298.434	9430.72
298.5	9423.69
298.567	9427.11
298.634	9426.39
298.7	9453.84
298.767	9454.37
298.834	9462.26
298.9	9453.69
298.967	9448.4
299.033	9453.11
299.1	9462.46
299.167	9473.1
299.233	9470.88
299.3	9481.43
299.366	9501.03
299.433	9515
299.5	9492.7
299.566	9500.02
299.633	9512.73
299.699	9525.3
299.766	9519.62
299.832	9529.15
299.899	9536.28
299.965	9544.66
300.032	9540.76
300.099	9536.62
300.165	9546.73
300.232	9553.76
300.298	9555.83
300.365	9569.8
300.431	9568.84
300.498	9562.53
300.564	9576.06
300.631	9583.52
300.697	9593.16
300.763	9593.83
300.83	9586.08
300.896	9597.39
300.963	9609.91
301.029	9613.67
301.096	9618.05
301.162	9628.94
301.229	9622.82
301.295	9616.32
301.361	9626.14
301.428	9633.9
301.494	9617.43
301.561	9618.01
301.627	9616.46
301.693	9627.44
301.76	9626.58
301.826	9620.89
301.892	9637.37
301.959	9643.29
302.025	9644.45
302.092	9643.48
302.158	9646.61
302.224	9648.64
302.291	9645.51
302.357	9635.01
302.423	9628.99
302.49	9618.25
302.556	9631.25
302.622	9628.8
302.688	9636.84
302.755	9642.38
302.821	9649.07
302.887	9665.01
302.954	9663.52
303.02	9665.59
303.086	9664
303.152	9660.05
303.219	9660.44
303.285	9656.68
303.351	9658.89
303.417	9661.45
303.483	9652.59
303.55	9640.16
303.616	9642.18
303.682	9641.99
303.748	9639.25
303.815	9653.46
303.881	9666.46
303.947	9655.04
304.013	9657.89
304.079	9651.58
304.145	9624.03
304.212	9617.04
304.278	9609.1
304.344	9602.07
304.41	9593.45
304.476	9580.64
304.542	9579.05
304.608	9579.77
304.674	9561.71
304.741	9556.7
304.807	9556.94
304.873	9561.76
304.939	9583.43
305.005	9567.92
305.071	9564.45
305.137	9566.04
305.203	9534.98
305.269	9525.2
305.335	9529.78
305.401	9533.92
305.467	9526.55
305.533	9538.45
305.599	9555.59
305.666	9562
305.732	9562.57
305.798	9572.11
305.864	9603.46
305.93	9609.87
305.996	9613.58
306.062	9618.54
306.128	9612.66
306.194	9599.42
306.259	9598.98
306.325	9584.73
306.391	9590.84
306.457	9597.01
306.523	9598.74
306.589	9625.57
306.655	9626.58
306.721	9610.25
306.787	9593.16
306.853	9606.93
306.919	9594.94
306.985	9580.35
307.051	9573.22
307.117	9568.11
307.183	9562.72
307.248	9533.44
307.314	9533.97
307.38	9534.55
307.446	9538.21
307.512	9533.2
307.578	9540.04
307.644	9534.06
307.709	9541.14
307.775	9537.29
307.841	9528.86
307.907	9522.55
307.973	9506.42
308.039	9499.39
308.104	9505.12
308.17	9514.46
308.236	9495.87
308.302	9500.88
308.368	9492.12
308.433	9492.98
308.499	9487.73
308.565	9481.38
308.631	9479.16
308.696	9455.04
308.762	9440.93
308.828	9439.68
308.894	9415.94
308.959	9393.35
309.025	9383.44
309.091	9373.47
309.156	9366.63
309.222	9374.57
309.288	9367.06
309.354	9346.02
309.419	9345.78
309.485	9332.92
309.551	9332.97
309.616	9321.17
309.682	9312.84
309.748	9308.27
309.813	9297.96
309.879	9284.82
309.945	9275.43
310.01	9271.82
310.076	9272.54
310.141	9269.6
310.207	9255.98
310.273	9261.42
310.338	9261.99
310.404	9249.04
310.469	9236.62
310.535	9219.96
310.601	9198.68
310.666	9206.24
310.732	9211.44
310.797	9198
310.863	9186.25
310.928	9172.68
310.994	9179.27
311.059	9176.86
311.125	9166.95
311.191	9175.52
311.256	9170.61
311.322	9171.91
311.387	9155.06
311.453	9451.98
311.518	9422.13
311.584	9417.94
311.649	9421.02
311.715	9413.08
311.78	9411.68
311.846	9403.16
311.911	9410.67
311.976	9409.86
312.042	9387.76
312.107	9376.68
312.173	9369.61
312.238	9364.7
312.304	9363.64
312.369	9353.96
312.434	9341.83
312.5	9343.22
312.565	9313.66
312.631	9315.88
312.696	9303.74
312.761	9304.61
312.827	8998.35
312.892	9038.5
312.958	9030.75
313.023	9024.49
313.088	9023.38
313.154	9012.7
313.219	9003.41
313.284	8994.21
313.35	8987.09
313.415	8974.81
313.48	8968.55
313.546	8969.81
313.611	8981.07
313.676	8966.87
313.741	8956.62
313.807	8958.93
313.872	8956.42
313.937	8965.33
314.003	8970.34
314.068	8970.58
314.133	8973.8
314.198	8972.02
314.264	8948.04
314.329	8947.08
314.394	8947.37
314.459	8939.23
314.525	8954.54
314.59	8954.01
314.655	8945.44
314.72	8950.11
314.785	8960.32
314.851	8953.15
314.916	8931.44
314.981	8912.04
315.046	8901.35
315.111	8891.15
315.176	8883.64
315.242	8884.65
315.307	8880.75
315.372	8867.51
315.437	8857.16
315.502	8847.29
315.567	8847.1
315.632	8834.58
315.698	8828.86
315.763	8820.96
315.828	8816.34
315.893	8806.57
315.958	8796.27
316.023	8781.54
316.088	8762.67
316.153	8738.13
316.218	8733.22
316.283	8719.99
316.348	8704.54
316.413	8704.3
316.479	8687.5
316.544	8653.14
316.609	8624.46
316.674	8588.17
316.739	8547.32
316.804	8516.09
316.869	8481.88
316.934	8444.83
316.999	8414.37
317.064	8361.3
317.129	8319.48
317.194	8285.51
317.259	8235.96
317.324	8186.46
317.389	8143.26
317.454	8104.97
317.518	8070.62
317.583	8041.47
317.648	8012.46
317.713	7972.68
317.778	7913.38
317.843	7885.29
317.908	7848.31
317.973	7805.21
318.038	7770.64
318.103	7735.4
318.168	7697.22
318.233	7664.81
318.297	7618.94
318.362	7574.94
318.427	7535.72
318.492	7499.99
318.557	7446.74
318.622	7422.56
318.687	7397.03
318.751	7360.37
318.816	7321.72
318.881	7283.56
318.946	7224.1
319.011	7180.18
319.075	7137.99
319.14	7099.45
319.205	7051.88
319.27	7010.9
319.335	6964.68
319.399	6924.95
319.464	6892.86
319.529	6839.45
319.594	6797.03
319.658	6760.19
319.723	6721.38
319.788	6692.95
319.853	6641.23
319.917	6613.28
319.982	6553.16
320.047	6514.69
320.112	6486.51
320.176	6433.84
320.241	6397.88
320.306	6369.13
320.37	6325.97
320.435	6294.15
320.5	6266.84
320.564	6227.39
320.629	6189.14
320.694	6153.63
320.758	6108.29
320.823	6064.77
320.888	6040.54
320.952	5995.49
321.017	5954.66
321.082	5910.34
321.146	5869.71
321.211	5832.69
321.275	5790.63
321.34	5750.07
321.405	5708.34
321.469	5658.28
321.534	5617.73
321.598	5565.42
321.663	5528.84
321.727	5495.33
321.792	5443.17
321.857	5393.89
321.921	5352.92
321.986	5307.3
322.05	5253.02
322.115	5213.45
322.179	5167.46
322.244	5110.65
322.308	5075.49
322.373	5023.62
322.437	4983.87
322.502	4955.36
322.566	4910.73
322.631	4873.19
322.695	4830.54
322.76	4783
322.824	4745.13
322.889	4704.12
322.953	4662.06
323.018	4600.08
323.082	4538.64
323.146	4485.21
323.211	4435.12
323.275	4389.29
323.34	4343
323.404	4308.33
323.468	4266.81
323.533	4222.63
323.597	4177.85
323.662	4121.71
323.726	4090.54
323.79	4042.31
323.855	3978.67
323.919	3931.59
323.983	3884.18
324.048	3816.66
324.112	3939.54
324.177	3806.42
324.241	3606.21
324.305	3409.97
324.37	3217.74
324.434	3031.86
324.498	2992.81
324.562	2942.72
324.627	2883.06
324.691	2830.13
324.755	2764.94
324.82	2687.72
324.884	2611.64
324.948	2538.67
325.012	2447.28
325.077	2323.49
