Data from 20250702_urea_0.5M_MAYP1162681_14-35-00-363.txt Node
Date: Wed Jul 02 14:35:00 BST 2025
User: adleo
Spectrometer: MAYP116268
Trigger mode: 0
Integration Time (sec): 1.000000E0
Scans to average: 1
Electric dark correction enabled: true
Nonlinearity correction enabled: true
Boxcar width: 10
XAxis mode: Wavelengths
Number of Pixels in Spectrum: 2068
>>>>>Begin Spectral Data<<<<<
179.565	1113.78
179.642	1164.24
179.718	1203.41
179.795	1238.84
179.871	1267.88
179.948	1284.25
180.024	1301.63
180.101	1323.56
180.177	1337.3
180.254	1358.95
180.33	1379.1
180.407	1424.2
180.483	1509.62
180.56	1593.85
180.636	1670.33
180.712	1655.6
180.789	1663.72
180.865	1675.03
180.942	1682.34
181.018	1696.07
181.095	1710.66
181.171	1716.13
181.248	1716.27
181.324	1731.76
181.4	1738.75
181.477	1746.12
181.553	1757.75
181.63	1777.67
181.706	1791.88
181.782	1798.24
181.859	1795.11
181.935	1799.91
182.011	1797.82
182.088	1816.64
182.164	1834.04
182.24	1849.77
182.317	1858.09
182.393	1853.91
182.469	1869.02
182.546	1881.05
182.622	1884.66
182.698	1878.1
182.775	1889.75
182.851	1904.58
182.927	1899.25
183.003	1894.45
183.08	1894.17
183.156	1903.82
183.232	1900.39
183.308	1888.94
183.385	1895.73
183.461	1913.89
183.537	1914.13
183.613	1925.68
183.69	1916.7
183.766	1903.9
183.842	1908.37
183.918	1916.41
183.995	1931.81
184.071	1934.33
184.147	1929.53
184.223	1920.26
184.299	1933.39
184.375	1921.64
184.452	1928.45
184.528	1981.86
184.604	1992.13
184.68	2001.97
184.756	2006.39
184.832	2012.2
184.908	2017.52
184.985	2018.09
185.061	2002.07
185.137	2012.1
185.213	2003.88
185.289	2004.73
185.365	2001.21
185.441	2001.74
185.517	2011.01
185.593	2007.97
185.669	2005.16
185.745	2015.1
185.822	2028.22
185.898	2022.51
185.974	2031.69
186.05	2023.74
186.126	1982.64
186.202	1975.51
186.278	1971.33
186.354	1963.72
186.43	1967.43
186.506	1965.62
186.582	1964.81
186.658	1972.89
186.734	1954.35
186.81	1954.26
186.886	1957.25
186.962	1968.66
187.038	1963.96
187.114	1957.3
187.19	1964.19
187.266	1955.26
187.341	1956.92
187.417	1951.98
187.493	1948.69
187.569	1950.69
187.645	1944.18
187.721	1932.43
187.797	1939.32
187.873	1941.56
187.949	1937.57
188.025	1932.38
188.101	1934.62
188.176	1941.51
188.252	1936.42
188.328	1944.08
188.404	1943.6
188.48	1938.89
188.556	1929.05
188.632	1927.1
188.707	1926.72
188.783	1921.25
188.859	1916.31
188.935	1905.04
189.011	1911.7
189.086	1906.14
189.162	1900.14
189.238	1898.34
189.314	1898.29
189.39	1894.01
189.465	1888.64
189.541	1904.43
189.617	1890.21
189.693	1885.6
189.768	1887.46
189.844	1912.81
189.92	1903.78
189.996	1912.05
190.071	1921.47
190.147	1921.51
190.223	1933.45
190.298	1924.51
190.374	1916.14
190.45	1926.5
190.526	1932.73
190.601	1928.88
190.677	1931.35
190.753	1958.8
190.828	1963.32
190.904	1977.02
190.98	1991.95
191.055	2002.22
191.131	1991.47
191.207	2013.34
191.282	2024.23
191.358	2012.77
191.433	1994.17
191.509	2005.53
191.585	2003.1
191.66	2004.82
191.736	2011.42
191.811	1999.63
191.887	2016.28
191.963	2036.96
192.038	2043.53
192.114	2045.62
192.189	2047.28
192.265	2042.39
192.34	2022.35
192.416	2017.27
192.491	2010.85
192.567	2012.27
192.642	2014.32
192.718	2016.55
192.793	2003.47
192.869	1996.3
192.944	2003.28
193.02	2015.41
193.095	2019.17
193.171	2025.45
193.246	2027.92
193.322	2025.3
193.397	2028.77
193.473	2016.5
193.548	1998.52
193.624	2002.9
193.699	1999.81
193.775	2015.56
193.85	2017.65
193.925	2020.6
194.001	2019.5
194.076	2014.27
194.152	2004.52
194.227	1996.48
194.302	1988.26
194.378	1992.87
194.453	1992.82
194.529	2001.67
194.604	1983.22
194.679	1978.23
194.755	1960.59
194.83	1970.63
194.905	1968.54
194.981	1976.95
195.056	1971.87
195.131	1979.81
195.207	1978
195.282	1969.06
195.357	1950.08
195.433	1963.35
195.508	1954.27
195.583	1964.35
195.659	1979.57
195.734	1987.51
195.809	1986.37
195.884	1992.69
195.96	1991.22
196.035	2006.86
196.11	2006.2
196.185	2021.27
196.261	2026.02
196.336	2054.41
196.411	2039.43
196.486	2045.66
196.561	2039.09
196.637	2045.89
196.712	2059.21
196.787	2063.64
196.862	2079.9
196.937	2090.89
197.013	2097.31
197.088	2107.77
197.163	2127.56
197.238	2141.46
197.313	2141.84
197.388	2156.45
197.464	2182.24
197.539	2194.27
197.614	2186.56
197.689	2196.13
197.764	2213.31
197.839	2230.67
197.914	2225.82
197.989	2246.99
198.065	2258.98
198.14	2303.64
198.215	2327.58
198.29	2337.86
198.365	2349.28
198.44	2360.04
198.515	2385.7
198.59	2399.45
198.665	2423.87
198.74	2432.97
198.815	2434.35
198.89	2455.3
198.965	2484.3
199.04	2485.78
199.115	2499.34
199.19	2536.28
199.265	2537.57
199.34	2544
199.415	2576.49
199.49	2595.58
199.565	2604.53
199.64	2628.15
199.715	2627.73
199.79	2633.82
199.865	2639.77
199.94	2636.78
200.015	2666.5
200.09	2671.03
200.165	2678.22
200.24	2685.37
200.315	2722.8
200.39	2734.33
200.464	2739.19
200.539	2741.33
200.614	2753.67
200.689	2777.73
200.764	2786.5
200.839	2804.36
200.914	2809.36
200.989	2800.16
201.063	2813.6
201.138	2796.27
201.213	2797.22
201.288	2779.73
201.363	2784.21
201.438	2786.07
201.512	2804.98
201.587	2786.44
201.662	2792.02
201.737	2804.26
201.812	2812.08
201.886	2780.65
201.961	2789.24
202.036	2776.57
202.111	2773.23
202.186	2746.99
202.26	2733.22
202.335	2713.59
202.41	2708.73
202.485	2692.11
202.559	2669.86
202.634	2645.8
202.709	2655.18
202.784	2638.23
202.858	2636.99
202.933	2620.27
203.008	2612.08
203.082	2592.6
203.157	2594.17
203.232	2554.03
203.306	2533.79
203.381	2502.97
203.456	2482.2
203.53	2462
203.605	2445.2
203.68	2422.58
203.754	2417.39
203.829	2401.25
203.904	2382.21
203.978	2371.06
204.053	2374.82
204.127	2365.5
204.202	2362.74
204.277	2347.79
204.351	2340.08
204.426	2331.99
204.5	2324.99
204.575	2295.02
204.65	2303.3
204.724	2296.58
204.799	2301.63
204.873	2298.86
204.948	2298.53
205.022	2288.16
205.097	2283.64
205.171	2295.53
205.246	2304.62
205.32	2303.63
205.395	2301.91
205.469	2291.92
205.544	2297.11
205.618	2280.55
205.693	2292.74
205.767	2283.46
205.842	2305.83
205.916	2303.17
205.991	2297.12
206.065	2303.26
206.14	2317.91
206.214	2314.43
206.289	2306.67
206.363	2320.57
206.438	2323.85
206.512	2330.23
206.586	2347.89
206.661	2351.46
206.735	2332.86
206.81	2332.67
206.884	2346.8
206.958	2335.24
207.033	2356.65
207.107	2365.89
207.181	2401.22
207.256	2397.79
207.33	2419.5
207.405	2430.69
207.479	2450.17
207.553	2459.21
207.628	2450.03
207.702	2469.31
207.776	2469.83
207.851	2482.83
207.925	2506.36
207.999	2514.03
208.073	2522.32
208.148	2536.37
208.222	2544.66
208.296	2590.03
208.371	2619.72
208.445	2648.02
208.519	2696.08
208.593	2725.52
208.668	2744.78
208.742	2769.29
208.816	2795.78
208.89	2836.83
208.965	2867.17
209.039	2906.7
209.113	2959.34
209.187	3019.05
209.261	3053.52
209.336	3114.9
209.41	3175.15
209.484	3223.55
209.558	3292.61
209.632	3361.8
209.707	3431.21
209.781	3508.36
209.855	3585.44
209.929	3669.47
210.003	3746.52
210.077	3818.9
210.151	3946.17
210.226	4055.04
210.3	4166.24
210.374	4283.12
210.448	4379.61
210.522	4488.92
210.596	4600.18
210.67	4713.9
210.744	4858.21
210.818	5001.73
210.892	5136.05
210.966	5249.47
211.041	5385.75
211.115	5510.79
211.189	5660.51
211.263	5805.46
211.337	5946.56
211.411	6094.56
211.485	6229
211.559	6380.83
211.633	6525.88
211.707	6642.22
211.781	6806.2
211.855	6927.98
211.929	7073.76
212.003	7216.97
212.077	7384.4
212.151	7558.47
212.225	7730.93
212.299	7898.33
212.373	8058.63
212.447	8230.48
212.52	8435.85
212.594	8617.71
212.668	8804.28
212.742	8971.6
212.816	9147.78
212.89	9327.69
212.964	9517.41
213.038	9707.06
213.112	9906.34
213.186	10115.6
213.26	10284.02
213.333	10430.23
213.407	10631.83
213.481	10821.4
213.555	11025.77
213.629	11215.97
213.703	11393.41
213.777	11579.14
213.85	11753.75
213.924	11975.5
213.998	12166.61
214.072	12347.51
214.146	12528.26
214.219	12715.38
214.293	12897.59
214.367	13093.19
214.441	13294.11
214.515	13469.81
214.588	13638.53
214.662	13792.69
214.736	13954.7
214.81	14137.45
214.883	14325.73
214.957	14490.45
215.031	14656.37
215.105	14811.25
215.178	14959.71
215.252	15136.33
215.326	15296.74
215.4	15440.15
215.473	15565.9
215.547	15707.75
215.621	15860.35
215.694	16017.62
215.768	16154.46
215.842	16298.48
215.915	16438
215.989	16561.39
216.063	16703.13
216.136	16844.49
216.21	16993.17
216.284	17152.21
216.357	17315.78
216.431	17455.83
216.504	17599.55
216.578	17761.72
216.652	17906.92
216.725	18050.2
216.799	18184.26
216.873	18318.52
216.946	18456.79
217.02	18581.31
217.093	18708.49
217.167	18813.93
217.24	18921.05
217.314	19041.43
217.387	19156.75
217.461	19263.93
217.535	19399.06
217.608	19510.47
217.682	19624.01
217.755	19742.56
217.829	19831.18
217.902	19917.73
217.976	20018.74
218.049	20107.8
218.123	20199.9
218.196	20295.94
218.27	20384.81
218.343	20469.2
218.417	20561.39
218.49	20647.71
218.563	20743.08
218.637	20836.97
218.71	20939.39
218.784	21031.68
218.857	21118.63
218.931	21212.61
219.004	21294.74
219.077	21380.97
219.151	21455.87
219.224	21530.92
219.298	21609.2
219.371	21692.25
219.444	21760.5
219.518	21836.46
219.591	21917.64
219.665	22008.36
219.738	22087.61
219.811	22152.3
219.885	22225.38
219.958	22292.87
220.031	22365.57
220.105	22440.68
220.178	22507.4
220.251	22565.16
220.325	22631.83
220.398	22692.58
220.471	22748.02
220.544	22818.7
220.618	22852.5
220.691	22902.45
220.764	22957.51
220.838	23008.18
220.911	23056.06
220.984	23126.89
221.057	23181.52
221.131	23220.82
221.204	23227.09
221.277	23285.1
221.35	23350.63
221.424	23377.63
221.497	23405.02
221.57	23437.52
221.643	23468.63
221.716	23503.54
221.79	23529.39
221.863	23560.98
221.936	23596.28
222.009	23622.9
222.082	23658.68
222.155	23683.62
222.229	23730.25
222.302	23761.46
222.375	23787.4
222.448	23817.21
222.521	23832.54
222.594	23839.49
222.667	23854.73
222.74	23890.13
222.814	23902.57
222.887	23912.07
222.96	23942.84
223.033	23980.71
223.106	23995.85
223.179	24014.61
223.252	24028.02
223.325	24055.71
223.398	24071.38
223.471	24086.38
223.544	24097.14
223.617	24089.42
223.69	24098.39
223.763	24092.26
223.837	24103.74
223.91	24113.39
223.983	24111.37
224.056	24109.82
224.129	24125.59
224.202	24151.06
224.275	24149.71
224.348	24138.91
224.42	24133.55
224.493	24119.56
224.566	24111.94
224.639	24123.9
224.712	24115.03
224.785	24112.09
224.858	24096.46
224.931	24092.55
225.004	24075.62
225.077	24083.19
225.15	24064.24
225.223	24065.83
225.296	24081.99
225.369	24063.95
225.442	24051.12
225.514	24045.62
225.587	24045.82
225.66	24037.42
225.733	24016.73
225.806	24005.06
225.879	24001.49
225.952	23983.07
226.025	23984.13
226.097	23992.91
226.17	23984.47
226.243	23957.8
226.316	23943.52
226.389	23937.44
226.461	23920.13
226.534	23915.45
226.607	23897.94
226.68	23912.75
226.753	23897.84
226.825	23855.59
226.898	23854.19
226.971	23835.05
227.044	23823.91
227.117	23807.41
227.189	23796.51
227.262	23795.84
227.335	23796.27
227.407	23764.3
227.48	23755.23
227.553	23738.83
227.626	23705.84
227.698	23696.29
227.771	23697.02
227.844	23662.78
227.916	23641.7
227.989	23611.85
228.062	23590.01
228.134	23595.02
228.207	23565.51
228.28	23553.45
228.352	23545.49
228.425	23524.66
228.498	23515.11
228.57	23479.38
228.643	23477.21
228.716	23463.51
228.788	23443.11
228.861	23416.54
228.934	23418.33
229.006	23398.41
229.079	23379.94
229.151	23359.11
229.224	23311.08
229.296	23296.52
229.369	23316.1
229.442	23325.89
229.514	23305.49
229.587	23295.8
229.659	23264.79
229.732	23256.98
229.804	23248.69
229.877	23253.46
229.949	23241.21
230.022	23245.17
230.094	23235.23
230.167	23216.96
230.239	23188.03
230.312	23160.45
230.384	23159.72
230.457	23142.03
230.529	23126.41
230.602	23116.95
230.674	23100.71
230.747	23086.19
230.819	23066.71
230.892	23008.08
230.964	22980.45
231.037	22967.63
231.109	22952.39
231.181	22933.78
231.254	22898.68
231.326	22864.69
231.399	22835.85
231.471	22811.75
231.544	22764.3
231.616	22754.9
231.688	22723.03
231.761	22695.21
231.833	22671.4
231.905	22628.44
231.978	22599.71
232.05	22572.61
232.122	22541.85
232.195	22509.98
232.267	22513.41
232.339	22484.29
232.412	22473.49
232.484	22439.98
232.556	22402.24
232.629	22386.18
232.701	22371.53
232.773	22354.8
232.846	22325.1
232.918	22290.01
232.99	22262.62
233.062	22247.29
233.135	22222.66
233.207	22191.04
233.279	22172.67
233.351	22151.65
233.424	22124.61
233.496	22084.46
233.568	22073.18
233.64	22035.05
233.713	22007.96
233.785	21978.94
233.857	21955.41
233.929	21927.79
234.001	21913.86
234.074	21909.96
234.146	21860.74
234.218	21819.58
234.29	21775.95
234.362	21741.63
234.434	21700.86
234.507	21655.55
234.579	21601.76
234.651	21563.82
234.723	21542.85
234.795	21513.07
234.867	21478.12
234.939	21457.2
235.012	21434.02
235.084	21401.82
235.156	21371.02
235.228	21330.92
235.3	21284.46
235.372	21246.72
235.444	21210.96
235.516	21150.81
235.588	21122.66
235.66	21096.39
235.732	21047.95
235.804	21074.66
235.876	21051.62
235.948	21027.42
236.02	20999.57
236.092	20963.95
236.164	20928.53
236.236	20879.32
236.308	20836.91
236.38	20801.05
236.452	20756.62
236.524	20725.68
236.596	20707.94
236.668	20689.24
236.74	20660.37
236.812	20627.17
236.884	20597.48
236.956	20565.33
237.028	20528.81
237.1	20470.59
237.172	20449.19
237.244	20434.39
237.316	20359.06
237.388	20316.46
237.46	20280.03
237.532	20255.84
237.604	20223.45
237.675	20203.21
237.747	20178.49
237.819	20146.1
237.891	20110.78
237.963	20069.38
238.035	20023.8
238.107	19951.99
238.178	19920.57
238.25	19872.28
238.322	19865.92
238.394	19815.56
238.466	19783.71
238.538	19757.59
238.609	19733.25
238.681	19676.05
238.753	19628.82
238.825	19593.55
238.897	19553.74
238.968	19537.16
239.04	19496.73
239.112	19478.28
239.184	19433.7
239.255	19398.23
239.327	19359.87
239.399	19325.85
239.471	19296.17
239.542	19276.41
239.614	19254.96
239.686	19196.32
239.758	19186.87
239.829	19133.38
239.901	19111.98
239.973	19067.36
240.044	19029.72
240.116	18991.94
240.188	18954.98
240.259	18928.72
240.331	18885.97
240.403	18862.6
240.474	18796.53
240.546	18759.96
240.618	18705.6
240.689	18666.42
240.761	18629.12
240.833	18603.44
240.904	18564.02
240.976	18525.03
241.048	18479.69
241.119	18445.52
241.191	18412.65
241.262	18384.99
241.334	18342.83
241.405	18306.63
241.477	18261.38
241.549	18227.46
241.62	18185.48
241.692	18164.52
241.763	18133.63
241.835	18099.66
241.906	18060.48
241.978	18018.65
242.049	17984.24
242.121	17962.79
242.192	17925.97
242.264	17872.63
242.335	17822.89
242.407	17795.76
242.478	17748.24
242.55	17717.3
242.621	17666.99
242.693	17634.46
242.764	17584.92
242.836	17545.89
242.907	17505.69
242.979	17478.46
243.05	17444.83
243.122	17428.1
243.193	17384.1
243.264	17313.69
243.336	17271.04
243.407	17242.75
243.479	17225.84
243.55	17190.46
243.622	17158.08
243.693	17132.58
243.764	17112.49
243.836	17061.74
243.907	17018.31
243.978	16989.4
244.05	16957.88
244.121	16913.63
244.192	16875.13
244.264	16831.36
244.335	16792.23
244.407	16750.2
244.478	16725.67
244.549	16689.57
244.62	16634.34
244.692	16601.81
244.763	16586.1
244.834	16552.99
244.906	16513.51
244.977	16486.04
245.048	16462.43
245.119	16417.7
245.191	16363.29
245.262	16313.64
245.333	16314.7
245.405	16280.53
245.476	16252.72
245.547	16220.67
245.618	16197.68
245.689	16173.15
245.761	16135.89
245.832	16103.16
245.903	16075.5
245.974	16041.52
246.045	16001.61
246.117	15987.77
246.188	15944.78
246.259	15900.63
246.33	15868.24
246.401	15833.97
246.473	15785.29
246.544	15740.8
246.615	15725.62
246.686	15696.84
246.757	15673.08
246.828	15614.37
246.899	15600.59
246.97	15553.06
247.042	15515.17
247.113	15490.93
247.184	15479.65
247.255	15447.16
247.326	15418.77
247.397	15385.66
247.468	15358.95
247.539	15328.97
247.61	15283.9
247.681	15250.3
247.752	15238.01
247.823	15196.27
247.894	15162.33
247.965	15115.24
248.037	15088.01
248.108	15033.87
248.179	15007.41
248.25	14974.44
248.321	14954.77
248.392	14907.73
248.463	14897.84
248.534	14859.33
248.605	14832
248.675	14797.73
248.746	14772.52
248.817	14749.86
248.888	14727.3
248.959	14673.5
249.03	14647.38
249.101	14618.17
249.172	14594.98
249.243	14535.98
249.314	14520.36
249.385	14492.16
249.456	14476.15
249.527	14441.3
249.598	14416.62
249.669	14386.44
249.739	14363.55
249.81	14332.93
249.881	14290.22
249.952	14266.56
250.023	14242.07
250.094	14197.86
250.165	14154.86
250.235	14126.66
250.306	14100.68
250.377	14063.03
250.448	14045.15
250.519	14003.98
250.59	13986.24
250.66	13955.92
250.731	13953.56
250.802	13921.31
250.873	13901.06
250.944	13873.92
251.014	13836.27
251.085	13836.51
251.156	13810.05
251.227	13804.31
251.297	13795.82
251.368	13792.26
251.439	13774.23
251.51	13753.93
251.58	13729.15
251.651	13698.5
251.722	13682.83
251.792	13640.65
251.863	13613.17
251.934	13604.4
252.005	13606.03
252.075	13581.88
252.146	13565.69
252.217	13548.24
252.287	13538.64
252.358	13511.6
252.429	13521.82
252.499	13500.51
252.57	13475.01
252.641	13469.22
252.711	13437.46
252.782	13397.35
252.852	13387.47
252.923	13355.94
252.994	13335.93
253.064	13319.21
253.135	13284.3
253.205	13255.96
253.276	13254.13
253.347	13247.72
253.417	13215.85
253.488	13184.08
253.558	13150.15
253.629	13120.21
253.699	13106.09
253.77	13088.83
253.841	13065.25
253.911	13033.34
253.982	13014.78
254.052	12999.89
254.123	12971.35
254.193	12942.18
254.264	12963.88
254.334	12929.12
254.405	12896.2
254.475	12871.13
254.546	12851.99
254.616	12844.28
254.687	12825.43
254.757	12800.17
254.827	12772.93
254.898	12756.54
254.968	12732.01
255.039	12712.29
255.109	12702.12
255.18	12667.41
255.25	12623.06
255.321	12603.98
255.391	12566.38
255.461	12562.47
255.532	12515.04
255.602	12492.82
255.673	12460.13
255.743	12424.17
255.813	12385.71
255.884	12379.15
255.954	12363.68
256.024	12358.13
256.095	12337.26
256.165	12311.23
256.235	12293.06
256.306	12274.4
256.376	12259.75
256.446	12246.16
256.517	12234.49
256.587	12225.04
256.657	12209.14
256.728	12193.95
256.798	12174.53
256.868	12153.99
256.938	12129.94
257.009	12113.21
257.079	12098.42
257.149	12101.64
257.219	12054.5
257.29	12047.61
257.36	12006.54
257.43	11994.78
257.5	11954.82
257.571	11936.75
257.641	11922.14
257.711	11889.56
257.781	11864.06
257.852	11852.83
257.922	11816.39
257.992	11798.61
258.062	11776.15
258.132	11758.41
258.202	11737.44
258.273	11717.39
258.343	11723.75
258.413	11694.4
258.483	11685.58
258.553	11651.41
258.623	11624.03
258.693	11614.15
258.764	11602.82
258.834	11603.5
258.904	11582.92
258.974	11560.36
259.044	11532.79
259.114	11516.45
259.184	11507.1
259.254	11489.37
259.324	11447.34
259.394	11443.73
259.464	11436.26
259.535	11413.56
259.605	11386.32
259.675	11362.32
259.745	11353.41
259.815	11317.98
259.885	11298.13
259.955	11303.86
260.025	11282.95
260.095	11265.69
260.165	11254.27
260.235	11248.01
260.305	11214.32
260.375	11182.61
260.445	11189.07
260.515	11191
260.585	11188.63
260.655	11165.89
260.725	11163.91
260.795	11158.8
260.865	11151
260.934	11119.91
261.004	11113.89
261.074	11108.73
261.144	11109.79
261.214	11101.84
261.284	11078.56
261.354	11075.48
261.424	11045.31
261.494	11048.3
261.564	11031.38
261.634	11019
261.703	10985.79
261.773	10987.62
261.843	10982.42
261.913	10957.89
261.983	10928.69
262.053	10913.89
262.123	10901.32
262.192	10865.56
262.262	10852.65
262.332	10823.74
262.402	10816.7
262.472	10794.87
262.541	10752.47
262.611	10742.5
262.681	10711.66
262.751	10700.91
262.821	10674.8
262.89	10644.58
262.96	10633.84
263.03	10638.17
263.1	10632.97
263.169	10613.79
263.239	10604.06
263.309	10603.05
263.379	10596.59
263.448	10581.7
263.518	10565.51
263.588	10548.99
263.657	10549.61
263.727	10551.73
263.797	10540.56
263.867	10519.79
263.936	10498.35
264.006	10502.93
264.076	10488.86
264.145	10475.37
264.215	10459.56
264.285	10455.42
264.354	10421.41
264.424	10400.55
264.494	10369.85
264.563	10344.61
264.633	10356.27
264.702	10341.96
264.772	10306.59
264.842	10281.11
264.911	10272.1
264.981	10252.25
265.05	10240.25
265.12	10223.97
265.19	10204.6
265.259	10193.86
265.329	10193.62
265.398	10179.45
265.468	10183.16
265.537	10163.36
265.607	10152.14
265.676	10144.43
265.746	10135.52
265.815	10140.91
265.885	10125.4
265.955	10104.4
266.024	10086.96
266.094	10048.95
266.163	10044.81
266.232	10053.14
266.302	10038.16
266.371	10032.43
266.441	10008.3
266.51	10001.22
266.58	9986.14
266.649	9967.11
266.719	9970.24
266.788	9956.18
266.858	9954.59
266.927	9919.18
266.996	9907.96
267.066	9900.88
267.135	9876.55
267.205	9870.73
267.274	9858.25
267.343	9852.42
267.413	9840.77
267.482	9844.57
267.552	9841.11
267.621	9809.75
267.69	9773.53
267.76	9768.62
267.829	9752.58
267.898	9742.56
267.968	9714.05
268.037	9705.52
268.106	9703.4
268.176	9671.23
268.245	9652.16
268.314	9637.56
268.384	9638.91
268.453	9626.15
268.522	9620.42
268.592	9623.74
268.661	9599.95
268.73	9592.15
268.799	9577.99
268.869	9583.72
268.938	9554.92
269.007	9543.6
269.076	9537.92
269.146	9539.94
269.215	9527.66
269.284	9531.37
269.353	9519.04
269.422	9512.25
269.492	9498.67
269.561	9459.28
269.63	9462.31
269.699	9447
269.768	9440.11
269.838	9431.45
269.907	9425.96
269.976	9399.47
270.045	9364.22
270.114	9360.08
270.183	9345.73
270.253	9333.74
270.322	9301.87
270.391	9286.75
270.46	9287.62
270.529	9277.84
270.598	9277.41
270.667	9263.73
270.736	9241.34
270.806	9241.39
270.875	9240.47
270.944	9225.84
271.013	9244.81
271.082	9230.84
271.151	9231.81
271.22	9202.53
271.289	9191.12
271.358	9181.11
271.427	9177.69
271.496	9167.82
271.565	9153.71
271.634	9144.33
271.703	9147.12
271.772	9151.02
271.841	9142.59
271.91	9115.78
271.979	9118.38
272.048	9092.38
272.117	9098.68
272.186	9085.73
272.255	9083.66
272.324	9087.08
272.393	9087.08
272.462	9067.2
272.531	9057.37
272.6	9041.97
272.669	9044.52
272.738	9028.54
272.807	9022.66
272.876	9002.3
272.945	9033.26
273.013	9037.16
273.082	9043.51
273.151	9020.11
273.22	9020.4
273.289	9011.59
273.358	9027.77
273.427	9010.77
273.496	9010
273.564	9001.05
273.633	8998.5
273.702	8978.71
273.771	8963.45
273.84	8956.42
273.909	8951.8
273.977	8950.02
274.046	8939.67
274.115	8941.74
274.184	8930.72
274.253	8919.45
274.322	8926
274.39	8896.73
274.459	8879.11
274.528	8851.29
274.597	8844.74
274.665	8836.94
274.734	8843.44
274.803	8827.8
274.872	8821.39
274.94	8806.76
275.009	8860.46
275.078	8851.07
275.147	8847.08
275.215	8837.64
275.284	8842.75
275.353	8832.06
275.421	8810.74
275.49	8826.62
275.559	8814.59
275.627	8808.29
275.696	8803.28
275.765	8799.48
275.833	8787.83
275.902	8787.35
275.971	8794.71
276.039	8807.81
276.108	8804.39
276.177	8799.19
276.245	8788.36
276.314	8785.71
276.383	8793.75
276.451	8728.74
276.52	8730.91
276.588	8743.37
276.657	8748.91
276.725	8738.17
276.794	8740.73
276.863	8747.94
276.931	8729.89
277	8740.29
277.068	8746.64
277.137	8760.22
277.205	8760.36
277.274	8777.54
277.342	8783.03
277.411	8764.74
277.48	8750.45
277.548	8743.32
277.617	8747.51
277.685	8740.97
277.754	8740.92
277.822	8732.45
277.89	8748.77
277.959	8740.83
278.027	8722.01
278.096	8711.47
278.164	8733.46
278.233	8725.81
278.301	8713.73
278.37	8712.29
278.438	8703.58
278.507	8708.53
278.575	8685.29
278.643	8681.15
278.712	8663.58
278.78	8651.02
278.849	8664.54
278.917	8676.72
278.985	8668.49
279.054	8665.17
279.122	8678.45
279.191	8675.22
279.259	8668.58
279.327	8643.89
279.396	8653.08
279.464	8646.25
279.532	8655.25
279.601	8651.16
279.669	8645.91
279.737	8657.17
279.806	8660.49
279.874	8660.73
279.942	8654.29
280.011	8651.78
280.079	8655.39
280.147	8672.48
280.215	8672.24
280.284	8665.02
280.352	8648.32
280.42	8655.87
280.488	8648.41
280.557	8645.57
280.625	8651.73
280.693	8656.21
280.761	8662.03
280.83	8649.42
280.898	8660.97
280.966	8637.49
281.034	8607.17
281.102	8593.98
281.171	8591.86
281.239	8600.43
281.307	8597.06
281.375	8583.78
281.443	8606.98
281.512	8608.38
281.58	8611.99
281.648	8597.74
281.716	8593.56
281.784	8594.42
281.852	8590.91
281.92	8583.45
281.989	8589.27
282.057	8571.18
282.125	8608.34
282.193	8603.48
282.261	8601.61
282.329	8593.09
282.397	8603.58
282.465	8607.57
282.533	8623.69
282.601	8612.72
282.67	8591.59
282.738	8583.7
282.806	8597.17
282.874	8579.36
282.942	8577.87
283.01	8567.42
283.078	8578.2
283.146	8578.3
283.214	8592.02
283.282	8594.66
283.35	8616.08
283.418	8608.48
283.486	8614.2
283.554	8574.01
283.622	8568.91
283.69	8570.16
283.758	8567.27
283.826	8565.87
283.894	8570.69
283.962	8589.7
284.03	8601.73
284.098	8602.07
284.165	8601.06
284.233	8601.92
284.301	8596
284.369	8592.44
284.437	8585.13
284.505	8583.15
284.573	8597.98
284.641	8582.29
284.709	8587.92
284.777	8566.5
284.845	8568.23
284.912	8574.15
284.98	8577.95
285.048	8577.28
285.116	8585.37
285.184	8598.98
285.252	8599.08
285.319	8583.63
285.387	8573.81
285.455	8563.08
285.523	8570.49
285.591	8565.06
285.659	8567.61
285.726	8584.07
285.794	8564.43
285.862	8562.61
285.93	8557.41
285.997	8553.22
286.065	8541.29
286.133	8530.07
286.201	8528.05
286.269	8520.3
286.336	8508.37
286.404	8501.44
286.472	8508.13
286.539	8483.35
286.607	8462.9
286.675	8464.29
286.743	8477.86
286.81	8470.26
286.878	8476.23
286.946	8465.49
287.013	8465.35
287.081	8456.88
287.149	8444.22
287.216	8463.57
287.284	8459.72
287.352	8460.25
287.419	8454.23
287.487	8475.21
287.555	8476.51
287.622	8478.72
287.69	8480.36
287.758	8491.57
287.825	8491.86
287.893	8484.31
287.96	8489.74
288.028	8506.3
288.096	8510.1
288.163	8510.68
288.231	8500.09
288.298	8499.99
288.366	8515.97
288.433	8509.86
288.501	8505.14
288.569	8501.49
288.636	8498.21
288.704	8514.53
288.771	8522.9
288.839	8515.78
288.906	8512.46
288.974	8522.42
289.041	8517.8
289.109	8511.84
289.176	8517.23
289.244	8519.63
289.311	8527.43
289.379	8540.28
289.446	8539.26
289.514	8538.98
289.581	8543.16
289.649	8547.25
289.716	8552.69
289.783	8542.3
289.851	8565.88
289.918	8573.91
289.986	8584.4
290.053	8589.26
290.121	8587.15
290.188	8590.03
290.255	8618.19
290.323	8608.47
290.39	8604.9
290.458	8613.81
290.525	8624.39
290.592	8620.01
290.66	8619.2
290.727	8611.35
290.794	8626.13
290.862	8626.03
290.929	8626.61
290.996	8618.52
291.064	8628.1
291.131	8643.02
291.198	8654.38
291.266	8643.98
291.333	8639.65
291.4	8645.09
291.468	8659.34
291.535	8650.97
291.602	8653.04
291.669	8644.47
291.737	8651.11
291.804	8641.53
291.871	8654.48
291.938	8655.68
292.006	8682.3
292.073	8701.36
292.14	8712.96
292.207	8710.5
292.275	8715.03
292.342	8725.62
292.409	8754.5
292.476	8774.33
292.543	8765.71
292.611	8765.62
292.678	8794.16
292.745	8821.5
292.812	8833.58
292.879	8829.25
292.946	8837.72
293.014	8847.49
293.081	8861.55
293.148	8877.24
293.215	8901.21
293.282	8899.28
293.349	8904.82
293.416	8890.42
293.484	8896.05
293.551	8912.08
293.618	8926.14
293.685	8949.49
293.752	8947.71
293.819	8944.14
293.886	8936.97
293.953	8934.85
294.02	8948.43
294.087	8951.61
294.154	8940.87
294.221	8949.34
294.288	8950.26
294.356	8966.77
294.423	8977.99
294.49	8963.16
294.557	8978.42
294.624	8972.21
294.691	8990.99
294.758	8999.7
294.825	9001.77
294.892	8997.15
294.959	8990.94
295.026	8990.6
295.093	8980.68
295.16	8980.11
295.226	8974.04
295.293	8995.61
295.36	9000.71
295.427	9015.4
295.494	9027.15
295.561	9033.11
295.628	9059.46
295.695	9073.56
295.762	9078.91
295.829	9085.02
295.896	9111.26
295.963	9119.73
296.03	9130.66
296.096	9133.02
296.163	9146.21
296.23	9165.13
296.297	9175.63
296.364	9178.85
296.431	9185.5
296.498	9188.05
296.564	9211.3
296.631	9221.46
296.698	9204.75
296.765	9229.35
296.832	9212.6
296.899	9199.16
296.965	9223.53
297.032	9201.71
297.099	9216.4
297.166	9223.09
297.233	9221.69
297.299	9215.87
297.366	9211.24
297.433	9210.52
297.5	9224.25
297.566	9224.58
297.633	9222.8
297.7	9229.64
297.767	9232.53
297.833	9235.46
297.9	9234.21
297.967	9218.76
298.033	9231.42
298.1	9263.25
298.167	9257.33
298.234	9264.4
298.3	9272.59
298.367	9268.69
298.434	9276.88
298.5	9267.77
298.567	9266.52
298.634	9264.84
298.7	9274.71
298.767	9278.56
298.834	9296.66
298.9	9282.22
298.967	9274.95
299.033	9284.82
299.1	9299.31
299.167	9306.58
299.233	9309.28
299.3	9324.54
299.366	9342.98
299.433	9358.39
299.5	9332.01
299.566	9336.05
299.633	9356.13
299.699	9367.83
299.766	9365.38
299.832	9368.27
299.899	9381.17
299.965	9388.15
300.032	9386.76
300.099	9395.09
300.165	9397.98
300.232	9390.99
300.298	9391.28
300.365	9400.48
300.431	9404.38
300.498	9396.34
300.564	9409.92
300.631	9421.14
300.697	9436.12
300.763	9433.85
300.83	9425.95
300.896	9441.31
300.963	9442.37
301.029	9444.97
301.096	9445.07
301.162	9462.02
301.229	9461.2
301.295	9444.16
301.361	9450.75
301.428	9454.8
301.494	9445.07
301.561	9450.9
301.627	9452.82
301.693	9456.92
301.76	9462.21
301.826	9450.85
301.892	9459.85
301.959	9463.08
302.025	9457.4
302.092	9447.19
302.158	9454.41
302.224	9457.4
302.291	9449.36
302.357	9449.02
302.423	9434.81
302.49	9429.13
302.556	9434.81
302.622	9432.07
302.688	9447.91
302.755	9458.89
302.821	9464.86
302.887	9470.79
302.954	9467.61
303.02	9480.8
303.086	9491.25
303.152	9494.86
303.219	9497.99
303.285	9502.09
303.351	9513.65
303.417	9514.51
303.483	9509.79
303.55	9502.04
303.616	9502.23
303.682	9499.25
303.748	9495.97
303.815	9511.91
303.881	9518.46
303.947	9499.44
304.013	9503.49
304.079	9495.01
304.145	9472.33
304.212	9471.41
304.278	9464.67
304.344	9462.07
304.41	9447.29
304.476	9437.75
304.542	9429.37
304.608	9428.6
304.674	9413.38
304.741	9401.2
304.807	9405.29
304.873	9411.02
304.939	9425.76
305.005	9404.96
305.071	9408.28
305.137	9411.84
305.203	9394.27
305.269	9389.64
305.335	9403.85
305.401	9397.44
305.467	9391.47
305.533	9400.43
305.599	9405.82
305.666	9410.73
305.732	9409.19
305.798	9418.01
305.864	9442.28
305.93	9445.84
305.996	9441.12
306.062	9446.28
306.128	9441.7
306.194	9426.92
306.259	9419.12
306.325	9411.03
306.391	9427.88
306.457	9428.7
306.523	9426.87
306.589	9441.56
306.655	9432.84
306.721	9409.29
306.787	9402.84
306.853	9419.74
306.919	9397.35
306.985	9392.3
307.051	9383.72
307.117	9375.2
307.183	9368.85
307.248	9336.24
307.314	9339.66
307.38	9346.89
307.446	9348.14
307.512	9337.98
307.578	9342.46
307.644	9337.26
307.709	9331.86
307.775	9328.06
307.841	9325.6
307.907	9328.78
307.973	9311.49
308.039	9310.1
308.104	9320.74
308.17	9317.99
308.236	9301.96
308.302	9307.93
308.368	9296.76
308.433	9297.09
308.499	9296.9
308.565	9283.61
308.631	9287.37
308.696	9260.89
308.762	9247.26
308.828	9247.5
308.894	9234.36
308.959	9215.29
309.025	9213.46
309.091	9217.26
309.156	9201.95
309.222	9202.92
309.288	9189.39
309.354	9175.09
309.419	9174.12
309.485	9156.26
309.551	9160.31
309.616	9145.57
309.682	9148.9
309.748	9140.28
309.813	9132.72
309.879	9120.39
309.945	9117.46
310.01	9114.86
310.076	9119.09
310.141	9112.84
310.207	9092.85
310.273	9098.15
310.338	9103.54
310.404	9083.95
310.469	9065.6
310.535	9058.38
310.601	9037.58
310.666	9040.23
310.732	9044.9
310.797	9031.13
310.863	9017.7
310.928	9006.15
310.994	9006.24
311.059	8998.2
311.125	8996.08
311.191	9008.12
311.256	8998.16
311.322	8999.65
311.387	8982.61
311.453	9363.68
311.518	9342.83
311.584	9345.63
311.649	9343.6
311.715	9327.96
311.78	9324.73
311.846	9318.77
311.911	9324.59
311.976	9323.24
312.042	9311.78
312.107	9299.51
312.173	9295.32
312.238	9297.49
312.304	9288.49
312.369	9284.1
312.434	9272.46
312.5	9263.5
312.565	9234.47
312.631	9239.43
312.696	9226.29
312.761	9228.5
312.827	8842.77
312.892	8873.04
312.958	8864.09
313.023	8858.99
313.088	8858.36
313.154	8855.52
313.219	8845.37
313.284	8832.8
313.35	8828.66
313.415	8815.47
313.48	8811.43
313.546	8816.44
313.611	8821.92
313.676	8819.66
313.741	8809.36
313.807	8818.65
313.872	8823.75
313.937	8826.31
314.003	8836.17
314.068	8840.55
314.133	8841.71
314.198	8827.61
314.264	8806.47
314.329	8793.33
314.394	8788.18
314.459	8784.14
314.525	8798.72
314.59	8793.38
314.655	8785.87
314.72	8797.04
314.785	8802.72
314.851	8793.33
314.916	8766.14
314.981	8752.23
315.046	8740.01
315.111	8733.56
315.176	8719.07
315.242	8719.17
315.307	8718.88
315.372	8697.89
315.437	8680.95
315.502	8668.96
315.567	8679.02
315.632	8670.41
315.698	8679.07
315.763	8677.15
315.828	8667.04
315.893	8661.36
315.958	8656.16
316.023	8643.27
316.088	8615.93
316.153	8596.44
316.218	8589.7
316.283	8579.74
316.348	8560.16
316.413	8557.56
316.479	8538.51
316.544	8500.88
316.609	8471.19
316.674	8435.92
316.739	8403.06
316.804	8375.06
316.869	8345.61
316.934	8303.17
316.999	8270.27
317.064	8214.99
317.129	8166.54
317.194	8132.87
317.259	8082.06
317.324	8037.04
317.389	7991.88
317.454	7959.65
317.518	7922.57
317.583	7895.29
317.648	7871.82
317.713	7835.61
317.778	7779.24
317.843	7749.62
317.908	7715.68
317.973	7677.59
318.038	7646.14
318.103	7607.39
318.168	7573.35
318.233	7538.64
318.297	7491.77
318.362	7458.26
318.427	7423.9
318.492	7401.06
318.557	7353.24
318.622	7327.24
318.687	7298.88
318.751	7264.38
318.816	7228.86
318.881	7194.45
318.946	7138.95
319.011	7090.03
319.075	7049.24
319.14	7012.97
319.205	6968.33
319.27	6931.2
319.335	6884.36
319.399	6842.76
319.464	6816.97
319.529	6768.41
319.594	6731.66
319.658	6704.43
319.723	6661.45
319.788	6630.76
319.853	6576.11
319.917	6547.59
319.982	6497.6
320.047	6461.97
320.112	6431.92
320.176	6380.12
320.241	6342.14
320.306	6317.61
320.37	6277.54
320.435	6246.87
320.5	6217.93
320.564	6180.31
320.629	6144.99
320.694	6116.11
320.758	6071.54
320.823	6023.7
320.888	5994.87
320.952	5941.38
321.017	5896.39
321.082	5860.51
321.146	5824.96
321.211	5792.78
321.275	5753.75
321.34	5703.12
321.405	5657.56
321.469	5611.01
321.534	5569.26
321.598	5520.31
321.663	5485.11
321.727	5458.08
321.792	5412.45
321.857	5366.81
321.921	5327.71
321.986	5282.34
322.05	5224.99
322.115	5191.83
322.179	5148.63
322.244	5095.22
322.308	5064.43
322.373	5023.48
322.437	4978.45
322.502	4950.76
322.566	4904.07
322.631	4867.91
322.695	4831.49
322.76	4787.64
322.824	4757.77
322.889	4718.14
322.953	4674.7
323.018	4608.6
323.082	4545.01
323.146	4495.78
323.211	4443.92
323.275	4398.28
323.34	4354.77
323.404	4321.39
323.468	4274.51
323.533	4234.25
323.597	4190.23
323.662	4139.98
323.726	4102.35
323.79	4057.32
323.855	3991.37
323.919	3944.83
323.983	3899.7
324.048	3834.52
324.112	3963.2
324.177	3830.77
324.241	3630.89
324.305	3434.74
324.37	3245.38
324.434	3058.74
324.498	3014.67
324.562	2968.13
324.627	2911.24
324.691	2858.45
324.755	2792.86
324.82	2721.73
324.884	2644.1
324.948	2572.96
325.012	2481.02
325.077	2361.33
