Data from 20250702_urea_0.5M_MAYP1162681_13-44-59-622.txt Node
Date: Wed Jul 02 13:44:59 BST 2025
User: adleo
Spectrometer: MAYP116268
Trigger mode: 0
Integration Time (sec): 1.000000E0
Scans to average: 1
Electric dark correction enabled: true
Nonlinearity correction enabled: true
Boxcar width: 10
XAxis mode: Wavelengths
Number of Pixels in Spectrum: 2068
>>>>>Begin Spectral Data<<<<<
179.565	1115.62
179.642	1163.59
179.718	1203.41
179.795	1239.96
179.871	1269.25
179.948	1283.47
180.024	1303.82
180.101	1324.62
180.177	1339.35
180.254	1359.63
180.33	1380.18
180.407	1426.46
180.483	1514.82
180.56	1597.25
180.636	1673.92
180.712	1660.09
180.789	1669.44
180.865	1680.65
180.942	1690.82
181.018	1700.18
181.095	1708.45
181.171	1713.82
181.248	1716.29
181.324	1729.5
181.4	1736.54
181.477	1745.38
181.553	1760.67
181.63	1775.97
181.706	1790.66
181.782	1796.98
181.859	1796.93
181.935	1802.4
182.011	1801.73
182.088	1817.42
182.164	1835.2
182.24	1850.03
182.317	1859.91
182.393	1860.15
182.469	1874.74
182.546	1885.44
182.622	1889.67
182.698	1888.72
182.775	1897.8
182.851	1911.01
182.927	1905.5
183.003	1899.56
183.08	1897.51
183.156	1903.36
183.232	1902.88
183.308	1893.61
183.385	1900.65
183.461	1916.19
183.537	1915.05
183.613	1925.42
183.69	1918.28
183.766	1910.34
183.842	1915.05
183.918	1918.47
183.995	1931.26
184.071	1932.97
184.147	1931.36
184.223	1921.38
184.299	1931.74
184.375	1922.81
184.452	1929.13
184.528	1982.5
184.604	1992.38
184.68	2002.51
184.756	2011.36
184.832	2015.4
184.908	2018.01
184.985	2017.68
185.061	2004.46
185.137	2016.3
185.213	2005.18
185.289	2005.03
185.365	1997.67
185.441	1996.95
185.517	2010.51
185.593	2005.99
185.669	2005.14
185.745	2012.93
185.822	2029.95
185.898	2021.77
185.974	2030.85
186.05	2023.53
186.126	1983.1
186.202	1976.3
186.278	1971.83
186.354	1962.41
186.43	1967.88
186.506	1968.4
186.582	1967.6
186.658	1970.16
186.734	1949.91
186.81	1950.96
186.886	1953.95
186.962	1964.79
187.038	1961.41
187.114	1953.04
187.19	1961.55
187.266	1949.67
187.341	1949.91
187.417	1940.64
187.493	1939.64
187.569	1942.21
187.645	1934.5
187.721	1924.76
187.797	1931.46
187.873	1933.46
187.949	1928.42
188.025	1922.61
188.101	1925.28
188.176	1928.6
188.252	1927.42
188.328	1935.21
188.404	1934.5
188.48	1929.51
188.556	1923.32
188.632	1923.37
188.707	1923.94
188.783	1914.76
188.859	1912.72
188.935	1902.59
189.011	1912.86
189.086	1908.63
189.162	1899.88
189.238	1900.55
189.314	1897.55
189.39	1893.8
189.465	1890.99
189.541	1906.54
189.617	1892.33
189.693	1887.2
189.768	1891.09
189.844	1916.06
189.92	1907.13
189.996	1915.74
190.071	1926.77
190.147	1925.67
190.223	1933.28
190.298	1927.05
190.374	1918.97
190.45	1930.28
190.526	1936.42
190.601	1927.91
190.677	1928.71
190.753	1954.4
190.828	1958.3
190.904	1973.56
190.98	1988.69
191.055	1995.58
191.131	1988.83
191.207	2008.46
191.282	2016.59
191.358	2010.51
191.433	1995.14
191.509	2008.73
191.585	2007.35
191.66	2007.16
191.736	2014.67
191.811	2008.21
191.887	2020.67
191.963	2045.63
192.038	2050.49
192.114	2052.77
192.189	2057.14
192.265	2056.33
192.34	2038.83
192.416	2038.54
192.491	2033.07
192.567	2033.59
192.642	2036.68
192.718	2035.5
192.793	2024.89
192.869	2021.66
192.944	2021.8
193.02	2028.32
193.095	2030.79
193.171	2033.45
193.246	2033.64
193.322	2032.98
193.397	2033.02
193.473	2021.32
193.548	2001.02
193.624	2003.01
193.699	2001.49
193.775	2016.71
193.85	2014.29
193.925	2017.48
194.001	2012.48
194.076	2008.01
194.152	1996.5
194.227	1988.28
194.302	1978.44
194.378	1980.72
194.453	1977.68
194.529	1991.47
194.604	1976.68
194.679	1972.88
194.755	1956.43
194.83	1967.85
194.905	1964.04
194.981	1972.75
195.056	1965.71
195.131	1973.75
195.207	1975.89
195.282	1966.52
195.357	1949.02
195.433	1967.04
195.508	1960.09
195.583	1972.12
195.659	1984.68
195.734	1995.86
195.809	1999.71
195.884	2009.93
195.96	2012.35
196.035	2025.91
196.11	2019.29
196.185	2031.66
196.261	2035.46
196.336	2064.94
196.411	2050.96
196.486	2055.28
196.561	2049.43
196.637	2057.18
196.712	2070.88
196.787	2071.74
196.862	2086.39
196.937	2097.75
197.013	2101.23
197.088	2111.12
197.163	2128.11
197.238	2145.58
197.313	2143.91
197.388	2153.28
197.464	2178.98
197.539	2187.92
197.614	2179.69
197.689	2193.54
197.764	2206.86
197.839	2223.75
197.914	2218.57
197.989	2239.5
198.065	2254.06
198.14	2297.39
198.215	2326.08
198.29	2334.61
198.365	2350.36
198.44	2359.35
198.515	2385.06
198.59	2400.58
198.665	2423.19
198.74	2432.67
198.815	2432.76
198.89	2453.04
198.965	2481.42
199.04	2478.95
199.115	2494.46
199.19	2538.98
199.265	2542.12
199.34	2552.79
199.415	2586.95
199.49	2607.7
199.565	2615.28
199.64	2635.61
199.715	2636.04
199.79	2642.76
199.865	2652.33
199.94	2647.85
200.015	2676.67
200.09	2679.06
200.165	2684.53
200.24	2690.73
200.315	2727.15
200.39	2742.21
200.464	2748.93
200.539	2751.17
200.614	2766.75
200.689	2788.62
200.764	2793.29
200.839	2808.29
200.914	2813.01
200.989	2801.47
201.063	2814.48
201.138	2798.58
201.213	2798.1
201.288	2783.04
201.363	2789.09
201.438	2788.19
201.512	2805.38
201.587	2791.9
201.662	2796.47
201.737	2808.1
201.812	2817.63
201.886	2782.54
201.961	2788.21
202.036	2777.3
202.111	2773.54
202.186	2746.35
202.26	2728.52
202.335	2709.65
202.41	2705.22
202.485	2689.98
202.559	2670.64
202.634	2642.68
202.709	2649.87
202.784	2635.01
202.858	2630.39
202.933	2610.19
203.008	2605.76
203.082	2586.05
203.157	2583.71
203.232	2545.15
203.306	2525.04
203.381	2496.6
203.456	2481.27
203.53	2459.07
203.605	2441.46
203.68	2419.17
203.754	2412.27
203.829	2400.56
203.904	2378.71
203.978	2368.95
204.053	2371.71
204.127	2359.52
204.202	2361.66
204.277	2347.82
204.351	2342.06
204.426	2336.11
204.5	2328.87
204.575	2296.8
204.65	2306.18
204.724	2302.27
204.799	2306.51
204.873	2304.41
204.948	2301.32
205.022	2286.52
205.097	2278.81
205.171	2289.8
205.246	2297.51
205.32	2297.8
205.395	2294.7
205.469	2288
205.544	2291.19
205.618	2278
205.693	2289.95
205.767	2276.01
205.842	2298.67
205.916	2291
205.991	2283.15
206.065	2286.86
206.14	2299.85
206.214	2297.13
206.289	2288.13
206.363	2304.46
206.438	2307.12
206.512	2315.12
206.586	2338.77
206.661	2349.15
206.735	2332.46
206.81	2337.03
206.884	2353.73
206.958	2348.69
207.033	2367.53
207.107	2377.24
207.181	2411.1
207.256	2409.39
207.33	2434.66
207.405	2450.72
207.479	2476.81
207.553	2488.19
207.628	2480.67
207.702	2499.95
207.776	2501.09
207.851	2515.66
207.925	2536.67
207.999	2540.62
208.073	2550.58
208.148	2563.53
208.222	2566.15
208.296	2610.67
208.371	2637.6
208.445	2665.81
208.519	2709.39
208.593	2739.93
208.668	2761.34
208.742	2786.42
208.816	2812.91
208.89	2854.83
208.965	2886.32
209.039	2921.7
209.113	2975.06
209.187	3033.39
209.261	3068.62
209.336	3132.68
209.41	3193.27
209.484	3245.64
209.558	3321.56
209.632	3387.56
209.707	3454.58
209.781	3536.84
209.855	3612.83
209.929	3697.52
210.003	3777.07
210.077	3851.85
210.151	3977.25
210.226	4093.94
210.3	4205.1
210.374	4321.17
210.448	4418.68
210.522	4526.47
210.596	4638.4
210.67	4750.84
210.744	4902.73
210.818	5051.24
210.892	5186.84
210.966	5304.2
211.041	5442.23
211.115	5566.85
211.189	5722.48
211.263	5875.16
211.337	6024.92
211.411	6182.83
211.485	6331.07
211.559	6486.48
211.633	6647.36
211.707	6774.91
211.781	6938.11
211.855	7066.49
211.929	7219.69
212.003	7371.37
212.077	7547.14
212.151	7734.99
212.225	7922.24
212.299	8093.81
212.373	8262.36
212.447	8438.23
212.52	8652.4
212.594	8841.3
212.668	9044.51
212.742	9226.2
212.816	9412.76
212.89	9596.84
212.964	9795.99
213.038	9986.48
213.112	10199.77
213.186	10410.84
213.26	10587.63
213.333	10742.72
213.407	10946.89
213.481	11157.39
213.555	11367.9
213.629	11558.88
213.703	11739.76
213.777	11940.69
213.85	12121.48
213.924	12354.47
213.998	12562.94
214.072	12756.04
214.146	12943.5
214.219	13137.9
214.293	13325.08
214.367	13523.44
214.441	13726.09
214.515	13898.9
214.588	14080.24
214.662	14236.86
214.736	14406.83
214.81	14607.31
214.883	14797.33
214.957	14977.13
215.031	15144.3
215.105	15303.08
215.178	15470.58
215.252	15650.75
215.326	15805.96
215.4	15953.98
215.473	16076.6
215.547	16217.82
215.621	16374.79
215.694	16548.73
215.768	16686.72
215.842	16836.95
215.915	16980.04
215.989	17112.38
216.063	17254.41
216.136	17397.25
216.21	17543.52
216.284	17702.46
216.357	17856.1
216.431	18003.37
216.504	18164.19
216.578	18326.69
216.652	18481.53
216.725	18618.54
216.799	18759.45
216.873	18881.8
216.946	19029.22
217.02	19152.01
217.093	19282.89
217.167	19385.35
217.24	19489.05
217.314	19610.06
217.387	19733.81
217.461	19850.77
217.535	19981.9
217.608	20091.01
217.682	20202.38
217.755	20333.85
217.829	20423.59
217.902	20523.54
217.976	20629.57
218.049	20715.11
218.123	20799.02
218.196	20903.99
218.27	20990.79
218.343	21072
218.417	21177.84
218.49	21263.92
218.563	21367.93
218.637	21460.62
218.71	21568.64
218.784	21665.57
218.857	21759.76
218.931	21835.96
219.004	21917.43
219.077	21997.11
219.151	22084.89
219.224	22157.77
219.298	22229.75
219.371	22315.7
219.444	22378.66
219.518	22449.96
219.591	22515.62
219.665	22617.06
219.738	22678.63
219.811	22750.94
219.885	22823.46
219.958	22895.88
220.031	22960.1
220.105	23035.22
220.178	23101.32
220.251	23155.96
220.325	23218.84
220.398	23278.34
220.471	23334.76
220.544	23388.67
220.618	23440.84
220.691	23492
220.764	23561.49
220.838	23609.91
220.911	23661.18
220.984	23725.08
221.057	23775.52
221.131	23815.84
221.204	23829.63
221.277	23884.9
221.35	23941.91
221.424	23974.7
221.497	24011.6
221.57	24046.42
221.643	24068.85
221.716	24101.36
221.79	24121.43
221.863	24149.89
221.936	24178.35
222.009	24205.93
222.082	24238.88
222.155	24258.8
222.229	24310.17
222.302	24323.39
222.375	24338.78
222.448	24373.85
222.521	24390.93
222.594	24404.48
222.667	24421.41
222.74	24450.45
222.814	24468.59
222.887	24469.41
222.96	24489.87
223.033	24501.44
223.106	24522.76
223.179	24555.72
223.252	24577.52
223.325	24606.18
223.398	24610.62
223.471	24615.01
223.544	24619.54
223.617	24631.94
223.69	24638.79
223.763	24625.33
223.837	24632.32
223.91	24641.59
223.983	24616.98
224.056	24612.83
224.129	24620.07
224.202	24636.23
224.275	24629.57
224.348	24612.93
224.42	24610.71
224.493	24603.57
224.566	24595.32
224.639	24591.65
224.712	24575.01
224.785	24548.04
224.858	24532.12
224.931	24523.48
225.004	24509.06
225.077	24522.08
225.15	24494.54
225.223	24485.28
225.296	24499.03
225.369	24480.7
225.442	24471.19
225.514	24467.43
225.587	24459.47
225.66	24454.31
225.733	24445.33
225.806	24430.04
225.879	24423.58
225.952	24404.77
226.025	24399.41
226.097	24408
226.17	24396.81
226.243	24365.31
226.316	24357.06
226.389	24335.84
226.461	24317.89
226.534	24308.68
226.607	24287.26
226.68	24293.72
226.753	24282.73
226.825	24236.66
226.898	24238.83
226.971	24221.03
227.044	24207.91
227.117	24194.21
227.189	24184.71
227.262	24172.6
227.335	24157.5
227.407	24128.56
227.48	24116.6
227.553	24100.59
227.626	24067.45
227.698	24045.02
227.771	24034.36
227.844	24006.39
227.916	24003.35
227.989	23979.18
228.062	23969.59
228.134	23969.2
228.207	23953.33
228.28	23926.08
228.352	23899.36
228.425	23871
228.498	23855.43
228.57	23823.98
228.643	23812.31
228.716	23773.24
228.788	23753.71
228.861	23734.18
228.934	23735.82
229.006	23715.56
229.079	23688.99
229.151	23665.84
229.224	23630.49
229.296	23616.99
229.369	23625.53
229.442	23621.23
229.514	23597.22
229.587	23575.37
229.659	23530.23
229.732	23510.36
229.804	23501.73
229.877	23516.54
229.949	23506.22
230.022	23499.22
230.094	23481.86
230.167	23463.25
230.239	23439.04
230.312	23403.02
230.384	23398.78
230.457	23368.64
230.529	23348.53
230.602	23327.41
230.674	23317.72
230.747	23314.1
230.819	23296.5
230.892	23238.83
230.964	23195
231.037	23174.75
231.109	23150.69
231.181	23144.18
231.254	23095.96
231.326	23076.82
231.399	23045.18
231.471	23014.61
231.544	22973.39
231.616	22963.55
231.688	22934.96
231.761	22901.79
231.833	22876.52
231.905	22836.41
231.978	22808.92
232.05	22769.97
232.122	22746.01
232.195	22705.7
232.267	22687.86
232.339	22654.64
232.412	22652.57
232.484	22627.84
232.556	22596.31
232.629	22588.84
232.701	22562.8
232.773	22550.7
232.846	22506.25
232.918	22472.6
232.99	22441.74
233.062	22414.22
233.135	22389.92
233.207	22347.88
233.279	22334
233.351	22317.75
233.424	22273.06
233.496	22241.2
233.568	22242.79
233.64	22200.08
233.713	22163.88
233.785	22128.88
233.857	22098.13
233.929	22050.55
234.001	22036.18
234.074	22019.5
234.146	21961.13
234.218	21928.54
234.29	21892.53
234.362	21861.39
234.434	21812.61
234.507	21770.53
234.579	21725.03
234.651	21680.97
234.723	21659.81
234.795	21626.7
234.867	21580.67
234.939	21561.92
235.012	21526.78
235.084	21498.2
235.156	21483.16
235.228	21441.32
235.3	21395.87
235.372	21362.04
235.444	21345.41
235.516	21284.72
235.588	21247.18
235.66	21225.2
235.732	21178.74
235.804	21195.22
235.876	21174.98
235.948	21162.64
236.02	21128.23
236.092	21102.3
236.164	21067.84
236.236	21024.27
236.308	20992.85
236.38	20961.18
236.452	20915.3
236.524	20890.33
236.596	20863.15
236.668	20826.38
236.74	20805.56
236.812	20780.4
236.884	20765.94
236.956	20724.69
237.028	20681.84
237.1	20641.55
237.172	20616.2
237.244	20594.28
237.316	20514.8
237.388	20465.6
237.46	20413.79
237.532	20391.33
237.604	20346.13
237.675	20313.26
237.747	20287.19
237.819	20237.98
237.891	20199.86
237.963	20157.75
238.035	20110.47
238.107	20031.29
238.178	20008.54
238.25	19960.54
238.322	19940.45
238.394	19870.19
238.466	19831.54
238.538	19806.77
238.609	19775.35
238.681	19715.25
238.753	19664.56
238.825	19635.59
238.897	19595.88
238.968	19577.76
239.04	19534.06
239.112	19519.31
239.184	19481.63
239.255	19435.17
239.327	19407.32
239.399	19376.86
239.471	19353.73
239.542	19318.55
239.614	19298.12
239.686	19236.39
239.758	19211.95
239.829	19164.54
239.901	19148.97
239.973	19113.17
240.044	19078.81
240.116	19039.87
240.188	19005.99
240.259	18973.99
240.331	18927.83
240.403	18901.18
240.474	18844.36
240.546	18802.15
240.618	18749.62
240.689	18706.54
240.761	18676.08
240.833	18658.64
240.904	18617.44
240.976	18587.75
241.048	18560.04
241.119	18536.24
241.191	18501.64
241.262	18480.05
241.334	18445.69
241.405	18402.61
241.477	18353.55
241.549	18315.14
241.62	18274.23
241.692	18251.82
241.763	18224.54
241.835	18180.21
241.906	18143.82
241.978	18100.93
242.049	18080.07
242.121	18054.04
242.192	18030.43
242.264	17973.08
242.335	17915.01
242.407	17881.57
242.478	17825.08
242.55	17779.59
242.621	17731.02
242.693	17694.29
242.764	17654.49
242.836	17608.8
242.907	17577.52
242.979	17544.03
243.05	17510.78
243.122	17491.84
243.193	17447.89
243.264	17383.65
243.336	17354.06
243.407	17323.55
243.479	17307.69
243.55	17269.43
243.622	17237.72
243.693	17191.93
243.764	17180.13
243.836	17138.97
243.907	17104.61
243.978	17071.74
244.05	17049.71
244.121	16994.34
244.192	16968.65
244.264	16913.18
244.335	16883.34
244.407	16836.45
244.478	16806.71
244.549	16768.49
244.62	16711.14
244.692	16664.2
244.763	16657.31
244.834	16617.21
244.906	16579.86
244.977	16547.66
245.048	16526.36
245.119	16480.72
245.191	16442.69
245.262	16389.77
245.333	16374.44
245.405	16342.05
245.476	16318.78
245.547	16283.93
245.618	16270.05
245.689	16229.42
245.761	16203.63
245.832	16170.33
245.903	16137.46
245.974	16111.43
246.045	16078.51
246.117	16062.51
246.188	16021.63
246.259	15962.59
246.33	15919.98
246.401	15871.88
246.473	15826.43
246.544	15780.93
246.615	15757.12
246.686	15717.98
246.757	15697.54
246.828	15642.01
246.899	15616.37
246.97	15562.38
247.042	15522.96
247.113	15482.71
247.184	15470.95
247.255	15426.89
247.326	15389.92
247.397	15362.35
247.468	15326.92
247.539	15297.95
247.61	15257.75
247.681	15245.99
247.752	15229.99
247.823	15191.81
247.894	15178.46
247.965	15137.34
248.037	15096.27
248.108	15048.7
248.179	15020.79
248.25	14989.5
248.321	14973.16
248.392	14936.58
248.463	14930.5
248.534	14897.34
248.605	14876.47
248.675	14844.65
248.746	14824.7
248.817	14798.33
248.888	14775.82
248.959	14729.78
249.03	14704.86
249.101	14680.76
249.172	14646.15
249.243	14594.28
249.314	14588.83
249.385	14553.16
249.456	14533.16
249.527	14510.64
249.598	14481.87
249.669	14458.05
249.739	14427.25
249.81	14406.81
249.881	14359.23
249.952	14332.72
250.023	14309.1
250.094	14276.41
250.165	14235.44
250.235	14206.03
250.306	14185.16
250.377	14147.32
250.448	14128.52
250.519	14081.08
250.59	14068.5
250.66	14032.83
250.731	14029.12
250.802	14006.46
250.873	13984.53
250.944	13957.39
251.014	13926.15
251.085	13929.48
251.156	13902.53
251.227	13891.78
251.297	13869.36
251.368	13863.96
251.439	13842.22
251.51	13826.75
251.58	13787.17
251.651	13760.46
251.722	13752.46
251.792	13709.85
251.863	13680.25
251.934	13666.9
252.005	13666.37
252.075	13638.6
252.146	13628.43
252.217	13617.05
252.287	13597.72
252.358	13567.06
252.429	13558.38
252.499	13530.66
252.57	13508.01
252.641	13494.46
252.711	13463.03
252.782	13425.33
252.852	13415.64
252.923	13394.96
252.994	13370.71
253.064	13361.02
253.135	13325.69
253.205	13294.69
253.276	13291.46
253.347	13284.38
253.417	13253.24
253.488	13230.63
253.558	13203.25
253.629	13174.76
253.699	13151.66
253.77	13133.73
253.841	13111.41
253.911	13097.62
253.982	13077.19
254.052	13057.37
254.123	13037.32
254.193	13021.65
254.264	13044.94
254.334	13014.47
254.405	12981.59
254.475	12945.1
254.546	12925.24
254.616	12921.91
254.687	12899.31
254.757	12875.59
254.827	12852.26
254.898	12837.07
254.968	12811.52
255.039	12776.82
255.109	12773.01
255.18	12732.95
255.25	12695.83
255.321	12680.31
255.391	12636.97
255.461	12633.84
255.532	12599.32
255.602	12572.67
255.673	12530.05
255.743	12491.39
255.813	12447.53
255.884	12438.13
255.954	12423.43
256.024	12416.1
256.095	12396.19
256.165	12365.97
256.235	12346.54
256.306	12319.02
256.376	12307.16
256.446	12291.06
256.517	12281.95
256.587	12259.68
256.657	12246.86
256.728	12221.26
256.798	12199.95
256.868	12174.5
256.938	12148.81
257.009	12129.58
257.079	12119.07
257.149	12123.99
257.219	12087.69
257.29	12076.31
257.36	12029.51
257.43	12019
257.5	11980.11
257.571	11949.26
257.641	11937.11
257.711	11915.42
257.781	11902.41
257.852	11890.31
257.922	11853.96
257.992	11835.12
258.062	11820.85
258.132	11808.94
258.202	11788.75
258.273	11775.16
258.343	11781.86
258.413	11754.34
258.483	11736.6
258.553	11706.09
258.623	11675.63
258.693	11657.02
258.764	11652.54
258.834	11661.84
258.904	11649.12
258.974	11630.37
259.044	11614.03
259.114	11597.98
259.184	11578.89
259.254	11555.04
259.324	11509.34
259.394	11498.36
259.464	11499.56
259.535	11471.9
259.605	11457.77
259.675	11432.23
259.745	11416.28
259.815	11385.82
259.885	11362.59
259.955	11371.31
260.025	11341.53
260.095	11324.33
260.165	11313.53
260.235	11310.16
260.305	11277.77
260.375	11240.32
260.445	11240.13
260.515	11239.46
260.585	11232.61
260.655	11217.67
260.725	11215.41
260.795	11209.77
260.865	11205.62
260.934	11168.47
261.004	11165.24
261.074	11144.18
261.144	11145.53
261.214	11138.25
261.284	11119.6
261.354	11117.82
261.424	11084.03
261.494	11090.44
261.564	11074.68
261.634	11059.93
261.703	11021.77
261.773	11019.6
261.843	11018.88
261.913	10999.89
261.983	10965.43
262.053	10952.95
262.123	10933
262.192	10908.38
262.262	10895.99
262.332	10867.85
262.402	10862.69
262.472	10840.62
262.541	10800.25
262.611	10795.04
262.681	10772.1
262.751	10766.13
262.821	10739.77
262.89	10712.4
262.96	10699.73
263.03	10703.44
263.1	10693.27
263.169	10681.76
263.239	10666.05
263.309	10662.34
263.379	10655.74
263.448	10642.68
263.518	10633.43
263.588	10614.15
263.657	10605.29
263.727	10605.19
263.797	10595.03
263.867	10580.57
263.936	10553.93
264.006	10553.69
264.076	10531.62
264.145	10511.38
264.215	10484.45
264.285	10485.32
264.354	10455.83
264.424	10430.68
264.494	10400.28
264.563	10375.61
264.633	10380.48
264.702	10365.25
264.772	10334.85
264.842	10313.84
264.911	10305.51
264.981	10278.24
265.05	10265.38
265.12	10247.12
265.19	10228.71
265.259	10222.59
265.329	10209.25
265.398	10197.88
265.468	10209.78
265.537	10188.05
265.607	10178.18
265.676	10175.67
265.746	10163.63
265.815	10163.96
265.885	10147.25
265.955	10125.91
266.024	10108.57
266.094	10065.55
266.163	10066.95
266.232	10068.2
266.302	10050.86
266.371	10040.16
266.441	10029.18
266.51	10028.51
266.58	10009.91
266.649	9992.96
266.719	9981.83
266.788	9971.81
266.858	9979.8
266.927	9940.06
266.996	9935.97
267.066	9926.48
267.135	9899.56
267.205	9890.5
267.274	9879.61
267.343	9882.84
267.413	9874.17
267.482	9878.27
267.552	9885.83
267.621	9859.19
267.69	9828.22
267.76	9816.13
267.829	9802.35
267.898	9789.54
267.968	9767.15
268.037	9765.8
268.106	9755.63
268.176	9737.09
268.245	9718.31
268.314	9689.36
268.384	9692.97
268.453	9681.94
268.522	9673.75
268.592	9678.71
268.661	9653.96
268.73	9645.48
268.799	9621.88
268.869	9624.29
268.938	9589.62
269.007	9571.51
269.076	9559.47
269.146	9561.25
269.215	9556.72
269.284	9566.4
269.353	9547.57
269.422	9530.09
269.492	9518.63
269.561	9484.35
269.63	9481.26
269.699	9471.01
269.768	9462.53
269.838	9452.13
269.907	9442.74
269.976	9416.45
270.045	9385.05
270.114	9387.56
270.183	9371.57
270.253	9369.11
270.322	9340.08
270.391	9336.27
270.46	9337.38
270.529	9331.55
270.598	9325.54
270.667	9309.89
270.736	9289.61
270.806	9283.54
270.875	9291.73
270.944	9276.47
271.013	9301.02
271.082	9287.68
271.151	9284.07
271.22	9259.33
271.289	9252.1
271.358	9235.88
271.427	9232.56
271.496	9223.99
271.565	9202.32
271.634	9197.6
271.703	9214.31
271.772	9218.26
271.841	9209.83
271.91	9185.81
271.979	9176.85
272.048	9157.98
272.117	9159.66
272.186	9138.09
272.255	9134.63
272.324	9129.71
272.393	9124.08
272.462	9103.43
272.531	9094.18
272.6	9077.19
272.669	9090.04
272.738	9080.22
272.807	9080.27
272.876	9064.67
272.945	9092.06
273.013	9097.17
273.082	9100.15
273.151	9064.33
273.22	9057.59
273.289	9044.35
273.358	9054.03
273.427	9044.5
273.496	9041.37
273.564	9032.36
273.633	9037.08
273.702	9017.73
273.771	8999.63
273.84	8993.56
273.909	8987.88
273.977	8983.55
274.046	8977.44
274.115	8972.14
274.184	8952.84
274.253	8947.64
274.322	8952.07
274.39	8922.99
274.459	8910.9
274.528	8877.84
274.597	8865.42
274.665	8860.6
274.734	8872.73
274.803	8857.76
274.872	8850.83
274.94	8828.06
275.009	8853.49
275.078	8836.5
275.147	8835.68
275.215	8829.9
275.284	8833.9
275.353	8826.77
275.421	8805.79
275.49	8817.97
275.559	8810.5
275.627	8804.15
275.696	8789.47
275.765	8785.96
275.833	8777.01
275.902	8772.29
275.971	8791.44
276.039	8810.89
276.108	8814.65
276.177	8812.33
276.245	8800.78
276.314	8794.43
276.383	8805.16
276.451	8778.58
276.52	8784.31
276.588	8794.28
276.657	8804.43
276.725	8798.27
276.794	8793.12
276.863	8804.57
276.931	8782.43
277	8785.42
277.068	8796.68
277.137	8818.87
277.205	8817.38
277.274	8826.67
277.342	8833.5
277.411	8808.52
277.48	8788.02
277.548	8775.74
277.617	8765.97
277.685	8766.21
277.754	8771.6
277.822	8762.56
277.89	8762.56
277.959	8756.59
278.027	8742.58
278.096	8734.73
278.164	8753.46
278.233	8751.1
278.301	8734.36
278.37	8735.9
278.438	8724.49
278.507	8724.78
278.575	8693.64
278.643	8686.7
278.712	8671.98
278.78	8660.23
278.849	8665.62
278.917	8681.22
278.985	8679.05
279.054	8684.88
279.122	8691.66
279.191	8689.78
279.259	8691.37
279.327	8675.2
279.396	8688
279.464	8689.59
279.532	8688.05
279.601	8683.91
279.669	8682.76
279.737	8703.02
279.806	8705.47
279.874	8716.16
279.942	8712.07
280.011	8716.01
280.079	8724.68
280.147	8739.21
280.215	8742.15
280.284	8746.86
280.352	8734.73
280.42	8740.07
280.488	8728.67
280.557	8726.98
280.625	8729.2
280.693	8725.01
280.761	8729.1
280.83	8706.24
280.898	8708.07
280.966	8692.72
281.034	8663.31
281.102	8646.13
281.171	8634.53
281.239	8646.27
281.307	8631.35
281.375	8625
281.443	8644.54
281.512	8639.68
281.58	8643.63
281.648	8627.17
281.716	8623.03
281.784	8616.63
281.852	8609.31
281.92	8615.04
281.989	8620.09
282.057	8598.68
282.125	8643.93
282.193	8639.74
282.261	8643.79
282.329	8642.77
282.397	8648.69
282.465	8648.02
282.533	8667.22
282.601	8662.02
282.67	8641.76
282.738	8636.23
282.806	8642.05
282.874	8624.34
282.942	8625.3
283.01	8622.75
283.078	8627.42
283.146	8628.47
283.214	8637.33
283.282	8641.66
283.35	8646.14
283.418	8639.16
283.486	8646.62
283.554	8601.94
283.622	8604.49
283.69	8602.42
283.758	8590.87
283.826	8589.86
283.894	8601.03
283.962	8615.81
284.03	8620.57
284.098	8621.53
284.165	8623.07
284.233	8624.71
284.301	8626.2
284.369	8619.8
284.437	8607.19
284.505	8602.23
284.573	8608.88
284.641	8597.04
284.709	8602.04
284.777	8586.11
284.845	8592.85
284.912	8597.52
284.98	8599.49
285.048	8590.4
285.116	8594.44
285.184	8608.49
285.252	8611.67
285.319	8596.46
285.387	8583.94
285.455	8576.44
285.523	8582.31
285.591	8577.69
285.659	8576.44
285.726	8584.19
285.794	8574.75
285.862	8572.49
285.93	8581.83
285.997	8578.51
286.065	8574.95
286.133	8567.92
286.201	8570.28
286.269	8554.97
286.336	8552.86
286.404	8545.59
286.472	8556.03
286.539	8541.36
286.607	8525.48
286.675	8528.12
286.743	8536.78
286.81	8533.13
286.878	8535.44
286.946	8524.27
287.013	8520.18
287.081	8515.71
287.149	8500.21
287.216	8522.44
287.284	8523.5
287.352	8517.34
287.419	8518.69
287.487	8529.85
287.555	8530.82
287.622	8526.05
287.69	8531.73
287.758	8536.21
287.825	8536.16
287.893	8523.5
287.96	8522.35
288.028	8535
288.096	8536.69
288.163	8534.38
288.231	8521.14
288.298	8525.04
288.366	8539.14
288.433	8542.08
288.501	8537.27
288.569	8542.61
288.636	8534.67
288.704	8540.44
288.771	8552.47
288.839	8537.65
288.906	8536.74
288.974	8546.27
289.041	8543.38
289.109	8535.68
289.176	8549.74
289.244	8552.24
289.311	8564.94
289.379	8576.25
289.446	8579.09
289.514	8578.75
289.581	8578.27
289.649	8585.01
289.716	8587.99
289.783	8580.87
289.851	8601.61
289.918	8598.63
289.986	8607.53
290.053	8608.49
290.121	8608.06
290.188	8605.99
290.255	8636.94
290.323	8631.07
290.39	8624.42
290.458	8628.51
290.525	8646.51
290.592	8635.1
290.66	8640.98
290.727	8634.19
290.794	8652.05
290.862	8656.86
290.929	8660.28
290.996	8667.06
291.064	8679
291.131	8689.97
291.198	8699.93
291.266	8694.74
291.333	8702.58
291.4	8706.82
291.468	8729.25
291.535	8729.2
291.602	8735.31
291.669	8730.5
291.737	8734.16
291.804	8734.54
291.871	8752.4
291.938	8757.07
292.006	8783.78
292.073	8800.1
292.14	8812.95
292.207	8805.06
292.275	8801.35
292.342	8804.86
292.409	8829.22
292.476	8846.17
292.543	8844.53
292.611	8847.61
292.678	8861.52
292.745	8875.82
292.812	8885.49
292.879	8872.16
292.946	8871
293.014	8879.81
293.081	8892.09
293.148	8909.75
293.215	8925.2
293.282	8918.03
293.349	8924.63
293.416	8908.74
293.484	8912.54
293.551	8919.04
293.618	8931.7
293.685	8957.7
293.752	8960.78
293.819	8957.89
293.886	8952.35
293.953	8956.78
294.02	8960.34
294.087	8963.71
294.154	8961.07
294.221	8973.97
294.288	8981.62
294.356	9006.37
294.423	9013.01
294.49	9001.74
294.557	9009.45
294.624	9003.86
294.691	9036.79
294.758	9038.81
294.825	9041.61
294.892	9039.92
294.959	9047.05
295.026	9054.51
295.093	9053.54
295.16	9053.45
295.226	9052.49
295.293	9070.54
295.36	9071.36
295.427	9086.38
295.494	9104.24
295.561	9118.25
295.628	9142.62
295.695	9154.42
295.762	9158.41
295.829	9162.65
295.896	9179.02
295.963	9192.11
296.03	9200.2
296.096	9192.26
296.163	9203.33
296.23	9220.47
296.297	9234.29
296.364	9230.49
296.431	9235.35
296.498	9225.33
296.564	9240.88
296.631	9250.51
296.698	9238.76
296.765	9261.88
296.832	9251.48
296.899	9234.29
296.965	9256.68
297.032	9234.57
297.099	9251.81
297.166	9256.63
297.233	9262.4
297.299	9254.94
297.366	9252.73
297.433	9252.25
297.5	9261.49
297.566	9264.04
297.633	9262.45
297.7	9260.14
297.767	9263.85
297.833	9265.68
297.9	9269.58
297.967	9256.82
298.033	9263.42
298.1	9285.76
298.167	9278.73
298.234	9289.76
298.3	9297.12
298.367	9286.91
298.434	9293.99
298.5	9287.39
298.567	9280.08
298.634	9281.04
298.7	9297.6
298.767	9300.68
298.834	9317.44
298.9	9311.42
298.967	9297.31
299.033	9312.63
299.1	9327.07
299.167	9333.38
299.233	9333.04
299.3	9347.49
299.366	9365.35
299.433	9381.82
299.5	9365.35
299.566	9366.7
299.633	9376.38
299.699	9396.03
299.766	9395.35
299.832	9393.19
299.899	9396.46
299.965	9412.69
300.032	9407.92
300.099	9411.1
300.165	9418.71
300.232	9420.15
300.298	9420.39
300.365	9438.79
300.431	9434.79
300.498	9431.51
300.564	9437
300.631	9452.22
300.697	9462.05
300.763	9459.59
300.83	9449.48
300.896	9458.14
300.963	9465.56
301.029	9471.24
301.096	9467.97
301.162	9477.5
301.229	9480.68
301.295	9479.04
301.361	9476.78
301.428	9478.42
301.494	9466.57
301.561	9461.75
301.627	9462.38
301.693	9470.66
301.76	9473.22
301.826	9475.29
301.892	9481.64
301.959	9495.51
302.025	9493.49
302.092	9489.35
302.158	9498.98
302.224	9505.19
302.291	9503.46
302.357	9505.91
302.423	9502.06
302.49	9496.76
302.556	9513.43
302.622	9513.43
302.688	9519.64
302.755	9532.55
302.821	9541.31
302.887	9553.64
302.954	9560.81
303.02	9563.9
303.086	9569.43
303.152	9561.78
303.219	9552.53
303.285	9560.86
303.351	9561.35
303.417	9561.63
303.483	9549.84
303.55	9544.15
303.616	9543.09
303.682	9538.95
303.748	9527.11
303.815	9539.49
303.881	9545.02
303.947	9521.18
304.013	9523.16
304.079	9511.26
304.145	9492.67
304.212	9492.48
304.278	9487.04
304.344	9480.35
304.41	9465.8
304.476	9457.91
304.542	9460.99
304.608	9467.83
304.674	9447.79
304.741	9445.34
304.807	9446.73
304.873	9458.24
304.939	9473.03
305.005	9452.85
305.071	9449.09
305.137	9451.6
305.203	9427.37
305.269	9426.84
305.335	9441.05
305.401	9438.35
305.467	9440.76
305.533	9454.15
305.599	9455.26
305.666	9463.15
305.732	9462.24
305.798	9475.34
305.864	9498.79
305.93	9501.44
305.996	9500.28
306.062	9501.82
306.128	9499.95
306.194	9484.58
306.259	9478.13
306.325	9470.43
306.391	9475.77
306.457	9483.72
306.523	9490.55
306.589	9515.4
306.655	9505.72
306.721	9490.65
306.787	9474.95
306.853	9488.05
306.919	9461.86
306.985	9457.57
307.051	9447.27
307.117	9437.06
307.183	9428.97
307.248	9399.93
307.314	9399.98
307.38	9400.89
307.446	9410.43
307.512	9392.18
307.578	9396.08
307.644	9395.06
307.709	9393.72
307.775	9396.12
307.841	9388.76
307.907	9380.86
307.973	9358.66
308.039	9359.04
308.104	9360.78
308.17	9362.8
308.236	9342.14
308.302	9354.9
308.368	9343.25
308.433	9338.77
308.499	9336.55
308.565	9328.85
308.631	9331.4
308.696	9307.04
308.762	9291.58
308.828	9284.74
308.894	9274.54
308.959	9250.95
309.025	9238.23
309.091	9235.01
309.156	9226.29
309.222	9227.26
309.288	9222.3
309.354	9204.48
309.419	9200.58
309.485	9185.56
309.551	9192.35
309.616	9180.02
309.682	9169.72
309.748	9161.63
309.813	9159.22
309.879	9148.1
309.945	9143.19
310.01	9135.44
310.076	9138.86
310.141	9138.23
310.207	9119.98
310.273	9121.43
310.338	9130
310.404	9117
310.469	9101.54
310.535	9093.07
310.601	9073.14
310.666	9073.76
310.732	9082.48
310.797	9067.07
310.863	9057.25
310.928	9042.85
310.994	9046.8
311.059	9042.32
311.125	9041.65
311.191	9052.48
311.256	9043.48
311.322	9041.99
311.387	9021.63
311.453	9350.79
311.518	9321.09
311.584	9326.67
311.649	9328.94
311.715	9314.88
311.78	9318.49
311.846	9306.7
311.911	9310.88
311.976	9316.95
312.042	9305.73
312.107	9292.01
312.173	9291.24
312.238	9289.8
312.304	9286.23
312.369	9270.11
312.434	9259.76
312.5	9252.68
312.565	9217.88
312.631	9228.23
312.696	9219.7
312.761	9222.64
312.827	8885.3
312.892	8923.47
312.958	8916.54
313.023	8913.22
313.088	8913.65
313.154	8898.1
313.219	8891.03
313.284	8880.34
313.35	8869.41
313.415	8858.68
313.48	8848.96
313.546	8846.79
313.611	8846.98
313.676	8837.6
313.741	8835.43
313.807	8846.74
313.872	8849
313.937	8856.18
314.003	8867.97
314.068	8866.19
314.133	8874.08
314.198	8860.37
314.264	8841.98
314.329	8829.22
314.394	8824.55
314.459	8827.05
314.525	8845.63
314.59	8841.01
314.655	8830.76
314.72	8843.03
314.785	8845.3
314.851	8838.9
314.916	8822.82
314.981	8810.35
315.046	8803.23
315.111	8790.33
315.176	8772.43
315.242	8780.18
315.307	8774.5
315.372	8747.15
315.437	8734.35
315.502	8719.09
315.567	8735.75
315.632	8715.24
315.698	8717.79
315.763	8710.19
315.828	8696.71
315.893	8688.1
315.958	8686.75
316.023	8676.93
316.088	8651.57
316.153	8623.8
316.218	8614.7
316.283	8594.54
316.348	8578.95
316.413	8574.29
316.479	8561.82
316.544	8532.14
316.609	8497
316.674	8459.09
316.739	8423.58
316.804	8395.63
316.869	8363.2
316.934	8321.09
316.999	8294.15
317.064	8241.14
317.129	8199.09
317.194	8160.12
317.259	8108.16
317.324	8056.07
317.389	8011
317.454	7976.46
317.518	7941.3
317.583	7921.1
317.648	7898.88
317.713	7860.89
317.778	7805.24
317.843	7777.39
317.908	7735.71
317.973	7689.54
318.038	7666.99
318.103	7634.97
318.168	7598.72
318.233	7563.52
318.297	7514.34
318.362	7475.74
318.427	7436.71
318.492	7409.26
318.557	7368.12
318.622	7344.52
318.687	7320.2
318.751	7281.28
318.816	7245.13
318.881	7213.61
318.946	7156.7
319.011	7112.25
319.075	7072.94
319.14	7033.46
319.205	6987.57
319.27	6958.5
319.335	6920.36
319.399	6875.68
319.464	6841.14
319.529	6795.03
319.594	6758.72
319.658	6726.25
319.723	6681.45
319.788	6656.81
319.853	6607.49
319.917	6575.66
319.982	6516.69
320.047	6475.35
320.112	6446.02
320.176	6397.43
320.241	6367.23
320.306	6335.74
320.37	6296.67
320.435	6265.52
320.5	6241.23
320.564	6200.49
320.629	6155.33
320.694	6120.11
320.758	6076.26
320.823	6033.12
320.888	6003.91
320.952	5953.44
321.017	5913.39
321.082	5875.31
321.146	5839.95
321.211	5803.26
321.275	5760.39
321.34	5719.16
321.405	5679.84
321.469	5633.28
321.534	5585.93
321.598	5529.55
321.663	5498.52
321.727	5463.38
321.792	5410.75
321.857	5364.92
321.921	5326.68
321.986	5285.43
322.05	5229.62
322.115	5194.64
322.179	5150.19
322.244	5095.77
322.308	5062.39
322.373	5018.95
322.437	4979.1
322.502	4953.18
322.566	4906.96
322.631	4872.39
322.695	4836.35
322.76	4788.19
322.824	4753.96
322.889	4715.25
322.953	4674.96
323.018	4609.1
323.082	4548
323.146	4502.89
323.211	4453.18
323.275	4406.25
323.34	4364.64
323.404	4331.4
323.468	4287.49
323.533	4244.41
323.597	4194.8
323.662	4144.89
323.726	4109.46
323.79	4063.61
323.855	3992.69
323.919	3944.52
323.983	3897.34
324.048	3830.44
324.112	3958.68
324.177	3830.88
324.241	3631.77
324.305	3434.66
324.37	3243.91
324.434	3058.42
324.498	3014.29
324.562	2962.2
324.627	2904.54
324.691	2846.82
324.755	2780.14
324.82	2704.89
324.884	2629.72
324.948	2563.74
325.012	2472.38
325.077	2348.19
