Data from 20250702_urea_0.5M_MAYP1162681_21-35-00-364.txt Node
Date: Wed Jul 02 21:35:00 BST 2025
User: adleo
Spectrometer: MAYP116268
Trigger mode: 0
Integration Time (sec): 1.000000E0
Scans to average: 1
Electric dark correction enabled: true
Nonlinearity correction enabled: true
Boxcar width: 10
XAxis mode: Wavelengths
Number of Pixels in Spectrum: 2068
>>>>>Begin Spectral Data<<<<<
179.565	1229.16
179.642	1285.32
179.718	1330.24
179.795	1369.38
179.871	1399.77
179.948	1419.51
180.024	1437.68
180.101	1460.66
180.177	1478.17
180.254	1500.26
180.33	1524.87
180.407	1582.56
180.483	1678.77
180.56	1771.03
180.636	1856.68
180.712	1844.37
180.789	1855.44
180.865	1871.74
180.942	1876.59
181.018	1888.19
181.095	1899.75
181.171	1905.88
181.248	1906.31
181.324	1924.24
181.4	1931.7
181.477	1945.02
181.553	1957.9
181.63	1981.67
181.706	1999.03
181.782	2006.21
181.859	2005.21
181.935	2010.16
182.011	2004.93
182.088	2023.14
182.164	2045.03
182.24	2060.67
182.317	2070.75
182.393	2064.14
182.469	2077.55
182.546	2093.77
182.622	2096.91
182.698	2092.86
182.775	2104.47
182.851	2118.36
182.927	2108.37
183.003	2103.9
183.08	2098.57
183.156	2107.23
183.232	2104.09
183.308	2093.34
183.385	2100.38
183.461	2118.4
183.537	2116.69
183.613	2130.3
183.69	2121.88
183.766	2106.69
183.842	2110.22
183.918	2117.68
183.995	2133.95
184.071	2136.61
184.147	2130.1
184.223	2120.59
184.299	2133.81
184.375	2119.93
184.452	2127.49
184.528	2185.99
184.604	2197.12
184.68	2207.06
184.756	2215.67
184.832	2219.53
184.908	2223.95
184.985	2223.66
185.061	2209.39
185.137	2218.72
185.213	2204.83
185.289	2207.73
185.365	2202.59
185.441	2204.83
185.517	2217.54
185.593	2213.16
185.669	2208.83
185.745	2220.68
185.822	2238.51
185.898	2230.18
185.974	2241.36
186.05	2235.22
186.126	2192.85
186.202	2185.39
186.278	2182.39
186.354	2174.3
186.43	2180.72
186.506	2178.25
186.582	2176.68
186.658	2182.91
186.734	2163.27
186.81	2167.88
186.886	2167.17
186.962	2178.25
187.038	2174.73
187.114	2166.64
187.19	2178.87
187.266	2168.55
187.341	2170.17
187.417	2160.46
187.493	2158.75
187.569	2162.65
187.645	2154.75
187.721	2142.05
187.797	2149.18
187.873	2155.56
187.949	2146.57
188.025	2139.67
188.101	2141.52
188.176	2145.18
188.252	2140.76
188.328	2151.65
188.404	2151.03
188.48	2147.32
188.556	2140.76
188.632	2140.61
188.707	2139.76
188.783	2133
188.859	2130.1
188.935	2116.63
189.011	2122.91
189.086	2115.73
189.162	2107.79
189.238	2105.08
189.314	2103.51
189.39	2099.56
189.465	2092.56
189.541	2111.17
189.617	2095.71
189.693	2091.67
189.768	2097.42
189.844	2121.84
189.92	2110.23
189.996	2119.94
190.071	2131.45
190.147	2128.55
190.223	2137.45
190.298	2131.22
190.374	2117.8
190.45	2129.69
190.526	2138.68
190.601	2133.02
190.677	2135.21
190.753	2159.34
190.828	2162.81
190.904	2175.99
190.98	2187.89
191.055	2196.36
191.131	2186.41
191.207	2207.29
191.282	2217.14
191.358	2205.87
191.433	2190.16
191.509	2206.37
191.585	2202.38
191.66	2202.09
191.736	2210.56
191.811	2199.14
191.887	2213.51
191.963	2236.92
192.038	2244.34
192.114	2244.53
192.189	2251.29
192.265	2249.58
192.34	2226.64
192.416	2227.02
192.491	2224.02
192.567	2227.78
192.642	2227.25
192.718	2228.4
192.793	2215.83
192.869	2212.5
192.944	2216.02
193.02	2223.31
193.095	2224.78
193.171	2231.63
193.246	2230.16
193.322	2228.16
193.397	2229.63
193.473	2218.83
193.548	2203.12
193.624	2205.69
193.699	2204.36
193.775	2220.31
193.85	2218.55
193.925	2229.97
194.001	2227.64
194.076	2220.6
194.152	2211.84
194.227	2207.41
194.302	2197.71
194.378	2204.09
194.453	2201.85
194.529	2215.36
194.604	2202.99
194.679	2195.43
194.755	2174.88
194.83	2187.49
194.905	2184.5
194.981	2191.97
195.056	2184.26
195.131	2190.59
195.207	2190.92
195.282	2180.22
195.357	2159.23
195.433	2178.59
195.508	2165.89
195.583	2174.02
195.659	2188.78
195.734	2198.87
195.809	2201.1
195.884	2208.52
195.96	2209.71
196.035	2221.27
196.11	2218.27
196.185	2227.98
196.261	2233.45
196.336	2265.43
196.411	2253.1
196.486	2260.09
196.561	2255.81
196.637	2263.09
196.712	2279.56
196.787	2281.22
196.862	2298.26
196.937	2310.87
197.013	2314.67
197.088	2328.05
197.163	2350.76
197.238	2363.76
197.313	2358.71
197.388	2369.71
197.464	2400.75
197.539	2411.32
197.614	2407.51
197.689	2419.08
197.764	2438.37
197.839	2458.03
197.914	2451.22
197.989	2474.79
198.065	2491.21
198.14	2540.86
198.215	2566.19
198.29	2576.1
198.365	2590.72
198.44	2601.91
198.515	2629.68
198.59	2644.07
198.665	2667.12
198.74	2675.79
198.815	2681.18
198.89	2706.13
198.965	2738.02
199.04	2733.16
199.115	2747.83
199.19	2794.14
199.265	2796.76
199.34	2804.95
199.415	2840.23
199.49	2864.19
199.565	2871.58
199.64	2889.74
199.715	2888.55
199.79	2898.36
199.865	2904.42
199.94	2902.51
200.015	2934.16
200.09	2939.93
200.165	2949.32
200.24	2961
200.315	3000.84
200.39	3015.62
200.464	3024.73
200.539	3025.59
200.614	3041.7
200.689	3063.87
200.764	3067.54
200.839	3087.08
200.914	3095.28
200.989	3084.88
201.063	3097.28
201.138	3078.65
201.213	3084.99
201.288	3065.4
201.363	3069.98
201.438	3072.55
201.512	3090.95
201.587	3074.83
201.662	3076.45
201.737	3089.04
201.812	3096.58
201.886	3063.46
201.961	3074.29
202.036	3058.89
202.111	3053.98
202.186	3028.11
202.26	3012.42
202.335	2993.01
202.41	2986
202.485	2965.79
202.559	2946.15
202.634	2921.79
202.709	2932.27
202.784	2914.2
202.858	2912.44
202.933	2890.95
203.008	2885.7
203.082	2864.83
203.157	2862.4
203.232	2819.71
203.306	2798.78
203.381	2764.89
203.456	2741.31
203.53	2716.36
203.605	2697.69
203.68	2675.1
203.754	2667.96
203.829	2655.15
203.904	2631.33
203.978	2621.04
204.053	2628.56
204.127	2611.75
204.202	2609.71
204.277	2592.18
204.351	2584.99
204.426	2579.13
204.5	2574.13
204.575	2533.32
204.65	2542.04
204.724	2533.04
204.799	2542.03
204.873	2537.12
204.948	2533.36
205.022	2522.56
205.097	2514.69
205.171	2527.45
205.246	2537.03
205.32	2535.84
205.395	2534.08
205.469	2527.61
205.544	2530.27
205.618	2511.79
205.693	2527.6
205.767	2512.37
205.842	2535.28
205.916	2526.66
205.991	2518.8
206.065	2525.51
206.14	2543.74
206.214	2540.93
206.289	2534.4
206.363	2548.35
206.438	2553.02
206.512	2564.22
206.586	2585.07
206.661	2593.32
206.735	2571.56
206.81	2571.99
206.884	2587.28
206.958	2575.28
207.033	2591.46
207.107	2602.76
207.181	2634.68
207.256	2631.44
207.33	2654.83
207.405	2666.6
207.479	2691.09
207.553	2699.56
207.628	2685.42
207.702	2701.95
207.776	2695.71
207.851	2704.9
207.925	2722.68
207.999	2723.01
208.073	2728.97
208.148	2736.79
208.222	2734.59
208.296	2777.46
208.371	2801.4
208.445	2826.33
208.519	2864.3
208.593	2891.47
208.668	2897.67
208.742	2916.32
208.816	2933.43
208.89	2966.01
208.965	2988.82
209.039	3012.28
209.113	3052.3
209.187	3095.76
209.261	3114.54
209.336	3161.75
209.41	3206.4
209.484	3237.57
209.558	3290.39
209.632	3332.52
209.707	3373.99
209.781	3430.69
209.855	3481.3
209.929	3540.55
210.003	3581.8
210.077	3628.94
210.151	3722.44
210.226	3806.26
210.3	3884.93
210.374	3960.87
210.448	4022.54
210.522	4091.31
210.596	4163.07
210.67	4235.9
210.744	4349.66
210.818	4450.59
210.892	4540.78
210.966	4612.25
211.041	4701.98
211.115	4776.93
211.189	4880.66
211.263	4983.02
211.337	5074.72
211.411	5178.44
211.485	5262.65
211.559	5369.71
211.633	5466.24
211.707	5526.76
211.781	5635.75
211.855	5698.62
211.929	5792.92
212.003	5874.86
212.077	5990.8
212.151	6113.26
212.225	6228.87
212.299	6329.67
212.373	6429.03
212.447	6537.5
212.52	6680.6
212.594	6798.71
212.668	6928.77
212.742	7032.97
212.816	7148.15
212.89	7264.04
212.964	7386.68
213.038	7517.27
213.112	7655.26
213.186	7799.88
213.26	7908.19
213.333	7983.65
213.407	8116.95
213.481	8250.64
213.555	8391.27
213.629	8500.61
213.703	8613.36
213.777	8738.12
213.85	8842.95
213.924	9008.31
213.998	9145.76
214.072	9266.91
214.146	9381.74
214.219	9507.52
214.293	9633.87
214.367	9765.49
214.441	9903.67
214.515	10021.01
214.588	10117.16
214.662	10207.63
214.736	10308.51
214.81	10447.82
214.883	10585.49
214.957	10706.56
215.031	10819.16
215.105	10919.81
215.178	11036.57
215.252	11156.9
215.326	11255.64
215.4	11359.29
215.473	11437.33
215.547	11533.24
215.621	11641.3
215.694	11764.98
215.768	11851.88
215.842	11951.6
215.915	12054.27
215.989	12145.23
216.063	12246.5
216.136	12366.57
216.21	12482.35
216.284	12601.27
216.357	12703.9
216.431	12803.87
216.504	12913.39
216.578	13039.45
216.652	13155.58
216.725	13256.28
216.799	13368.21
216.873	13469.06
216.946	13584.17
217.02	13675.76
217.093	13772.8
217.167	13845.59
217.24	13924.41
217.314	14022.94
217.387	14117.04
217.461	14201.4
217.535	14303.4
217.608	14385.26
217.682	14466.14
217.755	14558.89
217.829	14643.15
217.902	14732.18
217.976	14826.23
218.049	14905.38
218.123	14978.75
218.196	15069.75
218.27	15148.37
218.343	15212.53
218.417	15304.35
218.49	15380.27
218.563	15475.66
218.637	15558.04
218.71	15666.58
218.784	15766.98
218.857	15858.66
218.931	15937.76
219.004	16018.97
219.077	16104.62
219.151	16187.19
219.224	16259.1
219.298	16337.23
219.371	16419.02
219.444	16486.3
219.518	16561.82
219.591	16637.73
219.665	16738.8
219.738	16812.1
219.811	16874.23
219.885	16952.64
219.958	17031.68
220.031	17095.35
220.105	17179.54
220.178	17247.01
220.251	17305.08
220.325	17370.48
220.398	17442.63
220.471	17514.48
220.544	17583.35
220.618	17639.4
220.691	17699.69
220.764	17774.96
220.838	17850.29
220.911	17911.35
220.984	17989.95
221.057	18053.41
221.131	18110.66
221.204	18141.84
221.277	18216.11
221.35	18313.02
221.424	18356.77
221.497	18408.39
221.57	18473.68
221.643	18515.85
221.716	18584.38
221.79	18634.06
221.863	18683.12
221.936	18719.41
222.009	18770.73
222.082	18833.18
222.155	18875.44
222.229	18951.73
222.302	19001.32
222.375	19027.72
222.448	19072.4
222.521	19104.88
222.594	19144.44
222.667	19181.26
222.74	19238.31
222.814	19280.58
222.887	19307.8
222.96	19367.85
223.033	19416.52
223.106	19466.83
223.179	19510.49
223.252	19541.53
223.325	19583.16
223.398	19613.47
223.471	19659.59
223.544	19704.41
223.617	19733.85
223.69	19771.92
223.763	19788.36
223.837	19824.11
223.91	19876.69
223.983	19891.97
224.056	19926.81
224.129	19969.31
224.202	20020.49
224.275	20029.02
224.348	20043.29
224.42	20055.67
224.493	20061.12
224.566	20075.48
224.639	20102.61
224.712	20126.13
224.785	20155.33
224.858	20172.78
224.931	20195.67
225.004	20211.47
225.077	20226.27
225.15	20225.88
225.223	20248.34
225.296	20290.37
225.369	20291.67
225.442	20302.9
225.514	20328.53
225.587	20356
225.66	20370.37
225.733	20384
225.806	20416.2
225.879	20426.99
225.952	20437.5
226.025	20475.18
226.097	20502.32
226.17	20500.44
226.243	20492.25
226.316	20502.85
226.389	20531.19
226.461	20560.87
226.534	20579.57
226.607	20596.82
226.68	20634.75
226.753	20654.66
226.825	20641.02
226.898	20676.92
226.971	20688.34
227.044	20710.03
227.117	20722.18
227.189	20738.42
227.262	20753.21
227.335	20776.97
227.407	20788.97
227.48	20812.64
227.553	20824.01
227.626	20843.1
227.698	20868.88
227.771	20889.46
227.844	20892.98
227.916	20900.06
227.989	20890.38
228.062	20906.14
228.134	20940.02
228.207	20941.9
228.28	20943.54
228.352	20956.26
228.425	20954.76
228.498	20970.77
228.57	20975.87
228.643	21002.91
228.716	21005.76
228.788	21005.37
228.861	20993.47
228.934	21005.9
229.006	21001.71
229.079	20997.03
229.151	20994.09
229.224	20975.1
229.296	20988.55
229.369	21019.25
229.442	21031.06
229.514	21023.73
229.587	21033.18
229.659	21012.55
229.732	21017.13
229.804	21031.54
229.877	21060.46
229.949	21081.14
230.022	21105.77
230.094	21105.33
230.167	21099.74
230.239	21091.16
230.312	21094.34
230.384	21120.71
230.457	21139.36
230.529	21149.96
230.602	21163.8
230.674	21162.64
230.747	21182.69
230.819	21192.57
230.892	21157.92
230.964	21159.65
231.037	21171.36
231.109	21166.01
231.181	21180.37
231.254	21180.09
231.326	21171.75
231.399	21161.14
231.471	21147.65
231.544	21112.13
231.616	21117.43
231.688	21112.8
231.761	21110.1
231.833	21102.15
231.905	21074
231.978	21063.16
232.05	21057.9
232.122	21051.2
232.195	21043.69
232.267	21047.59
232.339	21029.61
232.412	21032.41
232.484	21015.73
232.556	20994.43
232.629	21011.68
232.701	21007.83
232.773	21004.41
232.846	20988.07
232.918	20979.54
232.99	20980.6
233.062	20986.04
233.135	20976.36
233.207	20955.78
233.279	20957.8
233.351	20960.45
233.424	20949.37
233.496	20925.75
233.568	20931.97
233.64	20909.56
233.713	20895.68
233.785	20874.81
233.857	20870.81
233.929	20853.65
234.001	20862.09
234.074	20874.38
234.146	20832.83
234.218	20806.57
234.29	20781.94
234.362	20757.84
234.434	20724.78
234.507	20693.6
234.579	20660.1
234.651	20645.6
234.723	20636.97
234.795	20617.64
234.867	20594.85
234.939	20588.05
235.012	20579.33
235.084	20559.43
235.156	20547.76
235.228	20529.55
235.3	20509.55
235.372	20493.21
235.444	20494.51
235.516	20441.54
235.588	20427.47
235.66	20413.45
235.732	20375.28
235.804	20408.58
235.876	20411.76
235.948	20412.63
236.02	20377.93
236.092	20359.23
236.164	20331.38
236.236	20297.93
236.308	20275.81
236.38	20260.49
236.452	20234.61
236.524	20213.79
236.596	20214.18
236.668	20197.12
236.74	20175.77
236.812	20157.31
236.884	20143.72
236.956	20118.32
237.028	20087.34
237.1	20045.17
237.172	20028.78
237.244	20029.56
237.316	19964.59
237.388	19919.39
237.46	19870.67
237.532	19876.26
237.604	19840.69
237.675	19831.78
237.747	19814.48
237.819	19783.68
237.891	19750.96
237.963	19711.98
238.035	19672.99
238.107	19596.13
238.178	19580.27
238.25	19547.89
238.322	19541.91
238.394	19487.41
238.466	19449.48
238.538	19440.9
238.609	19420.81
238.681	19373.92
238.753	19342.93
238.825	19320.43
238.897	19301.25
238.968	19308.24
239.04	19266.41
239.112	19267.85
239.184	19224.82
239.255	19195.33
239.327	19172.15
239.399	19140.2
239.471	19118.56
239.542	19102.32
239.614	19094.81
239.686	19038.13
239.758	19023.58
239.829	18976.98
239.901	18968.74
239.973	18941.27
240.044	18906.53
240.116	18880.84
240.188	18851.88
240.259	18822.92
240.331	18781.91
240.403	18764.42
240.474	18704.85
240.546	18653.96
240.618	18594.84
240.689	18559.66
240.761	18529.63
240.833	18507.56
240.904	18477.97
240.976	18446.84
241.048	18404.68
241.119	18378.61
241.191	18351.62
241.262	18326.32
241.334	18292.78
241.405	18255.38
241.477	18217.6
241.549	18188.64
241.62	18162.14
241.692	18141.7
241.763	18115.2
241.835	18090.86
241.906	18054.81
241.978	18013.61
242.049	18009.71
242.121	17997.13
242.192	17965.18
242.264	17921.18
242.335	17871.25
242.407	17847.64
242.478	17805.28
242.55	17785.47
242.621	17750.44
242.693	17718.73
242.764	17674.25
242.836	17640.42
242.907	17620.18
242.979	17589.86
243.05	17559.36
243.122	17522.87
243.193	17484.13
243.264	17420.18
243.336	17384.75
243.407	17355.79
243.479	17337.77
243.55	17301.28
243.622	17270.49
243.693	17249.62
243.764	17228.22
243.836	17189.43
243.907	17149.23
243.978	17122.87
244.05	17089.71
244.121	17034.05
244.192	17011.93
244.264	16964.26
244.335	16934.09
244.407	16879.83
244.478	16857.37
244.549	16824.31
244.62	16777.32
244.692	16750.08
244.763	16738.08
244.834	16693.94
244.906	16650.22
244.977	16623.81
245.048	16605.5
245.119	16561.3
245.191	16512.82
245.262	16461.2
245.333	16444.04
245.405	16414.69
245.476	16385.53
245.547	16361.48
245.618	16347.16
245.689	16317.43
245.761	16294.68
245.832	16253.9
245.903	16231.2
245.974	16192.26
246.045	16155.34
246.117	16148.78
246.188	16100.73
246.259	16062.36
246.33	16036.96
246.401	16008.86
246.473	15956.18
246.544	15919.55
246.615	15895.93
246.686	15869.76
246.757	15851.06
246.828	15806.04
246.899	15783
246.97	15733.54
247.042	15689.63
247.113	15661.29
247.184	15639.8
247.255	15605.09
247.326	15577.18
247.397	15541.23
247.468	15506.33
247.539	15480.49
247.61	15426.41
247.681	15407.42
247.752	15383.27
247.823	15339.5
247.894	15311.88
247.965	15273.03
248.037	15235.39
248.108	15190.36
248.179	15163.32
248.25	15129.97
248.321	15105
248.392	15065.95
248.463	15062.34
248.534	15030.91
248.605	15004.45
248.675	14977.36
248.746	14955.62
248.817	14935.71
248.888	14912.24
248.959	14874.39
249.03	14841.13
249.101	14817.9
249.172	14779.58
249.243	14730.22
249.314	14719.56
249.385	14687.51
249.456	14669.14
249.527	14636.8
249.598	14610.81
249.669	14570.75
249.739	14551.86
249.81	14530.21
249.881	14485.14
249.952	14450.96
250.023	14413.27
250.094	14370.41
250.165	14329.54
250.235	14298.88
250.306	14270.82
250.377	14227.15
250.448	14202.56
250.519	14163.9
250.59	14153.39
250.66	14123.41
250.731	14122.54
250.802	14090.87
250.873	14069.32
250.944	14044.3
251.014	14013.5
251.085	14019.91
251.156	14008.15
251.227	13990.6
251.297	13978.36
251.368	13974.5
251.439	13963.08
251.51	13958.35
251.58	13931.45
251.651	13900.7
251.722	13887.01
251.792	13841.07
251.863	13819.32
251.934	13817.11
252.005	13826.65
252.075	13796.04
252.146	13791.12
252.217	13767.94
252.287	13754.58
252.358	13731.35
252.429	13736.17
252.499	13708.88
252.57	13680.06
252.641	13664.34
252.711	13637.97
252.782	13600.66
252.852	13590.78
252.923	13567.3
252.994	13542.33
253.064	13530.33
253.135	13501.93
253.205	13473.15
253.276	13475.47
253.347	13472.43
253.417	13437.63
253.488	13403.21
253.558	13378.52
253.629	13357.6
253.699	13339.91
253.77	13324.53
253.841	13296.09
253.911	13271.94
253.982	13254.54
254.052	13238.97
254.123	13206.96
254.193	13184.54
254.264	13199.24
254.334	13170.75
254.405	13137.15
254.475	13099.41
254.546	13071.79
254.616	13058.19
254.687	13036.02
254.757	13012.59
254.827	12982.03
254.898	12961.44
254.968	12939.08
255.039	12908.08
255.109	12888.6
255.18	12853.12
255.25	12803.33
255.321	12784.77
255.391	12740.9
255.461	12745.29
255.532	12698.92
255.602	12679.05
255.673	12637.7
255.743	12604.67
255.813	12553
255.884	12540.95
255.954	12535.55
256.024	12536.71
256.095	12524.75
256.165	12489.27
256.235	12473.56
256.306	12447.24
256.376	12437.26
256.446	12425.11
256.517	12403.76
256.587	12393.01
256.657	12380.67
256.728	12368.14
256.798	12352.61
256.868	12331.5
256.938	12287.93
257.009	12287.54
257.079	12273.8
257.149	12284.07
257.219	12242.23
257.29	12236.73
257.36	12196.15
257.43	12184.24
257.5	12140.96
257.571	12111.02
257.641	12104.66
257.711	12077.42
257.781	12062.19
257.852	12047.2
257.922	12008.83
257.992	11993.84
258.062	11965.4
258.132	11958.7
258.202	11931.23
258.273	11912.38
258.343	11915.61
258.413	11895.32
258.483	11862.78
258.553	11841.38
258.623	11808.41
258.693	11798.24
258.764	11788.99
258.834	11794.63
258.904	11781.47
258.974	11758.14
259.044	11739.88
259.114	11721.32
259.184	11704.88
259.254	11687.05
259.324	11648.73
259.394	11638.22
259.464	11642.37
259.535	11622.56
259.605	11600.15
259.675	11575.76
259.745	11561.21
259.815	11524.58
259.885	11498.17
259.955	11513.4
260.025	11479.13
260.095	11465.49
260.165	11449.39
260.235	11452.28
260.305	11419.22
260.375	11377.63
260.445	11381.44
260.515	11377.58
260.585	11376.67
260.655	11358.64
260.725	11355.75
260.795	11349.43
260.865	11347.65
260.934	11321.1
261.004	11313.43
261.074	11289.53
261.144	11293.77
261.214	11286.97
261.284	11273.29
261.354	11268.37
261.424	11237.14
261.494	11245.91
261.564	11226.2
261.634	11214.82
261.703	11169.38
261.773	11156.42
261.843	11156.03
261.913	11134.44
261.983	11096.03
262.053	11083.41
262.123	11064.37
262.192	11031.02
262.262	11024.08
262.332	10987.27
262.402	10972.9
262.472	10952.66
262.541	10917.97
262.611	10910.41
262.681	10885.39
262.751	10878.89
262.821	10860.48
262.89	10830.51
262.96	10814.75
263.03	10823.76
263.1	10811.57
263.169	10804.34
263.239	10794.13
263.309	10791.81
263.379	10782.56
263.448	10777.79
263.518	10767.96
263.588	10749.94
263.657	10755.48
263.727	10751
263.797	10741.02
263.867	10725.8
263.936	10703.73
264.006	10703.15
264.076	10685.18
264.145	10666.72
264.215	10640.42
264.285	10637.24
264.354	10612.52
264.424	10586.21
264.494	10552.68
264.563	10532.53
264.633	10539.57
264.702	10529.93
264.772	10496.59
264.842	10482.86
264.911	10464.45
264.981	10427.02
265.05	10415.79
265.12	10398.97
265.19	10376.57
265.259	10368.62
265.329	10358.11
265.398	10344
265.468	10361.15
265.537	10339.09
265.607	10330.37
265.676	10333.74
265.746	10324.97
265.815	10319.33
265.885	10311.29
265.955	10288.21
266.024	10270
266.094	10233.19
266.163	10229.63
266.232	10229.2
266.302	10207.32
266.371	10201.01
266.441	10194.13
266.51	10191.81
266.58	10163.68
266.649	10146
266.719	10150.72
266.788	10139.59
266.858	10141.33
266.927	10098.64
266.996	10096.96
267.066	10086.69
267.135	10052.59
267.205	10048.4
267.274	10037.42
267.343	10041.08
267.413	10026.87
267.482	10031.4
267.552	10031.01
267.621	10006.11
267.69	9977.16
267.76	9970.65
267.829	9962.42
267.898	9951.67
267.968	9932.31
268.037	9929.85
268.106	9922.1
268.176	9895.46
268.245	9879.13
268.314	9861.98
268.384	9857.26
268.453	9842.86
268.522	9835.78
268.592	9842.67
268.661	9821.57
268.73	9811.26
268.799	9781.83
268.869	9785.88
268.938	9755.87
269.007	9733.43
269.076	9724.37
269.146	9731.31
269.215	9723.26
269.284	9728.37
269.353	9714.98
269.422	9698.46
269.492	9684.98
269.561	9649.72
269.63	9642.79
269.699	9625.84
269.768	9620.73
269.838	9616.88
269.907	9614.57
269.976	9587.84
270.045	9553.26
270.114	9542.86
270.183	9530.05
270.253	9526.58
270.322	9499.04
270.391	9485.07
270.46	9495.23
270.529	9491.81
270.598	9486.32
270.667	9471.97
270.736	9448.61
270.806	9439.32
270.875	9439.8
270.944	9428.39
271.013	9451.12
271.082	9443.8
271.151	9447.75
271.22	9416.06
271.289	9401.04
271.358	9385.73
271.427	9381.87
271.496	9380.04
271.565	9367.19
271.634	9360.06
271.703	9383.61
271.772	9385.2
271.841	9378.75
271.91	9345.14
271.979	9337.48
272.048	9306.18
272.117	9307.39
272.186	9290.92
272.255	9286.06
272.324	9281.53
272.393	9277
272.462	9263.9
272.531	9251.34
272.6	9235.93
272.669	9242.86
272.738	9235.78
272.807	9239.49
272.876	9224.76
272.945	9248.98
273.013	9255.19
273.082	9256.97
273.151	9211.85
273.22	9211.42
273.289	9203.04
273.358	9217.44
273.427	9200.49
273.496	9206.79
273.564	9195.43
273.633	9201.83
273.702	9188.88
273.771	9174.34
273.84	9163.51
273.909	9154.27
273.977	9152.58
274.046	9142.86
274.115	9146.18
274.184	9126.59
274.253	9113.2
274.322	9119.75
274.39	9088.31
274.459	9070.44
274.528	9047.67
274.597	9041.8
274.665	9033.13
274.734	9037.51
274.803	9022.4
274.872	9015.95
274.94	8998.23
275.009	9056.99
275.078	9040.62
275.147	9030.85
275.215	9025.17
275.284	9034.27
275.353	9021.85
275.421	9002.3
275.49	9019.44
275.559	9009.38
275.627	9001.15
275.696	8984.06
275.765	8980.26
275.833	8964.81
275.902	8959.27
275.971	8968.32
276.039	8977.03
276.108	8983.72
276.177	8988.44
276.245	8978.62
276.314	8973.42
276.383	8976.41
276.451	8911.15
276.52	8907.78
276.588	8925.5
276.657	8934.55
276.725	8923.67
276.794	8925.21
276.863	8931.13
276.931	8902.05
277	8906.19
277.068	8919.52
277.137	8944.8
277.205	8944.22
277.274	8965.45
277.342	8975.8
277.411	8952.74
277.48	8943.88
277.548	8933.05
277.617	8928.24
277.685	8921.69
277.754	8925.01
277.822	8914.95
277.89	8927.66
277.959	8923.91
278.027	8907.06
278.096	8890.31
278.164	8913.23
278.233	8906.39
278.301	8891.76
278.37	8900.28
278.438	8887.62
278.507	8885.88
278.575	8857.34
278.643	8851.22
278.712	8830.14
278.78	8816.47
278.849	8823.3
278.917	8830.24
278.985	8823.4
279.054	8820.61
279.122	8833.56
279.191	8835.87
279.259	8837.98
279.327	8817.62
279.396	8833.99
279.464	8824.79
279.532	8835.67
279.601	8832.69
279.669	8830.09
279.737	8849.25
279.806	8848.23
279.874	8857.81
279.942	8864.41
280.011	8859.21
280.079	8866.19
280.147	8882.94
280.215	8883.66
280.284	8881.79
280.352	8865.18
280.42	8873.03
280.488	8867.78
280.557	8863.78
280.625	8865.13
280.693	8861.62
280.761	8863.59
280.83	8846.6
280.898	8857.67
280.966	8840.87
281.034	8809.48
281.102	8794.8
281.171	8783.35
281.239	8790.23
281.307	8778.53
281.375	8758.9
281.443	8783.73
281.512	8778.73
281.58	8787.83
281.648	8775.7
281.716	8779.74
281.784	8781.52
281.852	8769.15
281.92	8764.92
281.989	8773.1
282.057	8757.89
282.125	8806.76
282.193	8803.19
282.261	8799.25
282.329	8796.74
282.397	8801.12
282.465	8804.3
282.533	8819.89
282.601	8813.59
282.67	8792.79
282.738	8782.59
282.806	8796.6
282.874	8783.41
282.942	8792.99
283.01	8784.75
283.078	8789.61
283.146	8785.09
283.214	8797.46
283.282	8801.5
283.35	8815.51
283.418	8807.28
283.486	8809.16
283.554	8762.22
283.622	8763.42
283.69	8767.89
283.758	8762.55
283.826	8766.35
283.894	8779.25
283.962	8798.32
284.03	8808.76
284.098	8810.3
284.165	8803.18
284.233	8803.42
284.301	8800.97
284.369	8788.16
284.437	8779.5
284.505	8777.48
284.573	8791.05
284.641	8776.22
284.709	8788.88
284.777	8768.48
284.845	8778.2
284.912	8779.84
284.98	8784.55
285.048	8774.97
285.116	8779.6
285.184	8790.28
285.252	8789.13
285.319	8768.28
285.387	8755.43
285.455	8735.99
285.523	8739.45
285.591	8743.69
285.659	8741.76
285.726	8753.12
285.794	8735.41
285.862	8735.7
285.93	8740.13
285.997	8735.51
286.065	8730.89
286.133	8717.36
286.201	8716.49
286.269	8700.71
286.336	8693.63
286.404	8686.84
286.472	8699.21
286.539	8673.18
286.607	8654.89
286.675	8655.32
286.743	8663.12
286.81	8656.67
286.878	8675.87
286.946	8668.32
287.013	8663.6
287.081	8662.4
287.149	8645.69
287.216	8664.94
287.284	8661.14
287.352	8655.42
287.419	8652.53
287.487	8668.07
287.555	8674.48
287.622	8669.76
287.69	8674.52
287.758	8687.62
287.825	8684.78
287.893	8671.4
287.96	8675.58
288.028	8686.6
288.096	8688.58
288.163	8694.5
288.231	8685.93
288.298	8682.03
288.366	8697.58
288.433	8703.45
288.501	8699.65
288.569	8706.82
288.636	8700.7
288.704	8706.91
288.771	8710.67
288.839	8702.77
288.906	8694.5
288.974	8710.09
289.041	8709.76
289.109	8695.32
289.176	8705.62
289.244	8710.67
289.311	8724.68
289.379	8741.86
289.446	8749.61
289.514	8743.26
289.581	8735.84
289.649	8742.1
289.716	8744.46
289.783	8736.61
289.851	8746.58
289.918	8741.33
289.986	8745.81
290.053	8747.73
290.121	8744.99
290.188	8748.45
290.255	8776.18
290.323	8772.57
290.39	8762.22
290.458	8768.96
290.525	8789.89
290.592	8782.24
290.66	8782.91
290.727	8780.46
290.794	8783.2
290.862	8776.56
290.929	8786.95
290.996	8791.91
291.064	8796.34
291.131	8807.85
291.198	8820.22
291.266	8825.41
291.333	8822.91
291.4	8830.61
291.468	8850.88
291.535	8852.04
291.602	8854.44
291.669	8845.06
291.737	8855.64
291.804	8853.91
291.871	8869.03
291.938	8876.92
292.006	8901.76
292.073	8919.14
292.14	8926.65
292.207	8924
292.275	8934.5
292.342	8943.02
292.409	8966.75
292.476	8992.17
292.543	8989.43
292.611	8994.19
292.678	9008.54
292.745	9039.01
292.812	9049.17
292.879	9044.69
292.946	9048.73
293.014	9062.21
293.081	9075.55
293.148	9082.62
293.215	9093.6
293.282	9092.45
293.349	9101.06
293.416	9081.23
293.484	9089.65
293.551	9102.36
293.618	9120.7
293.685	9138.62
293.752	9133.32
293.819	9133.32
293.886	9117.24
293.953	9111.7
294.02	9117.09
294.087	9124.32
294.154	9118.64
294.221	9129.81
294.288	9129.13
294.356	9144.88
294.423	9154.46
294.49	9137.99
294.557	9157.59
294.624	9147.62
294.691	9167.84
294.758	9165.2
294.825	9172.42
294.892	9163.9
294.959	9161.78
295.026	9170.73
295.093	9165.2
295.16	9160.96
295.226	9159.47
295.293	9194.04
295.36	9207.33
295.427	9219.66
295.494	9227.5
295.561	9239.16
295.628	9259.72
295.695	9273.78
295.762	9280.57
295.829	9294.53
295.896	9316.3
295.963	9320.34
296.03	9331.65
296.096	9332.81
296.163	9347.02
296.23	9363.29
296.297	9379.71
296.364	9378.36
296.431	9387.41
296.498	9383.9
296.564	9408.79
296.631	9416.59
296.698	9397.42
296.765	9418.18
296.832	9412.06
296.899	9402.62
296.965	9417.46
297.032	9397.85
297.099	9417.21
297.166	9423.52
297.233	9412.73
297.299	9409.36
297.366	9409.65
297.433	9414.71
297.5	9424.44
297.566	9422.37
297.633	9425.64
297.7	9423.81
297.767	9429.06
297.833	9437.01
297.9	9437.05
297.967	9422.13
298.033	9433.93
298.1	9464.08
298.167	9447.17
298.234	9454.11
298.3	9462.87
298.367	9462.44
298.434	9464.85
298.5	9457.52
298.567	9455.31
298.634	9455.98
298.7	9469.23
298.767	9468.02
298.834	9485.31
298.9	9484.3
298.967	9474.72
299.033	9483.34
299.1	9501.06
299.167	9512.91
299.233	9504.48
299.3	9519.31
299.366	9541.46
299.433	9550.22
299.5	9522.43
299.566	9534.42
299.633	9543.33
299.699	9551.09
299.766	9538.86
299.832	9543.29
299.899	9545.21
299.965	9553.4
300.032	9551.67
300.099	9560.14
300.165	9571.07
300.232	9561.92
300.298	9559.13
300.365	9576.03
300.431	9580.71
300.498	9573.96
300.564	9578.92
300.631	9593.13
300.697	9613.46
300.763	9613.6
300.83	9612.64
300.896	9628.19
300.963	9636.09
301.029	9644.66
301.096	9653.29
301.162	9668.84
301.229	9667.06
301.295	9661.28
301.361	9664.41
301.428	9666.14
301.494	9648.28
301.561	9649.53
301.627	9651.45
301.693	9655.93
301.76	9660.51
301.826	9650.35
301.892	9665.86
301.959	9672.12
302.025	9664.75
302.092	9652.95
302.158	9658.87
302.224	9659.5
302.291	9650.35
302.357	9647.84
302.423	9646.83
302.49	9637.63
302.556	9651.02
302.622	9646.35
302.688	9659.11
302.755	9675.2
302.821	9683.19
302.887	9698.6
302.954	9695.91
303.02	9706.41
303.086	9716.09
303.152	9710.31
303.219	9706.17
303.285	9703.76
303.351	9710.21
303.417	9715.03
303.483	9706.7
303.55	9697.31
303.616	9697.45
303.682	9695.33
303.748	9690.76
303.815	9698.32
303.881	9707.42
303.947	9693.31
304.013	9706.17
304.079	9693.36
304.145	9673.03
304.212	9672.41
304.278	9660.46
304.344	9656.22
304.41	9644.33
304.476	9637.59
304.542	9636.43
304.608	9644.33
304.674	9626.75
304.741	9620.34
304.807	9620.29
304.873	9627.95
304.939	9648.81
305.005	9630.79
305.071	9625.26
305.137	9630.07
305.203	9601.85
305.269	9598.77
305.335	9609.31
305.401	9600.89
305.467	9603.25
305.533	9610.18
305.599	9618.95
305.666	9628.82
305.732	9633.63
305.798	9644.09
305.864	9662.34
305.93	9661.43
305.996	9659.84
306.062	9661.43
306.128	9658.73
306.194	9645.48
306.259	9638.31
306.325	9628.82
306.391	9639.66
306.457	9654.3
306.523	9656.41
306.589	9680.69
306.655	9671.54
306.721	9651.74
306.787	9645
306.853	9662.63
306.919	9640.72
306.985	9631.95
307.051	9630.6
307.117	9620.68
307.183	9616.88
307.248	9588.41
307.314	9595.3
307.38	9593.18
307.446	9603.58
307.512	9594.24
307.578	9600.98
307.644	9605.22
307.709	9597.37
307.775	9598.77
307.841	9598.09
307.907	9597.61
307.973	9577.09
308.039	9575.07
308.104	9583.31
308.17	9579.65
308.236	9563.8
308.302	9567.94
308.368	9555.13
308.433	9550.08
308.499	9546.32
308.565	9529.66
308.631	9528.16
308.696	9500.33
308.762	9492.29
308.828	9488.1
308.894	9471.25
308.959	9445.2
309.025	9432.1
309.091	9436.96
309.156	9429.4
309.222	9424.58
309.288	9415.19
309.354	9396.41
309.419	9401.42
309.485	9389.05
309.551	9393.96
309.616	9377.06
309.682	9377.25
309.748	9370.65
309.813	9366.8
309.879	9356.64
309.945	9346.1
310.01	9343.4
310.076	9349.8
310.141	9345.57
310.207	9326.4
310.273	9326.88
310.338	9331.84
310.404	9316.34
310.469	9294.86
310.535	9278.92
310.601	9262.07
310.666	9263.27
310.732	9271.55
310.797	9251.47
310.863	9236.93
310.928	9231.87
310.994	9237.22
311.059	9233.46
311.125	9233.37
311.191	9245.5
311.256	9236.26
311.322	9243.39
311.387	9223.36
311.453	9516.09
311.518	9490
311.584	9494.38
311.649	9501.17
311.715	9488.75
311.78	9493.85
311.846	9485.57
311.911	9493.37
311.976	9488.79
312.042	9465.35
312.107	9454.22
312.173	9445.9
312.238	9442.91
312.304	9432.8
312.369	9420.91
312.434	9409.26
312.5	9401.31
312.565	9365.3
312.631	9371.6
312.696	9369.63
312.761	9375.84
312.827	9070.49
312.892	9112.19
312.958	9103.04
313.023	9094.61
313.088	9100.73
313.154	9081.47
313.219	9072.04
313.284	9059.42
313.35	9054.94
313.415	9052.01
313.48	9049.6
313.546	9052.35
313.611	9058.03
313.676	9051.29
313.741	9032.61
313.807	9042.86
313.872	9042.09
313.937	9054.51
314.003	9063.37
314.068	9052.64
314.133	9054.13
314.198	9049.12
314.264	9017.68
314.329	9007.67
314.394	9002.66
314.459	8991.78
314.525	9017.82
314.59	9016.81
314.655	9008.05
314.72	9014.7
314.785	9018.4
314.851	9011.71
314.916	8994.86
314.981	8978.83
315.046	8964.3
315.111	8960.88
315.176	8943.59
315.242	8949.76
315.307	8936.85
315.372	8912.93
315.437	8906.96
315.502	8902.82
315.567	8906.04
315.632	8890.16
315.698	8895.55
315.763	8894.44
315.828	8894.49
315.893	8887.85
315.958	8885.2
316.023	8868.21
316.088	8849.39
316.153	8822.92
316.218	8813.19
316.283	8797.17
316.348	8784.17
316.413	8785.91
316.479	8776.23
316.544	8741.78
316.609	8709.05
316.674	8677
316.739	8641.34
316.804	8612.32
316.869	8573.53
316.934	8544.71
316.999	8517.04
317.064	8462.66
317.129	8415.98
317.194	8372.92
317.259	8321.86
317.324	8270.91
317.389	8232.86
317.454	8189.13
317.518	8156.9
317.583	8130.19
317.648	8107.87
317.713	8075.35
317.778	8016.9
317.843	7984.82
317.908	7945.05
317.973	7908.49
318.038	7876.42
318.103	7845.26
318.168	7813.75
318.233	7778.55
318.297	7724.26
318.362	7693.77
318.427	7653.01
318.492	7628
318.557	7584.74
318.622	7555.07
318.687	7530.98
318.751	7491.86
318.816	7459.7
318.881	7425.18
318.946	7370.05
319.011	7324.38
319.075	7277.71
319.14	7242.68
319.205	7198.07
319.27	7167.66
319.335	7124.32
319.399	7082.99
319.464	7052.43
319.529	6999.34
319.594	6964.84
319.658	6932.9
319.723	6887.35
319.788	6861.51
319.853	6809
319.917	6776.83
319.982	6724.28
320.047	6690.17
320.112	6663.57
320.176	6612.76
320.241	6579.1
320.306	6555.23
320.37	6513.17
320.435	6477.5
320.5	6447.4
320.564	6403.57
320.629	6364.98
320.694	6330.47
320.758	6291.16
320.823	6246.91
320.888	6218.69
320.952	6166.33
321.017	6128.47
321.082	6088.22
321.146	6052.99
321.211	6024.54
321.275	5986.84
321.34	5944
321.405	5898.14
321.469	5849.69
321.534	5809.32
321.598	5756.57
321.663	5720.68
321.727	5689.41
321.792	5644.2
321.857	5599.89
321.921	5564.46
321.986	5521.43
322.05	5465.54
322.115	5429.3
322.179	5385.21
322.244	5330.88
322.308	5300.3
322.373	5253.3
322.437	5212.67
322.502	5187.6
322.566	5136.04
322.631	5095.47
322.695	5054.57
322.76	5008.26
322.824	4978.85
322.889	4934.86
322.953	4897.71
323.018	4831.34
323.082	4767
323.146	4718.86
323.211	4666.31
323.275	4619.16
323.34	4573.04
323.404	4535.97
323.468	4486.06
323.533	4443.1
323.597	4395.91
323.662	4344.96
323.726	4308.61
323.79	4261.41
323.855	4192.13
323.919	4143.6
323.983	4101.42
324.048	4034.97
324.112	4160.38
324.177	4025.3
324.241	3818.54
324.305	3606.94
324.37	3404.76
324.434	3211.34
324.498	3165.06
324.562	3113.96
324.627	3055.01
324.691	2999.63
324.755	2934.26
324.82	2861.1
324.884	2780.08
324.948	2707.51
325.012	2606.87
325.077	2479.73
