Data from 20250702_urea_0.5M_MAYP1162681_03-04-59-764.txt Node
Date: Thu Jul 03 03:04:59 BST 2025
User: adleo
Spectrometer: MAYP116268
Trigger mode: 0
Integration Time (sec): 1.000000E0
Scans to average: 1
Electric dark correction enabled: true
Nonlinearity correction enabled: true
Boxcar width: 10
XAxis mode: Wavelengths
Number of Pixels in Spectrum: 2068
>>>>>Begin Spectral Data<<<<<
179.565	1195.91
179.642	1253.31
179.718	1297.42
179.795	1333.17
179.871	1365.68
179.948	1382.27
180.024	1400.96
180.101	1420.8
180.177	1434.29
180.254	1455.31
180.33	1479.23
180.407	1532.11
180.483	1624.61
180.56	1714.22
180.636	1797.77
180.712	1783.65
180.789	1796.49
180.865	1810.74
180.942	1816.82
181.018	1828.04
181.095	1837.69
181.171	1838.64
181.248	1837.36
181.324	1851.24
181.4	1860.51
181.477	1869.54
181.553	1884.37
181.63	1907.19
181.706	1925.4
181.782	1935.24
181.859	1937.57
181.935	1939.8
182.011	1936.95
182.088	1955.31
182.164	1972.86
182.24	1987.74
182.317	1996.34
182.393	1992.35
182.469	2008.51
182.546	2020.78
182.622	2023.82
182.698	2019.45
182.775	2035.14
182.851	2048.65
182.927	2042.04
183.003	2034.86
183.08	2030.34
183.156	2039.09
183.232	2033.05
183.308	2020.12
183.385	2027.87
183.461	2042.89
183.537	2045.99
183.613	2059.64
183.69	2050.03
183.766	2038.75
183.842	2042.27
183.918	2047.27
183.995	2061.91
184.071	2064.67
184.147	2062.72
184.223	2053.26
184.299	2066.3
184.375	2053.51
184.452	2061.21
184.528	2117.36
184.604	2128.06
184.68	2137.95
184.756	2142.95
184.832	2149.18
184.908	2155.46
184.985	2153.79
185.061	2139.76
185.137	2148.99
185.213	2132.34
185.289	2134.2
185.365	2128.64
185.441	2126.73
185.517	2141.34
185.593	2136.25
185.669	2132.78
185.745	2141.34
185.822	2159.36
185.898	2148.9
185.974	2158.03
186.05	2147.51
186.126	2106.16
186.202	2099.26
186.278	2098.93
186.354	2088.94
186.43	2095.36
186.506	2092.18
186.582	2091.94
186.658	2096.5
186.734	2073.58
186.81	2079.86
186.886	2084.61
186.962	2094.89
187.038	2091.27
187.114	2080.85
187.19	2086.99
187.266	2075.57
187.341	2074.62
187.417	2064.73
187.493	2064.44
187.569	2069.96
187.645	2064.87
187.721	2052.84
187.797	2061.78
187.873	2066.39
187.949	2059.88
188.025	2054.41
188.101	2056.5
188.176	2062.4
188.252	2059.64
188.328	2067.29
188.404	2066.34
188.48	2062.44
188.556	2059.63
188.632	2061.87
188.707	2064.63
188.783	2063.2
188.859	2061.06
188.935	2051.69
189.011	2061.58
189.086	2055.97
189.162	2043.7
189.238	2043.22
189.314	2041.75
189.39	2035.05
189.465	2023.11
189.541	2037.99
189.617	2021.44
189.693	2019.4
189.768	2019.59
189.844	2042.57
189.92	2036.34
189.996	2044.05
190.071	2050.47
190.147	2046.9
190.223	2052.8
190.298	2046.76
190.374	2033.96
190.45	2045.14
190.526	2053.27
190.601	2046.33
190.677	2047.23
190.753	2077.73
190.828	2081.54
190.904	2097.33
190.98	2115.17
191.055	2128.4
191.131	2124.69
191.207	2145.23
191.282	2153.03
191.358	2147.04
191.433	2131.48
191.509	2142.55
191.585	2139.03
191.66	2141.56
191.736	2148.93
191.811	2141.32
191.887	2155.31
191.963	2178.24
192.038	2182.09
192.114	2179.95
192.189	2183.71
192.265	2182.61
192.34	2160.15
192.416	2158.82
192.491	2153.53
192.567	2154.58
192.642	2153.82
192.718	2151.82
192.793	2140.88
192.869	2136.17
192.944	2136.69
193.02	2143.16
193.095	2150.54
193.171	2158.05
193.246	2157.24
193.322	2154.72
193.397	2154.72
193.473	2140.54
193.548	2120.89
193.624	2129.08
193.699	2129.08
193.775	2143.45
193.85	2144.16
193.925	2152.25
194.001	2151.49
194.076	2144.78
194.152	2133.31
194.227	2127.65
194.302	2119.05
194.378	2123.28
194.453	2123.04
194.529	2135.51
194.604	2126.61
194.679	2117.57
194.755	2100.26
194.83	2112.06
194.905	2111.02
194.981	2121.1
195.056	2114.87
195.131	2125.05
195.207	2122.39
195.282	2113.3
195.357	2095.51
195.433	2110.63
195.508	2098.55
195.583	2104.54
195.659	2118.82
195.734	2129.05
195.809	2129.86
195.884	2140.75
195.96	2141.65
196.035	2158.02
196.11	2153.54
196.185	2163.53
196.261	2169.05
196.336	2200.17
196.411	2186.84
196.486	2190.41
196.561	2183.84
196.637	2191.55
196.712	2204.49
196.787	2206.54
196.862	2221.28
196.937	2234.03
197.013	2241.56
197.088	2251.83
197.163	2276.16
197.238	2293.11
197.313	2288.87
197.388	2301.29
197.464	2332.19
197.539	2342.81
197.614	2332.15
197.689	2345.19
197.764	2356.99
197.839	2374.89
197.914	2365.03
197.989	2388.41
198.065	2403.59
198.14	2455.66
198.215	2481.41
198.29	2492.7
198.365	2505.03
198.44	2515.84
198.515	2544.27
198.59	2557.84
198.665	2584.75
198.74	2591.32
198.815	2589.04
198.89	2614.94
198.965	2644.24
199.04	2637.95
199.115	2651.14
199.19	2693.67
199.265	2695.05
199.34	2708.92
199.415	2740.9
199.49	2764.33
199.565	2774.57
199.64	2799.2
199.715	2793.05
199.79	2800.06
199.865	2808.21
199.94	2808.78
200.015	2841.04
200.09	2843.38
200.165	2850.48
200.24	2857.34
200.315	2898.8
200.39	2914.29
200.464	2916.72
200.539	2917.1
200.614	2930.68
200.689	2957.52
200.764	2965.96
200.839	2988.88
200.914	2994.6
200.989	2983.49
201.063	2996.74
201.138	2977.21
201.213	2975.68
201.288	2960.33
201.363	2969.15
201.438	2970.01
201.512	2984.64
201.587	2969.86
201.662	2972.77
201.737	2980.63
201.812	2991.74
201.886	2955.1
201.961	2968.22
202.036	2957.83
202.111	2957.21
202.186	2932.53
202.26	2912.41
202.335	2890.01
202.41	2879.57
202.485	2863.65
202.559	2849.5
202.634	2824.53
202.709	2832.77
202.784	2815.09
202.858	2812.32
202.933	2790.17
203.008	2781.45
203.082	2761.87
203.157	2759.43
203.232	2717.52
203.306	2699.99
203.381	2662.58
203.456	2641
203.53	2615.92
203.605	2599.16
203.68	2575.05
203.754	2566.05
203.829	2551.95
203.904	2534.05
203.978	2522.38
204.053	2522.33
204.127	2509.47
204.202	2506.14
204.277	2491.76
204.351	2483
204.426	2476.76
204.5	2469.28
204.575	2434.82
204.65	2443.3
204.724	2433.68
204.799	2440.57
204.873	2439.29
204.948	2439.29
205.022	2429.01
205.097	2421.2
205.171	2432.52
205.246	2440.81
205.32	2440.72
205.395	2438.29
205.469	2427.39
205.544	2434.2
205.618	2415.59
205.693	2427.26
205.767	2416.45
205.842	2435.59
205.916	2430.98
205.991	2423.07
206.065	2428.64
206.14	2445.58
206.214	2446.34
206.289	2441.15
206.363	2457.86
206.438	2458.15
206.512	2468.24
206.586	2489.05
206.661	2495.72
206.735	2474.54
206.81	2477.16
206.884	2490.53
206.958	2479.11
207.033	2499.67
207.107	2505.82
207.181	2543.35
207.256	2537.87
207.33	2557.78
207.405	2574.75
207.479	2596.89
207.553	2606.18
207.628	2594.75
207.702	2609.94
207.776	2602.7
207.851	2607.7
207.925	2624.19
207.999	2625.76
208.073	2626.76
208.148	2633
208.222	2628.91
208.296	2668.81
208.371	2689.35
208.445	2712.18
208.519	2751.57
208.593	2769.01
208.668	2778.35
208.742	2786.7
208.816	2801.46
208.89	2826.44
208.965	2837.32
209.039	2856.72
209.113	2885.13
209.187	2920
209.261	2934.11
209.336	2975.2
209.41	3019.22
209.484	3039.63
209.558	3081.07
209.632	3114.97
209.707	3148.36
209.781	3194.29
209.855	3232.37
209.929	3278.35
210.003	3312.47
210.077	3342.73
210.151	3423.16
210.226	3490.88
210.3	3557.39
210.374	3616.91
210.448	3659.36
210.522	3708.76
210.596	3766.8
210.67	3820.54
210.744	3913.72
210.818	3990.72
210.892	4063.29
210.966	4109.03
211.041	4175.48
211.115	4228.2
211.189	4311.11
211.263	4385.71
211.337	4454.96
211.411	4532.38
211.485	4590.2
211.559	4664.49
211.633	4731.17
211.707	4772.31
211.781	4850.69
211.855	4885.03
211.929	4954.54
212.003	5011.64
212.077	5095.19
212.151	5177.94
212.225	5265.24
212.299	5332.07
212.373	5396.42
212.447	5467.63
212.52	5571.13
212.594	5653.45
212.668	5751.02
212.742	5817.97
212.816	5901.01
212.89	5980.1
212.964	6065.77
213.038	6158.5
213.112	6263.62
213.186	6371.98
213.26	6439.83
213.333	6481.03
213.407	6579.18
213.481	6672.27
213.555	6778.74
213.629	6860.03
213.703	6939.87
213.777	7035.79
213.85	7111.8
213.924	7240.94
213.998	7341.5
214.072	7440.31
214.146	7533.09
214.219	7620.78
214.293	7712.45
214.367	7805.59
214.441	7908.31
214.515	7999.89
214.588	8076.71
214.662	8137.13
214.736	8209.09
214.81	8306.68
214.883	8412.06
214.957	8488.74
215.031	8566.63
215.105	8641.78
215.178	8721.48
215.252	8812.74
215.326	8880.66
215.4	8952.66
215.473	9004.37
215.547	9069.41
215.621	9142.23
215.694	9234.54
215.768	9304.79
215.842	9380.71
215.915	9451.31
215.989	9512.71
216.063	9592.77
216.136	9671.13
216.21	9750.1
216.284	9841.52
216.357	9936.51
216.431	10018.15
216.504	10124.42
216.578	10237.48
216.652	10326.5
216.725	10412.26
216.799	10495.62
216.873	10575.93
216.946	10665.2
217.02	10739.16
217.093	10824.88
217.167	10879.34
217.24	10935.77
217.314	11010.94
217.387	11083.65
217.461	11164.51
217.535	11254.24
217.608	11305.09
217.682	11383.26
217.755	11475.41
217.829	11545.63
217.902	11618.94
217.976	11697.84
218.049	11750.23
218.123	11808.02
218.196	11881.96
218.27	11947.61
218.343	12006.51
218.417	12085.61
218.49	12157.43
218.563	12245.69
218.637	12309.51
218.71	12407.41
218.784	12496.44
218.857	12584.37
218.931	12659.23
219.004	12733.22
219.077	12813.92
219.151	12898.85
219.224	12966.29
219.298	13031.22
219.371	13116.74
219.444	13166.68
219.518	13234.36
219.591	13317.76
219.665	13403.52
219.738	13481.71
219.811	13536.95
219.885	13616.59
219.958	13687.65
220.031	13750.89
220.105	13815.06
220.178	13895.66
220.251	13954.32
220.325	14018
220.398	14086.26
220.471	14159.63
220.544	14226.49
220.618	14282.75
220.691	14346.33
220.764	14413.82
220.838	14484.3
220.911	14540.17
220.984	14629.63
221.057	14696.16
221.131	14759.35
221.204	14796.66
221.277	14870.61
221.35	14964.27
221.424	15014.44
221.497	15062.41
221.57	15126.57
221.643	15194.63
221.716	15257
221.79	15306.02
221.863	15365.12
221.936	15421.13
222.009	15479.07
222.082	15545.44
222.155	15590.65
222.229	15663.53
222.302	15719.83
222.375	15768.22
222.448	15825.24
222.521	15866.21
222.594	15908.82
222.667	15939.77
222.74	16010.47
222.814	16060.45
222.887	16105.18
222.96	16168.66
223.033	16236.91
223.106	16287.47
223.179	16339.18
223.252	16372.25
223.325	16424.35
223.398	16473.36
223.471	16512.98
223.544	16566.82
223.617	16610.34
223.69	16668.7
223.763	16699.65
223.837	16757.72
223.91	16811.89
223.983	16837.24
224.056	16881.63
224.129	16936.57
224.202	16996.68
224.275	17025.3
224.348	17046.99
224.42	17078.46
224.493	17099.23
224.566	17136.2
224.639	17174.99
224.712	17203.14
224.785	17247.43
224.858	17283.91
224.931	17311.24
225.004	17347.24
225.077	17375.86
225.15	17391.43
225.223	17417.89
225.296	17476.78
225.369	17485.98
225.442	17506.37
225.514	17551.24
225.587	17586.08
225.66	17612.68
225.733	17646.22
225.806	17681.69
225.879	17717.45
225.952	17731.72
226.025	17778.37
226.097	17817.26
226.17	17858.84
226.243	17876.63
226.316	17907.76
226.389	17936.43
226.461	17970.55
226.534	17995.66
226.607	18022.89
226.68	18067.32
226.753	18101.97
226.825	18102.07
226.898	18149.77
226.971	18182.4
227.044	18219.17
227.117	18244.95
227.189	18280.66
227.262	18316.56
227.335	18344.56
227.407	18370.68
227.48	18409.47
227.553	18433.81
227.626	18452.31
227.698	18467.64
227.771	18496.79
227.844	18515.01
227.916	18535.88
227.989	18549.9
228.062	18573.03
228.134	18621.7
228.207	18647.1
228.28	18668.64
228.352	18698.03
228.425	18722.47
228.498	18758.27
228.57	18770.22
228.643	18809.21
228.716	18829.79
228.788	18850.6
228.861	18870.51
228.934	18905.68
229.006	18925.68
229.079	18941.68
229.151	18957.68
229.224	18971.03
229.296	19000.04
229.369	19043.75
229.442	19091.99
229.514	19102.68
229.587	19139.31
229.659	19135.21
229.732	19155.26
229.804	19179.74
229.877	19215.06
229.949	19238.1
230.022	19272.46
230.094	19285.28
230.167	19300.46
230.239	19305.47
230.312	19317.27
230.384	19356.02
230.457	19363.05
230.529	19388.84
230.602	19419.68
230.674	19444.93
230.747	19468.59
230.819	19495.24
230.892	19477.75
230.964	19482.18
231.037	19501.41
231.109	19506.13
231.181	19525.69
231.254	19534.32
231.326	19541.6
231.399	19550.51
231.471	19553.26
231.544	19536.34
231.616	19559.67
231.688	19569.26
231.761	19578.85
231.833	19589.69
231.905	19567.04
231.978	19590.7
232.05	19590.75
232.122	19590.08
232.195	19587.09
232.267	19608.29
232.339	19601.88
232.412	19631.57
232.484	19637.06
232.556	19639.86
232.629	19665.88
232.701	19678.12
232.773	19676.1
232.846	19676.72
232.918	19678.36
232.99	19682.22
233.062	19693.25
233.135	19688.14
233.207	19664.72
233.279	19673.25
233.351	19677.78
233.424	19677.83
233.496	19655.86
233.568	19678.31
233.64	19660.1
233.713	19652.92
233.785	19650.51
233.857	19651.81
233.929	19625.83
234.001	19633.93
234.074	19646.94
234.146	19612.1
234.218	19597.84
234.29	19592.53
234.362	19584.97
234.434	19560.44
234.507	19541.31
234.579	19519.43
234.651	19513.94
234.723	19528.39
234.795	19523.72
234.867	19514.76
234.939	19531.09
235.012	19528.3
235.084	19514.47
235.156	19515.72
235.228	19500.83
235.3	19472.97
235.372	19467.72
235.444	19472.06
235.516	19441.65
235.588	19429.17
235.66	19425.03
235.732	19407.87
235.804	19452.01
235.876	19439.68
235.948	19444.16
236.02	19430.52
236.092	19413.32
236.164	19393.32
236.236	19370.14
236.308	19346.81
236.38	19326.04
236.452	19286.34
236.524	19275.54
236.596	19278.19
236.668	19273.08
236.74	19268.07
236.812	19259.78
236.884	19240.51
236.956	19224.07
237.028	19196.85
237.1	19180.61
237.172	19179.45
237.244	19180.95
237.316	19124.22
237.388	19104.13
237.46	19079.6
237.532	19084.32
237.604	19063.46
237.675	19067.55
237.747	19058.11
237.819	19035.17
237.891	19013.87
237.963	18991.41
238.035	18964.04
238.107	18900.77
238.178	18898.31
238.25	18863.81
238.322	18864.96
238.394	18831.47
238.466	18801.59
238.538	18783.19
238.609	18763.67
238.681	18734.71
238.753	18706.32
238.825	18684.25
238.897	18666.76
238.968	18653.51
239.04	18613.61
239.112	18617.85
239.184	18573.32
239.255	18549.51
239.327	18539.68
239.399	18508.65
239.471	18492.36
239.542	18473.28
239.614	18469.57
239.686	18409.62
239.758	18408.17
239.829	18374.44
239.901	18362.78
239.973	18331.79
240.044	18317.86
240.116	18286.15
240.188	18252.18
240.259	18227.31
240.331	18191.31
240.403	18174.01
240.474	18133.73
240.546	18106.21
240.618	18057.97
240.689	18033.92
240.761	18001.88
240.833	17985.68
240.904	17974.02
240.976	17947.13
241.048	17916.34
241.119	17897.45
241.191	17873.78
241.262	17852.1
241.334	17821.74
241.405	17787.71
241.477	17762.41
241.549	17728.44
241.62	17706.66
241.692	17685.07
241.763	17669.79
241.835	17643.96
241.906	17620.15
241.978	17586.22
242.049	17568.44
242.121	17546.71
242.192	17532.01
242.264	17493.69
242.335	17445.36
242.407	17420.34
242.478	17386.51
242.55	17361.5
242.621	17317.21
242.693	17289.64
242.764	17251.57
242.836	17220.05
242.907	17197.02
242.979	17172.05
243.05	17144.97
243.122	17116.24
243.193	17080.77
243.264	17013.74
243.336	16978.55
243.407	16947.47
243.479	16924.05
243.55	16899.13
243.622	16874.21
243.693	16838.74
243.764	16828.43
243.836	16785.77
243.907	16749.29
243.978	16724.95
244.05	16701.91
244.121	16662.01
244.192	16644.85
244.264	16603.74
244.335	16568.36
244.407	16520.26
244.478	16500.36
244.549	16469.95
244.62	16427.24
244.692	16398.13
244.763	16387.58
244.834	16355.86
244.906	16312.39
244.977	16293.01
245.048	16267.28
245.119	16228.86
245.191	16186.79
245.262	16127.07
245.333	16116.56
245.405	16085.04
245.476	16055.06
245.547	16024.21
245.618	15999
245.689	15966.28
245.761	15942.42
245.832	15911.38
245.903	15890.75
245.974	15863.71
246.045	15837.3
246.117	15825.97
246.188	15777.62
246.259	15739.26
246.33	15709.57
246.401	15677.66
246.473	15626.85
246.544	15583.23
246.615	15563.47
246.686	15528.77
246.757	15513.87
246.828	15466.87
246.899	15454.25
246.97	15411.54
247.042	15377.36
247.113	15353.79
247.184	15341.98
247.255	15303.28
247.326	15272.62
247.397	15244.91
247.468	15212.61
247.539	15182.1
247.61	15129.94
247.681	15113.41
247.752	15095.82
247.823	15051.37
247.894	15034.31
247.965	14998.25
248.037	14969.33
248.108	14924.16
248.179	14899.68
248.25	14871.96
248.321	14856.39
248.392	14807.03
248.463	14794.88
248.534	14756.75
248.605	14740.36
248.675	14700.45
248.746	14679.67
248.817	14655.96
248.888	14633.88
248.959	14581.19
249.03	14550.82
249.101	14532.17
249.172	14500.88
249.243	14445.45
249.314	14441.98
249.385	14412.86
249.456	14403.85
249.527	14377.04
249.598	14353.33
249.669	14326.96
249.739	14301.84
249.81	14276.39
249.881	14236.86
249.952	14208.76
250.023	14179.59
250.094	14136.59
250.165	14103.19
250.235	14078.7
250.306	14056.52
250.377	14013.33
250.448	13991.16
250.519	13942.32
250.59	13928.34
250.66	13902.26
250.731	13901.3
250.802	13871.27
250.873	13842.78
250.944	13816.17
251.014	13775.77
251.085	13779.58
251.156	13756.87
251.227	13745.93
251.297	13734.26
251.368	13725.49
251.439	13712.28
251.51	13703.65
251.58	13668.41
251.651	13636.79
251.722	13620.01
251.792	13575.04
251.863	13560
251.934	13558.26
252.005	13563.42
252.075	13535.7
252.146	13521.67
252.217	13510.01
252.287	13491.74
252.358	13464.21
252.429	13455.24
252.499	13433.74
252.57	13405.74
252.641	13390.41
252.711	13366.59
252.782	13328.51
252.852	13330.58
252.923	13303.88
252.994	13282.52
253.064	13272.83
253.135	13246.46
253.205	13214.02
253.276	13212.91
253.347	13195.8
253.417	13160.12
253.488	13132.21
253.558	13111
253.629	13083.86
253.699	13061.98
253.77	13054.5
253.841	13030.69
253.911	13004.32
253.982	12989.91
254.052	12970.82
254.123	12953.42
254.193	12931.24
254.264	12946.19
254.334	12905.74
254.405	12871.71
254.475	12843.07
254.546	12822.83
254.616	12819.69
254.687	12805.42
254.757	12788.07
254.827	12764.5
254.898	12749.27
254.968	12733.02
255.039	12693.16
255.109	12684.33
255.18	12648.28
255.25	12596.89
255.321	12578.28
255.391	12545.26
255.461	12540.35
255.532	12495.42
255.602	12458.78
255.673	12420.85
255.743	12382.48
255.813	12336.73
255.884	12332.34
255.954	12317.55
256.024	12315.33
256.095	12289.06
256.165	12254.79
256.235	12237.24
256.306	12208.94
256.376	12200.12
256.446	12182.53
256.517	12179.11
256.587	12171.01
256.657	12150.67
256.728	12132.69
256.798	12118.03
256.868	12101.5
256.938	12076.77
257.009	12075.38
257.079	12067.52
257.149	12070.7
257.219	12036.04
257.29	12024.76
257.36	11981.38
257.43	11973.67
257.5	11928.31
257.571	11906.72
257.641	11898.48
257.711	11865.32
257.781	11858.95
257.852	11841.02
257.922	11807.52
257.992	11790.08
258.062	11766.22
258.132	11759.37
258.202	11743.95
258.273	11731.9
258.343	11724.28
258.413	11692.42
258.483	11668.85
258.553	11643.6
258.623	11610.92
258.693	11597.09
258.764	11595.45
258.834	11591.64
258.904	11568.41
258.974	11546.87
259.044	11524.02
259.114	11505.66
259.184	11494.04
259.254	11468.26
259.324	11428.06
259.394	11410.28
259.464	11403.77
259.535	11385.5
259.605	11359.48
259.675	11332.2
259.745	11314.71
259.815	11285.31
259.885	11264.73
259.955	11269.65
260.025	11245.12
260.095	11228.15
260.165	11212.83
260.235	11209.12
260.305	11184.78
260.375	11152.3
260.445	11153.55
260.515	11150.85
260.585	11151.24
260.655	11133.65
260.725	11127.43
260.795	11121.79
260.865	11122.37
260.934	11093.55
261.004	11084.59
261.074	11074.85
261.144	11077.07
261.214	11069.36
261.284	11053.74
261.354	11046.66
261.424	11024.97
261.494	11029.12
261.564	11018.61
261.634	11010.61
261.703	10969.65
261.773	10960.88
261.843	10958.37
261.913	10943.44
261.983	10910.19
262.053	10888.6
262.123	10868.17
262.192	10841.09
262.262	10833.33
262.332	10806.49
262.402	10798.78
262.472	10773.91
262.541	10733
262.611	10722.84
262.681	10696.38
262.751	10690.12
262.821	10677.74
262.89	10641.64
262.96	10626.03
263.03	10617.36
263.1	10605.17
263.169	10597.31
263.239	10590.37
263.309	10590.86
263.379	10578.42
263.448	10565.71
263.518	10558.09
263.588	10543.01
263.657	10544.07
263.727	10535.4
263.797	10519.55
263.867	10508.18
263.936	10480.95
264.006	10485.43
264.076	10470.88
264.145	10454.65
264.215	10430.32
264.285	10422.13
264.354	10392.74
264.424	10367.16
264.494	10346.34
264.563	10324.28
264.633	10330.4
264.702	10314.5
264.772	10274.27
264.842	10257.89
264.911	10247.29
264.981	10214.86
265.05	10208.02
265.12	10184.99
265.19	10175.07
265.259	10168.18
265.329	10157.29
265.398	10147.22
265.468	10155.8
265.537	10137.3
265.607	10129.88
265.676	10120.49
265.746	10108.4
265.815	10110.9
265.885	10104.01
265.955	10078.15
266.024	10062.3
266.094	10021.69
266.163	10020.19
266.232	10026.84
266.302	10007.62
266.371	10005.5
266.441	9993.32
266.51	9980.55
266.58	9968.17
266.649	9947.65
266.719	9952.37
266.788	9938.06
266.858	9939.8
266.927	9899.1
266.996	9888.07
267.066	9880.55
267.135	9860.66
267.205	9853.67
267.274	9840.19
267.343	9834.65
267.413	9825.84
267.482	9826.03
267.552	9830.12
267.621	9803.63
267.69	9773.86
267.76	9765.1
267.829	9746.84
267.898	9739.43
267.968	9719.06
268.037	9716.98
268.106	9717.66
268.176	9684.23
268.245	9668.38
268.314	9648.64
268.384	9652.15
268.453	9636.45
268.522	9625.91
268.592	9627.21
268.661	9606.45
268.73	9596.43
268.799	9581.02
268.869	9582.03
268.938	9553.71
269.007	9530.89
269.076	9514.51
269.146	9510.71
269.215	9506.33
269.284	9512.25
269.353	9489.91
269.422	9476.42
269.492	9456.01
269.561	9414.54
269.63	9416.86
269.699	9400.92
269.768	9391.43
269.838	9384.35
269.907	9379.78
269.976	9354.06
270.045	9323.05
270.114	9320.55
270.183	9307.84
270.253	9296.81
270.322	9266.48
270.391	9262.19
270.46	9268.98
270.529	9272.26
270.598	9269.13
270.667	9255.84
270.736	9232.77
270.806	9231.57
270.875	9236.48
270.944	9222.95
271.013	9239.85
271.082	9226.17
271.151	9227.14
271.22	9204.6
271.289	9190.93
271.358	9185.2
271.427	9180.67
271.496	9173.5
271.565	9155.64
271.634	9152.27
271.703	9178.18
271.772	9188.05
271.841	9167.2
271.91	9145.25
271.979	9136.92
272.048	9112.65
272.117	9111.01
272.186	9096.81
272.255	9098.21
272.324	9092.96
272.393	9089.4
272.462	9077.12
272.531	9070.38
272.6	9051.99
272.669	9055.89
272.738	9041.2
272.807	9031.72
272.876	9012.95
272.945	9045.06
273.013	9043.95
273.082	9047.03
273.151	9000.95
273.22	8995.66
273.289	8993.93
273.358	9001.1
273.427	8990.31
273.496	8993.59
273.564	8985.26
273.633	8989.01
273.702	8969.37
273.771	8955.7
273.84	8950.12
273.909	8940.92
273.977	8935.1
274.046	8924.17
274.115	8930.28
274.184	8917.48
274.253	8909.59
274.322	8918.11
274.39	8875.5
274.459	8864.09
274.528	8833.1
274.597	8827.03
274.665	8819.14
274.734	8826.89
274.803	8815.48
274.872	8803.78
274.94	8787.61
275.009	8842.03
275.078	8830.96
275.147	8827.49
275.215	8823.78
275.284	8833.56
275.353	8829.94
275.421	8808.67
275.49	8825.28
275.559	8813.39
275.627	8804.29
275.696	8796.4
275.765	8793.94
275.833	8789.81
275.902	8787.01
275.971	8798.81
276.039	8809.49
276.108	8810.84
276.177	8803.47
276.245	8790.86
276.314	8791.63
276.383	8803.14
276.451	8746.12
276.52	8743.23
276.588	8757.19
276.657	8760.8
276.725	8748.86
276.794	8743.71
276.863	8757
276.931	8730.86
277	8733.41
277.068	8741.06
277.137	8759.35
277.205	8755.98
277.274	8775.04
277.342	8785.25
277.411	8763.06
277.48	8754.01
277.548	8745.93
277.617	8748.62
277.685	8743.14
277.754	8745.45
277.822	8728.99
277.89	8736.83
277.959	8732.7
278.027	8707.62
278.096	8698.09
278.164	8721.39
278.233	8712.68
278.301	8698.53
278.37	8707.58
278.438	8690.49
278.507	8696.51
278.575	8665.27
278.643	8663.73
278.712	8643.47
278.78	8626.91
278.849	8642.16
278.917	8647.75
278.985	8641.83
279.054	8642.31
279.122	8653.95
279.191	8649.09
279.259	8648.76
279.327	8623.73
279.396	8634.99
279.464	8634.56
279.532	8636.14
279.601	8631.23
279.669	8632.15
279.737	8651.98
279.806	8651.21
279.874	8664.44
279.942	8665.98
280.011	8668.29
280.079	8670.89
280.147	8686.97
280.215	8686.82
280.284	8679.41
280.352	8670.12
280.42	8681.58
280.488	8674.21
280.557	8669.98
280.625	8672
280.693	8671.81
280.761	8677.15
280.83	8664.87
280.898	8679.55
280.966	8668.53
281.034	8634.21
281.102	8618.38
281.171	8602.26
281.239	8612.66
281.307	8601.25
281.375	8591.43
281.443	8608.37
281.512	8606.83
281.58	8612.66
281.648	8605.87
281.716	8608.42
281.784	8607.46
281.852	8593.65
281.92	8590.66
281.989	8598.8
282.057	8584.41
282.125	8636.88
282.193	8630.63
282.261	8632.74
282.329	8628.07
282.397	8632.65
282.465	8638.28
282.533	8653.05
282.601	8643.04
282.67	8625.76
282.738	8614.36
282.806	8619.41
282.874	8609.16
282.942	8604.49
283.01	8602.66
283.078	8605.74
283.146	8606.17
283.214	8612.53
283.282	8614.11
283.35	8623.21
283.418	8616.23
283.486	8625.85
283.554	8574.01
283.622	8579.11
283.69	8576.17
283.758	8569.63
283.826	8571.17
283.894	8577.57
283.962	8595.43
284.03	8611.16
284.098	8606.01
284.165	8607.5
284.233	8606.06
284.301	8601.73
284.369	8602.35
284.437	8590.18
284.505	8588.78
284.573	8603.56
284.641	8590.61
284.709	8598.26
284.777	8582.86
284.845	8593.26
284.912	8595.09
284.98	8602.07
285.048	8592.59
285.116	8597.78
285.184	8609.91
285.252	8608.18
285.319	8599.42
285.387	8592.87
285.455	8578.63
285.523	8587.68
285.591	8588.98
285.659	8592.2
285.726	8600.19
285.794	8582
285.862	8574.64
285.93	8570.74
285.997	8558.08
286.065	8554.14
286.133	8546.48
286.201	8545.04
286.269	8526.7
286.336	8512.51
286.404	8504.47
286.472	8518.86
286.539	8491
286.607	8471.7
286.675	8474.98
286.743	8476.32
286.81	8466.94
286.878	8479.79
286.946	8467.8
287.013	8462.37
287.081	8460.01
287.149	8451.39
287.216	8479.02
287.284	8477.19
287.352	8477.48
287.419	8476.18
287.487	8493.31
287.555	8503.13
287.622	8504.04
287.69	8505.82
287.758	8519.59
287.825	8515.4
287.893	8497.93
287.96	8508.71
288.028	8526.51
288.096	8527.19
288.163	8537.97
288.231	8531.85
288.298	8533.44
288.366	8549.56
288.433	8548.65
288.501	8536.33
288.569	8533.68
288.636	8523.38
288.704	8534.93
288.771	8544.08
288.839	8538.21
288.906	8524.35
288.974	8526.71
289.041	8521.22
289.109	8512.99
289.176	8519.83
289.244	8525.94
289.311	8540.86
289.379	8551.01
289.446	8545.47
289.514	8548.65
289.581	8543.36
289.649	8542.78
289.716	8544.85
289.783	8537.48
289.851	8560.68
289.918	8565.97
289.986	8576.94
290.053	8578.53
290.121	8576.94
290.188	8579.74
290.255	8602.55
290.323	8596.92
290.39	8590.95
290.458	8598.26
290.525	8612.36
290.592	8605.14
290.66	8608.18
290.727	8597.25
290.794	8611.06
290.862	8612.07
290.929	8614.53
290.996	8614.19
291.064	8625.79
291.131	8630.89
291.198	8642.49
291.266	8636.67
291.333	8639.65
291.4	8646.82
291.468	8664.83
291.535	8660.4
291.602	8662.76
291.669	8660.21
291.737	8670.65
291.804	8671.18
291.871	8687.2
291.938	8698.08
292.006	8728.02
292.073	8740.83
292.14	8757.62
292.207	8750.55
292.275	8751.99
292.342	8761.62
292.409	8783.81
292.476	8803.64
292.543	8800.32
292.611	8797.53
292.678	8812.64
292.745	8831.51
292.812	8837.19
292.879	8835.89
292.946	8843.01
293.014	8853.79
293.081	8857.55
293.148	8871.75
293.215	8885.95
293.282	8879.11
293.349	8888.26
293.416	8875.55
293.484	8889.41
293.551	8896.39
293.618	8910.4
293.685	8938.37
293.752	8930.38
293.819	8930.71
293.886	8924.74
293.953	8933.26
294.02	8945.97
294.087	8957.77
294.154	8954.21
294.221	8970
294.288	8965.18
294.356	8988.1
294.423	8997.39
294.49	8989.98
294.557	9003.12
294.624	8994.02
294.691	9019
294.758	9018.91
294.825	9020.83
294.892	9010.39
294.959	9007.07
295.026	9017.95
295.093	9003.79
295.16	9006.25
295.226	9008.12
295.293	9026.8
295.36	9026.61
295.427	9040.72
295.494	9046.98
295.561	9059.35
295.628	9089.11
295.695	9106.69
295.762	9101.1
295.829	9112.08
295.896	9137.59
295.963	9145.3
296.03	9163.93
296.096	9167.44
296.163	9177.26
296.23	9190.46
296.297	9200.57
296.364	9207.45
296.431	9211.06
296.498	9211.25
296.564	9237.44
296.631	9238.65
296.698	9231.86
296.765	9252.61
296.832	9247.07
296.899	9240.09
296.965	9256.32
297.032	9228.19
297.099	9245.91
297.166	9258.38
297.233	9249.91
297.299	9235.03
297.366	9234.55
297.433	9229.25
297.5	9236.09
297.566	9235.56
297.633	9235.51
297.7	9242.21
297.767	9240.71
297.833	9247.26
297.9	9254.87
297.967	9234.31
298.033	9246.78
298.1	9264.6
298.167	9260.46
298.234	9265.56
298.3	9274.52
298.367	9267.25
298.434	9278.76
298.5	9268.31
298.567	9267.73
298.634	9267.15
298.7	9287.28
298.767	9288.14
298.834	9302.88
298.9	9299.89
298.967	9293.29
299.033	9308.41
299.1	9322.76
299.167	9340.24
299.233	9336.68
299.3	9349.44
299.366	9376.26
299.433	9393.35
299.5	9374.04
299.566	9378.62
299.633	9394.99
299.699	9405.06
299.766	9407.13
299.832	9407.7
299.899	9419.6
299.965	9427.11
300.032	9429.61
300.099	9440.5
300.165	9447.29
300.232	9445.27
300.298	9446.85
300.365	9462.65
300.431	9459.61
300.498	9455.04
300.564	9452.49
300.631	9464.28
300.697	9470.79
300.763	9461.2
300.83	9456.58
300.896	9470.4
300.963	9480.46
301.029	9484.41
301.096	9483.5
301.162	9496.36
301.229	9488.51
301.295	9474.73
301.361	9481.33
301.428	9485.66
301.494	9467.17
301.561	9471.8
301.627	9477.38
301.693	9483.64
301.76	9483.5
301.826	9477.53
301.892	9489.13
301.959	9495.63
302.025	9487.35
302.092	9491.3
302.158	9501.08
302.224	9504.25
302.291	9494.19
302.357	9485.62
302.423	9471.46
302.49	9462.84
302.556	9467.37
302.622	9474.45
302.688	9486.97
302.755	9500.36
302.821	9510.23
302.887	9525.64
302.954	9523.08
303.02	9528.28
303.086	9530.79
303.152	9535.7
303.219	9536.52
303.285	9536.57
303.351	9553.95
303.417	9554.77
303.483	9541.53
303.55	9533.01
303.616	9534.88
303.682	9536.47
303.748	9536.81
303.815	9553.14
303.881	9568.55
303.947	9557.66
304.013	9555.3
304.079	9549.62
304.145	9523.33
304.212	9519.57
304.278	9510.95
304.344	9511.82
304.41	9503.44
304.476	9495.97
304.542	9483.31
304.608	9487.55
304.674	9468.67
304.741	9454.46
304.807	9463.32
304.873	9470.55
304.939	9488.46
305.005	9465.83
305.071	9466.11
305.137	9462.74
305.203	9440.21
305.269	9440.78
305.335	9453.98
305.401	9451.28
305.467	9450.42
305.533	9464.48
305.599	9475.65
305.666	9478.73
305.732	9480.9
305.798	9493.03
305.864	9514.95
305.93	9529.3
305.996	9527.28
306.062	9525.4
306.128	9524.68
306.194	9509.17
306.259	9507.48
306.325	9496.65
306.391	9509.94
306.457	9512.64
306.523	9519.43
306.589	9542.16
306.655	9529.73
306.721	9511.48
306.787	9502.72
306.853	9512.4
306.919	9497.8
306.985	9482.3
307.051	9473.63
307.117	9458.75
307.183	9449.17
307.248	9419.89
307.314	9417.96
307.38	9418.87
307.446	9429.81
307.512	9418.01
307.578	9424.17
307.644	9416.47
307.709	9417.53
307.775	9409.68
307.841	9410.54
307.907	9409.24
307.973	9388.34
308.039	9383.53
308.104	9388.34
308.17	9395.95
308.236	9381.17
308.302	9384.34
308.368	9377.56
308.433	9387.76
308.499	9389.21
308.565	9375.05
308.631	9379.91
308.696	9355.94
308.762	9347.8
308.828	9348.42
308.894	9340.19
308.959	9319.78
309.025	9317.42
309.091	9316.98
309.156	9311.98
309.222	9308.22
309.288	9295.22
309.354	9274.9
309.419	9272.3
309.485	9259.4
309.551	9250.58
309.616	9234.74
309.682	9224.05
309.748	9217.17
309.813	9201.95
309.879	9189.24
309.945	9177.11
310.01	9168.06
310.076	9175.96
310.141	9166.66
310.207	9143.21
310.273	9142.59
310.338	9146.54
310.404	9124.92
310.469	9106.82
310.535	9098.24
310.601	9077.64
310.666	9080.05
310.732	9084.86
310.797	9078.22
310.863	9062.09
310.928	9056.36
310.994	9055.97
311.059	9055.54
311.125	9051.59
311.191	9063.87
311.256	9053.81
311.322	9062.81
311.387	9048.8
311.453	9327.65
311.518	9302.14
311.584	9304.16
311.649	9308.01
311.715	9295.35
311.78	9303.63
311.846	9294.73
311.911	9301.85
311.976	9302.48
312.042	9286.83
312.107	9274.31
312.173	9261.27
312.238	9263.82
312.304	9263.34
312.369	9255.88
312.434	9243.84
312.5	9231.52
312.565	9198.78
312.631	9203.64
312.696	9194.5
312.761	9192.38
312.827	8907.27
312.892	8944.29
312.958	8938.8
313.023	8932.79
313.088	8935.82
313.154	8918.39
313.219	8907.03
313.284	8889.61
313.35	8888.26
313.415	8880.36
313.48	8876.61
313.546	8887.1
313.611	8888.74
313.676	8874.88
313.741	8873.1
313.807	8883.69
313.872	8893.55
313.937	8905.54
314.003	8921.67
314.068	8922.97
314.133	8926.1
314.198	8906.41
314.264	8889.89
314.329	8888.35
314.394	8888.55
314.459	8883.35
314.525	8897.84
314.59	8895.04
314.655	8889.56
314.72	8894.13
314.785	8893.99
314.851	8889.41
314.916	8868.19
314.981	8852.35
315.046	8846.38
315.111	8832.57
315.176	8821.69
315.242	8825.2
315.307	8818.61
315.372	8790.06
315.437	8777.26
315.502	8767.68
315.567	8777.88
315.632	8756.18
315.698	8754.64
315.763	8746.36
315.828	8740.87
315.893	8740.77
315.958	8738.22
316.023	8728.6
316.088	8710.21
316.153	8684.66
316.218	8680.71
316.283	8661.75
316.348	8648.66
316.413	8645.97
316.479	8636.78
316.544	8597.85
316.609	8567.19
316.674	8531.49
316.739	8496.85
316.804	8469.32
316.869	8435.35
316.934	8396.62
316.999	8369.87
317.064	8316.99
317.129	8270.32
317.194	8230.91
317.259	8180.59
317.324	8130.03
317.389	8081.21
317.454	8043.92
317.518	8015.26
317.583	7988.7
317.648	7966.38
317.713	7926.66
317.778	7867.83
317.843	7839.07
317.908	7806.75
317.973	7765.54
318.038	7735.43
318.103	7700.19
318.168	7667.59
318.233	7640.33
318.297	7595.37
318.362	7560.66
318.427	7523.31
318.492	7503.5
318.557	7451.74
318.622	7422.56
318.687	7398.62
318.751	7364.6
318.816	7328.16
318.881	7298.03
318.946	7245.59
319.011	7198.87
319.075	7160.34
319.14	7124.21
319.205	7071.25
319.27	7039.82
319.335	6998.65
319.399	6958.86
319.464	6931.39
319.529	6875.43
319.594	6835.75
319.658	6810.86
319.723	6770.9
319.788	6739.44
319.853	6683.53
319.917	6664.75
319.982	6613.03
320.047	6574.76
320.112	6545.76
320.176	6493.76
320.241	6458.08
320.306	6424.67
320.37	6384.39
320.435	6360.68
320.5	6332.41
320.564	6295.55
320.629	6251.44
320.694	6214.72
320.758	6174.08
320.823	6131.42
320.888	6109.88
320.952	6058.92
321.017	6010.75
321.082	5967.24
321.146	5933.03
321.211	5898.2
321.275	5853.26
321.34	5809.72
321.405	5770.06
321.469	5721.1
321.534	5686.77
321.598	5637.48
321.663	5610.23
321.727	5578.73
321.792	5523.65
321.857	5482.46
321.921	5446.18
321.986	5401.52
322.05	5344.35
322.115	5308.17
322.179	5263.52
322.244	5207.42
322.308	5174.55
322.373	5132.25
322.437	5093.26
322.502	5067.14
322.566	5020.83
322.631	4986.68
322.695	4949.09
322.76	4903.7
322.824	4873.2
322.889	4826.87
322.953	4782.4
323.018	4713.41
323.082	4650.86
323.146	4599.91
323.211	4548.37
323.275	4502.76
323.34	4458.42
323.404	4426.19
323.468	4375.24
323.533	4337.93
323.597	4291.08
323.662	4238.62
323.726	4201.23
323.79	4153.22
323.855	4089.32
323.919	4041.32
323.983	3991.89
324.048	3928.03
324.112	4028.83
324.177	3901.42
324.241	3697.62
324.305	3494.78
324.37	3298.72
324.434	3109.83
324.498	3067.99
324.562	3014.5
324.627	2951.95
324.691	2895.32
324.755	2827.91
324.82	2754.66
324.884	2668.22
324.948	2596.19
325.012	2502.03
325.077	2374.07
