Data from 20250702_urea_0.5M_MAYP1162681_09-05-00-037.txt Node
Date: Thu Jul 03 09:05:00 BST 2025
User: adleo
Spectrometer: MAYP116268
Trigger mode: 0
Integration Time (sec): 1.000000E0
Scans to average: 1
Electric dark correction enabled: true
Nonlinearity correction enabled: true
Boxcar width: 10
XAxis mode: Wavelengths
Number of Pixels in Spectrum: 2068
>>>>>Begin Spectral Data<<<<<
179.565	1175.74
179.642	1229.44
179.718	1271.04
179.795	1308.76
179.871	1339.13
179.948	1353.04
180.024	1374.41
180.101	1395.96
180.177	1410.67
180.254	1435.03
180.33	1458.41
180.407	1509.54
180.483	1602.7
180.56	1689.36
180.636	1771.54
180.712	1756.42
180.789	1763.22
180.865	1777.66
180.942	1785.69
181.018	1795.1
181.095	1806.42
181.171	1812.78
181.248	1813.93
181.324	1827
181.4	1833.99
181.477	1844.21
181.553	1862.55
181.63	1881.38
181.706	1898.44
181.782	1905.1
181.859	1903.34
181.935	1906.48
182.011	1901.29
182.088	1916.6
182.164	1937.34
182.24	1950.41
182.317	1961.44
182.393	1959.58
182.469	1974.04
182.546	1988.54
182.622	1992.87
182.698	1987.07
182.775	1997.15
182.851	2013.03
182.927	2008.51
183.003	2005.8
183.08	2000.34
183.156	2004.09
183.232	2000.33
183.308	1985.5
183.385	1997.29
183.461	2014.03
183.537	2013.79
183.613	2028.87
183.69	2021.64
183.766	2010.98
183.842	2020.49
183.918	2026.3
183.995	2041.99
184.071	2045.6
184.147	2040.18
184.223	2031.77
184.299	2044.75
184.375	2031.01
184.452	2037.05
184.528	2083.19
184.604	2091.51
184.68	2106.3
184.756	2114
184.832	2121.47
184.908	2127.98
184.985	2124.75
185.061	2110.62
185.137	2123.94
185.213	2115.1
185.289	2113.81
185.365	2106.25
185.441	2103.97
185.517	2117.96
185.593	2111.49
185.669	2108.4
185.745	2117.29
185.822	2130.51
185.898	2120.14
185.974	2131.55
186.05	2122.51
186.126	2091.22
186.202	2083.28
186.278	2075.95
186.354	2068.58
186.43	2073.77
186.506	2073.34
186.582	2070.11
186.658	2072.91
186.734	2052.65
186.81	2051.22
186.886	2053.84
186.962	2065.97
187.038	2061.59
187.114	2053.21
187.19	2062.3
187.266	2051.7
187.341	2051.13
187.417	2045.75
187.493	2048.08
187.569	2050.08
187.645	2041.99
187.721	2032.43
187.797	2041.66
187.873	2048.13
187.949	2043.7
188.025	2036.33
188.101	2039.04
188.176	2046.6
188.252	2043.99
188.328	2049.64
188.404	2050.69
188.48	2049.12
188.556	2043.36
188.632	2041.41
188.707	2042.65
188.783	2039.7
188.859	2037.13
188.935	2028
189.011	2037.56
189.086	2033.57
189.162	2025.91
189.238	2026.05
189.314	2024.96
189.39	2020.63
189.465	2014.69
189.541	2029.57
189.617	2014.79
189.693	2011.7
189.768	2014.45
189.844	2038.43
189.92	2030.16
189.996	2039.72
190.071	2047.14
190.147	2046.57
190.223	2056.84
190.298	2049.28
190.374	2035.58
190.45	2049.18
190.526	2055.27
190.601	2048.42
190.677	2046.61
190.753	2078.45
190.828	2082.3
190.904	2096.96
190.98	2112.37
191.055	2122.26
191.131	2113.37
191.207	2133.11
191.282	2141.24
191.358	2133.86
191.433	2122.73
191.509	2135.9
191.585	2131.33
191.66	2134.57
191.736	2140.94
191.811	2131.05
191.887	2149.56
191.963	2173.63
192.038	2175.34
192.114	2178.62
192.189	2183.38
192.265	2183.52
192.34	2158.48
192.416	2157.49
192.491	2147.64
192.567	2147.3
192.642	2148.78
192.718	2149.3
192.793	2137.17
192.869	2132.32
192.944	2134.89
193.02	2140.22
193.095	2143.31
193.171	2149.49
193.246	2149.49
193.322	2145.78
193.397	2147.59
193.473	2130.98
193.548	2112.47
193.624	2122.32
193.699	2119.85
193.775	2137.41
193.85	2138.17
193.925	2147.31
194.001	2144.45
194.076	2140.17
194.152	2130.18
194.227	2121.81
194.302	2113.2
194.378	2116.86
194.453	2115.15
194.529	2127.76
194.604	2112.87
194.679	2107.26
194.755	2089.19
194.83	2102.27
194.905	2103.37
194.981	2111.55
195.056	2106.41
195.131	2113.03
195.207	2107.84
195.282	2097.57
195.357	2075.11
195.433	2090.14
195.508	2078.39
195.583	2087.66
195.659	2102.41
195.734	2111.92
195.809	2109.93
195.884	2117.87
195.96	2119.1
196.035	2132.28
196.11	2124.81
196.185	2138.37
196.261	2141.6
196.336	2171.43
196.411	2157.05
196.486	2160
196.561	2155.25
196.637	2160.1
196.712	2173.42
196.787	2173.33
196.862	2189.93
196.937	2198.49
197.013	2203.2
197.088	2213
197.163	2233.75
197.238	2249.33
197.313	2247.56
197.388	2264.27
197.464	2294.73
197.539	2306.77
197.614	2304.53
197.689	2320.29
197.764	2334.85
197.839	2355.32
197.914	2348.7
197.989	2369.69
198.065	2382.4
198.14	2434.33
198.215	2464.94
198.29	2477.6
198.365	2495.7
198.44	2505.12
198.515	2537.31
198.59	2553.41
198.665	2579.6
198.74	2588.89
198.815	2589.84
198.89	2612.84
198.965	2642.91
199.04	2638.86
199.115	2654.09
199.19	2691.58
199.265	2693.15
199.34	2703.06
199.415	2734.18
199.49	2757.09
199.565	2764.99
199.64	2788.05
199.715	2783.14
199.79	2787.62
199.865	2795.81
199.94	2792.15
200.015	2823.98
200.09	2827.41
200.165	2831.99
200.24	2839.52
200.315	2879.25
200.39	2892.79
200.464	2899.03
200.539	2899.46
200.614	2915.61
200.689	2939.97
200.764	2948.99
200.839	2964.52
200.914	2967.47
200.989	2959.75
201.063	2973.43
201.138	2959.04
201.213	2964.38
201.288	2941.55
201.363	2947.65
201.438	2946.37
201.512	2959.9
201.587	2944.5
201.662	2946.36
201.737	2959.23
201.812	2965.76
201.886	2933.03
201.961	2943.43
202.036	2931.8
202.111	2926.17
202.186	2899.07
202.26	2883.76
202.335	2861.83
202.41	2857.88
202.485	2844.82
202.559	2823.76
202.634	2798.5
202.709	2807.08
202.784	2783.3
202.858	2785.63
202.933	2764.62
203.008	2761.71
203.082	2745.56
203.157	2743.9
203.232	2701.37
203.306	2677.87
203.381	2648.76
203.456	2623.85
203.53	2601.68
203.605	2581.49
203.68	2559.86
203.754	2552.48
203.829	2535.19
203.904	2513.29
203.978	2500.24
204.053	2503.57
204.127	2491.1
204.202	2486.86
204.277	2467.67
204.351	2459.53
204.426	2451.48
204.5	2445.77
204.575	2409.02
204.65	2417.69
204.724	2408.59
204.799	2419.1
204.873	2417.87
204.948	2416.01
205.022	2406.11
205.097	2399.16
205.171	2412.67
205.246	2421.68
205.32	2422.29
205.395	2419.53
205.469	2412.16
205.544	2421.64
205.618	2404.21
205.693	2416.35
205.767	2404.21
205.842	2428.12
205.916	2426.35
205.991	2417.17
206.065	2423.21
206.14	2436.01
206.214	2431.1
206.289	2423.58
206.363	2435.53
206.438	2440.48
206.512	2446.39
206.586	2465.52
206.661	2473.53
206.735	2452.45
206.81	2452.35
206.884	2467.87
206.958	2456.64
207.033	2475.91
207.107	2481.72
207.181	2512.83
207.256	2510.92
207.33	2532.63
207.405	2546.03
207.479	2565.17
207.553	2575.69
207.628	2560.22
207.702	2577.03
207.776	2575.36
207.851	2580.84
207.925	2593.99
207.999	2591.79
208.073	2593.41
208.148	2597.8
208.222	2589.36
208.296	2625.26
208.371	2646.85
208.445	2657.67
208.519	2693.53
208.593	2709.01
208.668	2713.3
208.742	2722.79
208.816	2731.36
208.89	2750.57
208.965	2754.34
209.039	2769.12
209.113	2794.9
209.187	2826.56
209.261	2836.43
209.336	2866.31
209.41	2898.63
209.484	2917.08
209.558	2954.27
209.632	2978.67
209.707	3007.71
209.781	3049.29
209.855	3084.73
209.929	3120.24
210.003	3149.24
210.077	3167.98
210.151	3240.27
210.226	3296.31
210.3	3352
210.374	3399.66
210.448	3434.83
210.522	3475.41
210.596	3516.46
210.67	3557.76
210.744	3634.45
210.818	3697.41
210.892	3751
210.966	3783.85
211.041	3833.39
211.115	3868.88
211.189	3933.79
211.263	3989.79
211.337	4034.56
211.411	4092.7
211.485	4131.87
211.559	4191.8
211.633	4245.08
211.707	4262.78
211.781	4316.57
211.855	4329.16
211.929	4373.24
212.003	4407.23
212.077	4471.5
212.151	4538.4
212.225	4601.85
212.299	4648.16
212.373	4691.08
212.447	4745.38
212.52	4834.57
212.594	4898.07
212.668	4968.35
212.742	5018.3
212.816	5075.59
212.89	5136.66
212.964	5194.84
213.038	5265.48
213.112	5344
213.186	5421.67
213.26	5466.8
213.333	5490.91
213.407	5565.14
213.481	5635.44
213.555	5715.81
213.629	5772.17
213.703	5826.56
213.777	5897.33
213.85	5948.71
213.924	6058.79
213.998	6132.03
214.072	6197.66
214.146	6257.41
214.219	6320.81
214.293	6385.83
214.367	6460.63
214.441	6535.81
214.515	6601.36
214.588	6646.41
214.662	6682.81
214.736	6733.19
214.81	6813.8
214.883	6893.02
214.957	6946.61
215.031	7008.71
215.105	7057.56
215.178	7117.38
215.252	7184.51
215.326	7230.65
215.4	7281.29
215.473	7297.88
215.547	7350.28
215.621	7405.63
215.694	7477.84
215.768	7532.69
215.842	7589.08
215.915	7643.23
215.989	7682.08
216.063	7738.55
216.136	7804
216.21	7862.18
216.284	7940.62
216.357	8005.13
216.431	8070.83
216.504	8144.09
216.578	8227.27
216.652	8302.07
216.725	8361.15
216.799	8426.79
216.873	8490.16
216.946	8560.69
217.02	8615.59
217.093	8674.02
217.167	8714.83
217.24	8757.58
217.314	8816.44
217.387	8871.64
217.461	8924.4
217.535	9008.64
217.608	9056.11
217.682	9115.95
217.755	9193.61
217.829	9247.97
217.902	9308.26
217.976	9364.21
218.049	9422.24
218.123	9475.55
218.196	9541.09
218.27	9602.69
218.343	9656.3
218.417	9721.27
218.49	9787.5
218.563	9870.91
218.637	9937.92
218.71	10023.71
218.784	10097.75
218.857	10167.26
218.931	10234.07
219.004	10307.68
219.077	10370.22
219.151	10435.07
219.224	10496.83
219.298	10562.31
219.371	10633.05
219.444	10675.73
219.518	10740.92
219.591	10810.65
219.665	10896.14
219.738	10959.31
219.811	11013.09
219.885	11075.01
219.958	11142.82
220.031	11196.36
220.105	11264.7
220.178	11326.97
220.251	11377.19
220.325	11442.3
220.398	11508.42
220.471	11579.03
220.544	11640.05
220.618	11695.33
220.691	11766.47
220.764	11825.42
220.838	11887.65
220.911	11939.36
220.984	12029.35
221.057	12093.94
221.131	12145.52
221.204	12166.34
221.277	12243.71
221.35	12331.34
221.424	12395.16
221.497	12455.46
221.57	12517.45
221.643	12581.23
221.716	12651.41
221.79	12708.2
221.863	12772.5
221.936	12827.22
222.009	12893.45
222.082	12966.24
222.155	13021.78
222.229	13101.12
222.302	13166.68
222.375	13221.25
222.448	13290.38
222.521	13342.25
222.594	13403.62
222.667	13459.1
222.74	13532.18
222.814	13582.8
222.887	13633.08
222.96	13693.82
223.033	13755.04
223.106	13812.98
223.179	13875.99
223.252	13922.36
223.325	13975.39
223.398	14019.55
223.471	14070.6
223.544	14112.92
223.617	14146.96
223.69	14205.82
223.763	14235.56
223.837	14291.28
223.91	14347.97
223.983	14378.83
224.056	14417.78
224.129	14456.68
224.202	14518.09
224.275	14563.26
224.348	14599.51
224.42	14630.94
224.493	14655.33
224.566	14694.71
224.639	14749.67
224.712	14779.6
224.785	14817.34
224.858	14860.39
224.931	14901.75
225.004	14940.41
225.077	14986.73
225.15	15008.71
225.223	15044.38
225.296	15103.43
225.369	15128.21
225.442	15154.96
225.514	15203.02
225.587	15253.68
225.66	15305.54
225.733	15342.9
225.806	15386.09
225.879	15422.14
225.952	15459.64
226.025	15525.01
226.097	15578.56
226.17	15612.34
226.243	15630.56
226.316	15679.82
226.389	15714.72
226.461	15768.08
226.534	15813.96
226.607	15857.06
226.68	15923.09
226.753	15970.57
226.825	15994.91
226.898	16051.88
226.971	16091.16
227.044	16129.43
227.117	16168.28
227.189	16216.76
227.262	16254.94
227.335	16295.08
227.407	16335.04
227.48	16382.47
227.553	16421.51
227.626	16446.91
227.698	16482.33
227.771	16531.97
227.844	16550.87
227.916	16592.65
227.989	16606.05
228.062	16634.2
228.134	16680.56
228.207	16712.9
228.28	16731.75
228.352	16765.05
228.425	16799.51
228.498	16850.69
228.57	16878.69
228.643	16921.3
228.716	16940.48
228.788	16977.83
228.861	17013.64
228.934	17059.09
229.006	17087.42
229.079	17105.69
229.151	17128.2
229.224	17136.73
229.296	17174.03
229.369	17223.62
229.442	17262.51
229.514	17287.62
229.587	17327.57
229.659	17337.21
229.732	17368.01
229.804	17412.2
229.877	17459.91
229.949	17493.36
230.022	17535.48
230.094	17567.72
230.167	17598.66
230.239	17618.32
230.312	17637.07
230.384	17674.9
230.457	17699.76
230.529	17728.44
230.602	17757.88
230.674	17793.06
230.747	17841.83
230.819	17865.11
230.892	17865.06
230.964	17885.83
231.037	17916.58
231.109	17937.06
231.181	17974.7
231.254	17988.24
231.326	18006.6
231.399	18020.04
231.471	18041.73
231.544	18034.94
231.616	18058.5
231.688	18072.77
231.761	18092.38
231.833	18112.67
231.905	18114.88
231.978	18123.94
232.05	18133.82
232.122	18148.43
232.195	18155.94
232.267	18180.86
232.339	18201
232.412	18236.13
232.484	18255.22
232.556	18257.96
232.629	18291.79
232.701	18309.09
232.773	18327.79
232.846	18334.49
232.918	18350.83
232.99	18352.66
233.062	18379.74
233.135	18391.31
233.207	18396.22
233.279	18414.24
233.351	18434.1
233.424	18434.1
233.496	18434.39
233.568	18471.11
233.64	18475.83
233.713	18493.52
233.785	18499.88
233.857	18501.71
233.929	18494.14
234.001	18512.84
234.074	18549.95
234.146	18543.92
234.218	18543.68
234.29	18549.22
234.362	18544.12
234.434	18528.79
234.507	18522.91
234.579	18507.11
234.651	18506.29
234.723	18509.42
234.795	18507.93
234.867	18501.23
234.939	18521.51
235.012	18532.16
235.084	18526.57
235.156	18537.37
235.228	18524.79
235.3	18516.31
235.372	18522.72
235.444	18532.41
235.516	18514
235.588	18504.21
235.66	18493.9
235.732	18486.72
235.804	18532.84
235.876	18545.61
235.948	18558.96
236.02	18554.04
236.092	18547.15
236.164	18545.37
236.236	18535.2
236.308	18521.18
236.38	18513.52
236.452	18498.29
236.524	18491.73
236.596	18497.85
236.668	18491.35
236.74	18481.18
236.812	18475.2
236.884	18469.32
236.956	18456.22
237.028	18435.83
237.1	18423.21
237.172	18427.78
237.244	18437.04
237.316	18393.71
237.388	18372.75
237.46	18350.73
237.532	18362.39
237.604	18343.26
237.675	18343.55
237.747	18343.26
237.819	18337.77
237.891	18328.95
237.963	18307.74
238.035	18297.57
238.107	18252.71
238.178	18257.34
238.25	18246.54
238.322	18258.3
238.394	18230.01
238.466	18220.04
238.538	18217.63
238.609	18215.7
238.681	18182.88
238.753	18152.76
238.825	18126.59
238.897	18111.75
238.968	18115.61
239.04	18078.4
239.112	18089.83
239.184	18059.13
239.255	18043.18
239.327	18030.74
239.399	18014.6
239.471	18008.38
239.542	17995.13
239.614	17985.88
239.686	17933.11
239.758	17922.12
239.829	17884.92
239.901	17871.95
239.973	17846.75
240.044	17829.83
240.116	17797.88
240.188	17777.02
240.259	17752.63
240.331	17728.92
240.403	17718.46
240.474	17675.24
240.546	17646.75
240.618	17599.91
240.689	17577.93
240.761	17546.47
240.833	17528.54
240.904	17502.27
240.976	17467.86
241.048	17436.92
241.119	17414.85
241.191	17405.89
241.262	17396.68
241.334	17366.42
241.405	17341.89
241.477	17316.97
241.549	17283.24
241.62	17253.16
241.692	17237.69
241.763	17231
241.835	17209.93
241.906	17182.51
241.978	17146.17
242.049	17137.93
242.121	17131.62
242.192	17115.57
242.264	17077.79
242.335	17037.01
242.407	17020.77
242.478	16992.87
242.55	16975.9
242.621	16948.48
242.693	16912.72
242.764	16887.66
242.836	16860.38
242.907	16834.98
242.979	16806.16
243.05	16784.76
243.122	16761.72
243.193	16729.72
243.264	16668.47
243.336	16636.9
243.407	16617.67
243.479	16605.96
243.55	16579.64
243.622	16549.76
243.693	16522.05
243.764	16507.88
243.836	16470.04
243.907	16431
243.978	16404.73
244.05	16372.64
244.121	16323.81
244.192	16300.92
244.264	16247.95
244.335	16226.16
244.407	16185.48
244.478	16161.39
244.549	16130.88
244.62	16089.04
244.692	16057.95
244.763	16041.03
244.834	16003.53
244.906	15956.4
244.977	15931.62
245.048	15922.71
245.119	15887.04
245.191	15846.41
245.262	15794.21
245.333	15790.98
245.405	15769.62
245.476	15749.04
245.547	15723.5
245.618	15711.69
245.689	15685.56
245.761	15658.96
245.832	15622.47
245.903	15597.93
245.974	15578.51
246.045	15537.35
246.117	15531.95
246.188	15493.24
246.259	15456.27
246.33	15427.59
246.401	15402.81
246.473	15358.08
246.544	15314.75
246.615	15287.66
246.686	15253.25
246.757	15245.77
246.828	15196.9
246.899	15178.68
246.97	15127.58
247.042	15088.54
247.113	15059.57
247.184	15055.18
247.255	15030.65
247.326	15004.95
247.397	14975.11
247.468	14945.76
247.539	14927.15
247.61	14878.95
247.681	14861.84
247.752	14849.26
247.823	14813.68
247.894	14793.34
247.965	14760.99
248.037	14730.48
248.108	14684.59
248.179	14660.73
248.25	14631.95
248.321	14613.63
248.392	14571.65
248.463	14566.78
248.534	14540.36
248.605	14523.49
248.675	14490.09
248.746	14461.16
248.817	14442.02
248.888	14422.02
248.959	14369.04
249.03	14347.88
249.101	14317.9
249.172	14280.83
249.243	14225.44
249.314	14210.93
249.385	14183.06
249.456	14161.9
249.527	14136.98
249.598	14123.87
249.669	14093.3
249.739	14071.47
249.81	14049.53
249.881	14011.35
249.952	13988.55
250.023	13958.95
250.094	13909.59
250.165	13866.16
250.235	13835.69
250.306	13803.44
250.377	13763.82
250.448	13750.85
250.519	13706.79
250.59	13698.35
250.66	13673.72
250.731	13667.88
250.802	13646.09
250.873	13621.12
250.944	13597.12
251.014	13553.78
251.085	13553.63
251.156	13535.85
251.227	13522.01
251.297	13505.96
251.368	13496.8
251.439	13478.87
251.51	13473.66
251.58	13444.45
251.651	13415.38
251.722	13408.53
251.792	13372.76
251.863	13344.85
251.934	13337.14
252.005	13348.37
252.075	13318.24
252.146	13309.66
252.217	13307.83
252.287	13290.57
252.358	13267.38
252.429	13263.29
252.499	13234.17
252.57	13217.64
252.641	13208.19
252.711	13179.46
252.782	13150.19
252.852	13145.76
252.923	13114.81
252.994	13088.25
253.064	13084.01
253.135	13059.52
253.205	13032.47
253.276	13033.15
253.347	13037.78
253.417	13003.26
253.488	12968.26
253.558	12949.32
253.629	12925.31
253.699	12900.82
253.77	12890.65
253.841	12862.4
253.911	12838.78
253.982	12824.51
254.052	12794.87
254.123	12775.01
254.193	12754.9
254.264	12758.38
254.334	12725.79
254.405	12696
254.475	12666.3
254.546	12641.24
254.616	12628.42
254.687	12606.19
254.757	12581.46
254.827	12549.94
254.898	12528.68
254.968	12504.82
255.039	12473.29
255.109	12457.82
255.18	12425.72
255.25	12379.87
255.321	12370.28
255.391	12331.96
255.461	12336.64
255.532	12293.35
255.602	12263.85
255.673	12223.89
255.743	12195.01
255.813	12144.26
255.884	12142.04
255.954	12121.75
256.024	12117.99
256.095	12101.65
256.165	12069.74
256.235	12055.81
256.306	12026.4
256.376	12022.6
256.446	12008.23
256.517	12000.13
256.587	11990.64
256.657	11970.3
256.728	11949.57
256.798	11932.7
256.868	11913.57
256.938	11882.43
257.009	11880.4
257.079	11865.17
257.149	11862.86
257.219	11825.12
257.29	11819.48
257.36	11772.97
257.43	11767.86
257.5	11726.12
257.571	11701.24
257.641	11690.88
257.711	11666.4
257.781	11658.93
257.852	11645.14
257.922	11611.16
257.992	11588.51
258.062	11564.84
258.132	11552.12
258.202	11536.26
258.273	11514.62
258.343	11517.32
258.413	11493.22
258.483	11471.29
258.553	11442.28
258.623	11424.98
258.693	11407.67
258.764	11407.34
258.834	11410.18
258.904	11387.43
258.974	11362.66
259.044	11345.17
259.114	11331.14
259.184	11313.12
259.254	11290.08
259.324	11252.44
259.394	11242.8
259.464	11246.03
259.535	11222.13
259.605	11203.52
259.675	11176.3
259.745	11160.25
259.815	11129.16
259.885	11102.32
259.955	11109.65
260.025	11080.4
260.095	11063.63
260.165	11056.64
260.235	11050.37
260.305	11021.8
260.375	11000.06
260.445	11009.27
260.515	11002.42
260.585	10997.46
260.655	10979.48
260.725	10979.48
260.795	10967.2
260.865	10965.12
260.934	10935.44
261.004	10925.7
261.074	10906.33
261.144	10907.73
261.214	10904.16
261.284	10886.48
261.354	10885.32
261.424	10855.64
261.494	10870.24
261.564	10854.48
261.634	10852.7
261.703	10811.98
261.773	10811.88
261.843	10799.98
261.913	10777.72
261.983	10743.84
262.053	10732.76
262.123	10712.62
262.192	10683.32
262.262	10681.25
262.332	10647.33
262.402	10644.58
262.472	10628.01
262.541	10592.98
262.611	10586.14
262.681	10555.21
262.751	10550.63
262.821	10529
262.89	10505.19
262.96	10485.39
263.03	10485.53
263.1	10465.15
263.169	10455.08
263.239	10434.36
263.309	10437.16
263.379	10425.6
263.448	10413.6
263.518	10402.13
263.588	10387.97
263.657	10386.47
263.727	10378.38
263.797	10369.18
263.867	10340.7
263.936	10317.72
264.006	10318.01
264.076	10298.26
264.145	10280.87
264.215	10255.87
264.285	10253.46
264.354	10219.59
264.424	10198.06
264.494	10165.78
264.563	10143.28
264.633	10150.55
264.702	10141.16
264.772	10105.8
264.842	10091.49
264.911	10082.48
264.981	10054.3
265.05	10044.18
265.12	10023.47
265.19	10002.37
265.259	10001.93
265.329	9996.15
265.398	9984.74
265.468	9997.26
265.537	9977.42
265.607	9971.25
265.676	9971.49
265.746	9962.2
265.815	9969.04
265.885	9956.17
265.955	9932.43
266.024	9913.45
266.094	9868.22
266.163	9870.44
266.232	9877.76
266.302	9865.14
266.371	9858.83
266.441	9843.13
266.51	9837.69
266.58	9825.98
266.649	9813.8
266.719	9806.67
266.788	9796.12
266.858	9797.9
266.927	9757.54
266.996	9754.17
267.066	9749.45
267.135	9724.5
267.205	9722.62
267.274	9706.63
267.343	9711.78
267.413	9701.62
267.482	9701.38
267.552	9709.04
267.621	9678.65
267.69	9645.51
267.76	9630.87
267.829	9619.89
267.898	9605.01
267.968	9579.53
268.037	9571.01
268.106	9565.18
268.176	9538.93
268.245	9530.07
268.314	9515.86
268.384	9522.89
268.453	9506.23
268.522	9496.89
268.592	9499.06
268.661	9474.16
268.73	9469.82
268.799	9444.54
268.869	9451.91
268.938	9425.76
269.007	9412.66
269.076	9402.45
269.146	9401.83
269.215	9391.71
269.284	9396.72
269.353	9386.08
269.422	9374.09
269.492	9361.29
269.561	9318.34
269.63	9316.36
269.699	9298.26
269.768	9286.8
269.838	9274.9
269.907	9280.25
269.976	9258.39
270.045	9222.57
270.114	9218.76
270.183	9197.96
270.253	9191.17
270.322	9162.29
270.391	9148.95
270.46	9150.97
270.529	9147.36
270.598	9144.04
270.667	9140.05
270.736	9110.87
270.806	9106.1
270.875	9105.33
270.944	9093.25
271.013	9122.08
271.082	9118.18
271.151	9115.44
271.22	9085.5
271.289	9068.89
271.358	9050.83
271.427	9047.27
271.496	9045.34
271.565	9026.42
271.634	9022.33
271.703	9048.67
271.772	9052.18
271.841	9049.87
271.91	9022.72
271.979	9016.03
272.048	8991.81
272.117	8991.04
272.186	8979.3
272.255	8976.22
272.324	8978.24
272.393	8969.91
272.462	8953.49
272.531	8943
272.6	8927.02
272.669	8938.33
272.738	8931.06
272.807	8925.62
272.876	8897.51
272.945	8922.69
273.013	8924.23
273.082	8925.05
273.151	8884.22
273.22	8884.07
273.289	8875.36
273.358	8885.04
273.427	8870.35
273.496	8871.7
273.564	8861.69
273.633	8863.08
273.702	8847.15
273.771	8833.53
273.84	8831.17
273.909	8825.59
273.977	8817.5
274.046	8814.47
274.115	8822.07
274.184	8810.43
274.253	8800.99
274.322	8816.2
274.39	8780.63
274.459	8767.78
274.528	8742.94
274.597	8729.03
274.665	8718.68
274.734	8725.95
274.803	8709.34
274.872	8704.15
274.94	8690.57
275.009	8717.58
275.078	8705.6
275.147	8702.18
275.215	8695.93
275.284	8694.05
275.353	8686.35
275.421	8661.27
275.49	8678.12
275.559	8655.02
275.627	8646.12
275.696	8636.01
275.765	8638.32
275.833	8626.53
275.902	8627.59
275.971	8638.47
276.039	8659.26
276.108	8661.86
276.177	8654.21
276.245	8649.06
276.314	8647.03
276.383	8652.47
276.451	8614.54
276.52	8621.47
276.588	8632.68
276.657	8639.18
276.725	8637.59
276.794	8634.37
276.863	8642.79
276.931	8620.6
277	8633.88
277.068	8641.24
277.137	8660.83
277.205	8654.67
277.274	8675.7
277.342	8683.79
277.411	8660.78
277.48	8640.23
277.548	8629.65
277.617	8634.84
277.685	8632.05
277.754	8629.55
277.822	8617.57
277.89	8633.79
277.959	8623.78
278.027	8609.05
278.096	8598.61
278.164	8625.76
278.233	8616.71
278.301	8612.19
278.37	8611.46
278.438	8599.43
278.507	8600.54
278.575	8576.19
278.643	8572.53
278.712	8553.33
278.78	8533.88
278.849	8550.92
278.917	8566.32
278.985	8566.17
279.054	8564.63
279.122	8571.8
279.191	8568.87
279.259	8564.49
279.327	8543.84
279.396	8556.45
279.464	8549.71
279.532	8554.67
279.601	8544.9
279.669	8539.56
279.737	8554.52
279.806	8550.05
279.874	8552.79
279.942	8552.41
280.011	8547.93
280.079	8545.48
280.147	8566.07
280.215	8572.71
280.284	8569.15
280.352	8549.9
280.42	8553.9
280.488	8543.84
280.557	8538.26
280.625	8546.68
280.693	8548.79
280.761	8550.38
280.83	8535.9
280.898	8547.54
280.966	8534.36
281.034	8501.15
281.102	8490.71
281.171	8479.4
281.239	8491.62
281.307	8483.11
281.375	8473.34
281.443	8495.33
281.512	8500.29
281.58	8504.43
281.648	8489.12
281.716	8485.13
281.784	8485.61
281.852	8480.61
281.92	8485.9
281.989	8496.82
282.057	8475.99
282.125	8534.86
282.193	8527.45
282.261	8523.22
282.329	8517.83
282.397	8514.89
282.465	8520.76
282.533	8531.35
282.601	8516.14
282.67	8496.7
282.738	8486.55
282.806	8502.57
282.874	8489.96
282.942	8489.82
283.01	8477.74
283.078	8487.55
283.146	8487.75
283.214	8493.28
283.282	8493.71
283.35	8499.3
283.418	8491.26
283.486	8498.91
283.554	8445.86
283.622	8448.22
283.69	8450.96
283.758	8449.85
283.826	8455.43
283.894	8467.32
283.962	8490.42
284.03	8508.66
284.098	8503.41
284.165	8500.62
284.233	8495.86
284.301	8491.48
284.369	8482.09
284.437	8479.11
284.505	8472.95
284.573	8486.62
284.641	8476.61
284.709	8486.09
284.777	8469.87
284.845	8473.05
284.912	8478.39
284.98	8478.39
285.048	8477.14
285.116	8485.51
285.184	8496.92
285.252	8495.67
285.319	8473.77
285.387	8462.56
285.455	8449.09
285.523	8461.79
285.591	8464.05
285.659	8464.43
285.726	8475.17
285.794	8462.46
285.862	8460.39
285.93	8455.29
285.997	8448.75
286.065	8448.27
286.133	8440.86
286.201	8434.79
286.269	8425.03
286.336	8416.08
286.404	8411.6
286.472	8420.7
286.539	8393.8
286.607	8377.49
286.675	8382.88
286.743	8390.29
286.81	8384.08
286.878	8394.47
286.946	8386.15
287.013	8387.64
287.081	8382.83
287.149	8366.51
287.216	8385.23
287.284	8381.48
287.352	8385.86
287.419	8381.48
287.487	8394.9
287.555	8388.31
287.622	8393.46
287.69	8399.14
287.758	8411.02
287.825	8406.45
287.893	8395.14
287.96	8411.55
288.028	8419.25
288.096	8420.54
288.163	8426.66
288.231	8417.9
288.298	8416.45
288.366	8428.44
288.433	8425.07
288.501	8419.3
288.569	8423.87
288.636	8413.18
288.704	8420.74
288.771	8427.76
288.839	8416.5
288.906	8404.86
288.974	8420.89
289.041	8417.81
289.109	8404.19
289.176	8410.97
289.244	8418.38
289.311	8426.32
289.379	8423.2
289.446	8426.57
289.514	8427.62
289.581	8428.68
289.649	8435.13
289.716	8440.52
289.783	8433.49
289.851	8448.99
289.918	8447.06
289.986	8458.23
290.053	8464.39
290.121	8466.89
290.188	8472.9
290.255	8505.29
290.323	8506.83
290.39	8498.94
290.458	8497.01
290.525	8511.93
290.592	8499.47
290.66	8500.62
290.727	8499.27
290.794	8520.25
290.862	8521.99
290.929	8521.51
290.996	8519.2
291.064	8521.84
291.131	8530.02
291.198	8541.24
291.266	8541.04
291.333	8544.27
291.4	8549.61
291.468	8566.6
291.535	8565.97
291.602	8570.88
291.669	8560.01
291.737	8565.68
291.804	8566.79
291.871	8588.49
291.938	8594.56
292.006	8630.22
292.073	8640.81
292.14	8648.22
292.207	8640.33
292.275	8630.32
292.342	8636.05
292.409	8665.65
292.476	8690.82
292.543	8679.7
292.611	8682.93
292.678	8701.75
292.745	8733.08
292.812	8740.64
292.879	8741.5
292.946	8741.84
293.014	8746.27
293.081	8755.8
293.148	8771.82
293.215	8784.58
293.282	8781.69
293.349	8788.77
293.416	8771.92
293.484	8787.47
293.551	8797.81
293.618	8816.39
293.685	8850.95
293.752	8853.84
293.819	8848.54
293.886	8833.77
293.953	8847.72
294.02	8857.78
294.087	8858.22
294.154	8853.16
294.221	8865.1
294.288	8866.74
294.356	8885.08
294.423	8898.99
294.49	8892.59
294.557	8900.87
294.624	8893.12
294.691	8911.55
294.758	8921.23
294.825	8927.15
294.892	8916.85
294.959	8917.23
295.026	8920.84
295.093	8913.05
295.16	8908.52
295.226	8911.27
295.293	8938.71
295.36	8946.02
295.427	8957.43
295.494	8972.89
295.561	8981.99
295.628	9010.25
295.695	9024.55
295.762	9030.23
295.829	9033.89
295.896	9051.7
295.963	9066
296.03	9080.2
296.096	9084.44
296.163	9091.18
296.23	9108.37
296.297	9120.35
296.364	9119.34
296.431	9131.09
296.498	9126.13
296.564	9148.22
296.631	9150.2
296.698	9135.61
296.765	9152.17
296.832	9141.97
296.899	9130.22
296.965	9148.13
297.032	9116.97
297.099	9135.27
297.166	9139.89
297.233	9137.34
297.299	9131.57
297.366	9123.86
297.433	9122.03
297.5	9135.08
297.566	9139.08
297.633	9135.66
297.7	9136.48
297.767	9136.91
297.833	9136.72
297.9	9146.54
297.967	9133.44
298.033	9145.58
298.1	9175.86
298.167	9169.27
298.234	9175.05
298.3	9185.64
298.367	9173.94
298.434	9186.65
298.5	9173.16
298.567	9169.02
298.634	9169.22
298.7	9184.09
298.767	9189.63
298.834	9206.82
298.9	9199.64
298.967	9189.68
299.033	9196.95
299.1	9215.44
299.167	9231.95
299.233	9232.96
299.3	9247.12
299.366	9268.35
299.433	9285.59
299.5	9259.49
299.566	9259.68
299.633	9274.03
299.699	9285.06
299.766	9285.25
299.832	9287.51
299.899	9294.69
299.965	9305.14
300.032	9307.3
300.099	9316.21
300.165	9323.58
300.232	9320.64
300.298	9323.43
300.365	9338.65
300.431	9337.35
300.498	9328.68
300.564	9338.51
300.631	9346.84
300.697	9354.83
300.763	9353.53
300.83	9351.55
300.896	9367.35
300.963	9382.23
301.029	9389.4
301.096	9395.42
301.162	9407.46
301.229	9406.35
301.295	9398.12
301.361	9405.68
301.428	9410.73
301.494	9395.76
301.561	9397.73
301.627	9401.39
301.693	9404.33
301.76	9407.08
301.826	9404.91
301.892	9415.41
301.959	9419.69
302.025	9418.49
302.092	9413.34
302.158	9411.89
302.224	9414.01
302.291	9407.12
302.357	9397.69
302.423	9389.02
302.49	9374.47
302.556	9386.61
302.622	9388.44
302.688	9404.09
302.755	9418.54
302.821	9424.7
302.887	9436.4
302.954	9436.21
303.02	9438.23
303.086	9448.44
303.152	9448.63
303.219	9446.32
303.285	9455.28
303.351	9460.63
303.417	9461.64
303.483	9453.31
303.55	9458.8
303.616	9452.1
303.682	9451.09
303.748	9447.29
303.815	9465.49
303.881	9479.84
303.947	9464.43
304.013	9465.06
304.079	9456.15
304.145	9437.17
304.212	9429.42
304.278	9428.79
304.344	9418.88
304.41	9410.98
304.476	9396.2
304.542	9388.11
304.608	9395.18
304.674	9377.13
304.741	9374.62
304.807	9375.25
304.873	9382.08
304.939	9397.49
305.005	9379
305.071	9375.44
305.137	9374.82
305.203	9347.03
305.269	9343.08
305.335	9353.72
305.401	9349.34
305.467	9346.64
305.533	9346.02
305.599	9362.44
305.666	9368.36
305.732	9373.27
305.798	9388.49
305.864	9416.28
305.93	9424.66
305.996	9422.3
306.062	9427.02
306.128	9415.6
306.194	9405.35
306.259	9401.54
306.325	9392.3
306.391	9404.04
306.457	9407.66
306.523	9414.06
306.589	9440.64
306.655	9436.64
306.721	9416.8
306.787	9409.05
306.853	9423.31
306.919	9413.63
306.985	9401.88
307.051	9388.44
307.117	9376.94
307.183	9367.35
307.248	9335.76
307.314	9339.57
307.38	9340.53
307.446	9343.8
307.512	9332.83
307.578	9340.63
307.644	9336.73
307.709	9333.89
307.775	9332.44
307.841	9336.68
307.907	9332.01
307.973	9312.89
308.039	9307.64
308.104	9313.95
308.17	9311.93
308.236	9296.13
308.302	9307.3
308.368	9293.72
308.433	9292.23
308.499	9284.91
308.565	9276.15
308.631	9285.73
308.696	9259.54
308.762	9249.23
308.828	9246.63
308.894	9228.44
308.959	9205.86
309.025	9193.24
309.091	9187.42
309.156	9178.85
309.222	9173.74
309.288	9159.01
309.354	9133.88
309.419	9131.18
309.485	9119.05
309.551	9123.48
309.616	9104.37
309.682	9091.7
309.748	9085.73
309.813	9083.47
309.879	9077.21
309.945	9063.88
310.01	9052.22
310.076	9062
310.141	9060.46
310.207	9041.53
310.273	9053.42
310.338	9053.18
310.404	9042.4
310.469	9027.48
310.535	9020.21
310.601	9004.37
310.666	9017.99
310.732	9029.3
310.797	9021.26
310.863	9010.96
310.928	9006.1
310.994	9015.73
311.059	9013.56
311.125	9006.44
311.191	9013.47
311.256	9010.67
311.322	9015.39
311.387	8994.74
311.453	9270.12
311.518	9242.49
311.584	9240.71
311.649	9243.35
311.715	9233.77
311.78	9231.9
311.846	9223.23
311.911	9223.67
311.976	9222.41
312.042	9200.17
312.107	9181.88
312.173	9172.35
312.238	9170.09
312.304	9162.77
312.369	9150.64
312.434	9136.58
312.5	9129.84
312.565	9098.41
312.631	9098.84
312.696	9091.29
312.761	9096.29
312.827	8803.06
312.892	8845.71
312.958	8841.52
313.023	8834.2
313.088	8834.49
313.154	8829.1
313.219	8827.32
313.284	8819.95
313.35	8815.04
313.415	8809.65
313.48	8803.11
313.546	8808.74
313.611	8813.56
313.676	8806.38
313.741	8795.22
313.807	8808.41
313.872	8813.07
313.937	8816.25
314.003	8827.95
314.068	8830.16
314.133	8829.44
314.198	8824.05
314.264	8800.41
314.329	8787.46
314.394	8786.79
314.459	8786.84
314.525	8797.18
314.59	8787.03
314.655	8777.31
314.72	8781.3
314.785	8779.47
314.851	8776.54
314.916	8759.98
314.981	8743.13
315.046	8737.65
315.111	8733.6
315.176	8718.87
315.242	8724.51
315.307	8729.66
315.372	8711.22
315.437	8699.24
315.502	8691.05
315.567	8696.06
315.632	8677.19
315.698	8685.47
315.763	8682.2
315.828	8669.64
315.893	8667.04
315.958	8668.19
316.023	8660.54
316.088	8645.04
316.153	8623.24
316.218	8621.61
316.283	8595.05
316.348	8583.5
316.413	8577.63
316.479	8560.45
316.544	8527.63
316.609	8497.8
316.674	8456.52
316.739	8417.79
316.804	8387.14
316.869	8353.41
316.934	8313.38
316.999	8285.72
317.064	8232.51
317.129	8186.99
317.194	8150.58
317.259	8103.23
317.324	8046.77
317.389	8000.4
317.454	7957.63
317.518	7924.74
317.583	7896.5
317.648	7879.19
317.713	7842.15
317.778	7777.28
317.843	7746.4
317.908	7707.94
317.973	7668.69
318.038	7638.98
318.103	7607.16
318.168	7575.47
318.233	7542.3
318.297	7497.64
318.362	7458.98
318.427	7420.97
318.492	7394.24
318.557	7350.26
318.622	7323.72
318.687	7306.38
318.751	7265.82
318.816	7234.72
318.881	7203.49
318.946	7150.43
319.011	7100.21
319.075	7060.81
319.14	7030.69
319.205	6988.02
319.27	6954.68
319.335	6909.67
319.399	6873.02
319.464	6842.51
319.529	6792.61
319.594	6758.36
319.658	6729.5
319.723	6692.94
319.788	6670.47
319.853	6617.35
319.917	6586.29
319.982	6532.74
320.047	6492.31
320.112	6464.23
320.176	6410.61
320.241	6384.2
320.306	6355.83
320.37	6317.91
320.435	6286.32
320.5	6261.7
320.564	6223.02
320.629	6179.98
320.694	6144.42
320.758	6104.69
320.823	6062.42
320.888	6034.45
320.952	5988.39
321.017	5946.85
321.082	5901.38
321.146	5864.53
321.211	5830.76
321.275	5798.63
321.34	5756.87
321.405	5713.33
321.469	5674.96
321.534	5641.7
321.598	5585.64
321.663	5556.29
321.727	5524.75
321.792	5473.27
321.857	5424.22
321.921	5387.61
321.986	5351.14
322.05	5301.8
322.115	5263.08
322.179	5221.11
322.244	5161.24
322.308	5125.79
322.373	5079.19
322.437	5043.84
322.502	5012.41
322.566	4965.86
322.631	4921.51
322.695	4887.18
322.76	4846.82
322.824	4807.89
322.889	4762.9
322.953	4718.78
323.018	4653.81
323.082	4593.33
323.146	4545.3
323.211	4498.41
323.275	4454.1
323.34	4407.32
323.404	4372.55
323.468	4327.2
323.533	4286.84
323.597	4245.59
323.662	4194.29
323.726	4163.4
323.79	4118.35
323.855	4052.94
323.919	4007.86
323.983	3966.04
324.048	3898.64
324.112	4037.53
324.177	3911.38
324.241	3710.55
324.305	3513.29
324.37	3316.33
324.434	3129.26
324.498	3088.06
324.562	3037.52
324.627	2977.79
324.691	2923.72
324.755	2860.33
324.82	2789.01
324.884	2709.02
324.948	2643.8
325.012	2555.84
325.077	2433.2
