Data from 20250702_urea_0.5M_MAYP1162681_03-34-59-611.txt Node
Date: Thu Jul 03 03:34:59 BST 2025
User: adleo
Spectrometer: MAYP116268
Trigger mode: 0
Integration Time (sec): 1.000000E0
Scans to average: 1
Electric dark correction enabled: true
Nonlinearity correction enabled: true
Boxcar width: 10
XAxis mode: Wavelengths
Number of Pixels in Spectrum: 2068
>>>>>Begin Spectral Data<<<<<
179.565	1181.89
179.642	1232.09
179.718	1273.42
179.795	1310.71
179.871	1344.48
179.948	1362.93
180.024	1383.14
180.101	1407.54
180.177	1419.92
180.254	1443.18
180.33	1464.51
180.407	1518.97
180.483	1611.94
180.56	1699.98
180.636	1781.07
180.712	1767.14
180.789	1775.31
180.865	1786.86
180.942	1794.93
181.018	1804.06
181.095	1819.46
181.171	1825.93
181.248	1830.68
181.324	1847.13
181.4	1857.16
181.477	1866.53
181.553	1879.36
181.63	1898.71
181.706	1911.74
181.782	1920.86
181.859	1919.39
181.935	1925.57
182.011	1920.81
182.088	1936.83
182.164	1955.53
182.24	1969.22
182.317	1980.1
182.393	1979.06
182.469	1994.98
182.546	2008.15
182.622	2013.05
182.698	2008.91
182.775	2017.71
182.851	2029.65
182.927	2023.32
183.003	2014.38
183.08	2010.68
183.156	2018.19
183.232	2014.86
183.308	2004.97
183.385	2013.24
183.461	2031.98
183.537	2033.88
183.613	2043.92
183.69	2033.74
183.766	2023.37
183.842	2029.55
183.918	2033.64
183.995	2048.62
184.071	2053.38
184.147	2049
184.223	2037.83
184.299	2050.82
184.375	2042.73
184.452	2050.49
184.528	2105.64
184.604	2117.95
184.68	2126.75
184.756	2135.03
184.832	2139.4
184.908	2144.4
184.985	2145.16
185.061	2128.42
185.137	2135.84
185.213	2127.04
185.289	2133.46
185.365	2127.89
185.441	2127.37
185.517	2139.55
185.593	2136.13
185.669	2130.04
185.745	2141.64
185.822	2159.24
185.898	2146.96
185.974	2155.47
186.05	2146.01
186.126	2104.41
186.202	2100.47
186.278	2098.18
186.354	2089.48
186.43	2098.23
186.506	2098
186.582	2095.52
186.658	2101.47
186.734	2083.39
186.81	2085.01
186.886	2084.54
186.962	2095.24
187.038	2094.19
187.114	2087.96
187.19	2094.95
187.266	2086.1
187.341	2083.73
187.417	2075.45
187.493	2076.88
187.569	2080.3
187.645	2075.36
187.721	2065.56
187.797	2069.6
187.873	2073.55
187.949	2066.98
188.025	2058.56
188.101	2057.42
188.176	2061.94
188.252	2058.23
188.328	2063.93
188.404	2065.22
188.48	2059.61
188.556	2053.99
188.632	2055.66
188.707	2056.8
188.783	2051.71
188.859	2049
188.935	2040.77
189.011	2049.19
189.086	2043.53
189.162	2032.92
189.238	2031.45
189.314	2027.84
189.39	2023.65
189.465	2013.09
189.541	2028.93
189.617	2014.24
189.693	2010.77
189.768	2015.62
189.844	2037.03
189.92	2030.09
189.996	2037.51
190.071	2049.3
190.147	2047.5
190.223	2052.44
190.298	2043.07
190.374	2031.47
190.45	2040.41
190.526	2046.5
190.601	2039.31
190.677	2039.22
190.753	2068.06
190.828	2071.67
190.904	2087.04
190.98	2102.02
191.055	2115.48
191.131	2106.82
191.207	2130.51
191.282	2139.64
191.358	2130.84
191.433	2118.18
191.509	2130.4
191.585	2123.79
191.66	2123.31
191.736	2131.64
191.811	2121.46
191.887	2140.16
191.963	2164.28
192.038	2169.27
192.114	2170.17
192.189	2174.45
192.265	2172.84
192.34	2151.28
192.416	2152.09
192.491	2147.09
192.567	2149.33
192.642	2153.42
192.718	2155.7
192.793	2142.05
192.869	2139.62
192.944	2141.14
193.02	2145.9
193.095	2150.99
193.171	2158.41
193.246	2158.22
193.322	2155.7
193.397	2158.51
193.473	2143.09
193.548	2124.77
193.624	2134.62
193.699	2131.67
193.775	2145.8
193.85	2145.42
193.925	2154.65
194.001	2153.03
194.076	2148.13
194.152	2138.24
194.227	2130.39
194.302	2119.31
194.378	2124.44
194.453	2121.12
194.529	2134.82
194.604	2121.74
194.679	2115.98
194.755	2098.91
194.83	2112.57
194.905	2108.19
194.981	2115.76
195.056	2109.38
195.131	2117.14
195.207	2112.81
195.282	2103.48
195.357	2089.49
195.433	2105.95
195.508	2093.77
195.583	2100.24
195.659	2109.28
195.734	2115.66
195.809	2113.8
195.884	2124.6
195.96	2122.93
196.035	2137.3
196.11	2130.54
196.185	2145.29
196.261	2148.14
196.336	2180.63
196.411	2165.64
196.486	2172.78
196.561	2166.26
196.637	2174.68
196.712	2188.05
196.787	2191.81
196.862	2210.46
196.937	2216.59
197.013	2221.73
197.088	2232.39
197.163	2254.81
197.238	2275.1
197.313	2276.76
197.388	2291.75
197.464	2319.46
197.539	2328.88
197.614	2322.46
197.689	2336.97
197.764	2350.63
197.839	2369.34
197.914	2361.72
197.989	2385.43
198.065	2400.71
198.14	2449.53
198.215	2476.14
198.29	2489.33
198.365	2503.85
198.44	2515.57
198.515	2545.76
198.59	2560.09
198.665	2585.28
198.74	2592
198.815	2593.48
198.89	2613.91
198.965	2644.45
199.04	2644.69
199.115	2660.4
199.19	2702.22
199.265	2705.17
199.34	2716.98
199.415	2751.3
199.49	2773.3
199.565	2781.16
199.64	2802.32
199.715	2802.03
199.79	2809.85
199.865	2816.38
199.94	2811.28
200.015	2839.83
200.09	2843.02
200.165	2849.12
200.24	2856.18
200.315	2897.25
200.39	2910.98
200.464	2918.27
200.539	2916.88
200.614	2926.13
200.689	2949.82
200.764	2959.98
200.839	2979.61
200.914	2986.52
200.989	2976.65
201.063	2991.76
201.138	2977.61
201.213	2979.76
201.288	2961.93
201.363	2965.41
201.438	2966.51
201.512	2982.04
201.587	2967.5
201.662	2971.02
201.737	2985.23
201.812	2994.72
201.886	2958.41
201.961	2967.43
202.036	2957.23
202.111	2956.99
202.186	2930.79
202.26	2917.44
202.335	2896.56
202.41	2886.88
202.485	2869.83
202.559	2851.72
202.634	2825.31
202.709	2833.74
202.784	2813.87
202.858	2812.3
202.933	2796.1
203.008	2791.14
203.082	2772.99
203.157	2768.22
203.232	2726.84
203.306	2705.39
203.381	2671.89
203.456	2652.69
203.53	2631.28
203.605	2608.48
203.68	2583.75
203.754	2577.99
203.829	2559.89
203.904	2538.6
203.978	2527.36
204.053	2528.98
204.127	2513.12
204.202	2510.5
204.277	2493.03
204.351	2487.65
204.426	2479.88
204.5	2471.36
204.575	2433.75
204.65	2445.42
204.724	2437.7
204.799	2443.6
204.873	2440.79
204.948	2440.08
205.022	2430.13
205.097	2422.74
205.171	2437.31
205.246	2443.64
205.32	2445.07
205.395	2444.79
205.469	2433.56
205.544	2439.03
205.618	2422.18
205.693	2436.56
205.767	2421.71
205.842	2443.71
205.916	2438
205.991	2430.66
206.065	2434.28
206.14	2450.46
206.214	2445.65
206.289	2445.12
206.363	2459.36
206.438	2460.36
206.512	2466.5
206.586	2482.4
206.661	2489.69
206.735	2469.7
206.81	2472.42
206.884	2487.41
206.958	2479.99
207.033	2498.69
207.107	2507.46
207.181	2539.99
207.256	2533.75
207.33	2555.55
207.405	2568.57
207.479	2590.57
207.553	2601.62
207.628	2588.05
207.702	2601.53
207.776	2598.19
207.851	2601.53
207.925	2621.25
207.999	2621.16
208.073	2624.49
208.148	2631.11
208.222	2626.16
208.296	2664.3
208.371	2686.8
208.445	2706.19
208.519	2738.68
208.593	2759.31
208.668	2764.17
208.742	2776.72
208.816	2787.86
208.89	2813.94
208.965	2820.85
209.039	2838.87
209.113	2866.9
209.187	2902
209.261	2914.77
209.336	2951.86
209.41	2985.72
209.484	3005.75
209.558	3049.48
209.632	3084.14
209.707	3119
209.781	3167.27
209.855	3208.02
209.929	3250.38
210.003	3279.96
210.077	3310.02
210.151	3388.4
210.226	3454.01
210.3	3517.12
210.374	3578.92
210.448	3620.85
210.522	3671.33
210.596	3726.69
210.67	3780.24
210.744	3875.48
210.818	3951.89
210.892	4016.94
210.966	4064.72
211.041	4135.42
211.115	4185.99
211.189	4269.14
211.263	4344.26
211.337	4408.3
211.411	4480.88
211.485	4541.72
211.559	4621.56
211.633	4689.33
211.707	4722.85
211.781	4800.92
211.855	4831.18
211.929	4892.44
212.003	4945.95
212.077	5031.6
212.151	5110.93
212.225	5192.18
212.299	5258.15
212.373	5325.08
212.447	5398.23
212.52	5505.02
212.594	5588.75
212.668	5677.77
212.742	5741.12
212.816	5820.5
212.89	5895.85
212.964	5982.13
213.038	6064.81
213.112	6162.92
213.186	6265.94
213.26	6339.58
213.333	6384.47
213.407	6481.16
213.481	6577.11
213.555	6677.51
213.629	6758.31
213.703	6840.4
213.777	6934.13
213.85	7001.54
213.924	7131.92
213.998	7231.02
214.072	7318.08
214.146	7399.85
214.219	7494.11
214.293	7589.58
214.367	7685.74
214.441	7791.19
214.515	7871.22
214.588	7948.36
214.662	8008.96
214.736	8078.46
214.81	8170.36
214.883	8272.27
214.957	8356.59
215.031	8437.79
215.105	8509.22
215.178	8586.07
215.252	8673.71
215.326	8735.89
215.4	8814.62
215.473	8854.49
215.547	8919.04
215.621	8998.2
215.694	9087.71
215.768	9155.83
215.842	9224.87
215.915	9293.69
215.989	9355.95
216.063	9430.31
216.136	9511.74
216.21	9592.26
216.284	9686.75
216.357	9775.8
216.431	9853.58
216.504	9941.1
216.578	10042.5
216.652	10133.53
216.725	10212.2
216.799	10297.52
216.873	10384.53
216.946	10470.38
217.02	10540.57
217.093	10621.32
217.167	10669.36
217.24	10729.01
217.314	10804.81
217.387	10873.27
217.461	10945.7
217.535	11030.95
217.608	11097.4
217.682	11171.28
217.755	11256.34
217.829	11319.09
217.902	11388.44
217.976	11459.96
218.049	11523.82
218.123	11582.72
218.196	11664.27
218.27	11731.46
218.343	11789.35
218.417	11859.48
218.49	11920.79
218.563	12013.09
218.637	12083.85
218.71	12188.3
218.784	12267.64
218.857	12345.73
218.931	12424.54
219.004	12496.32
219.077	12575.9
219.151	12647.2
219.224	12709.43
219.298	12779.81
219.371	12862.96
219.444	12923.75
219.518	12996.35
219.591	13072.03
219.665	13160.2
219.738	13229.42
219.811	13286.84
219.885	13359.82
219.958	13432.52
220.031	13501.79
220.105	13569.71
220.178	13634.16
220.251	13685.94
220.325	13750.34
220.398	13820.67
220.471	13890.23
220.544	13969.1
220.618	14015.33
220.691	14087.59
220.764	14152.52
220.838	14220.35
220.911	14274.97
220.984	14359.76
221.057	14424.55
221.131	14492.9
221.204	14531.08
221.277	14600.2
221.35	14695.65
221.424	14747.76
221.497	14812.4
221.57	14872.99
221.643	14932.91
221.716	15007.05
221.79	15059.25
221.863	15122.44
221.936	15168.38
222.009	15222.18
222.082	15275.49
222.155	15329.43
222.229	15403.08
222.302	15460.2
222.375	15505.17
222.448	15567.2
222.521	15610.39
222.594	15666.55
222.667	15710.21
222.74	15780.01
222.814	15826.91
222.887	15866.38
222.96	15933.67
223.033	15988.95
223.106	16044.57
223.179	16096.05
223.252	16137.89
223.325	16185.99
223.398	16230.14
223.471	16289.13
223.544	16348.8
223.617	16391.98
223.69	16436.38
223.763	16458.98
223.837	16517.06
223.91	16570.41
223.983	16596.24
224.056	16639.38
224.129	16682.8
224.202	16724.49
224.275	16747.92
224.348	16779.77
224.42	16810.28
224.493	16828.6
224.566	16862.81
224.639	16902.24
224.712	16943.2
224.785	16984.41
224.858	17025.33
224.931	17055.4
225.004	17081.52
225.077	17106.82
225.15	17117.86
225.223	17164.08
225.296	17228.75
225.369	17239.84
225.442	17269.76
225.514	17310.01
225.587	17344.22
225.66	17376.51
225.733	17419.31
225.806	17461.04
225.879	17494.34
225.952	17524.32
226.025	17571.36
226.097	17612.61
226.17	17643.11
226.243	17651.69
226.316	17681.81
226.389	17714.77
226.461	17756.32
226.534	17791.11
226.607	17822.24
226.68	17875.3
226.753	17907.54
226.825	17908.31
226.898	17958.91
226.971	17983.49
227.044	18025.27
227.117	18055.1
227.189	18095.78
227.262	18132.26
227.335	18164.3
227.407	18191.29
227.48	18218.23
227.553	18247.96
227.626	18266.66
227.698	18298.95
227.771	18335.04
227.844	18360.05
227.916	18384
227.989	18397.4
228.062	18424.58
228.134	18471.28
228.207	18493.11
228.28	18507.47
228.352	18533.97
228.425	18556.33
228.498	18592.57
228.57	18599.7
228.643	18638.01
228.716	18650.93
228.788	18655.84
228.861	18666.16
228.934	18697.38
229.006	18717.53
229.079	18731.7
229.151	18752.22
229.224	18765.33
229.296	18781.19
229.369	18818.58
229.442	18855.35
229.514	18863.59
229.587	18888.89
229.659	18891.88
229.732	18917.95
229.804	18945.61
229.877	18993.99
229.949	19018.91
230.022	19054.86
230.094	19075.43
230.167	19088.78
230.239	19090.52
230.312	19117.45
230.384	19164.73
230.457	19181.26
230.529	19203.95
230.602	19232.72
230.674	19245.4
230.747	19270.65
230.819	19307.13
230.892	19293.97
230.964	19312.43
231.037	19343.22
231.109	19355.7
231.181	19370.88
231.254	19375.41
231.326	19388.76
231.399	19388.81
231.471	19392.38
231.544	19376.19
231.616	19401.34
231.688	19402.88
231.761	19418.16
231.833	19424.81
231.905	19401.58
231.978	19407.85
232.05	19416.23
232.122	19422.54
232.195	19424.66
232.267	19444.57
232.339	19440.71
232.412	19457.48
232.484	19449.1
232.556	19441.34
232.629	19465.87
232.701	19473.09
232.773	19480.18
232.846	19476.9
232.918	19474.64
232.99	19486.44
233.062	19487.41
233.135	19487.99
233.207	19480.56
233.279	19496.85
233.351	19505.29
233.424	19513.77
233.496	19505.96
233.568	19533.48
233.64	19514.2
233.713	19516.37
233.785	19502.2
233.857	19502.92
233.929	19487.74
234.001	19504.71
234.074	19518.06
234.146	19491.7
234.218	19498.78
234.29	19494.88
234.362	19488.32
234.434	19474.4
234.507	19457.82
234.579	19449.92
234.651	19437.29
234.723	19447.02
234.795	19430.59
234.867	19413.87
234.939	19419.27
235.012	19425.82
235.084	19413.58
235.156	19422.5
235.228	19404.38
235.3	19396.47
235.372	19385.44
235.444	19391.51
235.516	19362.5
235.588	19351.08
235.66	19339.42
235.732	19315.47
235.804	19353.39
235.876	19348.81
235.948	19351.03
236.02	19340.04
236.092	19320.96
236.164	19305.01
236.236	19284.14
236.308	19273.98
236.38	19267.42
236.452	19247.13
236.524	19231.57
236.596	19230.7
236.668	19215.57
236.74	19213.16
236.812	19209.64
236.884	19211.76
236.956	19192.53
237.028	19161.69
237.1	19134.22
237.172	19135.19
237.244	19122.56
237.316	19070.57
237.388	19050.33
237.46	19029.46
237.532	19023
237.604	19003.73
237.675	19001.56
237.747	18999.24
237.819	18973.27
237.891	18960.74
237.963	18930.67
238.035	18907.3
238.107	18848.65
238.178	18843.98
238.25	18820.27
238.322	18812.89
238.394	18773.28
238.466	18758.44
238.538	18755.79
238.609	18745.04
238.681	18707.46
238.753	18689.96
238.825	18669.77
238.897	18652.52
238.968	18646.54
239.04	18614.26
239.112	18624.14
239.184	18589.15
239.255	18557.58
239.327	18540.24
239.399	18510.74
239.471	18493.25
239.542	18465.4
239.614	18459.95
239.686	18408.34
239.758	18399.71
239.829	18361.35
239.901	18349.98
239.973	18324.44
240.044	18296.06
240.116	18268.97
240.188	18237.5
240.259	18209.31
240.331	18168.54
240.403	18148.26
240.474	18101.42
240.546	18060.36
240.618	18010.77
240.689	17979.15
240.761	17953.03
240.833	17933.42
240.904	17899.3
240.976	17871.88
241.048	17850.68
241.119	17820.75
241.191	17802.2
241.262	17776.12
241.334	17744.13
241.405	17708.99
241.477	17662.15
241.549	17630.15
241.62	17603.45
241.692	17586.97
241.763	17575.84
241.835	17552.47
241.906	17523.84
241.978	17489.62
242.049	17482.01
242.121	17465.48
242.192	17450.25
242.264	17409.33
242.335	17364.42
242.407	17355.07
242.478	17320.42
242.55	17285.67
242.621	17249.72
242.693	17213.23
242.764	17184.22
242.836	17143.21
242.907	17105.96
242.979	17088.65
243.05	17063.74
243.122	17037.28
243.193	17002.63
243.264	16944.7
243.336	16915.11
243.407	16891.3
243.479	16870.33
243.55	16839.83
243.622	16808.98
243.693	16781.51
243.764	16766.38
243.836	16733.94
243.907	16691.77
243.978	16660.39
244.05	16653.12
244.121	16608.49
244.192	16593.74
244.264	16544.96
244.335	16526.5
244.407	16490.12
244.478	16465.73
244.549	16435.32
244.62	16393.48
244.692	16364.66
244.763	16342.82
244.834	16303.54
244.906	16256.89
244.977	16234.86
245.048	16222.67
245.119	16184.21
245.191	16147.91
245.262	16096.29
245.333	16078.6
245.405	16053.2
245.476	16034.55
245.547	15996.38
245.618	15981.34
245.689	15939.84
245.761	15917.19
245.832	15874.87
245.903	15849.23
245.974	15813.46
246.045	15781.02
246.117	15769.41
246.188	15729.01
246.259	15691.27
246.33	15665.39
246.401	15625.29
246.473	15579.5
246.544	15542.87
246.615	15520.31
246.686	15478.95
246.757	15460.39
246.828	15416.43
246.899	15392.09
246.97	15348.23
247.042	15310
247.113	15286.38
247.184	15281.23
247.255	15241.6
247.326	15220.78
247.397	15195.43
247.468	15172.92
247.539	15142.69
247.61	15102.88
247.681	15083.5
247.752	15065.95
247.823	15032.94
247.894	15019
247.965	14978.71
248.037	14942.12
248.108	14900.23
248.179	14873.24
248.25	14839.69
248.321	14821.47
248.392	14776.83
248.463	14764.63
248.534	14733.59
248.605	14707.99
248.675	14680.86
248.746	14666.88
248.817	14641.18
248.888	14615.15
248.959	14571.38
249.03	14548.53
249.101	14519.18
249.172	14485.53
249.243	14431.83
249.314	14412.06
249.385	14385.84
249.456	14366.17
249.527	14338.94
249.598	14321.15
249.669	14295.17
249.739	14286.25
249.81	14266.29
249.881	14231.49
249.952	14199.48
250.023	14175.09
250.094	14128.52
250.165	14084.17
250.235	14046.28
250.306	14017.6
250.377	13981.78
250.448	13960.23
250.519	13913.71
250.59	13899.3
250.66	13867
250.731	13853.65
250.802	13829.98
250.873	13805.34
250.944	13782.3
251.014	13750.29
251.085	13745.38
251.156	13724.7
251.227	13703.05
251.297	13688.44
251.368	13679.04
251.439	13669.6
251.51	13651.61
251.58	13626.06
251.651	13593.53
251.722	13583.74
251.792	13548.89
251.863	13523.63
251.934	13518.27
252.005	13528.4
252.075	13506.42
252.146	13502.9
252.217	13502.13
252.287	13489.5
252.358	13469.54
252.429	13462.31
252.499	13430.92
252.57	13409.71
252.641	13396.65
252.711	13370.52
252.782	13340.97
252.852	13331.76
252.923	13306.55
252.994	13287.08
253.064	13283.22
253.135	13254.01
253.205	13223.35
253.276	13217.13
253.347	13210.62
253.417	13176.06
253.488	13144.48
253.558	13111.07
253.629	13076.66
253.699	13054.09
253.77	13030.91
253.841	12996.97
253.911	12979.42
253.982	12969.49
254.052	12949.34
254.123	12928.57
254.193	12904.22
254.264	12906.63
254.334	12873.03
254.405	12840.01
254.475	12811.81
254.546	12775.03
254.616	12770.36
254.687	12758.01
254.757	12738.01
254.827	12711.35
254.898	12692.31
254.968	12667.39
255.039	12643.38
255.109	12640.15
255.18	12611.18
255.25	12563.99
255.321	12555.41
255.391	12518.39
255.461	12507.98
255.532	12463.87
255.602	12437.55
255.673	12398.65
255.743	12362.88
255.813	12318.2
255.884	12304.46
255.954	12287.35
256.024	12301.18
256.095	12280.74
256.165	12243.34
256.235	12234.23
256.306	12212.58
256.376	12202.41
256.446	12189.49
256.517	12182.07
256.587	12167.03
256.657	12151.9
256.728	12142.98
256.798	12117.72
256.868	12102.39
256.938	12075.11
257.009	12067.21
257.079	12055.68
257.149	12063.3
257.219	12036.02
257.29	12023.58
257.36	11983.58
257.43	11973.46
257.5	11922.8
257.571	11896.33
257.641	11886.93
257.711	11854.25
257.781	11842.98
257.852	11825.09
257.922	11791.98
257.992	11766.87
258.062	11739.49
258.132	11722.96
258.202	11697.89
258.273	11684.59
258.343	11679
258.413	11656.93
258.483	11635.81
258.553	11603.14
258.623	11574.84
258.693	11557.2
258.764	11558.94
258.834	11565.11
258.904	11546.36
258.974	11523.85
259.044	11503.46
259.114	11481.2
259.184	11463.75
259.254	11437.05
259.324	11406.88
259.394	11394.83
259.464	11393.43
259.535	11366.64
259.605	11339.74
259.675	11319.98
259.745	11305.29
259.815	11273.77
259.885	11243.55
259.955	11251.79
260.025	11233.57
260.095	11218.01
260.165	11201.19
260.235	11195.93
260.305	11165.62
260.375	11134.25
260.445	11136.8
260.515	11135.65
260.585	11132.32
260.655	11112.08
260.725	11109.77
260.795	11094.88
260.865	11093.24
260.934	11066.35
261.004	11062.68
261.074	11050.97
261.144	11051.36
261.214	11047.12
261.284	11030.01
261.354	11024.56
261.424	10995.36
261.494	10995.5
261.564	10971.65
261.634	10962.2
261.703	10929.1
261.773	10911.22
261.843	10907.17
261.913	10885.25
261.983	10852.43
262.053	10849.4
262.123	10828
262.192	10803.62
262.262	10799.28
262.332	10771.29
262.402	10758.8
262.472	10747.48
262.541	10706.29
262.611	10700.02
262.681	10672.56
262.751	10668.12
262.821	10649.77
262.89	10623.02
262.96	10605.53
263.03	10617.62
263.1	10605.19
263.169	10590.3
263.239	10587.51
263.309	10589.49
263.379	10580.57
263.448	10568
263.518	10551.23
263.588	10543.86
263.657	10543.66
263.727	10539.86
263.797	10523.81
263.867	10503.96
263.936	10473.8
264.006	10480.06
264.076	10460.36
264.145	10444.94
264.215	10423.55
264.285	10421.77
264.354	10388.19
264.424	10372.96
264.494	10338.56
264.563	10316.98
264.633	10325.12
264.702	10314.86
264.772	10276.41
264.842	10256.22
264.911	10246.83
264.981	10218.6
265.05	10202.75
265.12	10182.37
265.19	10160.11
265.259	10157.07
265.329	10153.65
265.398	10142.29
265.468	10150.62
265.537	10130.97
265.607	10117.19
265.676	10114.2
265.746	10101.77
265.815	10105.58
265.885	10087.56
265.955	10063.72
266.024	10047.24
266.094	10004.56
266.163	9998.78
266.232	10005.62
266.302	9992.86
266.371	9981.92
266.441	9968.24
266.51	9961.45
266.58	9942.86
266.649	9925.42
266.719	9927.11
266.788	9918.82
266.858	9922.05
266.927	9887.27
266.996	9879.81
267.066	9870.46
267.135	9834.39
267.205	9828.03
267.274	9812.37
267.343	9814.35
267.413	9804.86
267.482	9809.92
267.552	9816.52
267.621	9790.8
267.69	9749.71
267.76	9739.17
267.829	9737.09
267.898	9725.05
267.968	9705.26
268.037	9702.13
268.106	9694.81
268.176	9659.55
268.245	9641.87
268.314	9626.12
268.384	9625.16
268.453	9610.28
268.522	9602.48
268.592	9606.57
268.661	9585.19
268.73	9587.88
268.799	9562.41
268.869	9568.62
268.938	9539
269.007	9516.41
269.076	9507.99
269.146	9516.12
269.215	9511.12
269.284	9505.43
269.353	9494.12
269.422	9481.98
269.492	9461.61
269.561	9425.35
269.63	9422.75
269.699	9408.69
269.768	9395.98
269.838	9386.35
269.907	9382.88
269.976	9356.4
270.045	9327.75
270.114	9329.19
270.183	9314.94
270.253	9306.18
270.322	9279.6
270.391	9265.01
270.46	9271.12
270.529	9268.77
270.598	9262.55
270.667	9244.59
270.736	9224.22
270.806	9215.7
270.875	9218.93
270.944	9210.26
271.013	9232.36
271.082	9227.93
271.151	9219.17
271.22	9191.05
271.289	9181.37
271.358	9169.91
271.427	9169.29
271.496	9166.59
271.565	9143
271.634	9126.39
271.703	9159.96
271.772	9158.37
271.841	9154.85
271.91	9135.26
271.979	9125.05
272.048	9101.12
272.117	9106.37
272.186	9096.02
272.255	9091.68
272.324	9086.58
272.393	9083.84
272.462	9066.6
272.531	9052.01
272.6	9043.06
272.669	9047.87
272.738	9030.06
272.807	9022.88
272.876	9006.95
272.945	9028.66
273.013	9033.33
273.082	9036.8
273.151	8981.67
273.22	8981.38
273.289	8967.23
273.358	8971.66
273.427	8964
273.496	8965.98
273.564	8959.67
273.633	8954.62
273.702	8941.76
273.771	8928.72
273.84	8917.21
273.909	8914.81
273.977	8911.1
274.046	8903.83
274.115	8901.57
274.184	8893
274.253	8885.73
274.322	8894.4
274.39	8865.08
274.459	8854.54
274.528	8827.87
274.597	8826.76
274.665	8817.33
274.734	8829.17
274.803	8816.08
274.872	8804.67
274.94	8786.91
275.009	8819.8
275.078	8808.73
275.147	8803.09
275.215	8798.43
275.284	8813.01
275.353	8801.02
275.421	8777.78
275.49	8789.86
275.559	8788.8
275.627	8779.42
275.696	8772.63
275.765	8771.38
275.833	8761.32
275.902	8753.91
275.971	8763.97
276.039	8781.78
276.108	8785.58
276.177	8779.03
276.245	8765.27
276.314	8758.44
276.383	8769.84
276.451	8730.84
276.52	8738.16
276.588	8754.86
276.657	8760.87
276.725	8743.64
276.794	8745.62
276.863	8761.02
276.931	8737.96
277	8742.53
277.068	8749.03
277.137	8767.9
277.205	8760.44
277.274	8779.64
277.342	8794.32
277.411	8775.55
277.48	8756.78
277.548	8744.8
277.617	8741.09
277.685	8742.1
277.754	8749.9
277.822	8737.87
277.89	8746.82
277.959	8735.56
278.027	8707.4
278.096	8690.17
278.164	8713.62
278.233	8705.72
278.301	8692.78
278.37	8696.77
278.438	8679.44
278.507	8682.52
278.575	8651.62
278.643	8648.54
278.712	8633.67
278.78	8617.98
278.849	8627.6
278.917	8632.08
278.985	8627.36
279.054	8630.44
279.122	8640.98
279.191	8639.11
279.259	8635.83
279.327	8611.91
279.396	8626.98
279.464	8634.24
279.532	8646.71
279.601	8639.39
279.669	8630.97
279.737	8643.91
279.806	8647.67
279.874	8656.52
279.942	8656.72
280.011	8654.36
280.079	8662.73
280.147	8674.33
280.215	8676.45
280.284	8675.49
280.352	8667.26
280.42	8676.26
280.488	8666.34
280.557	8654.45
280.625	8651.81
280.693	8654.65
280.761	8653.88
280.83	8638.76
280.898	8643.91
280.966	8628.9
281.034	8598.29
281.102	8589.82
281.171	8580.67
281.239	8584.14
281.307	8580.82
281.375	8566.38
281.443	8587.65
281.512	8581.25
281.58	8586.45
281.648	8573.31
281.716	8569.46
281.784	8565.42
281.852	8553.87
281.92	8552.91
281.989	8564.99
282.057	8553.1
282.125	8595.42
282.193	8595.66
282.261	8590.46
282.329	8586.03
282.397	8584.4
282.465	8590.46
282.533	8608.22
282.601	8599.41
282.67	8578.23
282.738	8566.93
282.806	8581.02
282.874	8568.9
282.942	8573.52
283.01	8563.89
283.078	8565.24
283.146	8562.16
283.214	8571.06
283.282	8580.64
283.35	8593.58
283.418	8586.8
283.486	8591.27
283.554	8550.79
283.622	8551.32
283.69	8547.42
283.758	8541.6
283.826	8547.66
283.894	8553.72
283.962	8570.62
284.03	8584.38
284.098	8588.04
284.165	8582.7
284.233	8579.76
284.301	8572.93
284.369	8558.88
284.437	8555.22
284.505	8560.13
284.573	8571.58
284.641	8557.96
284.709	8561.52
284.777	8543.14
284.845	8548.96
284.912	8548.24
284.98	8546.22
285.048	8544.01
285.116	8551.7
285.184	8563.93
285.252	8563.16
285.319	8551.8
285.387	8540.1
285.455	8524.95
285.523	8532.65
285.591	8530.34
285.659	8537.17
285.726	8555.31
285.794	8546.41
285.862	8541.7
285.93	8538.04
285.997	8533.18
286.065	8534.24
286.133	8527.21
286.201	8523.89
286.269	8509.84
286.336	8503.49
286.404	8499.88
286.472	8507.14
286.539	8487.9
286.607	8475.82
286.675	8474.81
286.743	8484
286.81	8479.91
286.878	8496.41
286.946	8491.41
287.013	8498.29
287.081	8491.12
287.149	8469.41
287.216	8487.41
287.284	8481.11
287.352	8483.9
287.419	8489.63
287.487	8501.99
287.555	8505.31
287.622	8505.79
287.69	8510.94
287.758	8521.19
287.825	8517.44
287.893	8506.47
287.96	8515.42
288.028	8519.12
288.096	8526.2
288.163	8526.77
288.231	8513.78
288.298	8507.72
288.366	8516.81
288.433	8508.34
288.501	8497.85
288.569	8505.46
288.636	8499.35
288.704	8513.49
288.771	8515.9
288.839	8502.67
288.906	8495.93
288.974	8501.99
289.041	8497.95
289.109	8486.16
289.176	8498.29
289.244	8501.37
289.311	8516.63
289.379	8530.29
289.446	8539.63
289.514	8538.33
289.581	8539.29
289.649	8547.42
289.716	8552.14
289.783	8542.95
289.851	8565.13
289.918	8571.1
289.986	8575.82
290.053	8581.16
290.121	8577.69
290.188	8583.03
290.255	8607.24
290.323	8604.45
290.39	8599.83
290.458	8608.92
290.525	8627.31
290.592	8620.52
290.66	8627.69
290.727	8616.43
290.794	8622.2
290.862	8619.46
290.929	8615.51
290.996	8610.12
291.064	8615.08
291.131	8622.16
291.198	8632.79
291.266	8628.56
291.333	8633.08
291.4	8638.33
291.468	8660.37
291.535	8657.44
291.602	8653.06
291.669	8649.88
291.737	8658.69
291.804	8654.88
291.871	8672.74
291.938	8678.03
292.006	8707.64
292.073	8717.36
292.14	8732.04
292.207	8730.84
292.275	8733.39
292.342	8745.23
292.409	8776.81
292.476	8796.3
292.543	8791.34
292.611	8796.45
292.678	8815.84
292.745	8833.8
292.812	8848.72
292.879	8836.2
292.946	8839.19
293.014	8858.2
293.081	8867.73
293.148	8874.47
293.215	8898.87
293.282	8890.07
293.349	8901.09
293.416	8878.8
293.484	8890.35
293.551	8897.09
293.618	8911.58
293.685	8930.11
293.752	8926.89
293.819	8922.7
293.886	8911.24
293.953	8918.94
294.02	8928.62
294.087	8935.46
294.154	8933.58
294.221	8943.59
294.288	8948.46
294.356	8966.6
294.423	8972.52
294.49	8962.7
294.557	8978.01
294.624	8965.88
294.691	8992.84
294.758	8990.82
294.825	9003.14
294.892	9000.97
294.959	9003.04
295.026	9013.73
295.093	9018.11
295.16	9022.64
295.226	9024.37
295.293	9049.41
295.36	9053.4
295.427	9063.51
295.494	9071.79
295.561	9086.96
295.628	9108.68
295.695	9126.44
295.762	9128.75
295.829	9135.64
295.896	9147.86
295.963	9158.51
296.03	9168.71
296.096	9169.1
296.163	9178
296.23	9190.76
296.297	9207.13
296.364	9205.69
296.431	9209.4
296.498	9194.66
296.564	9215.85
296.631	9216.23
296.698	9206.75
296.765	9226.97
296.832	9221.19
296.899	9211.46
296.965	9219.75
297.032	9199.95
297.099	9213.58
297.166	9220.9
297.233	9219.94
297.299	9220.47
297.366	9219.89
297.433	9220.56
297.5	9234.43
297.566	9240.4
297.633	9237.51
297.7	9236.45
297.767	9234.29
297.833	9240.64
297.9	9250.7
297.967	9232.36
298.033	9241.75
298.1	9267.32
298.167	9257.55
298.234	9257.59
298.3	9265.88
298.367	9262.31
298.434	9264.72
298.5	9258.17
298.567	9255.23
298.634	9253.84
298.7	9276.03
298.767	9279.98
298.834	9297.22
298.9	9288.84
298.967	9279.5
299.033	9287.74
299.1	9303.29
299.167	9325.24
299.233	9322.64
299.3	9342.19
299.366	9362.13
299.433	9376.48
299.5	9347.68
299.566	9350.47
299.633	9368.72
299.699	9380.14
299.766	9377.73
299.832	9383.41
299.899	9388.66
299.965	9399.69
300.032	9396.51
300.099	9396.12
300.165	9405.75
300.232	9401.03
300.298	9402
300.365	9416.39
300.431	9420.05
300.498	9406.76
300.564	9408.69
300.631	9412.69
300.697	9424.1
300.763	9424.1
300.83	9422.9
300.896	9444.85
300.963	9458.29
301.029	9465.32
301.096	9471.44
301.162	9488.39
301.229	9489.88
301.295	9484.87
301.361	9492.67
301.428	9496.33
301.494	9481.16
301.561	9480.3
301.627	9479.38
301.693	9483.81
301.76	9490.84
301.826	9485.98
301.892	9503.36
301.959	9515.74
302.025	9518.82
302.092	9507.84
302.158	9516.51
302.224	9518.82
302.291	9503.65
302.357	9501.01
302.423	9491.28
302.49	9477.79
302.556	9482.71
302.622	9484.73
302.688	9493.16
302.755	9506.35
302.821	9520.85
302.887	9532.31
302.954	9527.39
303.02	9535.34
303.086	9542.18
303.152	9539.05
303.219	9535
303.285	9542.37
303.351	9544.68
303.417	9544.73
303.483	9538.86
303.55	9534.48
303.616	9536.26
303.682	9540.98
303.748	9529.32
303.815	9545.36
303.881	9555.14
303.947	9538.67
304.013	9533.47
304.079	9522.68
304.145	9501.49
304.212	9497.83
304.278	9492.39
304.344	9491.23
304.41	9482.03
304.476	9467.15
304.542	9459.93
304.608	9462.48
304.674	9441.68
304.741	9434.98
304.807	9433.63
304.873	9434.07
304.939	9449.67
305.005	9433.34
305.071	9432.09
305.137	9437.44
305.203	9411.63
305.269	9414.03
305.335	9430.02
305.401	9428.14
305.467	9432.29
305.533	9441.39
305.599	9450.49
305.666	9460.7
305.732	9462.09
305.798	9473.03
305.864	9501.34
305.93	9510.97
305.996	9513.09
306.062	9516.99
306.128	9512.8
306.194	9506.01
306.259	9507.27
306.325	9490.51
306.391	9502.26
306.457	9509
306.523	9512.71
306.589	9537.51
306.655	9526.53
306.721	9507.65
306.787	9501.73
306.853	9509.67
306.919	9490.27
306.985	9472.93
307.051	9462.67
307.117	9455.07
307.183	9453.28
307.248	9425.4
307.314	9426.07
307.38	9430.75
307.446	9431.47
307.512	9420.2
307.578	9423.04
307.644	9417.55
307.709	9425.21
307.775	9414.66
307.841	9412.88
307.907	9412.06
307.973	9392.32
308.039	9387.79
308.104	9395.16
308.17	9390.15
308.236	9378.74
308.302	9379.55
308.368	9372
308.433	9374.69
308.499	9368.24
308.565	9354.03
308.631	9362.75
308.696	9340.07
308.762	9322.3
308.828	9321.1
308.894	9303.81
308.959	9283.74
309.025	9275.89
309.091	9268.81
309.156	9258.7
309.222	9257.78
309.288	9245.84
309.354	9226.44
309.419	9231.35
309.485	9215.51
309.551	9219.99
309.616	9201.3
309.682	9197.55
309.748	9190.38
309.813	9181.61
309.879	9169.14
309.945	9156.24
310.01	9142.52
310.076	9146.18
310.141	9144.11
310.207	9128.31
310.273	9128.36
310.338	9134.81
310.404	9116.71
310.469	9100.15
310.535	9095.48
310.601	9071.02
310.666	9075.55
310.732	9086.52
310.797	9067.75
310.863	9053.78
310.928	9048.39
310.994	9053.83
311.059	9057.73
311.125	9056.48
311.191	9065.97
311.256	9060
311.322	9067.46
311.387	9046.33
311.453	9399.35
311.518	9374.03
311.584	9372.3
311.649	9382.02
311.715	9373.12
311.78	9378.17
311.846	9366.28
311.911	9370.37
311.976	9377.45
312.042	9361.71
312.107	9343.08
312.173	9338.5
312.238	9341.44
312.304	9332.82
312.369	9323.82
312.434	9308.75
312.5	9302.88
312.565	9269.47
312.631	9273.7
312.696	9260.27
312.761	9266.29
312.827	8907.29
312.892	8947.35
312.958	8942.44
313.023	8934.83
313.088	8931.03
313.154	8914.66
313.219	8909.75
313.284	8895.5
313.35	8885.59
313.415	8878.95
313.48	8869.9
313.546	8871.24
313.611	8874.37
313.676	8866.38
313.741	8854.73
313.807	8865.33
313.872	8867.3
313.937	8874.04
314.003	8885.98
314.068	8893.92
314.133	8897.38
314.198	8880.78
314.264	8860.03
314.329	8844.62
314.394	8840.19
314.459	8832.73
314.525	8853.53
314.59	8852.47
314.655	8844.14
314.72	8852.03
314.785	8849.92
314.851	8848.86
314.916	8831
314.981	8812.37
315.046	8807.75
315.111	8796.93
315.176	8780.56
315.242	8781.52
315.307	8778.78
315.372	8751.92
315.437	8736.71
315.502	8732.9
315.567	8744.26
315.632	8726.89
315.698	8731.36
315.763	8728.96
315.828	8720.58
315.893	8711.44
315.958	8707.11
316.023	8700.95
316.088	8683.33
316.153	8667.35
316.218	8663.93
316.283	8645.99
316.348	8628.62
316.413	8624.53
316.479	8613.07
316.544	8584.25
316.609	8552.92
316.674	8521.16
316.739	8494.89
316.804	8464
316.869	8426.61
316.934	8383.45
316.999	8353.28
317.064	8304.4
317.129	8256.05
317.194	8222.76
317.259	8176.37
317.324	8125.72
317.389	8082.48
317.454	8039.18
317.518	7999.65
317.583	7977.71
317.648	7954.28
317.713	7922.64
317.778	7862.23
317.843	7830.1
317.908	7787.4
317.973	7751.72
318.038	7720.08
318.103	7681.71
318.168	7652.09
318.233	7612.23
318.297	7568.48
318.362	7531.02
318.427	7496.75
318.492	7477.28
318.557	7428.54
318.622	7404.69
318.687	7384.27
318.751	7342.7
318.816	7311.6
318.881	7283.44
318.946	7221.91
319.011	7180.05
319.075	7144.39
319.14	7110.57
319.205	7066.8
319.27	7034.27
319.335	6988.53
319.399	6949.62
319.464	6923.87
319.529	6870.07
319.594	6837.26
319.658	6811.32
319.723	6769.53
319.788	6738.27
319.853	6679.72
319.917	6652.73
319.982	6594.77
320.047	6552.7
320.112	6526.87
320.176	6483.08
320.241	6447.06
320.306	6412.93
320.37	6367.81
320.435	6333.01
320.5	6305.31
320.564	6271.81
320.629	6232.99
320.694	6199.73
320.758	6153.85
320.823	6106.15
320.888	6079.91
320.952	6030.4
321.017	5986.35
321.082	5949.79
321.146	5914.53
321.211	5883.5
321.275	5843.07
321.34	5802.26
321.405	5762.98
321.469	5716.66
321.534	5669.57
321.598	5618.36
321.663	5590.69
321.727	5563.89
321.792	5510.64
321.857	5467.82
321.921	5422.81
321.986	5378.73
322.05	5322.91
322.115	5287.98
322.179	5247.49
322.244	5191.3
322.308	5159.16
322.373	5110.73
322.437	5068.52
322.502	5045.28
322.566	4999.92
322.631	4961.22
322.695	4923.26
322.76	4874.8
322.824	4839.52
322.889	4798.69
322.953	4751.55
323.018	4689.12
323.082	4624.37
323.146	4579.45
323.211	4528.25
323.275	4489.06
323.34	4445.48
323.404	4413.63
323.468	4373.11
323.533	4331.01
323.597	4289
323.662	4238.4
323.726	4206.6
323.79	4163.47
323.855	4095.59
323.919	4047.16
323.983	4003.28
324.048	3937.03
324.112	4074.09
324.177	3948.97
324.241	3744.41
324.305	3546.97
324.37	3349.57
324.434	3161.6
324.498	3119.56
324.562	3069.55
324.627	3008.57
324.691	2955.84
324.755	2891.55
324.82	2812.74
324.884	2732.07
324.948	2661.51
325.012	2570.25
325.077	2442.79
