Data from 20250702_urea_0.5M_MAYP1162681_16-14-59-886.txt Node
Date: Wed Jul 02 16:14:59 BST 2025
User: adleo
Spectrometer: MAYP116268
Trigger mode: 0
Integration Time (sec): 1.000000E0
Scans to average: 1
Electric dark correction enabled: true
Nonlinearity correction enabled: true
Boxcar width: 10
XAxis mode: Wavelengths
Number of Pixels in Spectrum: 2068
>>>>>Begin Spectral Data<<<<<
179.565	1116.44
179.642	1172.89
179.718	1212.06
179.795	1244.28
179.871	1271.74
179.948	1289.72
180.024	1310.1
180.101	1331.65
180.177	1345.69
180.254	1367.15
180.33	1388.13
180.407	1434.32
180.483	1521.16
180.56	1602.73
180.636	1680.73
180.712	1668.23
180.789	1679.44
180.865	1691.13
180.942	1699.35
181.018	1709.61
181.095	1723.25
181.171	1730.29
181.248	1730.29
181.324	1744.21
181.4	1754.05
181.477	1765.93
181.553	1779.09
181.63	1796.53
181.706	1813.55
181.782	1820.34
181.859	1820.58
181.935	1823.34
182.011	1819.77
182.088	1837.65
182.164	1858.8
182.24	1872.21
182.317	1883.14
182.393	1878.86
182.469	1891.98
182.546	1905.15
182.622	1906.71
182.698	1901.01
182.775	1910.56
182.851	1921.4
182.927	1917.12
183.003	1912.13
183.08	1905.72
183.156	1915.56
183.232	1914.32
183.308	1901.49
183.385	1911.23
183.461	1928.3
183.537	1929.49
183.613	1942.75
183.69	1933.48
183.766	1920.97
183.842	1928.2
183.918	1932.19
183.995	1946.41
184.071	1949.78
184.147	1945.84
184.223	1938.85
184.299	1951.98
184.375	1942.8
184.452	1949.89
184.528	2002.59
184.604	2013.29
184.68	2028.26
184.756	2031.64
184.832	2034.21
184.908	2040.48
184.985	2039.53
185.061	2023.7
185.137	2037.58
185.213	2023.85
185.289	2024.94
185.365	2019.09
185.441	2015.05
185.517	2028.89
185.593	2023.76
185.669	2020.71
185.745	2028.75
185.822	2044.1
185.898	2034.45
185.974	2044.48
186.05	2037.63
186.126	1997.96
186.202	1994.2
186.278	1988.11
186.354	1979.94
186.43	1986.69
186.506	1984.74
186.582	1981.32
186.658	1987.12
186.734	1966.05
186.81	1971.23
186.886	1972.85
186.962	1984.69
187.038	1984.93
187.114	1977.31
187.19	1985.45
187.266	1975.51
187.341	1977.65
187.417	1970.19
187.493	1970.71
187.569	1970.52
187.645	1963.67
187.721	1953.73
187.797	1957.39
187.873	1963.43
187.949	1957.49
188.025	1951.31
188.101	1951.64
188.176	1959.25
188.252	1955.59
188.328	1963.48
188.404	1963.43
188.48	1961.1
188.556	1953.63
188.632	1950.07
188.707	1949.78
188.783	1946.83
188.859	1943.6
188.935	1930.33
189.011	1937.18
189.086	1932.28
189.162	1925.11
189.238	1924.44
189.314	1919.26
189.39	1911.98
189.465	1902.86
189.541	1918.31
189.617	1906.23
189.693	1902.62
189.768	1905.14
189.844	1928.69
189.92	1918.85
189.996	1927.79
190.071	1936.73
190.147	1936.82
190.223	1946.57
190.298	1940.48
190.374	1929.5
190.45	1941.95
190.526	1952.7
190.601	1946.71
190.677	1947.47
190.753	1976.49
190.828	1979.96
190.904	1996.46
190.98	2014.67
191.055	2025.42
191.131	2016.67
191.207	2034.17
191.282	2042.82
191.358	2034.17
191.433	2019.85
191.509	2031.4
191.585	2028.83
191.66	2033.3
191.736	2041.38
191.811	2033.25
191.887	2047.85
191.963	2070.21
192.038	2073.96
192.114	2071.82
192.189	2077.86
192.265	2074.91
192.34	2053.03
192.416	2050.36
192.491	2042.99
192.567	2042.18
192.642	2042.9
192.718	2044.08
192.793	2035.19
192.869	2032.96
192.944	2034.81
193.02	2040.47
193.095	2045.99
193.171	2053.45
193.246	2050.27
193.322	2047.22
193.397	2049.98
193.473	2038.23
193.548	2019.92
193.624	2023.25
193.699	2022.25
193.775	2034.9
193.85	2034.62
193.925	2040.94
194.001	2041.42
194.076	2039.42
194.152	2032.29
194.227	2028.01
194.302	2018.07
194.378	2017.41
194.453	2014.65
194.529	2026.49
194.604	2013.08
194.679	2007.71
194.755	1986.79
194.83	1998.73
194.905	1996.83
194.981	2003.1
195.056	1996.16
195.131	2001.35
195.207	2002.58
195.282	1994.36
195.357	1977.66
195.433	1993.02
195.508	1983.6
195.583	1990.59
195.659	1999.77
195.734	2003.15
195.809	2003.01
195.884	2015.84
195.96	2019.88
196.035	2034.34
196.11	2031.68
196.185	2045.04
196.261	2045.52
196.336	2076.14
196.411	2061.21
196.486	2066.44
196.561	2060.11
196.637	2067.67
196.712	2083.7
196.787	2085.65
196.862	2100.59
196.937	2110.34
197.013	2117.76
197.088	2129.22
197.163	2149.59
197.238	2168.58
197.313	2171.01
197.388	2180.09
197.464	2206.65
197.539	2215.97
197.614	2208.51
197.689	2219.93
197.764	2233.35
197.839	2253.57
197.914	2245.48
197.989	2269.12
198.065	2283.3
198.14	2332.97
198.215	2357.53
198.29	2369.05
198.365	2382.24
198.44	2392.56
198.515	2418.84
198.59	2433.6
198.665	2454.45
198.74	2462.12
198.815	2463.69
198.89	2484.11
198.965	2514.5
199.04	2507.83
199.115	2521.63
199.19	2563.68
199.265	2565.53
199.34	2573.44
199.415	2606.22
199.49	2629.64
199.565	2639.12
199.64	2661.27
199.715	2656.21
199.79	2660.4
199.865	2664.79
199.94	2663.5
200.015	2694.18
200.09	2699.28
200.165	2704.43
200.24	2712.19
200.315	2751.44
200.39	2764.44
200.464	2771.45
200.539	2772.97
200.614	2787.26
200.689	2810.61
200.764	2815.9
200.839	2834.76
200.914	2839.86
200.989	2829.56
201.063	2841.19
201.138	2824.38
201.213	2823.67
201.288	2805.99
201.363	2811.66
201.438	2815.52
201.512	2827.85
201.587	2810.08
201.662	2815.03
201.737	2824.47
201.812	2833.05
201.886	2800.05
201.961	2806.77
202.036	2796.77
202.111	2796.96
202.186	2770.72
202.26	2753.23
202.335	2729.83
202.41	2721.35
202.485	2707.06
202.559	2686.53
202.634	2662.57
202.709	2672.28
202.784	2655.9
202.858	2655.85
202.933	2642.65
203.008	2634.13
203.082	2619.03
203.157	2618.51
203.232	2574.89
203.306	2558.5
203.381	2527.54
203.456	2507.11
203.53	2486.62
203.605	2465.82
203.68	2442.38
203.754	2438.86
203.829	2428.05
203.904	2412.58
203.978	2400.44
204.053	2404.53
204.127	2394.97
204.202	2393.78
204.277	2376.5
204.351	2369.88
204.426	2360.55
204.5	2351.17
204.575	2319.2
204.65	2325.67
204.724	2319.48
204.799	2329.23
204.873	2324.9
204.948	2323.56
205.022	2311.34
205.097	2301.77
205.171	2312.99
205.246	2319.95
205.32	2319.76
205.395	2318.04
205.469	2306.67
205.544	2312.34
205.618	2297.25
205.693	2309.25
205.767	2298.11
205.842	2320.25
205.916	2314.39
205.991	2307.3
206.065	2312.87
206.14	2326.43
206.214	2324.19
206.289	2318.38
206.363	2329.14
206.438	2329.99
206.512	2337.32
206.586	2356.31
206.661	2369.41
206.735	2353.66
206.81	2353.56
206.884	2368.75
206.958	2357.04
207.033	2375.93
207.107	2387.36
207.181	2420.5
207.256	2417.98
207.33	2438.59
207.405	2451.55
207.479	2474.02
207.553	2484.3
207.628	2472.93
207.702	2495.35
207.776	2497.4
207.851	2506.83
207.925	2527.36
207.999	2536.46
208.073	2544.74
208.148	2559.84
208.222	2558.03
208.296	2600.98
208.371	2629.81
208.445	2653.25
208.519	2697.69
208.593	2726.42
208.668	2743.67
208.742	2767.38
208.816	2791.91
208.89	2829.1
208.965	2854.95
209.039	2891.48
209.113	2945.79
209.187	2997.39
209.261	3023.56
209.336	3077.55
209.41	3139.52
209.484	3184.18
209.558	3249.37
209.632	3311.2
209.707	3373.63
209.781	3449.52
209.855	3522.11
209.929	3600.96
210.003	3668.44
210.077	3739.09
210.151	3856.75
210.226	3961.79
210.3	4066.46
210.374	4168.4
210.448	4259.13
210.522	4351.3
210.596	4454.12
210.67	4548.62
210.744	4689.05
210.818	4822.55
210.892	4941.35
210.966	5036.63
211.041	5162.7
211.115	5267.5
211.189	5405.03
211.263	5536.07
211.337	5660.22
211.411	5796.04
211.485	5915.12
211.559	6057.56
211.633	6185.48
211.707	6292.65
211.781	6432.88
211.855	6535.31
211.929	6672.04
212.003	6790.82
212.077	6950.94
212.151	7109.48
212.225	7271.47
212.299	7416.58
212.373	7558.38
212.447	7715.81
212.52	7907.19
212.594	8073.38
212.668	8251.78
212.742	8404.53
212.816	8569.54
212.89	8740.85
212.964	8910.43
213.038	9086.29
213.112	9267.93
213.186	9454.43
213.26	9608.93
213.333	9744.5
213.407	9927.1
213.481	10104.67
213.555	10298.99
213.629	10464.09
213.703	10624.24
213.777	10803.86
213.85	10962.44
213.924	11173.16
213.998	11353.92
214.072	11525.84
214.146	11692.16
214.219	11866.63
214.293	12040.81
214.367	12225.22
214.441	12401.39
214.515	12567.3
214.588	12719.29
214.662	12868.09
214.736	13027.93
214.81	13197.27
214.883	13374.9
214.957	13520.86
215.031	13674.97
215.105	13813.66
215.178	13965.89
215.252	14120.39
215.326	14256.66
215.4	14394
215.473	14503.57
215.547	14635.02
215.621	14775.19
215.694	14922.69
215.768	15052.46
215.842	15191.81
215.915	15315.73
215.989	15433.78
216.063	15556.35
216.136	15695.65
216.21	15825.99
216.284	15972.08
216.357	16117.73
216.431	16250.23
216.504	16390.92
216.578	16545.97
216.652	16685.02
216.725	16817.51
216.799	16955.01
216.873	17080.94
216.946	17216.8
217.02	17349.58
217.093	17470.88
217.167	17571.17
217.24	17666.45
217.314	17780.91
217.387	17869.82
217.461	17967.17
217.535	18087.55
217.608	18195.84
217.682	18299.45
217.755	18412.94
217.829	18499.15
217.902	18595.1
217.976	18691.72
218.049	18793.5
218.123	18877.54
218.196	18980.28
218.27	19058.01
218.343	19138.39
218.417	19234.24
218.49	19324.5
218.563	19408.16
218.637	19502.38
218.71	19606.42
218.784	19712.2
218.857	19793.5
218.931	19895.27
219.004	19985.05
219.077	20079.7
219.151	20158.88
219.224	20239.94
219.298	20323.46
219.371	20407.46
219.444	20477.68
219.518	20554.98
219.591	20625.19
219.665	20713.06
219.738	20791.08
219.811	20858.46
219.885	20923.52
219.958	20994.37
220.031	21058.61
220.105	21132.88
220.178	21196.17
220.251	21247.06
220.325	21313.53
220.398	21385.3
220.471	21442.46
220.544	21504.73
220.618	21541.9
220.691	21604.31
220.764	21654.88
220.838	21708.04
220.911	21766.56
220.984	21834.48
221.057	21887.6
221.131	21939.41
221.204	21958.5
221.277	22012.44
221.35	22081.52
221.424	22126.5
221.497	22161.44
221.57	22190.13
221.643	22227.68
221.716	22268.85
221.79	22295.94
221.863	22320.19
221.936	22344.39
222.009	22371.43
222.082	22410.63
222.155	22444.85
222.229	22484.19
222.302	22512.01
222.375	22537.27
222.448	22565.52
222.521	22594.55
222.594	22620.73
222.667	22642.57
222.74	22687.02
222.814	22713.92
222.887	22732.1
222.96	22768.16
223.033	22809.97
223.106	22842.27
223.179	22870.71
223.252	22888.55
223.325	22920.04
223.398	22942.36
223.471	22974.66
223.544	23005.18
223.617	23021.62
223.69	23039.12
223.763	23047.51
223.837	23073.07
223.91	23101.08
223.983	23094.33
224.056	23098.53
224.129	23109.86
224.202	23119.5
224.275	23118.54
224.348	23114.39
224.42	23106.97
224.493	23097.8
224.566	23091.01
224.639	23104.12
224.712	23100.36
224.785	23105.42
224.858	23111.26
224.931	23120.95
225.004	23111.93
225.077	23108.7
225.15	23084.3
225.223	23095.49
225.296	23111.26
225.369	23099.69
225.442	23077.75
225.514	23091.68
225.587	23081.85
225.66	23078.86
225.733	23094.82
225.806	23088.5
225.879	23089.95
225.952	23085.56
226.025	23098.92
226.097	23116.85
226.17	23119.26
226.243	23096.89
226.316	23086.43
226.389	23090.96
226.461	23085.22
226.534	23086.38
226.607	23091.88
226.68	23116.13
226.753	23103.5
226.825	23078.18
226.898	23087.39
226.971	23081.9
227.044	23062.22
227.117	23062.71
227.189	23058.03
227.262	23049.59
227.335	23060.34
227.407	23044.14
227.48	23040.43
227.553	23036.28
227.626	23020.32
227.698	22996.74
227.771	23002.48
227.844	22992.26
227.916	22966.32
227.989	22952.05
228.062	22933.73
228.134	22937.15
228.207	22920.9
228.28	22901.32
228.352	22889.8
228.425	22880.98
228.498	22888.89
228.57	22886.86
228.643	22885.37
228.716	22878.71
228.788	22866.47
228.861	22839.51
228.934	22839.51
229.006	22829.68
229.079	22811.79
229.151	22792.55
229.224	22767.77
229.296	22763.38
229.369	22771.58
229.442	22788.75
229.514	22756.54
229.587	22758.32
229.659	22720.28
229.732	22707.85
229.804	22711.7
229.877	22720.04
229.949	22712.71
230.022	22717.63
230.094	22702.88
230.167	22689.96
230.239	22666.96
230.312	22641.7
230.384	22651.63
230.457	22643.29
230.529	22626.27
230.602	22600.34
230.674	22585.15
230.747	22591.75
230.819	22574.01
230.892	22529.37
230.964	22499.33
231.037	22498.27
231.109	22475.23
231.181	22476.05
231.254	22451.56
231.326	22426.49
231.399	22401.13
231.471	22366.85
231.544	22322.88
231.616	22315.46
231.688	22291.12
231.761	22261.57
231.833	22239.01
231.905	22199.28
231.978	22172.72
232.05	22162.31
232.122	22145.34
232.195	22115.4
232.267	22100.94
232.339	22078.72
232.412	22076.74
232.484	22051.19
232.556	22024.87
232.629	22021.45
232.701	21999.47
232.773	21983.66
232.846	21965.39
232.918	21944.61
232.99	21929.14
233.062	21908.7
233.135	21881.22
233.207	21851.63
233.279	21832.2
233.351	21821.21
233.424	21797.74
233.496	21757.78
233.568	21749.44
233.64	21713.87
233.713	21692.47
233.785	21668.17
233.857	21648.6
233.929	21613.08
234.001	21604.93
234.074	21589.7
234.146	21551.53
234.218	21525.31
234.29	21496.58
234.362	21460.58
234.434	21424.28
234.507	21389.34
234.579	21350.92
234.651	21318.63
234.723	21303.74
234.795	21291.25
234.867	21260.26
234.939	21241.56
235.012	21225.32
235.084	21193.84
235.156	21173.27
235.228	21129.21
235.3	21092.58
235.372	21065.45
235.444	21047.13
235.516	20992.62
235.588	20958.84
235.66	20925.39
235.732	20883.22
235.804	20894.02
235.876	20869.05
235.948	20853.29
236.02	20820.86
236.092	20788.76
236.164	20751.94
236.236	20701.87
236.308	20660.9
236.38	20633.58
236.452	20595.69
236.524	20568.22
236.596	20544.17
236.668	20519.45
236.74	20502.78
236.812	20477.91
236.884	20448.17
236.956	20411.93
237.028	20372.32
237.1	20331.02
237.172	20313.38
237.244	20298.06
237.316	20237.38
237.388	20203.55
237.46	20160.37
237.532	20134.83
237.604	20096.37
237.675	20084.42
237.747	20072.71
237.819	20035.75
237.891	19991.94
237.963	19948.33
238.035	19907.41
238.107	19842.69
238.178	19820.33
238.25	19770.31
238.322	19753.78
238.394	19697.11
238.466	19662.03
238.538	19637.5
238.609	19616.82
238.681	19559.28
238.753	19517.99
238.825	19484.93
238.897	19453.31
238.968	19432.98
239.04	19396.98
239.112	19378.14
239.184	19323.15
239.255	19273.57
239.327	19242.77
239.399	19219.54
239.471	19194.73
239.542	19160.95
239.614	19141.77
239.686	19080.95
239.758	19066.49
239.829	19018.83
239.901	19004.47
239.973	18964.33
240.044	18924.09
240.116	18882.55
240.188	18853.78
240.259	18814.75
240.331	18773.11
240.403	18741.55
240.474	18677.51
240.546	18634.86
240.618	18585.37
240.689	18556.02
240.761	18526.86
240.833	18502.77
240.904	18459.45
240.976	18412.7
241.048	18379.45
241.119	18356.32
241.191	18327.07
241.262	18308.85
241.334	18269.29
241.405	18226.93
241.477	18184.42
241.549	18154.16
241.62	18130.16
241.692	18094.6
241.763	18064.67
241.835	18022.26
241.906	17988.24
241.978	17949.44
242.049	17926.94
242.121	17903.04
242.192	17870.94
242.264	17817.45
242.335	17767.76
242.407	17741.45
242.478	17706.65
242.55	17674.7
242.621	17626.27
242.693	17595.09
242.764	17552.49
242.836	17516.1
242.907	17491.33
242.979	17466.27
243.05	17432.54
243.122	17401.55
243.193	17364.3
243.264	17312.2
243.336	17275.48
243.407	17243.09
243.479	17227.62
243.55	17190.8
243.622	17158.61
243.693	17123.23
243.764	17106.61
243.836	17065.01
243.907	17022.75
243.978	16987.42
244.05	16952.05
244.121	16899.27
244.192	16867.37
244.264	16801.48
244.335	16762.2
244.407	16710.15
244.478	16670.92
244.549	16634
244.62	16574.48
244.692	16535.93
244.763	16509.56
244.834	16475.25
244.906	16436.26
244.977	16411.39
245.048	16390.85
245.119	16345.98
245.191	16311.57
245.262	16260.24
245.333	16244.77
245.405	16213.63
245.476	16184.23
245.547	16155.31
245.618	16127.41
245.689	16093.33
245.761	16070.19
245.832	16033.61
245.903	15997.94
245.974	15973.36
246.045	15935.62
246.117	15920.54
246.188	15879.52
246.259	15835.17
246.33	15799.75
246.401	15766.05
246.473	15707.54
246.544	15660.16
246.615	15639.1
246.686	15593.55
246.757	15571.91
246.828	15525.92
246.899	15505.1
246.97	15463.69
247.042	15418.63
247.113	15399.97
247.184	15391.01
247.255	15355.82
247.326	15321.93
247.397	15295.76
247.468	15260.14
247.539	15226.25
247.61	15182.87
247.681	15176.8
247.752	15169.23
247.823	15135.68
247.894	15097.6
247.965	15068
248.037	15035.56
248.108	14990.64
248.179	14963.69
248.25	14935.15
248.321	14911.05
248.392	14870.32
248.463	14859.76
248.534	14833.16
248.605	14808.48
248.675	14770.68
248.746	14745.96
248.817	14725.57
248.888	14700.84
248.959	14653.6
249.03	14640.29
249.101	14611.46
249.172	14566.2
249.243	14512.26
249.314	14493.75
249.385	14472.49
249.456	14445.93
249.527	14416.81
249.598	14402.16
249.669	14374.3
249.739	14350
249.81	14328.74
249.881	14291.43
249.952	14265.3
250.023	14236.81
250.094	14195.79
250.165	14160.79
250.235	14130.33
250.306	14108.73
250.377	14076.38
250.448	14063.66
250.519	14015.07
250.59	14008.56
250.66	13972.21
250.731	13962.71
250.802	13936.54
250.873	13909.59
250.944	13887.32
251.014	13861.29
251.085	13853.62
251.156	13839.31
251.227	13820.99
251.297	13805.8
251.368	13790.33
251.439	13769.17
251.51	13761.74
251.58	13733.88
251.651	13703.46
251.722	13694.4
251.792	13648.75
251.863	13620.45
251.934	13612.54
252.005	13624.21
252.075	13590.99
252.146	13589.69
252.217	13580.29
252.287	13562.31
252.358	13541.73
252.429	13533.87
252.499	13503.89
252.57	13478.38
252.641	13454.71
252.711	13439.63
252.782	13399.28
252.852	13393.2
252.923	13366.79
252.994	13337.43
253.064	13321.62
253.135	13289.17
253.205	13257.02
253.276	13255.04
253.347	13244.53
253.417	13204.04
253.488	13169.28
253.558	13141.61
253.629	13110.42
253.699	13081.89
253.77	13062.94
253.841	13040.04
253.911	13022.3
253.982	13003.02
254.052	12989.57
254.123	12968.02
254.193	12937.46
254.264	12947.1
254.334	12912.68
254.405	12883.61
254.475	12846.45
254.546	12821.53
254.616	12818.25
254.687	12807.11
254.757	12785.61
254.827	12757.99
254.898	12746.04
254.968	12713.59
255.039	12690.31
255.109	12672.76
255.18	12643.7
255.25	12602.05
255.321	12587.06
255.391	12542.66
255.461	12542.76
255.532	12496.91
255.602	12477.44
255.673	12431.55
255.743	12402.24
255.813	12361.03
255.884	12347.29
255.954	12338.61
256.024	12331.81
256.095	12303.66
256.165	12270.6
256.235	12255.8
256.306	12233.48
256.376	12227.45
256.446	12218.05
256.517	12201.04
256.587	12196.56
256.657	12186.82
256.728	12173.18
256.798	12147.53
256.868	12128.83
256.938	12098.9
257.009	12086.37
257.079	12068.53
257.149	12078.22
257.219	12036.81
257.29	12019.99
257.36	11984.03
257.43	11970.25
257.5	11930.72
257.571	11909.85
257.641	11895.44
257.711	11866.57
257.781	11852.16
257.852	11826.95
257.922	11794.22
257.992	11771.37
258.062	11748.91
258.132	11730.31
258.202	11713.53
258.273	11696.28
258.343	11697.24
258.413	11669.58
258.483	11648.37
258.553	11618.63
258.623	11594.34
258.693	11584.51
258.764	11582.77
258.834	11580.36
258.904	11565.37
258.974	11545.13
259.044	11521.42
259.114	11502.19
259.184	11482.91
259.254	11461.75
259.324	11432.35
259.394	11420.78
259.464	11423
259.535	11393.94
259.605	11370.08
259.675	11340.2
259.745	11325.84
259.815	11294.46
259.885	11274.46
259.955	11286.51
260.025	11259.09
260.095	11245.12
260.165	11231.86
260.235	11234.56
260.305	11210.47
260.375	11179.67
260.445	11182.51
260.515	11183.53
260.585	11180.83
260.655	11165.5
260.725	11159.62
260.795	11148.97
260.865	11154.37
260.934	11130.56
261.004	11125.55
261.074	11105.74
261.144	11107.58
261.214	11102.13
261.284	11086.32
261.354	11076.88
261.424	11045.94
261.494	11055.53
261.564	11039.81
261.634	11029.02
261.703	10985.31
261.773	10975.29
261.843	10965.94
261.913	10941.65
261.983	10905.42
262.053	10890.38
262.123	10873.47
262.192	10848.51
262.262	10840.12
262.332	10806.2
262.402	10801.96
262.472	10786.54
262.541	10757.39
262.611	10746.5
262.681	10719.46
262.751	10712.62
262.821	10694.45
262.89	10670.41
262.96	10653.64
263.03	10647.04
263.1	10634.99
263.169	10625.64
263.239	10610.61
263.309	10615.67
263.379	10608.49
263.448	10599.34
263.518	10589.65
263.588	10574.57
263.657	10580.02
263.727	10564.31
263.797	10549.71
263.867	10529.18
263.936	10498.2
264.006	10492.08
264.076	10481.29
264.145	10463.56
264.215	10441.5
264.285	10435.91
264.354	10399.15
264.424	10378.09
264.494	10343.65
264.563	10325.92
264.633	10327.22
264.702	10312.96
264.772	10274.32
264.842	10255.04
264.911	10244.35
264.981	10216.21
265.05	10204.02
265.12	10177.14
265.19	10173.82
265.259	10167.22
265.329	10152.81
265.398	10151.61
265.468	10159.6
265.537	10129.98
265.607	10121.88
265.676	10116.49
265.746	10104.25
265.815	10101.22
265.885	10084.89
265.955	10068.75
266.024	10045
266.094	10005.07
266.163	10005.26
266.232	10004.69
266.302	9988.45
266.371	9980.31
266.441	9960.08
266.51	9951.84
266.58	9938.16
266.649	9911.14
266.719	9905.7
266.788	9900.73
266.858	9892.54
266.927	9857.29
266.996	9849.53
267.066	9836.19
267.135	9812.97
267.205	9805.03
267.274	9797.17
267.343	9799.25
267.413	9790.34
267.482	9795.06
267.552	9805.17
267.621	9783.21
267.69	9755.56
267.76	9744.63
267.829	9734.22
267.898	9728.45
267.968	9707.11
268.037	9702.78
268.106	9704.89
268.176	9678.89
268.245	9658.61
268.314	9641.03
268.384	9643.1
268.453	9634.57
268.522	9629.18
268.592	9626.63
268.661	9609.58
268.73	9600.67
268.799	9579.33
268.869	9584.3
268.938	9556.07
269.007	9533.49
269.076	9517.35
269.146	9526.26
269.215	9520.24
269.284	9526.07
269.353	9512.59
269.422	9498.53
269.492	9481.05
269.561	9435.64
269.63	9430.39
269.699	9413.77
269.768	9404.24
269.838	9399.47
269.907	9392.97
269.976	9368.85
270.045	9339.96
270.114	9332.06
270.183	9316.65
270.253	9307.12
270.322	9279.58
270.391	9264.26
270.46	9270.43
270.529	9270.62
270.598	9261.81
270.667	9251.31
270.736	9218.37
270.806	9209.61
270.875	9209.32
270.944	9193.29
271.013	9217.27
271.082	9206.72
271.151	9201.28
271.22	9176.78
271.289	9164.11
271.358	9155.35
271.427	9151.79
271.496	9148.8
271.565	9135.47
271.634	9128.97
271.703	9153.62
271.772	9149.58
271.841	9142.64
271.91	9119.68
271.979	9110.05
272.048	9079.91
272.117	9076.06
272.186	9066.43
272.255	9065.27
272.324	9068.5
272.393	9066.09
272.462	9048.9
272.531	9048.81
272.6	9039.85
272.669	9043.37
272.738	9034.36
272.807	9026.66
272.876	9008.03
272.945	9027.96
273.013	9028.54
273.082	9028.88
273.151	8988.96
273.22	8986.75
273.289	8982.27
273.358	8986.94
273.427	8975.87
273.496	8983.67
273.564	8978.71
273.633	8984.1
273.702	8968.21
273.771	8950.64
273.84	8944.05
273.909	8941.06
273.977	8934.81
274.046	8919.98
274.115	8919.5
274.184	8897.07
274.253	8888.6
274.322	8894.08
274.39	8867.89
274.459	8856.24
274.528	8833.62
274.597	8822.5
274.665	8822.22
274.734	8821.01
274.803	8807.34
274.872	8802.58
274.94	8784.48
275.009	8837.6
275.078	8820.17
275.147	8819.98
275.215	8822.48
275.284	8823.35
275.353	8811.07
275.421	8786.57
275.49	8806.26
275.559	8803.18
275.627	8795.29
275.696	8782.92
275.765	8779.17
275.833	8771.27
275.902	8772.09
275.971	8778.44
276.039	8789.42
276.108	8788.55
276.177	8788.7
276.245	8778.54
276.314	8766.56
276.383	8769.88
276.451	8708.91
276.52	8715.89
276.588	8721.33
276.657	8719.55
276.725	8715.7
276.794	8715.7
276.863	8725.52
276.931	8705.11
277	8701.74
277.068	8716.17
277.137	8737.83
277.205	8739.81
277.274	8752.9
277.342	8753.09
277.411	8736.87
277.48	8730.62
277.548	8722.34
277.617	8724.65
277.685	8723.3
277.754	8732.83
277.822	8725.32
277.89	8737.93
277.959	8728.21
278.027	8712.23
278.096	8702.32
278.164	8723.12
278.233	8709.69
278.301	8701.02
278.37	8697.56
278.438	8688.61
278.507	8688.61
278.575	8659.97
278.643	8653.62
278.712	8636
278.78	8625.13
278.849	8632.68
278.917	8640.86
278.985	8633.11
279.054	8631.33
279.122	8639.56
279.191	8633.16
279.259	8632.44
279.327	8608.95
279.396	8626.76
279.464	8620.6
279.532	8629.02
279.601	8620.21
279.669	8619.39
279.737	8630.56
279.806	8631.38
279.874	8646.06
279.942	8642.11
280.011	8636.05
280.079	8643.99
280.147	8656.79
280.215	8656.55
280.284	8656.84
280.352	8640.33
280.42	8643.7
280.488	8638.07
280.557	8631.62
280.625	8636.1
280.693	8639.13
280.761	8642.26
280.83	8615.93
280.898	8628.01
280.966	8607.22
281.034	8583.35
281.102	8570.84
281.171	8564.53
281.239	8578.01
281.307	8564.77
281.375	8550.62
281.443	8586.14
281.512	8580.13
281.58	8588.98
281.648	8580.9
281.716	8578.25
281.784	8581.33
281.852	8576.52
281.92	8572.72
281.989	8580.85
282.057	8562.23
282.125	8602.04
282.193	8601.65
282.261	8602.04
282.329	8597.42
282.397	8600.79
282.465	8600.98
282.533	8619.55
282.601	8609.54
282.67	8588.41
282.738	8579.32
282.806	8591.3
282.874	8572.87
282.942	8577.25
283.01	8566.85
283.078	8569.98
283.146	8566.13
283.214	8574.02
283.282	8575.85
283.35	8588.89
283.418	8580.18
283.486	8586.34
283.554	8544.56
283.622	8543.5
283.69	8548.21
283.758	8551.77
283.826	8557.6
283.894	8565.49
283.962	8579.78
284.03	8590.47
284.098	8588.3
284.165	8585.46
284.233	8588.25
284.301	8579.98
284.369	8570.78
284.437	8564.67
284.505	8558.95
284.573	8570.25
284.641	8553.65
284.709	8567.75
284.777	8551.34
284.845	8559.86
284.912	8562.75
284.98	8567.37
285.048	8559.48
285.116	8565.01
285.184	8571.41
285.252	8570.26
285.319	8551.68
285.387	8542.78
285.455	8531.28
285.523	8536.38
285.591	8528.63
285.659	8529.21
285.726	8536.76
285.794	8521.13
285.862	8511.12
285.93	8510.59
285.997	8508.57
286.065	8505.73
286.133	8491.14
286.201	8484.46
286.269	8470.16
286.336	8458.42
286.404	8447.98
286.472	8459.38
286.539	8435.09
286.607	8417.38
286.675	8422.62
286.743	8434.22
286.81	8432.05
286.878	8441.92
286.946	8436.34
287.013	8443.12
287.081	8439.08
287.149	8429.12
287.216	8448.22
287.284	8451.15
287.352	8453.27
287.419	8447.83
287.487	8463.47
287.555	8464.82
287.622	8465.88
287.69	8468.43
287.758	8485.85
287.825	8482.19
287.893	8467.95
287.96	8478.58
288.028	8490.32
288.096	8485.03
288.163	8489.94
288.231	8474.68
288.298	8472.27
288.366	8485.89
288.433	8485.56
288.501	8479.21
288.569	8486.66
288.636	8482.48
288.704	8494.03
288.771	8501.73
288.839	8494.94
288.906	8483.2
288.974	8484.4
289.041	8481.03
289.109	8467.18
289.176	8472.62
289.244	8475.45
289.311	8488.74
289.379	8497.59
289.446	8498.75
289.514	8503.61
289.581	8499.85
289.649	8502.02
289.716	8507.74
289.783	8498.65
289.851	8519.44
289.918	8516.26
289.986	8521.75
290.053	8524.06
290.121	8522.33
290.188	8526.03
290.255	8560.35
290.323	8561.31
290.39	8559.96
290.458	8564.82
290.525	8581.81
290.592	8576.37
290.66	8576.32
290.727	8572.61
290.794	8584.26
290.862	8586.19
290.929	8582.96
290.996	8581.37
291.064	8592.39
291.131	8598.89
291.198	8613.71
291.266	8612.8
291.333	8618.19
291.4	8625.22
291.468	8640.52
291.535	8642.4
291.602	8638.07
291.669	8621.85
291.737	8628.82
291.804	8635.13
291.871	8654.33
291.938	8662.66
292.006	8686.15
292.073	8709.2
292.14	8721.62
292.207	8717.96
292.275	8716.81
292.342	8728.21
292.409	8757.96
292.476	8776.68
292.543	8771
292.611	8768.36
292.678	8782.22
292.745	8807.68
292.812	8809.94
292.879	8809.46
292.946	8814.27
293.014	8834.73
293.081	8848.06
293.148	8863.37
293.215	8877.33
293.282	8874.39
293.349	8887.49
293.416	8873.43
293.484	8881.47
293.551	8883.73
293.618	8893.4
293.685	8924.99
293.752	8921.42
293.819	8918.44
293.886	8912.42
293.953	8915.93
294.02	8926.09
294.087	8932.11
294.154	8925.8
294.221	8946.89
294.288	8950.55
294.356	8963.59
294.423	8960.37
294.49	8952.91
294.557	8958.83
294.624	8948.19
294.691	8967.3
294.758	8967.4
294.825	8976.79
294.892	8971.35
294.959	8970.38
295.026	8977.31
295.093	8961.72
295.16	8961.76
295.226	8962.2
295.293	8985.4
295.36	8990.6
295.427	9004.08
295.494	9016.22
295.561	9019.78
295.628	9038.41
295.695	9050.69
295.762	9053.05
295.829	9064.17
295.896	9078.13
295.963	9092.19
296.03	9097.92
296.096	9099.41
296.163	9108.75
296.23	9121.85
296.297	9131.62
296.364	9141.06
296.431	9145.87
296.498	9147.22
296.564	9173.65
296.631	9177.93
296.698	9158.96
296.765	9184.82
296.832	9173.31
296.899	9156.6
296.965	9176.87
297.032	9154.67
297.099	9169.45
297.166	9176.19
297.233	9173.4
297.299	9172.39
297.366	9169.79
297.433	9175.66
297.5	9193.24
297.566	9192.28
297.633	9189.39
297.7	9196.08
297.767	9188.38
297.833	9201.81
297.9	9202.25
297.967	9191.03
298.033	9201.91
298.1	9229.69
298.167	9217.99
298.234	9224.63
298.3	9237.2
298.367	9232.39
298.434	9241.87
298.5	9230.7
298.567	9220.25
298.634	9220.45
298.7	9234.07
298.767	9239.61
298.834	9255.06
298.9	9238.02
298.967	9231.42
299.033	9241.49
299.1	9259.59
299.167	9279.28
299.233	9272.45
299.3	9285.35
299.366	9298.49
299.433	9311.93
299.5	9288.38
299.566	9291.8
299.633	9304.32
299.699	9314.43
299.766	9315.78
299.832	9317.42
299.899	9327.68
299.965	9345.59
300.032	9342.99
300.099	9348.43
300.165	9353.53
300.232	9354.21
300.298	9358.97
300.365	9379.82
300.431	9380.83
300.498	9371.54
300.564	9375.68
300.631	9392.92
300.697	9405.44
300.763	9402.41
300.83	9398.31
300.896	9417.33
300.963	9426
301.029	9431.06
301.096	9433.22
301.162	9444.3
301.229	9442.52
301.295	9434.52
301.361	9433.32
301.428	9445.5
301.494	9431.1
301.561	9435
301.627	9436.3
301.693	9438.38
301.76	9432.84
301.826	9428.12
301.892	9442.23
301.959	9452.49
302.025	9441.65
302.092	9436.84
302.158	9445.84
302.224	9448.25
302.291	9437.7
302.357	9434.43
302.423	9431.25
302.49	9413.43
302.556	9423.98
302.622	9422.82
302.688	9432.6
302.755	9452.68
302.821	9457.11
302.887	9466.65
302.954	9460.19
303.02	9467.56
303.086	9473.72
303.152	9474.35
303.219	9469.15
303.285	9466.45
303.351	9466.12
303.417	9471.85
303.483	9458.22
303.55	9449.41
303.616	9450.32
303.682	9447.82
303.748	9444.01
303.815	9459.19
303.881	9479.99
303.947	9470.93
304.013	9473.58
304.079	9463.37
304.145	9445.36
304.212	9440.69
304.278	9432.12
304.344	9424.85
304.41	9407.32
304.476	9394.03
304.542	9388.01
304.608	9401.69
304.674	9386.18
304.741	9386.47
304.807	9386.66
304.873	9397.26
304.939	9410.16
305.005	9389.17
305.071	9389.26
305.137	9388.88
305.203	9356.66
305.269	9352.86
305.335	9356.42
305.401	9351.65
305.467	9348.86
305.533	9350.4
305.599	9360.75
305.666	9371.25
305.732	9375.2
305.798	9388.49
305.864	9418.49
305.93	9427.5
305.996	9425.43
306.062	9425.18
306.128	9415.51
306.194	9408.33
306.259	9402.94
306.325	9393.84
306.391	9403.32
306.457	9407.65
306.523	9405.92
306.589	9431.01
306.655	9423.64
306.721	9407.22
306.787	9393.69
306.853	9409.05
306.919	9396.1
306.985	9386.42
307.051	9381.12
307.117	9373.13
307.183	9363.98
307.248	9334.41
307.314	9336
307.38	9329.12
307.446	9333.45
307.512	9327.43
307.578	9324.44
307.644	9321.41
307.709	9321.6
307.775	9325.94
307.841	9325.94
307.907	9329.02
307.973	9311.92
308.039	9310.38
308.104	9318.43
308.17	9318.62
308.236	9301.14
308.302	9302.53
308.368	9289.68
308.433	9284.53
308.499	9284.72
308.565	9278.75
308.631	9285.3
308.696	9261.51
308.762	9251.98
308.828	9247.5
308.894	9226.22
308.959	9212.31
309.025	9202.72
309.091	9200.94
309.156	9183.75
309.222	9183.99
309.288	9170.95
309.354	9153.66
309.419	9145
309.485	9123.52
309.551	9123.96
309.616	9112.88
309.682	9108.98
309.748	9104.31
309.813	9102.43
309.879	9090.3
309.945	9074.42
310.01	9062.14
310.076	9062.81
310.141	9057.28
310.207	9041.34
310.273	9044.9
310.338	9047.26
310.404	9033.88
310.469	9022.42
310.535	9016.83
310.601	8993.73
310.666	9003.98
310.732	9006.24
310.797	8999.26
310.863	8994.98
310.928	8994.88
310.994	8998.93
311.059	8995.84
311.125	8988.91
311.191	8992.91
311.256	8984.29
311.322	8993.01
311.387	8972.02
311.453	9241.89
311.518	9219.51
311.584	9214.98
311.649	9220.71
311.715	9203.81
311.78	9204.58
311.846	9191.68
311.911	9193.27
311.976	9196.64
312.042	9175.31
312.107	9166.89
312.173	9157.84
312.238	9147.44
312.304	9141.71
312.369	9123.71
312.434	9111.58
312.5	9105.66
312.565	9080.34
312.631	9084.09
312.696	9075.96
312.761	9080.58
312.827	8805.32
312.892	8837.42
312.958	8840.46
313.023	8833.62
313.088	8834.63
313.154	8822.55
313.219	8813.6
313.284	8805.51
313.35	8796.94
313.415	8784.62
313.48	8778.27
313.546	8780.24
313.611	8793.19
313.676	8785.11
313.741	8784.77
313.807	8797.96
313.872	8802.15
313.937	8802.82
314.003	8806.91
314.068	8808.45
314.133	8808.16
314.198	8800.65
314.264	8781.49
314.329	8771.34
314.394	8769.94
314.459	8767.34
314.525	8783.95
314.59	8782.79
314.655	8767.77
314.72	8779.9
314.785	8787.7
314.851	8783.47
314.916	8764.45
314.981	8749.77
315.046	8739.52
315.111	8727.68
315.176	8708.62
315.242	8710.69
315.307	8706.7
315.372	8693.8
315.437	8680.46
315.502	8680.95
315.567	8683.79
315.632	8667.09
315.698	8666.65
315.763	8660.25
315.828	8651.35
315.893	8643.74
315.958	8641.58
316.023	8637.58
316.088	8611.5
316.153	8586.72
316.218	8575.79
316.283	8558.86
316.348	8539.95
316.413	8536.82
316.479	8519.69
316.544	8490
316.609	8463.05
316.674	8433.42
316.739	8397.09
316.804	8370.92
316.869	8332.91
316.934	8288.06
316.999	8259.2
317.064	8207.58
317.129	8161.1
317.194	8121.85
317.259	8078.36
317.324	8024.73
317.389	7976.39
317.454	7944.64
317.518	7911.17
317.583	7887.46
317.648	7865.86
317.713	7826.14
317.778	7766.75
317.843	7736.02
317.908	7695.58
317.973	7653.26
318.038	7617.35
318.103	7579.51
318.168	7542.87
318.233	7508.4
318.297	7468.41
318.362	7430.81
318.427	7392.56
318.492	7367.32
318.557	7323.68
318.622	7292.82
318.687	7273.5
318.751	7233.48
318.816	7194.5
318.881	7163.41
318.946	7106.03
319.011	7060.14
319.075	7016.56
319.14	6975.06
319.205	6935.95
319.27	6902.61
319.335	6860.53
319.399	6824.07
319.464	6792.71
319.529	6739.69
319.594	6702.27
319.658	6668.27
319.723	6624.57
319.788	6594.18
319.853	6542.26
319.917	6513.98
319.982	6459.58
320.047	6416.03
320.112	6390.16
320.176	6339.04
320.241	6300.63
320.306	6270.73
320.37	6231.03
320.435	6208.86
320.5	6187.6
320.564	6144.94
320.629	6105.59
320.694	6070.52
320.758	6031.51
320.823	5987.18
320.888	5965.5
320.952	5919.54
321.017	5880.11
321.082	5847.5
321.146	5816.99
321.211	5784.04
321.275	5741.12
321.34	5702.67
321.405	5658.23
321.469	5617.09
321.534	5579.8
321.598	5532.05
321.663	5505.25
321.727	5472.5
321.792	5420.4
321.857	5376.92
321.921	5338.97
321.986	5294.27
322.05	5240.76
322.115	5207.12
322.179	5166.5
322.244	5108.4
322.308	5072.9
322.373	5025.92
322.437	4981.62
322.502	4949.52
322.566	4906.99
322.631	4871.56
322.695	4829.48
322.76	4788.65
322.824	4751.36
322.889	4709.72
322.953	4664.27
323.018	4594.1
323.082	4533
323.146	4486.6
323.211	4432.21
323.275	4386.9
323.34	4346.87
323.404	4310.63
323.468	4258.39
323.533	4215.12
323.597	4167.86
323.662	4117.22
323.726	4086.58
323.79	4044.27
323.855	3982.01
323.919	3933.4
323.983	3891.43
324.048	3831.45
324.112	3957.11
324.177	3829.55
324.241	3629.53
324.305	3436.34
324.37	3247.98
324.434	3062.34
324.498	3017.92
324.562	2971.41
324.627	2915.67
324.691	2858.62
324.755	2796.5
324.82	2725.04
324.884	2651.68
324.948	2588.24
325.012	2498.69
325.077	2376.18
