Data from 20250702_urea_0.5M_MAYP1162681_08-25-00-218.txt Node
Date: Thu Jul 03 08:25:00 BST 2025
User: adleo
Spectrometer: MAYP116268
Trigger mode: 0
Integration Time (sec): 1.000000E0
Scans to average: 1
Electric dark correction enabled: true
Nonlinearity correction enabled: true
Boxcar width: 10
XAxis mode: Wavelengths
Number of Pixels in Spectrum: 2068
>>>>>Begin Spectral Data<<<<<
179.565	1148.35
179.642	1205.07
179.718	1246.3
179.795	1285.71
179.871	1321.06
179.948	1338.9
180.024	1360.15
180.101	1381.98
180.177	1396.53
180.254	1418.9
180.33	1439.28
180.407	1490.36
180.483	1581.05
180.56	1665.86
180.636	1744.85
180.712	1735.25
180.789	1749.08
180.865	1758.11
180.942	1768.23
181.018	1780.01
181.095	1795.79
181.171	1801.73
181.248	1803.64
181.324	1821.65
181.4	1828.21
181.477	1836.11
181.553	1849.08
181.63	1867.86
181.706	1885.45
181.782	1895
181.859	1895.57
181.935	1903.6
182.011	1900.04
182.088	1918.39
182.164	1941.36
182.24	1956.33
182.317	1965.89
182.393	1961.56
182.469	1977.68
182.546	1991.66
182.622	1997.17
182.698	1993.61
182.775	2007.63
182.851	2020.76
182.927	2011.25
183.003	2007.06
183.08	2003.07
183.156	2013.1
183.232	2010.01
183.308	1995.94
183.385	2001.64
183.461	2018.95
183.537	2018.95
183.613	2030.32
183.69	2019.76
183.766	2008.01
183.842	2016.76
183.918	2019.14
183.995	2034.64
184.071	2035.73
184.147	2030.69
184.223	2016.86
184.299	2028.89
184.375	2016.29
184.452	2022.43
184.528	2071.33
184.604	2081.83
184.68	2094.1
184.756	2100.14
184.832	2105.19
184.908	2110.18
184.985	2109.08
185.061	2092.3
185.137	2100.29
185.213	2089.97
185.289	2093.53
185.365	2085.88
185.441	2083.59
185.517	2099.53
185.593	2095.02
185.669	2094.92
185.745	2105.77
185.822	2122.07
185.898	2112.75
185.974	2124.54
186.05	2117.4
186.126	2084.82
186.202	2079.45
186.278	2073.93
186.354	2066.13
186.43	2073.65
186.506	2072.32
186.582	2075.17
186.658	2080.92
186.734	2060.1
186.81	2061.48
186.886	2064.66
186.962	2076.55
187.038	2071.03
187.114	2060.09
187.19	2066.7
187.266	2054.24
187.341	2052.1
187.417	2046.16
187.493	2046.3
187.569	2045.35
187.645	2038.26
187.721	2026.65
187.797	2032.12
187.873	2036.17
187.949	2029.56
188.025	2022.04
188.101	2026.37
188.176	2028.27
188.252	2025.7
188.328	2036.21
188.404	2036.3
188.48	2029.69
188.556	2023.37
188.632	2024.22
188.707	2027.46
188.783	2024.17
188.859	2021.23
188.935	2012.33
189.011	2022.94
189.086	2017.09
189.162	2011.34
189.238	2008.96
189.314	2005.96
189.39	2000.87
189.465	1994.74
189.541	2012.58
189.617	1997.79
189.693	1993.13
189.768	1996.17
189.844	2019.44
189.92	2010.03
189.996	2021.87
190.071	2033.47
190.147	2031.9
190.223	2042.89
190.298	2034.14
190.374	2022.39
190.45	2034.33
190.526	2043.03
190.601	2034.99
190.677	2036.32
190.753	2061.02
190.828	2063.63
190.904	2078.62
190.98	2091.7
191.055	2102.68
191.131	2090.36
191.207	2111.86
191.282	2121.99
191.358	2113.86
191.433	2099.44
191.509	2113.89
191.585	2107.99
191.66	2110.42
191.736	2119.79
191.811	2110.08
191.887	2126.45
191.963	2147.81
192.038	2152.75
192.114	2151.42
192.189	2157.23
192.265	2154.61
192.34	2136.76
192.416	2136.1
192.491	2129.29
192.567	2133.82
192.642	2132.77
192.718	2133.58
192.793	2121.78
192.869	2118.55
192.944	2120.35
193.02	2126.54
193.095	2128.96
193.171	2135.29
193.246	2134.62
193.322	2133.01
193.397	2131.48
193.473	2116.16
193.548	2099.04
193.624	2102.37
193.699	2103.89
193.775	2117.07
193.85	2117.07
193.925	2125.59
194.001	2126.01
194.076	2124.06
194.152	2114.98
194.227	2109.51
194.302	2099.85
194.378	2102.71
194.453	2097.95
194.529	2109.08
194.604	2095
194.679	2092.29
194.755	2073.46
194.83	2084.84
194.905	2080.7
194.981	2088.55
195.056	2083.36
195.131	2088.02
195.207	2087.98
195.282	2075.99
195.357	2057.44
195.433	2073.46
195.508	2060.52
195.583	2068.04
195.659	2079.12
195.734	2085.4
195.809	2087.26
195.884	2098.05
195.96	2099.58
196.035	2113.84
196.11	2112.37
196.185	2123.83
196.261	2125.73
196.336	2156.65
196.411	2142.85
196.486	2147.23
196.561	2143.99
196.637	2152.17
196.712	2169.16
196.787	2172.97
196.862	2186.33
196.937	2194.99
197.013	2199.56
197.088	2210.93
197.163	2231.73
197.238	2249.25
197.313	2248.3
197.388	2259.91
197.464	2288.85
197.539	2297.13
197.614	2290.95
197.689	2303.32
197.764	2317.79
197.839	2334.97
197.914	2328.92
197.989	2349.01
198.065	2364.67
198.14	2412.3
198.215	2438.05
198.29	2448.05
198.365	2462.86
198.44	2477.23
198.515	2506.61
198.59	2521.95
198.665	2543.75
198.74	2551.71
198.815	2551.9
198.89	2574.56
198.965	2605.24
199.04	2603.1
199.115	2619.86
199.19	2662.25
199.265	2664.63
199.34	2677.44
199.415	2712.09
199.49	2731.23
199.565	2743.28
199.64	2764.91
199.715	2762.34
199.79	2771.06
199.865	2779.92
199.94	2776.16
200.015	2808.23
200.09	2815.24
200.165	2820.24
200.24	2831.11
200.315	2868.26
200.39	2884.37
200.464	2889.66
200.539	2888.42
200.614	2900.67
200.689	2922.78
200.764	2929.46
200.839	2946.13
200.914	2950.09
200.989	2940.03
201.063	2953.85
201.138	2936.32
201.213	2938.32
201.288	2923.07
201.363	2925.31
201.438	2925.93
201.512	2941.84
201.587	2923.15
201.662	2925.06
201.737	2939.31
201.812	2944.99
201.886	2914.6
201.961	2925.43
202.036	2911.66
202.111	2909.47
202.186	2883.79
202.26	2867.96
202.335	2844.27
202.41	2838.32
202.485	2820.22
202.559	2800.68
202.634	2777.95
202.709	2785.38
202.784	2765.65
202.858	2765.98
202.933	2747.5
203.008	2738.25
203.082	2719.58
203.157	2719.2
203.232	2676.2
203.306	2653.99
203.381	2621.16
203.456	2598.82
203.53	2575.31
203.605	2555.99
203.68	2531.55
203.754	2526.65
203.829	2511.31
203.904	2494.31
203.978	2480.98
204.053	2487.88
204.127	2475.55
204.202	2471.55
204.277	2455.94
204.351	2449.41
204.426	2440.12
204.5	2432.7
204.575	2401.33
204.65	2412.48
204.724	2408.05
204.799	2416.47
204.873	2412.9
204.948	2414.09
205.022	2401.14
205.097	2391.61
205.171	2407.13
205.246	2418.27
205.32	2414.9
205.395	2416.9
205.469	2407.76
205.544	2412.86
205.618	2393.96
205.693	2403.29
205.767	2393.2
205.842	2412.57
205.916	2405.77
205.991	2396.72
206.065	2403.39
206.14	2417.9
206.214	2412.47
206.289	2401.42
206.363	2412.32
206.438	2416.94
206.512	2422.27
206.586	2443.74
206.661	2452.31
206.735	2431.09
206.81	2432.9
206.884	2448.37
206.958	2434.47
207.033	2452.89
207.107	2464.94
207.181	2499.9
207.256	2497.66
207.33	2518.18
207.405	2530.76
207.479	2553.57
207.553	2563.14
207.628	2548.05
207.702	2562.72
207.776	2557.43
207.851	2561.76
207.925	2579.96
207.999	2576.63
208.073	2578.2
208.148	2584.49
208.222	2576.87
208.296	2613.47
208.371	2631.54
208.445	2649.41
208.519	2685.65
208.593	2701.13
208.668	2701.8
208.742	2709.67
208.816	2719.67
208.89	2740.16
208.965	2749.8
209.039	2766.67
209.113	2792.31
209.187	2822.26
209.261	2828.69
209.336	2860.43
209.41	2893.85
209.484	2910.39
209.558	2950.96
209.632	2982.56
209.707	3008.79
209.781	3049.89
209.855	3085.09
209.929	3123.42
210.003	3148.37
210.077	3170.6
210.151	3244.51
210.226	3303.5
210.3	3356.99
210.374	3407.98
210.448	3442.3
210.522	3482.08
210.596	3520.5
210.67	3561.66
210.744	3645.04
210.818	3711.09
210.892	3771.57
210.966	3807.91
211.041	3869.11
211.115	3907.76
211.189	3970.06
211.263	4029.26
211.337	4077.19
211.411	4136.52
211.485	4174.3
211.559	4237.25
211.633	4285.85
211.707	4302.5
211.781	4362.04
211.855	4381.46
211.929	4422.53
212.003	4457.1
212.077	4523.77
212.151	4597.53
212.225	4660.12
212.299	4705.04
212.373	4753.47
212.447	4803.04
212.52	4888.65
212.594	4947.23
212.668	5015.9
212.742	5069.79
212.816	5131.68
212.89	5189.92
212.964	5252.09
213.038	5325.66
213.112	5409.08
213.186	5490.78
213.26	5539.22
213.333	5563.14
213.407	5633.64
213.481	5712.05
213.555	5793.43
213.629	5850.76
213.703	5904.54
213.777	5980.3
213.85	6039.56
213.924	6145.91
213.998	6224.96
214.072	6293.96
214.146	6349.44
214.219	6430.25
214.293	6500.33
214.367	6572.59
214.441	6657.44
214.515	6725.88
214.588	6773.57
214.662	6810.03
214.736	6863.1
214.81	6947.81
214.883	7028.05
214.957	7096.07
215.031	7157.94
215.105	7209.04
215.178	7268.92
215.252	7335.1
215.326	7382.69
215.4	7424.79
215.473	7443.54
215.547	7499.51
215.621	7561.16
215.694	7635.07
215.768	7674.26
215.842	7731.72
215.915	7791.02
215.989	7834.02
216.063	7886.4
216.136	7953.35
216.21	8015.3
216.284	8093.56
216.357	8153.06
216.431	8221.19
216.504	8296.34
216.578	8384.78
216.652	8464.25
216.725	8532.97
216.799	8606.09
216.873	8674.08
216.946	8754.54
217.02	8816.66
217.093	8873.61
217.167	8908.75
217.24	8961.99
217.314	9023.99
217.387	9076.36
217.461	9133.99
217.535	9208.81
217.608	9266.15
217.682	9330.96
217.755	9402.37
217.829	9455
217.902	9523.05
217.976	9584.54
218.049	9632.71
218.123	9677.07
218.196	9746.81
218.27	9799.69
218.343	9843.14
218.417	9904.46
218.49	9964.53
218.563	10052.24
218.637	10121.81
218.71	10204.42
218.784	10273.65
218.857	10349.72
218.931	10425.36
219.004	10488.14
219.077	10555.45
219.151	10619.58
219.224	10682.22
219.298	10749.48
219.371	10823.83
219.444	10876.98
219.518	10940.11
219.591	11012.63
219.665	11108.01
219.738	11170.75
219.811	11225.74
219.885	11300.19
219.958	11375.91
220.031	11438.08
220.105	11506.9
220.178	11564.16
220.251	11623.35
220.325	11693.67
220.398	11764.76
220.471	11832.24
220.544	11901.41
220.618	11960.12
220.691	12028.56
220.764	12090.83
220.838	12156.87
220.911	12212.4
220.984	12295.02
221.057	12367.37
221.131	12422.47
221.204	12456.55
221.277	12533.29
221.35	12626.27
221.424	12683.88
221.497	12745.44
221.57	12807.28
221.643	12863.59
221.716	12931.89
221.79	12986.42
221.863	13036.98
221.936	13078.2
222.009	13139.32
222.082	13204.79
222.155	13268.52
222.229	13335.48
222.302	13398.48
222.375	13453.68
222.448	13513.26
222.521	13565.57
222.594	13616.13
222.667	13669.79
222.74	13723.88
222.814	13771.89
222.887	13819.9
222.96	13885.13
223.033	13941.09
223.106	13998.75
223.179	14057.85
223.252	14112.9
223.325	14171.95
223.398	14239.29
223.471	14299.65
223.544	14345.54
223.617	14397.89
223.69	14437.32
223.763	14475.65
223.837	14530.6
223.91	14582.27
223.983	14615.58
224.056	14650.29
224.129	14695.94
224.202	14754.66
224.275	14797.8
224.348	14837.33
224.42	14871.65
224.493	14897.15
224.566	14933.15
224.639	14973.65
224.712	15009.27
224.785	15045.23
224.858	15083.36
224.931	15107.07
225.004	15146.5
225.077	15186.65
225.15	15197.89
225.223	15243.44
225.296	15317.67
225.369	15343.07
225.442	15376.04
225.514	15431.13
225.587	15479.09
225.66	15525.08
225.733	15562.53
225.806	15607.84
225.879	15647.41
225.952	15681.54
226.025	15743.76
226.097	15804.97
226.17	15855.05
226.243	15875.49
226.316	15907.59
226.389	15952.22
226.461	15999.03
226.534	16039.75
226.607	16080.19
226.68	16145.31
226.753	16182.13
226.825	16187.72
226.898	16239.59
226.971	16279.4
227.044	16319.21
227.117	16369
227.189	16413.29
227.262	16457.92
227.335	16503.13
227.407	16531.37
227.48	16570.56
227.553	16605.02
227.626	16622.65
227.698	16658.17
227.771	16697.36
227.844	16734.13
227.916	16759.63
227.989	16775.87
228.062	16798.23
228.134	16847.63
228.207	16871.59
228.28	16897.52
228.352	16927.59
228.425	16951.73
228.498	16994.29
228.57	17019.25
228.643	17051.35
228.716	17075.11
228.788	17104.32
228.861	17118.63
228.934	17171.69
229.006	17201.72
229.079	17215.07
229.151	17244.85
229.224	17257.23
229.296	17295.21
229.369	17350.58
229.442	17403.64
229.514	17432.37
229.587	17471.93
229.659	17480.61
229.732	17512.03
229.804	17558.1
229.877	17607.02
229.949	17653.14
230.022	17696.12
230.094	17713.33
230.167	17743.64
230.239	17756.51
230.312	17775.45
230.384	17831.21
230.457	17851.49
230.529	17882.14
230.602	17918.24
230.674	17945.42
230.747	17978.19
230.819	18019.2
230.892	18010.43
230.964	18027.63
231.037	18054.38
231.109	18076.31
231.181	18110.52
231.254	18124.84
231.326	18139.24
231.399	18156.64
231.471	18166.18
231.544	18163.2
231.616	18194.52
231.688	18215.68
231.761	18227.92
231.833	18242.57
231.905	18237.6
231.978	18251.29
232.05	18258.47
232.122	18275.96
232.195	18290.27
232.267	18320.34
232.339	18327.67
232.412	18357.93
232.484	18367.57
232.556	18377.98
232.629	18410.51
232.701	18428.24
232.773	18439.52
232.846	18449.01
232.918	18459.33
232.99	18470.89
233.062	18489.64
233.135	18515.27
233.207	18508.24
233.279	18534.74
233.351	18555.18
233.424	18556.33
233.496	18555.85
233.568	18591.13
233.64	18582.69
233.713	18586.02
233.785	18587.56
233.857	18592.91
233.929	18580.38
234.001	18607.41
234.074	18631.51
234.146	18621
234.218	18622.98
234.29	18626.11
234.362	18626.16
234.434	18616.14
234.507	18606.98
234.579	18594.98
234.651	18588.28
234.723	18595.51
234.795	18599.8
234.867	18596.86
234.939	18622.74
235.012	18622.45
235.084	18620.76
235.156	18631.89
235.228	18625.53
235.3	18614.55
235.372	18613.82
235.444	18636.33
235.516	18601.82
235.588	18597.25
235.66	18598.84
235.732	18589.15
235.804	18646.78
235.876	18650.06
235.948	18670.93
236.02	18664.71
236.092	18650.45
236.164	18638.4
236.236	18625.34
236.308	18613.77
236.38	18609
236.452	18574.98
236.524	18572.86
236.596	18571.61
236.668	18569.78
236.74	18556.04
236.812	18554.55
236.884	18552.33
236.956	18532.82
237.028	18511.56
237.1	18493.83
237.172	18496.19
237.244	18500.24
237.316	18450.41
237.388	18437.25
237.46	18408.73
237.532	18413.79
237.604	18397.98
237.675	18397.11
237.747	18394.8
237.819	18385.5
237.891	18368.78
237.963	18361.88
238.035	18342.27
238.107	18297.31
238.178	18296.88
238.25	18284.64
238.322	18295.48
238.394	18259.05
238.466	18247.48
238.538	18244.16
238.609	18231.67
238.681	18194.57
238.753	18169.17
238.825	18148.59
238.897	18133.41
238.968	18129.56
239.04	18102.28
239.112	18112.55
239.184	18091.05
239.255	18060.93
239.327	18034.53
239.399	18017.95
239.471	17999.39
239.542	17985.08
239.614	17978.67
239.686	17929.42
239.758	17919.59
239.829	17879.88
239.901	17872.51
239.973	17850.53
240.044	17838.63
240.116	17816.22
240.188	17793.23
240.259	17774.34
240.331	17748.51
240.403	17726.63
240.474	17685.09
240.546	17654.2
240.618	17609.57
240.689	17577.48
240.761	17557.24
240.833	17549.67
240.904	17520.95
240.976	17495.74
241.048	17476.37
241.119	17456.42
241.191	17439.94
241.262	17427.84
241.334	17401.72
241.405	17377.72
241.477	17344.56
241.549	17313.67
241.62	17289.48
241.692	17272.03
241.763	17246.73
241.835	17218.34
241.906	17193.81
241.978	17158.87
242.049	17147.4
242.121	17137.28
242.192	17121.72
242.264	17078
242.335	17027.98
242.407	17011.35
242.478	16979.78
242.55	16956.17
242.621	16925.42
242.693	16895.63
242.764	16862.09
242.836	16838.81
242.907	16808.21
242.979	16786.18
243.05	16760.79
243.122	16737.41
243.193	16702.9
243.264	16665.45
243.336	16640.49
243.407	16616.92
243.479	16611.14
243.55	16589.93
243.622	16565.64
243.693	16541.3
243.764	16538.17
243.836	16511.28
243.907	16481.63
243.978	16453.25
244.05	16427.65
244.121	16385.77
244.192	16365.82
244.264	16323.84
244.335	16292.36
244.407	16255.01
244.478	16230.14
244.549	16200.93
244.62	16163.96
244.692	16132.59
244.763	16109.07
244.834	16073.74
244.906	16037.01
244.977	16000.43
245.048	15978.59
245.119	15937.09
245.191	15892.32
245.262	15838.77
245.333	15821.9
245.405	15785.36
245.476	15768.06
245.547	15733.31
245.618	15710.41
245.689	15678.69
245.761	15655.37
245.832	15624.08
245.903	15608.9
245.974	15577.43
246.045	15544.31
246.117	15522.96
246.188	15488.88
246.259	15442.7
246.33	15416.29
246.401	15380.18
246.473	15340.13
246.544	15304.8
246.615	15283.54
246.686	15252.84
246.757	15237.51
246.828	15199.19
246.899	15182.32
246.97	15137.58
247.042	15104.52
247.113	15076.56
247.184	15065.33
247.255	15027.39
247.326	15004.16
247.397	14962.56
247.468	14943.95
247.539	14917.44
247.61	14879.46
247.681	14863.74
247.752	14849.38
247.823	14809.08
247.894	14786.71
247.965	14759.38
248.037	14722.74
248.108	14681.63
248.179	14654.49
248.25	14626.48
248.321	14608.64
248.392	14572.54
248.463	14568.3
248.534	14533.88
248.605	14519.66
248.675	14489.72
248.746	14474.2
248.817	14446.77
248.888	14430.82
248.959	14370.75
249.03	14347.95
249.101	14319.27
249.172	14285.14
249.243	14240.4
249.314	14228.69
249.385	14201.5
249.456	14177.93
249.527	14143.99
249.598	14122.01
249.669	14091.4
249.739	14073.8
249.81	14045.41
249.881	14008.73
249.952	13974.93
250.023	13953.68
250.094	13909.52
250.165	13873.27
250.235	13840.44
250.306	13813.54
250.377	13775.75
250.448	13765.53
250.519	13728.26
250.59	13727.78
250.66	13700.79
250.731	13695.72
250.802	13671.23
250.873	13655.86
250.944	13631.71
251.014	13607.75
251.085	13601.43
251.156	13581.09
251.227	13560.02
251.297	13549.75
251.368	13539.29
251.439	13524.59
251.51	13517.07
251.58	13489.78
251.651	13462.4
251.722	13452.91
251.792	13404.89
251.863	13373.7
251.934	13363.24
252.005	13359.92
252.075	13334.03
252.146	13321.4
252.217	13312.58
252.287	13288.43
252.358	13256.85
252.429	13254.39
252.499	13225.47
252.57	13208.55
252.641	13201.37
252.711	13182.47
252.782	13142.75
252.852	13133.83
252.923	13114.11
252.994	13084.32
253.064	13073.43
253.135	13040.45
253.205	13009.17
253.276	13016.64
253.347	13016.69
253.417	12979.18
253.488	12952.43
253.558	12913.04
253.629	12888.17
253.699	12860.4
253.77	12855.82
253.841	12831.38
253.911	12801.3
253.982	12782.12
254.052	12767.13
254.123	12745.29
254.193	12723.16
254.264	12744.08
254.334	12709.23
254.405	12671.97
254.475	12640.59
254.546	12617.26
254.616	12610.12
254.687	12593.54
254.757	12574.31
254.827	12544.03
254.898	12534.49
254.968	12516.22
255.039	12492.99
255.109	12482.91
255.18	12457.46
255.25	12407.09
255.321	12388.19
255.391	12354.45
255.461	12359.32
255.532	12311.59
255.602	12282.72
255.673	12241.6
255.743	12206.17
255.813	12164.62
255.884	12153.58
255.954	12135.56
256.024	12134.54
256.095	12113.38
256.165	12080.08
256.235	12060.79
256.306	12035.92
256.376	12025.7
256.446	12006.28
256.517	11996.4
256.587	11979.14
256.657	11954.03
256.728	11942.56
256.798	11926.94
256.868	11911.85
256.938	11876.04
257.009	11873.58
257.079	11857.68
257.149	11867.12
257.219	11830.97
257.29	11815.89
257.36	11776.99
257.43	11778.92
257.5	11742.43
257.571	11720.45
257.641	11712.84
257.711	11682.09
257.781	11669.65
257.852	11660.44
257.922	11628.25
257.992	11606.7
258.062	11585.93
258.132	11579.71
258.202	11554.84
258.273	11538.36
258.343	11535.9
258.413	11511.66
258.483	11481.05
258.553	11454.26
258.623	11426.64
258.693	11406.78
258.764	11409.48
258.834	11410.83
258.904	11387.36
258.974	11352.66
259.044	11334.44
259.114	11317.72
259.184	11295.98
259.254	11276.56
259.324	11232.75
259.394	11223.89
259.464	11225.38
259.535	11200.08
259.605	11178.05
259.675	11158.68
259.745	11149.77
259.815	11122.87
259.885	11097.53
259.955	11110.68
260.025	11094.11
260.095	11072.03
260.165	11060.85
260.235	11058.4
260.305	11027.75
260.375	10993.29
260.445	10999.75
260.515	11000.37
260.585	10998.25
260.655	10987.27
260.725	10982.93
260.795	10976.42
260.865	10977.73
260.934	10948.71
261.004	10945.73
261.074	10929.54
261.144	10927.56
261.214	10917.2
261.284	10899.9
261.354	10896.33
261.424	10867.9
261.494	10863.37
261.564	10847.37
261.634	10842.12
261.703	10806.94
261.773	10799.14
261.843	10796.2
261.913	10777.74
261.983	10743.43
262.053	10730.57
262.123	10706.04
262.192	10673.23
262.262	10666.77
262.332	10635.45
262.402	10622.1
262.472	10601.87
262.541	10562.26
262.611	10550.12
262.681	10518.71
262.751	10508.68
262.821	10493.03
262.89	10466.14
262.96	10457.76
263.03	10470.14
263.1	10454.67
263.169	10437.81
263.239	10428.61
263.309	10433.38
263.379	10423.74
263.448	10408.95
263.518	10396.28
263.588	10384.96
263.657	10391.85
263.727	10384.72
263.797	10365.35
263.867	10351.71
263.936	10326.71
264.006	10328.93
264.076	10315.53
264.145	10300.17
264.215	10272.99
264.285	10265.05
264.354	10239.27
264.424	10212.58
264.494	10172.35
264.563	10155.01
264.633	10161.51
264.702	10155.93
264.772	10115.26
264.842	10097.87
264.911	10083.86
264.981	10055.29
265.05	10045.12
265.12	10027.35
265.19	10015.35
265.259	10013.13
265.329	10004.75
265.398	10000.22
265.468	10004.85
265.537	9982.79
265.607	9982.16
265.676	9984.47
265.746	9975.56
265.815	9975.13
265.885	9963.52
265.955	9943.53
266.024	9922.29
266.094	9886.16
266.163	9883.08
266.232	9887.85
266.302	9871.43
266.371	9867.86
266.441	9858.61
266.51	9859.72
266.58	9837.42
266.649	9811.79
266.719	9809.24
266.788	9800.52
266.858	9797.73
266.927	9761.32
266.996	9753.56
267.066	9741.86
267.135	9714.6
267.205	9710.51
267.274	9694.47
267.343	9698.42
267.413	9688.26
267.482	9693.12
267.552	9695.58
267.621	9663.31
267.69	9633.74
267.76	9630.8
267.829	9621.99
267.898	9603.49
267.968	9577.63
268.037	9581.77
268.106	9580.33
268.176	9551.96
268.245	9534.67
268.314	9514.15
268.384	9519.79
268.453	9508.62
268.522	9503.27
268.592	9509.82
268.661	9492.24
268.73	9483.81
268.799	9464.36
268.869	9473.84
268.938	9440.81
269.007	9420.78
269.076	9417.21
269.146	9410.09
269.215	9397.04
269.284	9404.21
269.353	9389.43
269.422	9377.68
269.492	9352.64
269.561	9308.54
269.63	9307.77
269.699	9294.48
269.768	9284.99
269.838	9276.66
269.907	9271.8
269.976	9245.32
270.045	9210.22
270.114	9209.3
270.183	9197.89
270.253	9192.31
270.322	9162.5
270.391	9150.95
270.46	9157.69
270.529	9147.63
270.598	9147.24
270.667	9132.27
270.736	9104.97
270.806	9103.33
270.875	9106.12
270.944	9093.56
271.013	9121.09
271.082	9110.36
271.151	9104.05
271.22	9080.65
271.289	9069.68
271.358	9058.89
271.427	9052.15
271.496	9046.71
271.565	9026.49
271.634	9020.14
271.703	9012.29
271.772	9010.65
271.841	8999.82
271.91	8976.28
271.979	8971.8
272.048	8952.93
272.117	8951.06
272.186	8937.58
272.255	8934.54
272.324	8926.84
272.393	8919.81
272.462	8899.11
272.531	8888.76
272.6	8878.03
272.669	8878.22
272.738	8863.54
272.807	8862.57
272.876	8846.88
272.945	8866.96
273.013	8864.16
273.082	8867.92
273.151	8849.34
273.22	8848.71
273.289	8841.3
273.358	8849.05
273.427	8838.46
273.496	8837.5
273.564	8835.86
273.633	8832.2
273.702	8813.48
273.771	8802.17
273.84	8801.78
273.909	8804.72
273.977	8802.65
274.046	8795.57
274.115	8799.47
274.184	8784.31
274.253	8772.23
274.322	8777.91
274.39	8752.45
274.459	8739.84
274.528	8712.35
274.597	8705.81
274.665	8697.72
274.734	8704.46
274.803	8693.92
274.872	8680.01
274.94	8668.31
275.009	8696.62
275.078	8683.2
275.147	8682.47
275.215	8678.77
275.284	8689.02
275.353	8676.02
275.421	8656.53
275.49	8670.2
275.559	8658.94
275.627	8656
275.696	8651.1
275.765	8651.34
275.833	8637
275.902	8639.26
275.971	8648.93
276.039	8666.5
276.108	8674.49
276.177	8673.53
276.245	8664.24
276.314	8671.17
276.383	8675.4
276.451	8636.46
276.52	8639.44
276.588	8650.7
276.657	8653.06
276.725	8636.41
276.794	8633.28
276.863	8642.71
276.931	8617.49
277	8630.73
277.068	8636.69
277.137	8649.54
277.205	8650.03
277.274	8673.89
277.342	8682.99
277.411	8663.12
277.48	8645.79
277.548	8630.05
277.617	8633.23
277.685	8625.53
277.754	8621.63
277.822	8610.85
277.89	8627.75
277.959	8623.99
278.027	8604.36
278.096	8593.96
278.164	8619.47
278.233	8621.01
278.301	8611.29
278.37	8612.64
278.438	8595.56
278.507	8599.36
278.575	8577.07
278.643	8567.45
278.712	8550.99
278.78	8530.25
278.849	8540.45
278.917	8545.55
278.985	8540.21
279.054	8541.75
279.122	8549.06
279.191	8551.8
279.259	8553.87
279.327	8530.87
279.396	8541.5
279.464	8537.7
279.532	8542.71
279.601	8538.66
279.669	8525.81
279.737	8540.11
279.806	8543.23
279.874	8549.11
279.942	8550.07
280.011	8544.73
280.079	8558.25
280.147	8571.2
280.215	8578.42
280.284	8571.44
280.352	8566.14
280.42	8573.36
280.488	8561.04
280.557	8553.92
280.625	8552.38
280.693	8553.63
280.761	8549.59
280.83	8532.99
280.898	8552.04
280.966	8538.91
281.034	8507.62
281.102	8492.13
281.171	8480.68
281.239	8493.29
281.307	8486.74
281.375	8468.17
281.443	8490.69
281.512	8484.92
281.58	8492.52
281.648	8475.78
281.716	8478.61
281.784	8477.56
281.852	8470.53
281.92	8468.56
281.989	8488.67
282.057	8467.02
282.125	8504.52
282.193	8510.2
282.261	8516.26
282.329	8502.16
282.397	8507.79
282.465	8512.17
282.533	8533.48
282.601	8520.39
282.67	8497.49
282.738	8493.54
282.806	8508.07
282.874	8492.33
282.942	8490.7
283.01	8478.23
283.078	8483.43
283.146	8479.34
283.214	8480.54
283.282	8486.85
283.35	8496.76
283.418	8485.59
283.486	8492.42
283.554	8447.95
283.622	8447.04
283.69	8438.57
283.758	8436.69
283.826	8439.91
283.894	8447.08
283.962	8471.25
284.03	8488.52
284.098	8491.07
284.165	8486.36
284.233	8480.49
284.301	8479.09
284.369	8471.44
284.437	8466.77
284.505	8466.1
284.573	8487.32
284.641	8484.96
284.709	8490.64
284.777	8473.99
284.845	8477.17
284.912	8486.84
284.98	8498.87
285.048	8490.93
285.116	8498.39
285.184	8510.32
285.252	8505.85
285.319	8491.99
285.387	8474.66
285.455	8452
285.523	8456.04
285.591	8451.23
285.659	8453.58
285.726	8459.02
285.794	8446.61
285.862	8439.63
285.93	8441.08
285.997	8431.69
286.065	8421.87
286.133	8411.48
286.201	8410.61
286.269	8392.28
286.336	8381.55
286.404	8369.71
286.472	8377.7
286.539	8353.84
286.607	8338.39
286.675	8334.21
286.743	8343.54
286.81	8337.67
286.878	8359.22
286.946	8356.72
287.013	8358.55
287.081	8358.98
287.149	8353.4
287.216	8370.63
287.284	8368.41
287.352	8368.13
287.419	8358.07
287.487	8371.2
287.555	8377.17
287.622	8375.44
287.69	8385.16
287.758	8400.32
287.825	8397.29
287.893	8389.68
287.96	8402.38
288.028	8416.91
288.096	8426.2
288.163	8429.95
288.231	8413.02
288.298	8408.98
288.366	8419.8
288.433	8415.76
288.501	8405.61
288.569	8407.97
288.636	8402
288.704	8417.4
288.771	8424.52
288.839	8418.46
288.906	8414.56
288.974	8420.63
289.041	8423.37
289.109	8417.64
289.176	8425.92
289.244	8427.99
289.311	8437.23
289.379	8448.15
289.446	8440.98
289.514	8442.71
289.581	8442.76
289.649	8454.16
289.716	8457.19
289.783	8448.72
289.851	8468.89
289.918	8474.8
289.986	8481.06
290.053	8483.99
290.121	8477.35
290.188	8475.86
290.255	8507.81
290.323	8504.3
290.39	8502.09
290.458	8507
290.525	8515.37
290.592	8509.69
290.66	8519.7
290.727	8520.61
290.794	8534.42
290.862	8543.28
290.929	8544.82
290.996	8540.44
291.064	8548.72
291.131	8561.47
291.198	8569.36
291.266	8566.14
291.333	8568.16
291.4	8572.3
291.468	8589.87
291.535	8594.44
291.602	8597.23
291.669	8585.97
291.737	8590.68
291.804	8588.23
291.871	8605.99
291.938	8615.23
292.006	8642.23
292.073	8653.25
292.14	8656.77
292.207	8647.33
292.275	8645.6
292.342	8655.13
292.409	8688.49
292.476	8713.42
292.543	8702.16
292.611	8707.21
292.678	8729.35
292.745	8751.3
292.812	8760.88
292.879	8755.82
292.946	8758.47
293.014	8775.89
293.081	8788.12
293.148	8802.36
293.215	8815.17
293.282	8812.18
293.349	8822.87
293.416	8802.94
293.484	8813.34
293.551	8826.48
293.618	8847.61
293.685	8878.03
293.752	8869.99
293.819	8861.57
293.886	8845.63
293.953	8855.74
294.02	8864.5
294.087	8865.42
294.154	8862.53
294.221	8879.09
294.288	8878.9
294.356	8898.68
294.423	8899.35
294.49	8886.98
294.557	8893.58
294.624	8889.58
294.691	8901.38
294.758	8901.66
294.825	8905.76
294.892	8896.13
294.959	8897.09
295.026	8901.57
295.093	8890.93
295.16	8897.28
295.226	8898.49
295.293	8921.45
295.36	8923.76
295.427	8935.75
295.494	8949.13
295.561	8957.8
295.628	8980.38
295.695	8997.66
295.762	8998.53
295.829	9016.29
295.896	9041.71
295.963	9053.79
296.03	9062.65
296.096	9068.04
296.163	9078.68
296.23	9092.69
296.297	9109.88
296.364	9110.6
296.431	9114.64
296.498	9110.7
296.564	9131.73
296.631	9133.52
296.698	9122.2
296.765	9142.23
296.832	9138.47
296.899	9126.05
296.965	9146.08
297.032	9125.13
297.099	9145.21
297.166	9150.36
297.233	9142.52
297.299	9131.15
297.366	9131.59
297.433	9134.86
297.5	9147.86
297.566	9150.65
297.633	9153.54
297.7	9154.26
297.767	9148.01
297.833	9151.57
297.9	9153.49
297.967	9132.07
298.033	9144.78
298.1	9170.74
298.167	9167.51
298.234	9168.67
298.3	9175.36
298.367	9169.15
298.434	9175.12
298.5	9167.75
298.567	9164.09
298.634	9163.46
298.7	9180.12
298.767	9187.2
298.834	9200.83
298.9	9193.46
298.967	9180.51
299.033	9189.51
299.1	9206.41
299.167	9228.27
299.233	9225.57
299.3	9240.74
299.366	9266.16
299.433	9281.04
299.5	9264.57
299.566	9265.63
299.633	9282.24
299.699	9294.62
299.766	9288.45
299.832	9290.77
299.899	9293.65
299.965	9309.88
300.032	9308.97
300.099	9314.74
300.165	9319.99
300.232	9317.59
300.298	9322.83
300.365	9346.38
300.431	9348.11
300.498	9339.73
300.564	9344.89
300.631	9357.84
300.697	9366.99
300.763	9365.54
300.83	9362.22
300.896	9366.41
300.963	9375.94
301.029	9379.8
301.096	9384.61
301.162	9401.32
301.229	9404.64
301.295	9395.83
301.361	9394.72
301.428	9400.31
301.494	9385.33
301.561	9385.67
301.627	9385.72
301.693	9386.92
301.76	9386.1
301.826	9381.19
301.892	9393.81
301.959	9401.47
302.025	9404.88
302.092	9408.02
302.158	9407.92
302.224	9415.05
302.291	9408.74
302.357	9407.92
302.423	9403.59
302.49	9391.5
302.556	9396.89
302.622	9388.18
302.688	9398.19
302.755	9414.23
302.821	9424.78
302.887	9438.55
302.954	9442.93
303.02	9453.57
303.086	9461.81
303.152	9454.63
303.219	9448.37
303.285	9450.68
303.351	9452.85
303.417	9450.73
303.483	9440.09
303.55	9437.68
303.616	9430.75
303.682	9433.15
303.748	9426.75
303.815	9442.21
303.881	9455.6
303.947	9442.79
304.013	9447.5
304.079	9439.7
304.145	9415.53
304.212	9408.26
304.278	9403.49
304.344	9399.01
304.41	9386.11
304.476	9374.74
304.542	9375.32
304.608	9386.06
304.674	9371.03
304.741	9366.8
304.807	9365.64
304.873	9364.1
304.939	9384.71
305.005	9367.23
305.071	9364.68
305.137	9360.54
305.203	9331.02
305.269	9329.77
305.335	9349.22
305.401	9343.88
305.467	9344.45
305.533	9357.46
305.599	9364
305.666	9368.96
305.732	9366.46
305.798	9376.48
305.864	9402.38
305.93	9406.91
305.996	9403.49
306.062	9401.9
306.128	9399.74
306.194	9388.95
306.259	9395.69
306.325	9387.6
306.391	9400.17
306.457	9401.04
306.523	9403.73
306.589	9428.53
306.655	9419.91
306.721	9393.81
306.787	9383.22
306.853	9394.25
306.919	9374.17
306.985	9371.04
307.051	9364.25
307.117	9357.17
307.183	9352.55
307.248	9329
307.314	9332.8
307.38	9328.32
307.446	9340.51
307.512	9333.48
307.578	9334.15
307.644	9322.21
307.709	9315.51
307.775	9311.52
307.841	9318.84
307.907	9320.52
307.973	9300.1
308.039	9298.56
308.104	9306.07
308.17	9307.13
308.236	9294.56
308.302	9297.89
308.368	9285.85
308.433	9289.51
308.499	9285.27
308.565	9274.05
308.631	9270.49
308.696	9251.04
308.762	9241.02
308.828	9231.01
308.894	9212.81
308.959	9198.46
309.025	9188.98
309.091	9187.29
309.156	9177.03
309.222	9182.86
309.288	9174.63
309.354	9158.93
309.419	9155.85
309.485	9144.15
309.551	9149.21
309.616	9134.14
309.682	9136.4
309.748	9127.93
309.813	9117.34
309.879	9107.47
309.945	9099.09
310.01	9092.25
310.076	9093.36
310.141	9092.49
310.207	9079.25
310.273	9077.86
310.338	9083.97
310.404	9072.32
310.469	9058.31
310.535	9048.44
310.601	9017.39
310.666	9017.1
310.732	9025.52
310.797	9012.24
310.863	8996.83
310.928	8990.14
310.994	8994.95
311.059	8986.96
311.125	8986.53
311.191	8996.35
311.256	8979.89
311.322	8986.05
311.387	8969.59
311.453	9279.18
311.518	9250.78
311.584	9254.88
311.649	9259.88
311.715	9243.95
311.78	9246.74
311.846	9239.28
311.911	9248.52
311.976	9253.1
312.042	9240.44
312.107	9224.41
312.173	9219.74
312.238	9221.61
312.304	9214.34
312.369	9201.59
312.434	9192.54
312.5	9182.24
312.565	9151.57
312.631	9165.24
312.696	9153.35
312.761	9156.86
312.827	8837.21
312.892	8875.48
312.958	8869.41
313.023	8868.01
313.088	8870.85
313.154	8858.49
313.219	8850.3
313.284	8838.94
313.35	8831.87
313.415	8824.79
313.48	8819.98
313.546	8821.71
313.611	8824.84
313.676	8816.94
313.741	8807.9
313.807	8814.97
313.872	8819.45
313.937	8829.17
314.003	8834.42
314.068	8840.29
314.133	8846.74
314.198	8837.55
314.264	8818.53
314.329	8808.09
314.394	8805.73
314.459	8796.29
314.525	8813.77
314.59	8810.11
314.655	8797.98
314.72	8804.33
314.785	8810.59
314.851	8806.16
314.916	8790.81
314.981	8779.45
315.046	8772.08
315.111	8766.12
315.176	8752.49
315.242	8759.47
315.307	8753.55
315.372	8733.15
315.437	8714.13
315.502	8697.77
315.567	8707.49
315.632	8697.14
315.698	8698.59
315.763	8689.83
315.828	8685.45
315.893	8683.18
315.958	8677.94
316.023	8669.08
316.088	8650.75
316.153	8624.71
316.218	8617.25
316.283	8599.31
316.348	8577.6
316.413	8573.27
316.479	8556.34
316.544	8527.13
316.609	8493.78
316.674	8456.83
316.739	8420.75
316.804	8389.23
316.869	8358.49
316.934	8320.33
316.999	8288.29
317.064	8231.66
317.129	8190.38
317.194	8151.22
317.259	8096.95
317.324	8049.05
317.389	8007.58
317.454	7970.16
317.518	7935.19
317.583	7908.5
317.648	7884.11
317.713	7848.96
317.778	7795.72
317.843	7765.03
317.908	7724.55
317.973	7684.06
318.038	7657.27
318.103	7626.51
318.168	7598.96
318.233	7571.98
318.297	7522.56
318.362	7486.6
318.427	7450.79
318.492	7419.83
318.557	7375.42
318.622	7352.69
318.687	7331.35
318.751	7287.71
318.816	7253.11
318.881	7218.7
318.946	7163.96
319.011	7119.17
319.075	7084.53
319.14	7045.95
319.205	7001.55
319.27	6972.06
319.335	6928.92
319.399	6886.64
319.464	6860.17
319.529	6806.09
319.594	6760.84
319.658	6732.74
319.723	6688.75
319.788	6663.92
319.853	6613.3
319.917	6585.5
319.982	6531.04
320.047	6492.1
320.112	6471.98
320.176	6421.24
320.241	6384.94
320.306	6354.89
320.37	6313.71
320.435	6281.21
320.5	6250.07
320.564	6211.15
320.629	6167.43
320.694	6136.72
320.758	6095.93
320.823	6048.48
320.888	6024.92
320.952	5980.21
321.017	5935.21
321.082	5897.84
321.146	5860.43
321.211	5832.32
321.275	5793.76
321.34	5750.41
321.405	5703.66
321.469	5654.27
321.534	5615.92
321.598	5568.7
321.663	5540.79
321.727	5506.61
321.792	5457.38
321.857	5420.13
321.921	5384.9
321.986	5340.82
322.05	5285.67
322.115	5248.92
322.179	5205.38
322.244	5152.4
322.308	5120.25
322.373	5076.33
322.437	5033.65
322.502	5008.4
322.566	4958.06
322.631	4923.67
322.695	4884.8
322.76	4846.36
322.824	4812.12
322.889	4772.25
322.953	4729.85
323.018	4661.79
323.082	4603.79
323.146	4556.91
323.211	4502.74
323.275	4460.11
323.34	4413.86
323.404	4380.19
323.468	4337.76
323.533	4298.5
323.597	4253.23
323.662	4200.43
323.726	4165.43
323.79	4118.3
323.855	4055.16
323.919	4009.7
323.983	3962.47
324.048	3898.42
324.112	4038.66
324.177	3909.18
324.241	3704.52
324.305	3506.51
324.37	3313.7
324.434	3126.01
324.498	3082.06
324.562	3034.27
324.627	2974.36
324.691	2925.24
324.755	2859.63
324.82	2785.47
324.884	2707.46
324.948	2637.81
325.012	2546.28
325.077	2426.7
