Data from 20250702_urea_0.5M_MAYP1162681_20-34-59-641.txt Node
Date: Wed Jul 02 20:34:59 BST 2025
User: adleo
Spectrometer: MAYP116268
Trigger mode: 0
Integration Time (sec): 1.000000E0
Scans to average: 1
Electric dark correction enabled: true
Nonlinearity correction enabled: true
Boxcar width: 10
XAxis mode: Wavelengths
Number of Pixels in Spectrum: 2068
>>>>>Begin Spectral Data<<<<<
179.565	1209.12
179.642	1266.36
179.718	1308.5
179.795	1346.61
179.871	1378.91
179.948	1396.39
180.024	1414.09
180.101	1438.04
180.177	1452.79
180.254	1475.55
180.33	1499.94
180.407	1553.78
180.483	1651.56
180.56	1738.36
180.636	1823.58
180.712	1810.79
180.789	1821.63
180.865	1833.79
180.942	1842.34
181.018	1853.7
181.095	1867.83
181.171	1870.73
181.248	1871.15
181.324	1885.7
181.4	1893.03
181.477	1904.15
181.553	1917.17
181.63	1937.66
181.706	1952.83
181.782	1959.68
181.859	1957.2
181.935	1960.11
182.011	1956.06
182.088	1970.9
182.164	1995.35
182.24	2007.28
182.317	2016.36
182.393	2013.56
182.469	2029.39
182.546	2043.23
182.622	2047.89
182.698	2041.66
182.775	2055.31
182.851	2067.82
182.927	2062.3
183.003	2058.83
183.08	2052.36
183.156	2061.64
183.232	2058.88
183.308	2047.56
183.385	2058.97
183.461	2076.52
183.537	2078.23
183.613	2090.65
183.69	2081.94
183.766	2067.62
183.842	2075.56
183.918	2080.94
183.995	2094.44
184.071	2096.16
184.147	2091.11
184.223	2077.71
184.299	2090.08
184.375	2077.43
184.452	2088.47
184.528	2145.67
184.604	2154.9
184.68	2169.16
184.756	2178.82
184.832	2186.2
184.908	2191.28
184.985	2189.14
185.061	2174.21
185.137	2183.68
185.213	2172.22
185.289	2170.98
185.365	2164.99
185.441	2163.8
185.517	2177.36
185.593	2175.08
185.669	2173.79
185.745	2184.88
185.822	2205.04
185.898	2195.52
185.974	2205.65
186.05	2194.09
186.126	2152.82
186.202	2144.88
186.278	2140.93
186.354	2127.04
186.43	2132.47
186.506	2131.99
186.582	2130.13
186.658	2140.41
186.734	2120.29
186.81	2123.52
186.886	2131.65
186.962	2145.59
187.038	2144.35
187.114	2135.07
187.19	2142.31
187.266	2130.61
187.341	2130.08
187.417	2121
187.493	2123.33
187.569	2124.75
187.645	2118.43
187.721	2105.82
187.797	2115.95
187.873	2118.23
187.949	2112.48
188.025	2107.06
188.101	2108.86
188.176	2114.9
188.252	2109.72
188.328	2117.42
188.404	2117.61
188.48	2108.43
188.556	2101.15
188.632	2098.68
188.707	2101.06
188.783	2095.73
188.859	2090.12
188.935	2079.27
189.011	2088.03
189.086	2080.04
189.162	2073.42
189.238	2072.9
189.314	2069.86
189.39	2061.68
189.465	2056.63
189.541	2073.71
189.617	2056.59
189.693	2048.93
189.768	2051.69
189.844	2074.06
189.92	2066.97
189.996	2075.44
190.071	2085.57
190.147	2085.57
190.223	2092.47
190.298	2084.71
190.374	2074.35
190.45	2088.14
190.526	2098.93
190.601	2094.32
190.677	2097.46
190.753	2123.59
190.828	2126.39
190.904	2143.09
190.98	2163.07
191.055	2173.59
191.131	2164.69
191.207	2186.05
191.282	2197.32
191.358	2188.85
191.433	2173.34
191.509	2184.42
191.585	2184.04
191.66	2186.08
191.736	2191.84
191.811	2184.18
191.887	2198.83
191.963	2219.82
192.038	2227.05
192.114	2226.1
192.189	2228
192.265	2225
192.34	2203.73
192.416	2204.01
192.491	2198.06
192.567	2196.92
192.642	2197.78
192.718	2200.68
192.793	2187.98
192.869	2185.93
192.944	2190.07
193.02	2197.11
193.095	2202.53
193.171	2206.96
193.246	2206.58
193.322	2204.49
193.397	2207.91
193.473	2193.44
193.548	2174.36
193.624	2178.93
193.699	2176.03
193.775	2192.07
193.85	2192.74
193.925	2200.06
194.001	2198.83
194.076	2193.4
194.152	2183.74
194.227	2176.75
194.302	2165.95
194.378	2170.76
194.453	2166.19
194.529	2175.09
194.604	2161.77
194.679	2154.58
194.755	2135.75
194.83	2148.74
194.905	2145.79
194.981	2152.65
195.056	2145.7
195.131	2154.36
195.207	2152.88
195.282	2145.51
195.357	2128
195.433	2143.27
195.508	2133.42
195.583	2142.51
195.659	2157.54
195.734	2165.49
195.809	2163.44
195.884	2172.67
195.96	2173.95
196.035	2187.85
196.11	2184.99
196.185	2198.45
196.261	2202.88
196.336	2235.52
196.411	2219.86
196.486	2226.38
196.561	2220.86
196.637	2228.94
196.712	2244.65
196.787	2248.32
196.862	2261.4
196.937	2271.11
197.013	2272.63
197.088	2283.48
197.163	2302.43
197.238	2318
197.313	2318.71
197.388	2333.28
197.464	2365.94
197.539	2376.41
197.614	2370.75
197.689	2382.12
197.764	2399.93
197.839	2419.11
197.914	2409.64
197.989	2436.35
198.065	2454.11
198.14	2502.94
198.215	2534.46
198.29	2545.65
198.365	2556.36
198.44	2566.17
198.515	2594.13
198.59	2614.47
198.665	2639.85
198.74	2649.76
198.815	2652.29
198.89	2671
198.965	2700.55
199.04	2694.4
199.115	2711.5
199.19	2754.42
199.265	2757.18
199.34	2763.85
199.415	2799.27
199.49	2822.46
199.565	2828.9
199.64	2846.34
199.715	2843.52
199.79	2849.91
199.865	2856.82
199.94	2856.54
200.015	2888.47
200.09	2890.8
200.165	2893.57
200.24	2899.96
200.315	2940.8
200.39	2953.53
200.464	2960.72
200.539	2961.91
200.614	2980.36
200.689	3000.62
200.764	3010.02
200.839	3030.51
200.914	3039.66
200.989	3027.45
201.063	3041.09
201.138	3022.84
201.213	3026.75
201.288	3004.87
201.363	3012.69
201.438	3014.12
201.512	3032.09
201.587	3017.88
201.662	3022.64
201.737	3036.9
201.812	3046.25
201.886	3011.89
201.961	3019.81
202.036	3007.85
202.111	3003.89
202.186	2971.59
202.26	2958.71
202.335	2934.63
202.41	2926.81
202.485	2905.08
202.559	2887.5
202.634	2861.33
202.709	2875.14
202.784	2856.94
202.858	2858.75
202.933	2836.2
203.008	2827.53
203.082	2808.56
203.157	2808.42
203.232	2765.69
203.306	2745.24
203.381	2714.26
203.456	2687.77
203.53	2666.7
203.605	2649.51
203.68	2626.02
203.754	2620.78
203.829	2603.58
203.904	2584.91
203.978	2574.1
204.053	2582.1
204.127	2566.53
204.202	2564.91
204.277	2546.57
204.351	2537.86
204.426	2532.81
204.5	2525.57
204.575	2492.25
204.65	2500.63
204.724	2491.86
204.799	2498.24
204.873	2495.48
204.948	2495.67
205.022	2485.82
205.097	2478.53
205.171	2489.09
205.246	2498.81
205.32	2500.95
205.395	2501.48
205.469	2492.34
205.544	2499.63
205.618	2477.2
205.693	2489.63
205.767	2476.3
205.842	2495.21
205.916	2488.87
205.991	2478.87
206.065	2484.02
206.14	2501
206.214	2497.91
206.289	2492.95
206.363	2508
206.438	2511.19
206.512	2519.19
206.586	2541.19
206.661	2551.43
206.735	2533.06
206.81	2534.54
206.884	2549.25
206.958	2537.35
207.033	2555.72
207.107	2562.63
207.181	2599.26
207.256	2596.07
207.33	2619.88
207.405	2638.05
207.479	2659.19
207.553	2668.15
207.628	2658.58
207.702	2673.63
207.776	2670.43
207.851	2676.67
207.925	2699.31
207.999	2700.31
208.073	2701.31
208.148	2707.84
208.222	2701.55
208.296	2741.41
208.371	2768.74
208.445	2788.47
208.519	2825.91
208.593	2850.31
208.668	2862.19
208.742	2879.41
208.816	2898.51
208.89	2929.56
208.965	2942.4
209.039	2972.73
209.113	3013.88
209.187	3059.63
209.261	3081.04
209.336	3128.97
209.41	3176.54
209.484	3206.89
209.558	3262.53
209.632	3309.18
209.707	3362.82
209.781	3427.68
209.855	3485.55
209.929	3544.33
210.003	3594.79
210.077	3647.8
210.151	3745.32
210.226	3827.99
210.3	3908.56
210.374	3989.25
210.448	4054.4
210.522	4126.5
210.596	4200.09
210.67	4273.68
210.744	4387.45
210.818	4493.27
210.892	4586.01
210.966	4660.46
211.041	4755.23
211.115	4836.12
211.189	4946.19
211.263	5044.65
211.337	5135.22
211.411	5243.89
211.485	5330.75
211.559	5442.29
211.633	5541.37
211.707	5607.99
211.781	5721.84
211.855	5794.35
211.929	5894.33
212.003	5979.25
212.077	6103.06
212.151	6231.84
212.225	6360.81
212.299	6463.16
212.373	6567.82
212.447	6682.95
212.52	6831.36
212.594	6957.18
212.668	7093.57
212.742	7209.05
212.816	7334.2
212.89	7462.57
212.964	7585.48
213.038	7724.11
213.112	7869.69
213.186	8018.42
213.26	8137.62
213.333	8227.2
213.407	8372.37
213.481	8508.26
213.555	8667.3
213.629	8794.22
213.703	8913.07
213.777	9049.79
213.85	9173.91
213.924	9340.69
213.998	9484.57
214.072	9622.42
214.146	9747.68
214.219	9881.62
214.293	10011.8
214.367	10155.88
214.441	10294.47
214.515	10422.09
214.588	10538.59
214.662	10638.42
214.736	10750.15
214.81	10894.35
214.883	11037.83
214.957	11155.79
215.031	11280.31
215.105	11382.32
215.178	11497.99
215.252	11621.56
215.326	11718.53
215.4	11827.5
215.473	11919.76
215.547	12018.43
215.621	12125.68
215.694	12257.75
215.768	12358.64
215.842	12471.63
215.915	12573
215.989	12668.11
216.063	12772.85
216.136	12879.34
216.21	12998.07
216.284	13125.14
216.357	13232.83
216.431	13341.92
216.504	13466.38
216.578	13605.21
216.652	13732.28
216.725	13840.75
216.799	13960.1
216.873	14081.58
216.946	14189.56
217.02	14285.83
217.093	14382.87
217.167	14468.77
217.24	14549.94
217.314	14644.47
217.387	14736.02
217.461	14828.18
217.535	14938.42
217.608	15033.58
217.682	15135.96
217.755	15237.57
217.829	15321.3
217.902	15422.66
217.976	15513.19
218.049	15589.3
218.123	15660.39
218.196	15757.61
218.27	15840.9
218.343	15908.62
218.417	15993.5
218.49	16081.8
218.563	16173.28
218.637	16268.9
218.71	16364.62
218.784	16464.1
218.857	16557.6
218.931	16643.2
219.004	16726.39
219.077	16813.14
219.151	16892.47
219.224	16963.61
219.298	17035.9
219.371	17125.25
219.444	17189.35
219.518	17272.67
219.591	17350.17
219.665	17448.1
219.738	17509.4
219.811	17570.89
219.885	17648.72
219.958	17717.54
220.031	17781.16
220.105	17858.6
220.178	17932.57
220.251	17995.03
220.325	18060.28
220.398	18127.75
220.471	18204.9
220.544	18276.27
220.618	18323.31
220.691	18384.99
220.764	18447.16
220.838	18509.37
220.911	18551.82
220.984	18626.13
221.057	18682.61
221.131	18751.52
221.204	18759.57
221.277	18839.04
221.35	18927.18
221.424	18985.68
221.497	19038.01
221.57	19085.53
221.643	19145.09
221.716	19195.35
221.79	19243.5
221.863	19287.49
221.936	19336.84
222.009	19376.07
222.082	19418.28
222.155	19465.41
222.229	19530.85
222.302	19582.17
222.375	19625.35
222.448	19685.49
222.521	19728.38
222.594	19769.59
222.667	19796
222.74	19866.55
222.814	19891.61
222.887	19918.69
222.96	19957.43
223.033	20005.77
223.106	20053.33
223.179	20099.65
223.252	20138.83
223.325	20174.59
223.398	20209.14
223.471	20244.32
223.544	20275.02
223.617	20308.41
223.69	20349.86
223.763	20368.27
223.837	20404.17
223.91	20445.81
223.983	20458.44
224.056	20463.79
224.129	20501.33
224.202	20530.15
224.275	20554.92
224.348	20570.58
224.42	20579.11
224.493	20588.8
224.566	20602.34
224.639	20646.87
224.712	20648.17
224.785	20666.92
224.858	20682.73
224.931	20690.1
225.004	20703.74
225.077	20723.84
225.15	20720.47
225.223	20730.73
225.296	20771.22
225.369	20767.07
225.442	20771.46
225.514	20790.93
225.587	20822.01
225.66	20835.65
225.733	20851.6
225.806	20867.8
225.879	20880.09
225.952	20893.39
226.025	20924.48
226.097	20957.49
226.17	20954.94
226.243	20951.95
226.316	20958.74
226.389	20979.37
226.461	21004.72
226.534	21015.86
226.607	21037.54
226.68	21082.8
226.753	21109.55
226.825	21094.12
226.898	21119.91
226.971	21130.75
227.044	21148.25
227.117	21162.32
227.189	21175.48
227.262	21200.88
227.335	21221.22
227.407	21231.39
227.48	21244.5
227.553	21253.17
227.626	21254.67
227.698	21276.12
227.771	21288.84
227.844	21289.37
227.916	21292.7
227.989	21289.61
228.062	21300.55
228.134	21321.95
228.207	21318.77
228.28	21311.93
228.352	21318.1
228.425	21331.59
228.498	21343.55
228.57	21339.45
228.643	21357.62
228.716	21351.31
228.788	21335.4
228.861	21317.47
228.934	21331.26
229.006	21344.22
229.079	21334.24
229.151	21325.62
229.224	21302.43
229.296	21317.23
229.369	21356.66
229.442	21371.94
229.514	21369
229.587	21371.84
229.659	21351.07
229.732	21356.85
229.804	21370.35
229.877	21388.28
229.949	21400.81
230.022	21428.43
230.094	21425.1
230.167	21418.31
230.239	21407.56
230.312	21417.58
230.384	21444.29
230.457	21455.18
230.529	21453.35
230.602	21466.12
230.674	21477.74
230.747	21487.47
230.819	21496.44
230.892	21457.63
230.964	21461.39
231.037	21462.41
231.109	21470.99
231.181	21464.14
231.254	21440.81
231.326	21433.15
231.399	21427.08
231.471	21404.81
231.544	21358.97
231.616	21372.51
231.688	21359.26
231.761	21345.72
231.833	21339.11
231.905	21305.33
231.978	21294.19
232.05	21284.22
232.122	21280.02
232.195	21253.13
232.267	21250.57
232.339	21225.94
232.412	21232.02
232.484	21217.36
232.556	21196.01
232.629	21196.59
232.701	21205.65
232.773	21207.34
232.846	21184.83
232.918	21175.91
232.99	21171
233.062	21178.81
233.135	21166.9
233.207	21147.29
233.279	21152.83
233.351	21140.49
233.424	21126.03
233.496	21097.84
233.568	21101.79
233.64	21069.45
233.713	21065.21
233.785	21056.82
233.857	21058.6
233.929	21022.94
234.001	21017.59
234.074	21021.16
234.146	20983.71
234.218	20959.95
234.29	20940.43
234.362	20920.23
234.434	20889.82
234.507	20856.38
234.579	20820.76
234.651	20793.38
234.723	20802.78
234.795	20788.42
234.867	20762.06
234.939	20759.12
235.012	20745.96
235.084	20721.96
235.156	20717.91
235.228	20682.01
235.3	20654.63
235.372	20621.77
235.444	20610.58
235.516	20564.51
235.588	20549.14
235.66	20529.81
235.732	20505.47
235.804	20539.89
235.876	20531.69
235.948	20522.54
236.02	20494.1
236.092	20470.2
236.164	20442.25
236.236	20395.6
236.308	20366.78
236.38	20343.6
236.452	20307.79
236.524	20280.9
236.596	20281.09
236.668	20257.14
236.74	20240.95
236.812	20216.47
236.884	20203.17
236.956	20179.21
237.028	20141.19
237.1	20104.76
237.172	20098.4
237.244	20084.52
237.316	20008.04
237.388	19961.24
237.46	19920.13
237.532	19918.45
237.604	19889.29
237.675	19892.91
237.747	19874.79
237.819	19835.32
237.891	19815.85
237.963	19776.58
238.035	19744.96
238.107	19667.23
238.178	19650.8
238.25	19612.15
238.322	19610.08
238.394	19553.45
238.466	19518.9
238.538	19502.37
238.609	19476.98
238.681	19421.7
238.753	19375.92
238.825	19357.27
238.897	19337.8
238.968	19326.04
239.04	19281.13
239.112	19278.63
239.184	19219.16
239.255	19189.38
239.327	19169.96
239.399	19142.73
239.471	19124.85
239.542	19105.38
239.614	19086.11
239.686	19029.05
239.758	19024.62
239.829	18966.36
239.901	18956.33
239.973	18933.59
240.044	18907.56
240.116	18880.91
240.188	18843.95
240.259	18811.04
240.331	18770.66
240.403	18739.38
240.474	18689.02
240.546	18652.74
240.618	18594.91
240.689	18552.21
240.761	18515.39
240.833	18493.47
240.904	18459.69
240.976	18432.36
241.048	18389.28
241.119	18373.67
241.191	18350.15
241.262	18324.22
241.334	18288.9
241.405	18260.95
241.477	18216.9
241.549	18176.86
241.62	18141.97
241.692	18125.82
241.763	18115.32
241.835	18085.44
241.906	18057.68
241.978	18013.83
242.049	17994.21
242.121	17972.24
242.192	17964.38
242.264	17912.38
242.335	17858.41
242.407	17829.83
242.478	17784.72
242.55	17766.12
242.621	17723.38
242.693	17680.29
242.764	17633.5
242.836	17601.69
242.907	17564.92
242.979	17540.3
243.05	17519.62
243.122	17491.72
243.193	17445.98
243.264	17383.38
243.336	17348.1
243.407	17333.6
243.479	17319.81
243.55	17287.67
243.622	17259.53
243.693	17221.6
243.764	17212.15
243.836	17172.25
243.907	17133.69
243.978	17096.29
244.05	17066.75
244.121	17013.49
244.192	16992.24
244.264	16946.98
244.335	16920.53
244.407	16866.31
244.478	16833.58
244.549	16784.9
244.62	16736.08
244.692	16704.32
244.763	16675.45
244.834	16629.71
244.906	16580.31
244.977	16551.11
245.048	16526.62
245.119	16489.03
245.191	16444.79
245.262	16387.19
245.333	16375.86
245.405	16341.65
245.476	16322.22
245.547	16284.15
245.618	16263.28
245.689	16227.42
245.761	16199.08
245.832	16155.84
245.903	16139.99
245.974	16113.86
246.045	16087.06
246.117	16074.87
246.188	16031.15
246.259	15993.8
246.33	15961.22
246.401	15923.38
246.473	15874.26
246.544	15837.25
246.615	15808.62
246.686	15774.2
246.757	15755.55
246.828	15707.64
246.899	15685.47
246.97	15636.45
247.042	15595.19
247.113	15573.06
247.184	15566.36
247.255	15535.37
247.326	15506.88
247.397	15468.95
247.468	15434.82
247.539	15403.44
247.61	15353.36
247.681	15334.8
247.752	15317.98
247.823	15277.97
247.894	15252.62
247.965	15218.25
248.037	15184.51
248.108	15141.46
248.179	15113.7
248.25	15082.17
248.321	15067.62
248.392	15032.96
248.463	15020.09
248.534	14990.54
248.605	14969.19
248.675	14928.6
248.746	14902.71
248.817	14880.25
248.888	14856.78
248.959	14811.75
249.03	14787.17
249.101	14764.37
249.172	14728.6
249.243	14681.84
249.314	14670.95
249.385	14644.29
249.456	14621.06
249.527	14588.62
249.598	14565.24
249.669	14541.13
249.739	14515.15
249.81	14486.47
249.881	14443.9
249.952	14419.37
250.023	14396.13
250.094	14346.53
250.165	14312.35
250.235	14281.4
250.306	14250.89
250.377	14213.48
250.448	14191.45
250.519	14148.45
250.59	14134.23
250.66	14104.83
250.731	14098.27
250.802	14078.26
250.873	14052.57
250.944	14023.17
251.014	13989.85
251.085	13990.29
251.156	13964.84
251.227	13954.47
251.297	13943.58
251.368	13938.66
251.439	13918.56
251.51	13902.36
251.58	13873.63
251.651	13844.85
251.722	13830.05
251.792	13787.58
251.863	13761.36
251.934	13762.85
252.005	13767.24
252.075	13748.73
252.146	13739.37
252.217	13726.17
252.287	13711.85
252.358	13689.58
252.429	13686.01
252.499	13661.14
252.57	13636.6
252.641	13618.23
252.711	13588.63
252.782	13546.93
252.852	13535.8
252.923	13511.16
252.994	13489.23
253.064	13480.07
253.135	13440.11
253.205	13413.21
253.276	13416.05
253.347	13411.96
253.417	13375.27
253.488	13343.6
253.558	13308.31
253.629	13290.86
253.699	13265.79
253.77	13248.58
253.841	13216.82
253.911	13200.62
253.982	13175.02
254.052	13161.14
254.123	13143.54
254.193	13128.6
254.264	13144.84
254.334	13108.25
254.405	13076.82
254.475	13041.87
254.546	13020.37
254.616	13016.95
254.687	12998.3
254.757	12980.03
254.827	12953.22
254.898	12931.68
254.968	12915
255.039	12879.18
255.109	12859.85
255.18	12832.57
255.25	12776.74
255.321	12765.03
255.391	12719.72
255.461	12726.08
255.532	12672.72
255.602	12646.49
255.673	12606.82
255.743	12574.04
255.813	12529.26
255.884	12522.65
255.954	12510.41
256.024	12507.95
256.095	12489.44
256.165	12455.31
256.235	12436.27
256.306	12407.59
256.376	12398.87
256.446	12386.96
256.517	12380.36
256.587	12367.24
256.657	12347.62
256.728	12336.83
256.798	12315.67
256.868	12301.83
256.938	12269.01
257.009	12259.51
257.079	12247.22
257.149	12249.29
257.219	12206.24
257.29	12195.06
257.36	12150.76
257.43	12140.21
257.5	12089.5
257.571	12063.04
257.641	12055.13
257.711	12027.9
257.781	12011.7
257.852	11997.92
257.922	11953.76
257.992	11929.37
258.062	11902.96
258.132	11891.25
258.202	11869.03
258.273	11856.35
258.343	11851
258.413	11822.71
258.483	11809.07
258.553	11778.75
258.623	11753.83
258.693	11738.26
258.764	11730.07
258.834	11729.83
258.904	11707.51
258.974	11689.53
259.044	11668.66
259.114	11650.44
259.184	11631.55
259.254	11615.89
259.324	11575.35
259.394	11565.33
259.464	11573.47
259.535	11551.54
259.605	11526.38
259.675	11504.69
259.745	11492.02
259.815	11462.57
259.885	11445.65
259.955	11450.67
260.025	11427.68
260.095	11410.04
260.165	11401.84
260.235	11402.13
260.305	11378.52
260.375	11352.44
260.445	11363.87
260.515	11372.54
260.585	11369.12
260.655	11354.13
260.725	11348.83
260.795	11339
260.865	11340.11
260.934	11303.38
261.004	11295.14
261.074	11277.94
261.144	11278.18
261.214	11264.44
261.284	11246.22
261.354	11238.42
261.424	11209.55
261.494	11214.9
261.564	11192.15
261.634	11180.34
261.703	11140.15
261.773	11126.37
261.843	11119.43
261.913	11084.2
261.983	11038.56
262.053	11028.73
262.123	11006.47
262.192	10973.41
262.262	10967.68
262.332	10935.87
262.402	10928.74
262.472	10909.03
262.541	10872.55
262.611	10859.21
262.681	10836.56
262.751	10827.06
262.821	10804.51
262.89	10777.96
262.96	10764.18
263.03	10766.06
263.1	10752.08
263.169	10744.76
263.239	10735.6
263.309	10735.27
263.379	10736.86
263.448	10727.85
263.518	10710.31
263.588	10694.21
263.657	10697.15
263.727	10688.91
263.797	10673.59
263.867	10653.21
263.936	10623.48
264.006	10625.12
264.076	10612.3
264.145	10590.38
264.215	10567.88
264.285	10567.35
264.354	10535.84
264.424	10510.11
264.494	10482.88
264.563	10462.21
264.633	10464.33
264.702	10456.48
264.772	10420.1
264.842	10400.44
264.911	10394.81
264.981	10365.46
265.05	10353.47
265.12	10336.51
265.19	10323.35
265.259	10325.18
265.329	10321.67
265.398	10317.33
265.468	10326.15
265.537	10304.08
265.607	10302.16
265.676	10306.49
265.746	10294.54
265.815	10289.87
265.885	10271.86
265.955	10243.67
266.024	10222.04
266.094	10190.1
266.163	10186.73
266.232	10193.67
266.302	10171.8
266.371	10156.86
266.441	10150.79
266.51	10146.22
266.58	10129.45
266.649	10107.15
266.719	10099.97
266.788	10089.32
266.858	10091.92
266.927	10053.92
266.996	10047.51
267.066	10037.63
267.135	10006.03
267.205	10000.21
267.274	9994.52
267.343	9991.68
267.413	9979.25
267.482	9987.44
267.552	9985.61
267.621	9950.74
267.69	9913.6
267.76	9907.58
267.829	9897.08
267.898	9877.57
267.968	9852.09
268.037	9847.56
268.106	9844.19
268.176	9816.78
268.245	9798.24
268.314	9778.82
268.384	9783.01
268.453	9768.13
268.522	9754.55
268.592	9759.22
268.661	9742.51
268.73	9735.28
268.799	9715.92
268.869	9725.94
268.938	9690.78
269.007	9672.43
269.076	9666.94
269.146	9672.24
269.215	9666.46
269.284	9673.25
269.353	9661.69
269.422	9652.16
269.492	9634.19
269.561	9594.94
269.63	9589.31
269.699	9575.53
269.768	9563.3
269.838	9555.45
269.907	9550.63
269.976	9527.42
270.045	9495.5
270.114	9490.34
270.183	9469.59
270.253	9469.83
270.322	9442.91
270.391	9434.77
270.46	9437.66
270.529	9439.64
270.598	9433.76
270.667	9416.76
270.736	9390.03
270.806	9383.39
270.875	9383.82
270.944	9370.92
271.013	9392.3
271.082	9385.75
271.151	9374.77
271.22	9343.76
271.289	9332.64
271.358	9322.28
271.427	9319.78
271.496	9304.95
271.565	9287.81
271.634	9280.54
271.703	9298.74
271.772	9299.37
271.841	9289.36
271.91	9263.98
271.979	9248.52
272.048	9225.12
272.117	9228.93
272.186	9218.09
272.255	9224.16
272.324	9222.76
272.393	9219.54
272.462	9202.25
272.531	9188.34
272.6	9181.35
272.669	9199.84
272.738	9184.82
272.807	9179.57
272.876	9160.27
272.945	9192.28
273.013	9192.57
273.082	9199.02
273.151	9156.31
273.22	9156.6
273.289	9149.43
273.358	9164.64
273.427	9154.34
273.496	9151.84
273.564	9142.54
273.633	9145
273.702	9121.89
273.771	9109.13
273.84	9103.69
273.909	9100.75
273.977	9101.09
274.046	9092.04
274.115	9093.19
274.184	9074.28
274.253	9059.3
274.322	9065.27
274.39	9025.6
274.459	9007.6
274.528	8979.92
274.597	8971.83
274.665	8964.13
274.734	8970.77
274.803	8955.56
274.872	8946.22
274.94	8938.13
275.009	8996.12
275.078	8977.44
275.147	8973.11
275.215	8970.03
275.284	8973.25
275.353	8961.41
275.421	8940.9
275.49	8954
275.559	8944.18
275.627	8941.24
275.696	8940.71
275.765	8938.26
275.833	8941.48
275.902	8938.21
275.971	8945.52
276.039	8964.15
276.108	8964.83
276.177	8962.28
276.245	8952.22
276.314	8950.72
276.383	8956.4
276.451	8893.84
276.52	8893.99
276.588	8905.25
276.657	8909.2
276.725	8898.27
276.794	8899.71
276.863	8909.97
276.931	8881.04
277	8882.96
277.068	8893.41
277.137	8909.24
277.205	8905.01
277.274	8916.85
277.342	8929.37
277.411	8911.51
277.48	8897.55
277.548	8886.67
277.617	8892.93
277.685	8886.14
277.754	8890.33
277.822	8874.93
277.89	8882.58
277.959	8877.19
278.027	8856.45
278.096	8848.79
278.164	8875.17
278.233	8863.38
278.301	8850.19
278.37	8860.54
278.438	8843.64
278.507	8842.73
278.575	8814.23
278.643	8812.69
278.712	8795.65
278.78	8779.19
278.849	8787.42
278.917	8796.13
278.985	8795.32
279.054	8791.08
279.122	8800.75
279.191	8799.12
279.259	8797.67
279.327	8774.47
279.396	8792.14
279.464	8787.52
279.532	8790.88
279.601	8787.56
279.669	8784.96
279.737	8796.08
279.806	8800.03
279.874	8812.78
279.942	8812.93
280.011	8807.68
280.079	8812.93
280.147	8827.8
280.215	8833.48
280.284	8830.64
280.352	8816.78
280.42	8825.64
280.488	8810.57
280.557	8799.65
280.625	8800.7
280.693	8799.45
280.761	8802.92
280.83	8786.22
280.898	8800.56
280.966	8778.95
281.034	8742.46
281.102	8732.4
281.171	8728.84
281.239	8735.19
281.307	8720.66
281.375	8705.16
281.443	8739.43
281.512	8731.01
281.58	8737.89
281.648	8727.26
281.716	8727.01
281.784	8723.26
281.852	8709.01
281.92	8712.19
281.989	8727.11
282.057	8711.28
282.125	8759.85
282.193	8758.7
282.261	8758.51
282.329	8750.03
282.397	8755.18
282.465	8761.01
282.533	8774.1
282.601	8758.98
282.67	8732.18
282.738	8729.29
282.806	8744.35
282.874	8721.68
282.942	8725.77
283.01	8717.39
283.078	8719.32
283.146	8717.44
283.214	8731.02
283.282	8737.56
283.35	8750.37
283.418	8746.27
283.486	8748.25
283.554	8701.45
283.622	8700.63
283.69	8702.41
283.758	8701.98
283.826	8707.51
283.894	8715.07
283.962	8735.05
284.03	8747.66
284.098	8755.69
284.165	8749.25
284.233	8744.62
284.301	8743.85
284.369	8742.75
284.437	8734.08
284.505	8728.02
284.573	8742.07
284.641	8723.59
284.709	8725.52
284.777	8705.44
284.845	8710.84
284.912	8719.88
284.98	8726.96
285.048	8722.92
285.116	8727.73
285.184	8732.69
285.252	8731.68
285.319	8720.41
285.387	8705.35
285.455	8686.19
285.523	8689.75
285.591	8687.01
285.659	8690.09
285.726	8703.71
285.794	8684.42
285.862	8683.36
285.93	8683.94
285.997	8675.66
286.065	8671.33
286.133	8663.67
286.201	8661.89
286.269	8641.1
286.336	8632.87
286.404	8620.36
286.472	8628.39
286.539	8603.99
286.607	8595.48
286.675	8595.67
286.743	8600.24
286.81	8598.99
286.878	8618.38
286.946	8609.09
287.013	8610.92
287.081	8611.74
287.149	8598.99
287.216	8619.44
287.284	8616.12
287.352	8617.37
287.419	8611.5
287.487	8630.89
287.555	8634.21
287.622	8629.84
287.69	8639.85
287.758	8646.54
287.825	8646.58
287.893	8631.81
287.96	8633.44
288.028	8642.16
288.096	8644.66
288.163	8654.48
288.231	8641.92
288.298	8640.81
288.366	8658.91
288.433	8662.37
288.501	8649.57
288.569	8646.25
288.636	8639.51
288.704	8648.27
288.771	8652.84
288.839	8646.78
288.906	8638.07
288.974	8650.92
289.041	8655.06
289.109	8643.55
289.176	8650.97
289.244	8650.34
289.311	8665.69
289.379	8680.71
289.446	8683.21
289.514	8680.28
289.581	8677.63
289.649	8680.13
289.716	8683.84
289.783	8673.68
289.851	8687.01
289.918	8689.8
289.986	8701.02
290.053	8708.05
290.121	8708.53
290.188	8713.97
290.255	8743.23
290.323	8736.97
290.39	8728.45
290.458	8734.18
290.525	8747.56
290.592	8739.91
290.66	8747.99
290.727	8739.81
290.794	8755.36
290.862	8756.13
290.929	8762.48
290.996	8760.36
291.064	8775.81
291.131	8786.26
291.198	8795.5
291.266	8790.69
291.333	8792.61
291.4	8794.58
291.468	8810.08
291.535	8806.86
291.602	8807.82
291.669	8802.82
291.737	8810.37
291.804	8813.21
291.871	8827.65
291.938	8841.56
292.006	8873.48
292.073	8889.13
292.14	8901.06
292.207	8890.33
292.275	8889.66
292.342	8902.56
292.409	8924.8
292.476	8941.31
292.543	8930.58
292.611	8933.75
292.678	8951.47
292.745	8976.93
292.812	8986.17
292.879	8982.32
292.946	8986.56
293.014	9001.58
293.081	9010.05
293.148	9024.11
293.215	9038.69
293.282	9028.78
293.349	9031.72
293.416	9013.47
293.484	9018.86
293.551	9031.81
293.618	9050.78
293.685	9074.56
293.752	9067.43
293.819	9068.11
293.886	9059.25
293.953	9066.86
294.02	9076.58
294.087	9088.86
294.154	9077.26
294.221	9094.78
294.288	9092.71
294.356	9115.87
294.423	9124.78
294.49	9118.76
294.557	9124.44
294.624	9111.83
294.691	9137.49
294.758	9134.98
294.825	9142.44
294.892	9137.1
294.959	9135.27
295.026	9141.43
295.093	9134.89
295.16	9129.11
295.226	9125.31
295.293	9148.61
295.36	9154
295.427	9169.65
295.494	9179.43
295.561	9196.86
295.628	9211.45
295.695	9226.9
295.762	9223.73
295.829	9230.13
295.896	9247.99
295.963	9266.82
296.03	9278.33
296.096	9284.01
296.163	9299.51
296.23	9314.44
296.297	9325.56
296.364	9327.97
296.431	9339.43
296.498	9340.78
296.564	9365.86
296.631	9371.59
296.698	9357.05
296.765	9376.88
296.832	9364.61
296.899	9349.44
296.965	9362.15
297.032	9343.27
297.099	9362.34
297.166	9372.12
297.233	9364.03
297.299	9358.44
297.366	9353.58
297.433	9351.6
297.5	9357.33
297.566	9359.21
297.633	9357.14
297.7	9366.63
297.767	9362.58
297.833	9360.71
297.9	9356.66
297.967	9343.9
298.033	9358.93
298.1	9383.44
298.167	9379.78
298.234	9383.44
298.3	9397.16
298.367	9395.19
298.434	9408.53
298.5	9402.55
298.567	9395.96
298.634	9398.03
298.7	9413.1
298.767	9417.24
298.834	9436.69
298.9	9432.89
298.967	9421.09
299.033	9431.5
299.1	9445.75
299.167	9464.29
299.233	9462.75
299.3	9482.15
299.366	9499.34
299.433	9510.23
299.5	9489.71
299.566	9493.18
299.633	9514.37
299.699	9523.95
299.766	9521.5
299.832	9526.07
299.899	9530.31
299.965	9545.91
300.032	9543.41
300.099	9552.37
300.165	9560.94
300.232	9561.9
300.298	9559.69
300.365	9581.55
300.431	9588.53
300.498	9579.72
300.564	9583.28
300.631	9592.82
300.697	9601.87
300.763	9605.49
300.83	9601.87
300.896	9615.36
300.963	9623.83
301.029	9624.31
301.096	9628.84
301.162	9635.73
301.229	9625.86
301.295	9620.08
301.361	9618.34
301.428	9626.1
301.494	9607.99
301.561	9609.91
301.627	9608.04
301.693	9616.7
301.76	9615.4
301.826	9605.53
301.892	9614.54
301.959	9626.67
302.025	9629.03
302.092	9624.75
302.158	9627.49
302.224	9631.54
302.291	9623.54
302.357	9620.46
302.423	9613.14
302.49	9600.91
302.556	9616.85
302.622	9618.39
302.688	9621.47
302.755	9638.57
302.821	9645.07
302.887	9655.86
302.954	9652.87
303.02	9660.82
303.086	9666.12
303.152	9664.14
303.219	9652.54
303.285	9660
303.351	9660.53
303.417	9663.57
303.483	9657.4
303.55	9649.99
303.616	9646.18
303.682	9647.05
303.748	9638.04
303.815	9656.83
303.881	9669.78
303.947	9653.17
304.013	9656.01
304.079	9654.18
304.145	9635.15
304.212	9631.88
304.278	9630
304.344	9625.09
304.41	9612.09
304.476	9600.58
304.542	9596.43
304.608	9608.33
304.674	9590.03
304.741	9584.87
304.807	9580.54
304.873	9586.61
304.939	9601.78
305.005	9586.51
305.071	9586.65
305.137	9592.87
305.203	9565.12
305.269	9558.82
305.335	9571.24
305.401	9565.8
305.467	9554.92
305.533	9562.28
305.599	9569.75
305.666	9569.6
305.732	9567.82
305.798	9581.16
305.864	9612.81
305.93	9617.29
305.996	9616.85
306.062	9618.78
306.128	9615.7
306.194	9599.08
306.259	9597.25
306.325	9583.57
306.391	9595.81
306.457	9600.43
306.523	9600.38
306.589	9626.34
306.655	9615.84
306.721	9590.27
306.787	9577.7
306.853	9604.62
306.919	9587.82
306.985	9579
307.051	9575.59
307.117	9574.53
307.183	9568.99
307.248	9530.22
307.314	9533.97
307.38	9534.98
307.446	9541
307.512	9531.85
307.578	9542.5
307.644	9537.15
307.709	9539.56
307.775	9530.22
307.841	9527.71
307.907	9530.31
307.973	9506.76
308.039	9508.25
308.104	9519.18
308.17	9524.43
308.236	9507.14
308.302	9513.02
308.368	9501.6
308.433	9498.33
308.499	9491.59
308.565	9478.44
308.631	9482.87
308.696	9462.21
308.762	9456.87
308.828	9454.27
308.894	9435.15
308.959	9412.13
309.025	9402.36
309.091	9398.46
309.156	9391.57
309.222	9388.06
309.288	9372.21
309.354	9355.75
309.419	9350.02
309.485	9334.56
309.551	9339.33
309.616	9318.81
309.682	9315.1
309.748	9308.89
309.813	9306.58
309.879	9297.05
309.945	9289.87
310.01	9283.61
310.076	9288.24
310.141	9275.38
310.207	9257.51
310.273	9260.5
310.338	9264.3
310.404	9244.81
310.469	9232.67
310.535	9218.32
310.601	9198.87
310.666	9205.8
310.732	9214.95
310.797	9211.25
310.863	9204.55
310.928	9193.04
310.994	9193.82
311.059	9183.51
311.125	9182.5
311.191	9189.72
311.256	9175.76
311.322	9178.6
311.387	9158.38
311.453	9488.04
311.518	9465.9
311.584	9465.94
311.649	9472.3
311.715	9456.75
311.78	9458.05
311.846	9447.7
311.911	9460.22
311.976	9460.94
312.042	9440.04
312.107	9422.28
312.173	9405.72
312.238	9399.07
312.304	9398.69
312.369	9391.13
312.434	9384.97
312.5	9378.23
312.565	9344.19
312.631	9349.63
312.696	9344.91
312.761	9347.07
312.827	9001.77
312.892	9036.29
312.958	9034.56
313.023	9031.04
313.088	9032.44
313.154	9023.05
313.219	9014.77
313.284	9004.8
313.35	8998.45
313.415	8997.87
313.48	8991.47
313.546	8998.35
313.611	9011.31
313.676	8994.46
313.741	8987.04
313.807	8993.01
313.872	8992.15
313.937	8999.94
314.003	9013.28
314.068	9008.8
314.133	9019.1
314.198	9010.68
314.264	8986.8
314.329	8973.66
314.394	8965.66
314.459	8962.73
314.525	8975.53
314.59	8976.4
314.655	8962.87
314.72	8967.44
314.785	8967.49
314.851	8964.46
314.916	8948.57
314.981	8928.64
315.046	8923.3
315.111	8914.59
315.176	8900
315.242	8905.39
315.307	8900.82
315.372	8879.49
315.437	8868.81
315.502	8857.21
315.567	8863.94
315.632	8857.73
315.698	8858.94
315.763	8858.22
315.828	8852.15
315.893	8858.84
315.958	8853.84
316.023	8846.47
316.088	8828.86
316.153	8802.48
316.218	8788
316.283	8768.17
316.348	8754.12
316.413	8750.31
316.479	8731.35
316.544	8694.16
316.609	8659.79
316.674	8629.24
316.739	8592.23
316.804	8562.3
316.869	8525.73
316.934	8489.73
316.999	8453.06
317.064	8402.78
317.129	8357.74
317.194	8320.45
317.259	8265.3
317.324	8215.13
317.389	8164.95
317.454	8124.97
317.518	8089.14
317.583	8071.29
317.648	8050.6
317.713	8011.26
317.778	7952.09
317.843	7924.92
317.908	7892.36
317.973	7852.54
318.038	7820.75
318.103	7785.17
318.168	7748
318.233	7714.14
318.297	7662.79
318.362	7624.03
318.427	7578.03
318.492	7550.38
318.557	7506.49
318.622	7478.56
318.687	7453.85
318.751	7420.35
318.816	7389.2
318.881	7360.03
318.946	7298.02
319.011	7247.74
319.075	7209.87
319.14	7172.78
319.205	7129
319.27	7093.88
319.335	7051.45
319.399	7011.18
319.464	6982.26
319.529	6933.31
319.594	6897.71
319.658	6870.76
319.723	6829.69
319.788	6803.28
319.853	6747.07
319.917	6714.76
319.982	6663.12
320.047	6625.47
320.112	6596.03
320.176	6547.87
320.241	6505.66
320.306	6482.66
320.37	6446.08
320.435	6411.56
320.5	6388.08
320.564	6347.09
320.629	6306.01
320.694	6276.1
320.758	6237.08
320.823	6188.18
320.888	6161.12
320.952	6112.23
321.017	6068.94
321.082	6031.42
321.146	5995.3
321.211	5962.92
321.275	5924.21
321.34	5877.45
321.405	5835.81
321.469	5793.65
321.534	5751.89
321.598	5706.43
321.663	5673.47
321.727	5634.35
321.792	5585.97
321.857	5543.53
321.921	5504.75
321.986	5463.49
322.05	5408.71
322.115	5366.34
322.179	5325.09
322.244	5268.12
322.308	5238.42
322.373	5192.04
322.437	5150.17
322.502	5128.31
322.566	5082.61
322.631	5044.1
322.695	5003.83
322.76	4955.76
322.824	4915.58
322.889	4871.01
322.953	4823.96
323.018	4760.61
323.082	4701.46
323.146	4650.69
323.211	4597.56
323.275	4556.11
323.34	4506.84
323.404	4469.29
323.468	4423.36
323.533	4383.95
323.597	4340.68
323.662	4286.72
323.726	4254.58
323.79	4208.53
323.855	4140.51
323.919	4091.21
323.983	4048.85
324.048	3987.32
324.112	4140.74
324.177	4014.38
324.241	3808.62
324.305	3608.01
324.37	3405.75
324.434	3213.95
324.498	3173.02
324.562	3121.93
324.627	3060.98
324.691	3011.69
324.755	2948.02
324.82	2876.66
324.884	2799.27
324.948	2730.58
325.012	2637.4
325.077	2511.59
