Data from 20250702_urea_0.5M_MAYP1162681_19-54-59-829.txt Node
Date: Wed Jul 02 19:54:59 BST 2025
User: adleo
Spectrometer: MAYP116268
Trigger mode: 0
Integration Time (sec): 1.000000E0
Scans to average: 1
Electric dark correction enabled: true
Nonlinearity correction enabled: true
Boxcar width: 10
XAxis mode: Wavelengths
Number of Pixels in Spectrum: 2068
>>>>>Begin Spectral Data<<<<<
179.565	1182.92
179.642	1239.42
179.718	1283.69
179.795	1321.28
179.871	1353.73
179.948	1370.84
180.024	1391.33
180.101	1411.37
180.177	1425.57
180.254	1449.29
180.33	1471.64
180.407	1523.15
180.483	1617.55
180.56	1705.54
180.636	1788.05
180.712	1773.46
180.789	1781.58
180.865	1794.17
180.942	1802.2
181.018	1811.14
181.095	1826.26
181.171	1827.35
181.248	1827.11
181.324	1838.67
181.4	1845.08
181.477	1855.4
181.553	1868.94
181.63	1889.05
181.706	1908.07
181.782	1915.34
181.859	1912.73
181.935	1914.68
182.011	1911.73
182.088	1927.85
182.164	1945.45
182.24	1960.18
182.317	1971.35
182.393	1972.4
182.469	1985.9
182.546	1998.69
182.622	2006.02
182.698	2003.35
182.775	2018.38
182.851	2034.5
182.927	2030.79
183.003	2028.22
183.08	2021.28
183.156	2029.75
183.232	2027.84
183.308	2015.43
183.385	2025.61
183.461	2044.25
183.537	2046.96
183.613	2060.8
183.69	2050.53
183.766	2041.63
183.842	2047.05
183.918	2050.48
183.995	2065.79
184.071	2069.26
184.147	2068.17
184.223	2056.76
184.299	2066.65
184.375	2053.81
184.452	2057.76
184.528	2113.34
184.604	2122.57
184.68	2134.26
184.756	2142.78
184.832	2146.68
184.908	2153
184.985	2150.77
185.061	2136.02
185.137	2145.59
185.213	2133.32
185.289	2136.74
185.365	2130.27
185.441	2128.75
185.517	2141.12
185.593	2135.22
185.669	2135.27
185.745	2144.07
185.822	2157.71
185.898	2149.53
185.974	2159.8
186.05	2152.29
186.126	2114.79
186.202	2110.7
186.278	2108.65
186.354	2097.71
186.43	2103.8
186.506	2101.47
186.582	2102.14
186.658	2109.27
186.734	2090.06
186.81	2089.06
186.886	2090.87
186.962	2102.47
187.038	2098.76
187.114	2091.91
187.19	2100.95
187.266	2089.3
187.341	2088.01
187.417	2081.97
187.493	2080.45
187.569	2081.88
187.645	2076.98
187.721	2060.28
187.797	2062.85
187.873	2066.41
187.949	2062.13
188.025	2052.76
188.101	2054.09
188.176	2059.99
188.252	2055.09
188.328	2061.18
188.404	2062.84
188.48	2057.66
188.556	2051.62
188.632	2050.38
188.707	2053.04
188.783	2047.81
188.859	2040.87
188.935	2029.22
189.011	2038.78
189.086	2033.83
189.162	2024.94
189.238	2020.56
189.314	2018.33
189.39	2016.38
189.465	2009.82
189.541	2026.04
189.617	2012.58
189.693	2009.25
189.768	2010.87
189.844	2033.37
189.92	2027.1
189.996	2038.61
190.071	2049.02
190.147	2047.03
190.223	2054.97
190.298	2047.6
190.374	2034.33
190.45	2048.78
190.526	2058.2
190.601	2050.49
190.677	2054.82
190.753	2084.7
190.828	2088.98
190.904	2105.11
190.98	2118.1
191.055	2125.85
191.131	2119.38
191.207	2141.3
191.282	2148.96
191.358	2137.88
191.433	2122.65
191.509	2135.25
191.585	2130.92
191.66	2130.63
191.736	2139.43
191.811	2132.49
191.887	2146.34
191.963	2169.55
192.038	2174.5
192.114	2175.35
192.189	2176.69
192.265	2169.84
192.34	2148.56
192.416	2147.28
192.491	2143.81
192.567	2146.52
192.642	2149.23
192.718	2148.33
192.793	2133.39
192.869	2131.06
192.944	2135.58
193.02	2143.43
193.095	2147.71
193.171	2151.75
193.246	2154.61
193.322	2151.47
193.397	2152.99
193.473	2139.19
193.548	2120.82
193.624	2125.96
193.699	2125.3
193.775	2143
193.85	2147.04
193.925	2157.08
194.001	2155.99
194.076	2148.56
194.152	2139.43
194.227	2132.62
194.302	2121.45
194.378	2129.53
194.453	2123.16
194.529	2134.53
194.604	2120.79
194.679	2114.32
194.755	2097.43
194.83	2107.62
194.905	2103.91
194.981	2114.04
195.056	2107.48
195.131	2114
195.207	2113.38
195.282	2102.06
195.357	2084.26
195.433	2098.91
195.508	2086.26
195.583	2096.77
195.659	2108.38
195.734	2115.04
195.809	2115.75
195.884	2124.36
195.96	2124.65
196.035	2142.43
196.11	2137.82
196.185	2148.76
196.261	2152.85
196.336	2183.01
196.411	2167.78
196.486	2175.49
196.561	2169.4
196.637	2179.67
196.712	2196.33
196.787	2197.61
196.862	2214.07
196.937	2223.87
197.013	2230.63
197.088	2240.76
197.163	2263.09
197.238	2282.47
197.313	2283.23
197.388	2296.7
197.464	2325.31
197.539	2333.78
197.614	2328.26
197.689	2344.73
197.764	2362.77
197.839	2385.1
197.914	2378.43
197.989	2402.99
198.065	2417.22
198.14	2464.91
198.215	2492.62
198.29	2504.53
198.365	2518.29
198.44	2530.71
198.515	2560.48
198.59	2574.67
198.665	2599.1
198.74	2601.96
198.815	2601.67
198.89	2621.48
198.965	2652.83
199.04	2652.73
199.115	2669.07
199.19	2713.08
199.265	2712.22
199.34	2720.04
199.415	2751.02
199.49	2775.31
199.565	2785.89
199.64	2809.66
199.715	2807.28
199.79	2812.67
199.865	2820.62
199.94	2818.05
200.015	2850.75
200.09	2851.04
200.165	2857.28
200.24	2864
200.315	2906.78
200.39	2922.99
200.464	2933.14
200.539	2932.38
200.614	2943.82
200.689	2965.55
200.764	2969.42
200.839	2988.95
200.914	2996.05
200.989	2986.42
201.063	2999.53
201.138	2982.43
201.213	2981.42
201.288	2961.93
201.363	2968.08
201.438	2967.17
201.512	2984.52
201.587	2965.63
201.662	2971.59
201.737	2983.65
201.812	2991.62
201.886	2957.79
201.961	2966.42
202.036	2953.22
202.111	2952.08
202.186	2926.5
202.26	2914.96
202.335	2894.79
202.41	2885.6
202.485	2868.06
202.559	2847.67
202.634	2820.45
202.709	2828.22
202.784	2809.82
202.858	2812.35
202.933	2791.28
203.008	2785.95
203.082	2763.56
203.157	2762.51
203.232	2720.79
203.306	2698.24
203.381	2667.46
203.456	2646.83
203.53	2623.42
203.605	2604.52
203.68	2578.84
203.754	2571.84
203.829	2553.93
203.904	2531.88
203.978	2524.31
204.053	2526.64
204.127	2512.69
204.202	2512.26
204.277	2495.88
204.351	2488.69
204.426	2478.55
204.5	2471.83
204.575	2434.8
204.65	2448.23
204.724	2438.27
204.799	2447.55
204.873	2444.07
204.948	2442.46
205.022	2429.99
205.097	2423.74
205.171	2434.36
205.246	2445.74
205.32	2446.17
205.395	2443.03
205.469	2435.23
205.544	2440.89
205.618	2423.33
205.693	2437.18
205.767	2422.42
205.842	2445.33
205.916	2439.43
205.991	2431.29
206.065	2436.38
206.14	2453.84
206.214	2449.13
206.289	2443.46
206.363	2454.41
206.438	2458.89
206.512	2466.17
206.586	2485.26
206.661	2493.84
206.735	2473.23
206.81	2473.57
206.884	2487.27
206.958	2478.23
207.033	2496.46
207.107	2502.56
207.181	2539.19
207.256	2534.14
207.33	2556.95
207.405	2570.77
207.479	2594.25
207.553	2604.87
207.628	2592.63
207.702	2608.3
207.776	2603.97
207.851	2612.73
207.925	2634.84
207.999	2639.94
208.073	2646.94
208.148	2657.09
208.222	2657.28
208.296	2699.32
208.371	2723.45
208.445	2747.61
208.519	2788.96
208.593	2815.55
208.668	2826.42
208.742	2844.59
208.816	2864.37
208.89	2897.89
208.965	2912.2
209.039	2938.24
209.113	2980.48
209.187	3025.32
209.261	3047.96
209.336	3099.85
209.41	3147.21
209.484	3180.57
209.558	3236.3
209.632	3287.26
209.707	3336.46
209.781	3393.06
209.855	3452.31
209.929	3518.01
210.003	3568.76
210.077	3620.67
210.151	3722.64
210.226	3812.72
210.3	3899.76
210.374	3985.27
210.448	4051.14
210.522	4128.16
210.596	4210.45
210.67	4289.31
210.744	4409.67
210.818	4517.26
210.892	4613.07
210.966	4694.45
211.041	4796.41
211.115	4877.55
211.189	4991.09
211.263	5101
211.337	5200.52
211.411	5307.56
211.485	5397.16
211.559	5513.6
211.633	5613.98
211.707	5685.6
211.781	5802.2
211.855	5877.86
211.929	5981.01
212.003	6078.23
212.077	6210.32
212.151	6340.75
212.225	6471.57
212.299	6582.34
212.373	6695.08
212.447	6821.09
212.52	6975.58
212.594	7107.68
212.668	7250.57
212.742	7364.1
212.816	7493.17
212.89	7624.35
212.964	7760.1
213.038	7904.24
213.112	8053.54
213.186	8210.42
213.26	8327.86
213.333	8425.1
213.407	8571.31
213.481	8712.08
213.555	8866.53
213.629	8996.95
213.703	9119.47
213.777	9257.75
213.85	9390.26
213.924	9573.07
213.998	9716.44
214.072	9856.37
214.146	9985.27
214.219	10124.38
214.293	10265.71
214.367	10406.91
214.441	10558.66
214.515	10695.12
214.588	10812.59
214.662	10919.85
214.736	11043.59
214.81	11192.72
214.883	11341.47
214.957	11463.29
215.031	11592.11
215.105	11706.95
215.178	11831.25
215.252	11969.63
215.326	12084.25
215.4	12187.97
215.473	12265.77
215.547	12376.06
215.621	12484.13
215.694	12613.95
215.768	12717.92
215.842	12834.38
215.915	12945.3
215.989	13037.57
216.063	13147.72
216.136	13271.37
216.21	13389.23
216.284	13516.35
216.357	13631.9
216.431	13736.17
216.504	13858.32
216.578	13996.38
216.652	14118.1
216.725	14221.45
216.799	14337.77
216.873	14443.05
216.946	14562.45
217.02	14666.33
217.093	14766.45
217.167	14856.69
217.24	14950.49
217.314	15053.41
217.387	15143.31
217.461	15240.19
217.535	15363.3
217.608	15449.25
217.682	15540.35
217.755	15647.98
217.829	15732.23
217.902	15826.17
217.976	15928.31
218.049	16008.18
218.123	16077.34
218.196	16172.44
218.27	16255.87
218.343	16319.97
218.417	16408.27
218.49	16492.61
218.563	16585.44
218.637	16674.55
218.71	16772.54
218.784	16863.09
218.857	16948.35
218.931	17032.79
219.004	17123.06
219.077	17202.72
219.151	17284.84
219.224	17362.1
219.298	17434.24
219.371	17519.64
219.444	17584.99
219.518	17652.41
219.591	17725.37
219.665	17831.73
219.738	17900.4
219.811	17964.45
219.885	18047.58
219.958	18124.64
220.031	18189.36
220.105	18264.01
220.178	18339.96
220.251	18402.02
220.325	18466.65
220.398	18539.22
220.471	18610.01
220.544	18668.56
220.618	18733.24
220.691	18797.86
220.764	18862.72
220.838	18928.79
220.911	18974.62
220.984	19057.22
221.057	19121.31
221.131	19192.87
221.204	19220.05
221.277	19298.41
221.35	19390.88
221.424	19433.73
221.497	19486.16
221.57	19536.32
221.643	19587.79
221.716	19637.18
221.79	19684.51
221.863	19728.79
221.936	19766.77
222.009	19805.08
222.082	19853.41
222.155	19889.27
222.229	19956.3
222.302	20003.77
222.375	20038.81
222.448	20089.07
222.521	20128.15
222.594	20162.37
222.667	20181.69
222.74	20219.48
222.814	20251.04
222.887	20272.63
222.96	20323.72
223.033	20368.44
223.106	20422.7
223.179	20468.54
223.252	20502.37
223.325	20535.52
223.398	20558.75
223.471	20598.66
223.544	20633.31
223.617	20666.75
223.69	20690.08
223.763	20699.09
223.837	20728.25
223.91	20762.47
223.983	20776.73
224.056	20784.06
224.129	20812.64
224.202	20852.69
224.275	20875
224.348	20884.59
224.42	20898.37
224.493	20906.47
224.566	20923.34
224.639	20937.99
224.712	20949.7
224.785	20972.6
224.858	20990.62
224.931	21009.71
225.004	21009.95
225.077	21046.34
225.15	21036.99
225.223	21051.3
225.296	21087.93
225.369	21084.17
225.442	21090.78
225.514	21099.31
225.587	21121.81
225.66	21145.38
225.733	21164.81
225.806	21181.05
225.879	21188.86
225.952	21193
226.025	21219.08
226.097	21243.13
226.17	21252.19
226.243	21245.06
226.316	21247.56
226.389	21260.09
226.461	21277.35
226.534	21304.24
226.607	21301.25
226.68	21336.1
226.753	21348.2
226.825	21335.38
226.898	21368.15
226.971	21384.2
227.044	21413.6
227.117	21424.16
227.189	21435.58
227.262	21452.79
227.335	21473.85
227.407	21488.41
227.48	21503.78
227.553	21501.52
227.626	21500.6
227.698	21502.87
227.771	21520.7
227.844	21512.51
227.916	21523.16
227.989	21527.5
228.062	21528.61
228.134	21551.07
228.207	21548.56
228.28	21546.63
228.352	21554.1
228.425	21546.3
228.498	21556.18
228.57	21548.27
228.643	21562.49
228.716	21559.5
228.788	21551.4
228.861	21537.47
228.934	21546.25
229.006	21543.5
229.079	21545.43
229.151	21539.88
229.224	21528.7
229.296	21529.43
229.369	21569.96
229.442	21575.31
229.514	21547.94
229.587	21554.25
229.659	21524.61
229.732	21527.74
229.804	21543.7
229.877	21564.9
229.949	21565.97
230.022	21574.06
230.094	21566.93
230.167	21560.71
230.239	21545.38
230.312	21548.04
230.384	21568.09
230.457	21564.86
230.529	21566.93
230.602	21575.9
230.674	21571.99
230.747	21585.1
230.819	21592.52
230.892	21549.34
230.964	21540.47
231.037	21557.62
231.109	21557.24
231.181	21574.4
231.254	21563.99
231.326	21546.25
231.399	21526.68
231.471	21512.65
231.544	21487.59
231.616	21494.67
231.688	21486.82
231.761	21470.43
231.833	21452.55
231.905	21423.29
231.978	21421.07
232.05	21409.6
232.122	21390.37
232.195	21376.83
232.267	21380.3
232.339	21365.31
232.412	21365.4
232.484	21348.49
232.556	21329.45
232.629	21331.42
232.701	21318.51
232.773	21303.32
232.846	21291.61
232.918	21275.37
232.99	21268.48
233.062	21260.77
233.135	21239.46
233.207	21206.21
233.279	21206.45
233.351	21196.37
233.424	21171.55
233.496	21140.56
233.568	21147.02
233.64	21122.83
233.713	21101.48
233.785	21077.91
233.857	21056.56
233.929	21022.14
234.001	21019.01
234.074	21008.6
234.146	20970.72
234.218	20954.28
234.29	20934.19
234.362	20900.5
234.434	20867.77
234.507	20850.37
234.579	20812.3
234.651	20786.95
234.723	20779.77
234.795	20760.54
234.867	20732.44
234.939	20738.27
235.012	20713.7
235.084	20685.21
235.156	20672.44
235.228	20655.19
235.3	20625.64
235.372	20603.91
235.444	20599.57
235.516	20564.49
235.588	20550.12
235.66	20529.64
235.732	20490.03
235.804	20522.32
235.876	20525.5
235.948	20526.66
236.02	20488.63
236.092	20459.57
236.164	20447.52
236.236	20416.58
236.308	20384.59
236.38	20371.91
236.452	20335.33
236.524	20310.37
236.596	20297.69
236.668	20274.42
236.74	20248.97
236.812	20229.55
236.884	20205.5
236.956	20179.96
237.028	20138.76
237.1	20099.58
237.172	20083.1
237.244	20079.77
237.316	20016.69
237.388	19978.52
237.46	19935.77
237.532	19934.33
237.604	19905.17
237.675	19889.75
237.747	19872.55
237.819	19840.93
237.891	19802.24
237.963	19756.84
238.035	19726.1
238.107	19659.16
238.178	19637.67
238.25	19601.57
238.322	19586.2
238.394	19547.55
238.466	19510.49
238.538	19495.46
238.609	19467.12
238.681	19419.22
238.753	19372.43
238.825	19341.3
238.897	19305.59
238.968	19292.43
239.04	19246.41
239.112	19241.64
239.184	19196.05
239.255	19165.6
239.327	19137.45
239.399	19118.08
239.471	19095.72
239.542	19068.54
239.614	19050.66
239.686	19004.4
239.758	18987.39
239.829	18948.69
239.901	18927.49
239.973	18894.72
240.044	18867.4
240.116	18848.12
240.188	18814.77
240.259	18790.34
240.331	18749.72
240.403	18727.41
240.474	18670.35
240.546	18623.56
240.618	18576.14
240.689	18544.53
240.761	18513.64
240.833	18503.08
240.904	18459.42
240.976	18430.36
241.048	18397.3
241.119	18379.38
241.191	18351.28
241.262	18333.16
241.334	18293.98
241.405	18253.12
241.477	18216.2
241.549	18167.34
241.62	18130.04
241.692	18099.39
241.763	18073.66
241.835	18037.66
241.906	18006.48
241.978	17961.42
242.049	17950.67
242.121	17928.41
242.192	17895.49
242.264	17846.77
242.335	17788.65
242.407	17768.12
242.478	17726.82
242.55	17700.12
242.621	17656.08
242.693	17611.5
242.764	17563.74
242.836	17530.15
242.907	17500.66
242.979	17479.55
243.05	17454.15
243.122	17427.5
243.193	17398.06
243.264	17337.43
243.336	17308.75
243.407	17280.75
243.479	17271.36
243.55	17237.86
243.622	17211.02
243.693	17185.77
243.764	17170.01
243.836	17134.2
243.907	17089.47
243.978	17052.65
244.05	17022.96
244.121	16974.96
244.192	16956.17
244.264	16908.74
244.335	16867.54
244.407	16827.87
244.478	16792.11
244.549	16760.88
244.62	16714.81
244.692	16674.42
244.763	16650.99
244.834	16605.5
244.906	16558.6
244.977	16525.78
245.048	16500.86
245.119	16455.94
245.191	16409
245.262	16349.62
245.333	16328.42
245.405	16296.99
245.476	16274.14
245.547	16243.01
245.618	16220.74
245.689	16194.47
245.761	16171.1
245.832	16142.13
245.903	16113.5
245.974	16081.3
246.045	16042.84
246.117	16025.25
246.188	15980.13
246.259	15943.74
246.33	15913.86
246.401	15884.75
246.473	15839.3
246.544	15803.2
246.615	15782.76
246.686	15743.67
246.757	15731.09
246.828	15685.63
246.899	15669.87
246.97	15625.24
247.042	15580.7
247.113	15554.09
247.184	15530.19
247.255	15485.22
247.326	15456.39
247.397	15423.42
247.468	15389.58
247.539	15361.05
247.61	15307.5
247.681	15295.06
247.752	15275.06
247.823	15231.96
247.894	15196.77
247.965	15149.97
248.037	15112.9
248.108	15064.12
248.179	15036.02
248.25	15000.88
248.321	14985.41
248.392	14947.08
248.463	14939.85
248.534	14914.02
248.605	14893.96
248.675	14862.59
248.746	14844.22
248.817	14819.73
248.888	14792.01
248.959	14753.31
249.03	14735.71
249.101	14712.04
249.172	14672.08
249.243	14621.27
249.314	14617.47
249.385	14594.95
249.456	14582.66
249.527	14555.57
249.598	14533.93
249.669	14508.62
249.739	14485.34
249.81	14457.38
249.881	14410.04
249.952	14382.42
250.023	14351.42
250.094	14300.32
250.165	14264.7
250.235	14237.99
250.306	14209.02
250.377	14174.27
250.448	14151.18
250.519	14100.27
250.59	14087.35
250.66	14065.76
250.731	14056.6
250.802	14023.57
250.873	14005.21
250.944	13981.64
251.014	13943.31
251.085	13944.08
251.156	13923.4
251.227	13908.65
251.297	13900.7
251.368	13892.5
251.439	13868.59
251.51	13860.25
251.58	13831.86
251.651	13791.99
251.722	13770.78
251.792	13725.61
251.863	13695.77
251.934	13687.96
252.005	13690.71
252.075	13665.74
252.146	13653.21
252.217	13636.91
252.287	13619.56
252.358	13582.97
252.429	13578.15
252.499	13557.18
252.57	13534.95
252.641	13524.49
252.711	13498.75
252.782	13452.23
252.852	13445.48
252.923	13428.61
252.994	13407.26
253.064	13396.7
253.135	13369.46
253.205	13345.55
253.276	13341.36
253.347	13338.22
253.417	13306.6
253.488	13271.99
253.558	13241.38
253.629	13212.69
253.699	13195.19
253.77	13182.13
253.841	13163.33
253.911	13141.54
253.982	13117.34
254.052	13098.73
254.123	13069.18
254.193	13049.61
254.264	13072.99
254.334	13038.81
254.405	13004.06
254.475	12968.77
254.546	12939.17
254.616	12932.23
254.687	12914.1
254.757	12896.8
254.827	12877.81
254.898	12869.32
254.968	12852.45
255.039	12833.36
255.109	12824.97
255.18	12794.36
255.25	12752.52
255.321	12743.36
255.391	12711.4
255.461	12715.06
255.532	12663.97
255.602	12632.83
255.673	12590.5
255.743	12554.78
255.813	12507.69
255.884	12497.03
255.954	12483.54
256.024	12481.8
256.095	12458.04
256.165	12424.15
256.235	12410.94
256.306	12379.13
256.376	12358.01
256.446	12347.79
256.517	12321.28
256.587	12305.18
256.657	12287.35
256.728	12266.33
256.798	12244.25
256.868	12214.13
256.938	12182.36
257.009	12172.24
257.079	12173.44
257.149	12179.18
257.219	12137.82
257.29	12123.94
257.36	12079.35
257.43	12070.92
257.5	12033.42
257.571	12011.2
257.641	12003.87
257.711	11970.9
257.781	11959.38
257.852	11939.62
257.922	11898.26
257.992	11881.68
258.062	11858.5
258.132	11852.52
258.202	11829.82
258.273	11805.91
258.343	11803.35
258.413	11769.86
258.483	11750.53
258.553	11717.8
258.623	11689.75
258.693	11673.46
258.764	11677.89
258.834	11673.94
258.904	11651.77
258.974	11625.21
259.044	11610.08
259.114	11592.39
259.184	11575.42
259.254	11554.31
259.324	11520.33
259.394	11511.66
259.464	11513.88
259.535	11492.81
259.605	11465.53
259.675	11440.09
259.745	11430.5
259.815	11402.69
259.885	11387.26
259.955	11403.46
260.025	11375.85
260.095	11360.42
260.165	11348.76
260.235	11339.17
260.305	11318.97
260.375	11293.72
260.445	11306.25
260.515	11305.29
260.585	11302.2
260.655	11290.3
260.725	11278.44
260.795	11273.67
260.865	11275.6
260.934	11245.43
261.004	11230.44
261.074	11210.25
261.144	11213.96
261.214	11211.41
261.284	11195.07
261.354	11184.76
261.424	11149.38
261.494	11152.17
261.564	11132.27
261.634	11123.16
261.703	11089.52
261.773	11077.19
261.843	11065.91
261.913	11041.24
261.983	11005.19
262.053	10987.65
262.123	10969.24
262.192	10949.73
262.262	10942.11
262.332	10909
262.402	10901.58
262.472	10887.51
262.541	10849.35
262.611	10839.43
262.681	10805.55
262.751	10793.4
262.821	10775.77
262.89	10744.74
262.96	10733.6
263.03	10740.3
263.1	10726.18
263.169	10712.4
263.239	10707.01
263.309	10712.5
263.379	10706.48
263.448	10696.45
263.518	10687.39
263.588	10671.83
263.657	10671.4
263.727	10657.47
263.797	10639.64
263.867	10627.84
263.936	10602.64
264.006	10606.11
264.076	10587.51
264.145	10574.12
264.215	10556.05
264.285	10555.9
264.354	10528.92
264.424	10508.69
264.494	10471.39
264.563	10451.16
264.633	10453.32
264.702	10441.66
264.772	10403.41
264.842	10377.29
264.911	10365.39
264.981	10330.32
265.05	10315.19
265.12	10293.46
265.19	10279.34
265.259	10275.06
265.329	10262.29
265.398	10254.39
265.468	10262.14
265.537	10245.81
265.607	10236.27
265.676	10236.37
265.746	10226.16
265.815	10220.28
265.885	10198.41
265.955	10176.59
266.024	10164.11
266.094	10130.1
266.163	10129.71
266.232	10135.5
266.302	10125.96
266.371	10117.48
266.441	10110.01
266.51	10108.23
266.58	10089.64
266.649	10075.23
266.719	10071.47
266.788	10056.97
266.858	10051.48
266.927	10019.59
266.996	10002.93
267.066	9997.24
267.135	9972.1
267.205	9966.99
267.274	9958.61
267.343	9962.85
267.413	9952.49
267.482	9948.01
267.552	9953.02
267.621	9919.21
267.69	9885.2
267.76	9878.02
267.829	9869.11
267.898	9857.94
267.968	9832.55
268.037	9834.38
268.106	9827.83
268.176	9802.98
268.245	9793.63
268.314	9777.35
268.384	9770.42
268.453	9764.3
268.522	9750.19
268.592	9745.71
268.661	9720.9
268.73	9718.01
268.799	9697.11
268.869	9706.46
268.938	9679.77
269.007	9655.55
269.076	9641.73
269.146	9638.5
269.215	9624.92
269.284	9627.71
269.353	9608.83
269.422	9599.73
269.492	9572.38
269.561	9534.53
269.63	9531.3
269.699	9513.1
269.768	9506.64
269.838	9501.63
269.907	9497.01
269.976	9472.64
270.045	9437.83
270.114	9435.86
270.183	9421.75
270.253	9413.46
270.322	9379.51
270.391	9364.54
270.46	9372.97
270.529	9373.69
270.598	9369.21
270.667	9351.68
270.736	9326.98
270.806	9325.68
270.875	9321.68
270.944	9316.29
271.013	9331.31
271.082	9325.87
271.151	9320.81
271.22	9296.59
271.289	9286.96
271.358	9272.28
271.427	9262.99
271.496	9267.37
271.565	9246.81
271.634	9235.68
271.703	9259.04
271.772	9261.01
271.841	9257.6
271.91	9228.03
271.979	9223.12
272.048	9201.31
272.117	9205.21
272.186	9190.86
272.255	9186.96
272.324	9182.72
272.393	9174.2
272.462	9159.9
272.531	9151.04
272.6	9138.57
272.669	9136.65
272.738	9123.74
272.807	9127.74
272.876	9106.9
272.945	9127.02
273.013	9134.44
273.082	9135.21
273.151	9090.62
273.22	9091.1
273.289	9073.34
273.358	9085.47
273.427	9074.49
273.496	9079.02
273.564	9075.79
273.633	9075.07
273.702	9058.17
273.771	9055.52
273.84	9048.06
273.909	9045.37
273.977	9036.41
274.046	9028.18
274.115	9035.98
274.184	9020.58
274.253	9004.78
274.322	9015.37
274.39	8985.14
274.459	8963.96
274.528	8943.54
274.597	8936.57
274.665	8929.1
274.734	8947.59
274.803	8935.07
274.872	8925.64
274.94	8912.11
275.009	8945.67
275.078	8933.06
275.147	8923.19
275.215	8910.2
275.284	8923.63
275.353	8915.3
275.421	8897.2
275.49	8910.39
275.559	8894.31
275.627	8887.91
275.696	8879.39
275.765	8885.94
275.833	8876.02
275.902	8875.21
275.971	8881.9
276.039	8898.12
276.108	8896.39
276.177	8890.9
276.245	8880.55
276.314	8874.92
276.383	8876.65
276.451	8829.03
276.52	8829.85
276.588	8849.82
276.657	8852.61
276.725	8834.32
276.794	8835.72
276.863	8839.66
276.931	8816.9
277	8831.72
277.068	8842.17
277.137	8860.89
277.205	8851.99
277.274	8864.93
277.342	8872.01
277.411	8849.77
277.48	8832.01
277.548	8827.01
277.617	8824.41
277.685	8820.36
277.754	8823.2
277.822	8812.61
277.89	8827.06
277.959	8822.72
278.027	8800.15
278.096	8795.14
278.164	8826.24
278.233	8815.7
278.301	8812.72
278.37	8816.33
278.438	8795.53
278.507	8791.92
278.575	8766.27
278.643	8764.1
278.712	8743.5
278.78	8732.96
278.849	8747.88
278.917	8759.09
278.985	8754.71
279.054	8752.31
279.122	8761.84
279.191	8756.35
279.259	8750.67
279.327	8733.97
279.396	8746.87
279.464	8745.66
279.532	8748.12
279.601	8736.03
279.669	8731.17
279.737	8738.87
279.806	8745.9
279.874	8759.76
279.942	8763.47
280.011	8757.21
280.079	8760.78
280.147	8775.98
280.215	8781.52
280.284	8770.59
280.352	8754.23
280.42	8755.38
280.488	8752.79
280.557	8744.31
280.625	8752.69
280.693	8754.76
280.761	8751.2
280.83	8732.47
280.898	8743.16
280.966	8719.82
281.034	8693.68
281.102	8677.66
281.171	8671.01
281.239	8675.63
281.307	8661.92
281.375	8650.27
281.443	8676.55
281.512	8673.95
281.58	8682.81
281.648	8665.62
281.716	8668.18
281.784	8670.73
281.852	8666.59
281.92	8660.57
281.989	8667.26
282.057	8645.46
282.125	8694.08
282.193	8690.18
282.261	8692.74
282.329	8682.48
282.397	8690.13
282.465	8691.29
282.533	8710.63
282.601	8700.24
282.67	8679.06
282.738	8670.69
282.806	8678.77
282.874	8661.4
282.942	8661.01
283.01	8655.09
283.078	8662.6
283.146	8660.24
283.214	8669.77
283.282	8672.32
283.35	8683.25
283.418	8683.29
283.486	8691.81
283.554	8647.04
283.622	8650.89
283.69	8649.2
283.758	8648.48
283.826	8653.29
283.894	8661
283.962	8675.34
284.03	8694.01
284.098	8693.77
284.165	8691.03
284.233	8694.21
284.301	8686.36
284.369	8680.88
284.437	8669.52
284.505	8662.11
284.573	8673.08
284.641	8654.12
284.709	8660.23
284.777	8641.8
284.845	8639.44
284.912	8644.92
284.98	8646.9
285.048	8636.12
285.116	8642.32
285.184	8656.09
285.252	8657.97
285.319	8645.69
285.387	8635.83
285.455	8619.51
285.523	8625.38
285.591	8625.48
285.659	8620.42
285.726	8634.72
285.794	8615.23
285.862	8617.35
285.93	8617.83
285.997	8614.89
286.065	8617.44
286.133	8609.74
286.201	8613.4
286.269	8607.05
286.336	8595.83
286.404	8591.84
286.472	8605.07
286.539	8579.71
286.607	8561.43
286.675	8560.51
286.743	8563.54
286.81	8558.97
286.878	8567.68
286.946	8557.72
287.013	8555.12
287.081	8554.83
287.149	8542.32
287.216	8563.97
287.284	8556.76
287.352	8560.8
287.419	8554.78
287.487	8566.91
287.555	8570.81
287.622	8562.72
287.69	8570.47
287.758	8584
287.825	8579.09
287.893	8568.02
287.96	8577.88
288.028	8590.35
288.096	8595.35
288.163	8601.42
288.231	8590.92
288.298	8593.52
288.366	8612.39
288.433	8612.68
288.501	8603.58
288.569	8608.06
288.636	8606.81
288.704	8623.51
288.771	8626.11
288.839	8620.19
288.906	8614.46
288.974	8621.87
289.041	8616
289.109	8605.13
289.176	8608.06
289.244	8610.23
289.311	8622.45
289.379	8635.3
289.446	8637.23
289.514	8637.95
289.581	8638.57
289.649	8642.04
289.716	8636.84
289.783	8624.28
289.851	8644.3
289.918	8650.51
289.986	8655.32
290.053	8655.66
290.121	8654.12
290.188	8660.66
290.255	8688.87
290.323	8687.18
290.39	8682.18
290.458	8690.26
290.525	8700.27
290.592	8698.15
290.66	8703.59
290.727	8698.05
290.794	8707.87
290.862	8707.87
290.929	8710.86
290.996	8711.87
291.064	8719.91
291.131	8739.45
291.198	8756.68
291.266	8755.77
291.333	8748.26
291.4	8755.62
291.468	8777.57
291.535	8768.62
291.602	8767.51
291.669	8759.33
291.737	8763.47
291.804	8763.04
291.871	8784.94
291.938	8791.05
292.006	8817.72
292.073	8828.65
292.14	8837.79
292.207	8829.71
292.275	8830.19
292.342	8835.39
292.409	8857.38
292.476	8886.22
292.543	8871.88
292.611	8871.92
292.678	8886.51
292.745	8920.35
292.812	8930.94
292.879	8923.76
292.946	8938.64
293.014	8957.6
293.081	8966.94
293.148	8980.76
293.215	8999.48
293.282	8990.34
293.349	9001.94
293.416	8983.26
293.484	8998.23
293.551	9005.84
293.618	9024.66
293.685	9047.77
293.752	9042.86
293.819	9045.46
293.886	9029.09
293.953	9037.9
294.02	9048.78
294.087	9057.44
294.154	9048.54
294.221	9067.8
294.288	9065.44
294.356	9075.02
294.423	9075.98
294.49	9067.61
294.557	9075.94
294.624	9064.62
294.691	9088.5
294.758	9088.93
294.825	9102.61
294.892	9091.29
294.959	9093.27
295.026	9104.39
295.093	9099.57
295.16	9100.68
295.226	9097.74
295.293	9123.84
295.36	9128.27
295.427	9134.62
295.494	9142.62
295.561	9151.67
295.628	9168.28
295.695	9184.6
295.762	9186.82
295.829	9190.24
295.896	9211.37
295.963	9218.98
296.03	9228.27
296.096	9229.91
296.163	9241.32
296.23	9252.59
296.297	9266.6
296.364	9271.27
296.431	9273.48
296.498	9270.5
296.564	9290.19
296.631	9295.44
296.698	9275.6
296.765	9298.47
296.832	9290.72
296.899	9274.64
296.965	9290.72
297.032	9265.68
297.099	9288.26
297.166	9301.84
297.233	9306.61
297.299	9297.89
297.366	9297.75
297.433	9298.42
297.5	9311.95
297.566	9305.93
297.633	9303.53
297.7	9305.55
297.767	9304.15
297.833	9304.3
297.9	9306.8
297.967	9293.66
298.033	9303.53
298.1	9340.32
298.167	9328.23
298.234	9329.73
298.3	9338.44
298.367	9334.78
298.434	9347.93
298.5	9334.44
298.567	9327.8
298.634	9327.89
298.7	9346.34
298.767	9350.09
298.834	9370.75
298.9	9363.48
298.967	9366.46
299.033	9377.78
299.1	9395.36
299.167	9408.98
299.233	9409.71
299.3	9425.31
299.366	9442.5
299.433	9457.81
299.5	9431.42
299.566	9436.48
299.633	9460.7
299.699	9477.5
299.766	9478.18
299.832	9476.4
299.899	9490.07
299.965	9509.67
300.032	9501.58
300.099	9506.88
300.165	9515.98
300.232	9512.85
300.298	9515.98
300.365	9530.67
300.431	9531.15
300.498	9519.59
300.564	9523.25
300.631	9537.61
300.697	9554.51
300.763	9558.12
300.83	9553.5
300.896	9567.42
300.963	9581.57
301.029	9583.26
301.096	9578.49
301.162	9591.88
301.229	9589.47
301.295	9571.36
301.361	9560.53
301.428	9571.07
301.494	9556.92
301.561	9558.75
301.627	9553.98
301.693	9555.71
301.76	9550.41
301.826	9540.93
301.892	9556.63
301.959	9570.5
302.025	9564.53
302.092	9553.88
302.158	9558.07
302.224	9561.92
302.291	9551.67
302.357	9543.58
302.423	9534.57
302.49	9531.63
302.556	9540.11
302.622	9543.87
302.688	9557.64
302.755	9576.52
302.821	9580.8
302.887	9596.45
302.954	9588.27
303.02	9598.62
303.086	9602.57
303.152	9604.59
303.219	9605.12
303.285	9606.09
303.351	9603.68
303.417	9601.32
303.483	9594.72
303.55	9592.36
303.616	9593.42
303.682	9593.9
303.748	9589.47
303.815	9608.3
303.881	9618.32
303.947	9600.4
304.013	9603.25
304.079	9597.61
304.145	9579.07
304.212	9577.67
304.278	9566.84
304.344	9567.7
304.41	9554.7
304.476	9544.97
304.542	9541.7
304.608	9544.44
304.674	9527.4
304.741	9526
304.807	9531.01
304.873	9531.15
304.939	9545.79
305.005	9525.57
305.071	9522.34
305.137	9527.4
305.203	9497.97
305.269	9493.59
305.335	9506.06
305.401	9500.28
305.467	9494.31
305.533	9498.55
305.599	9511.5
305.666	9514.54
305.732	9517.62
305.798	9533.56
305.864	9559.81
305.93	9561.97
305.996	9561.16
306.062	9561.93
306.128	9558.02
306.194	9547.57
306.259	9547.48
306.325	9536.83
306.391	9546.75
306.457	9557.69
306.523	9557.49
306.589	9584.37
306.655	9573.77
306.721	9551.76
306.787	9538.47
306.853	9557.02
306.919	9543.29
306.985	9529.42
307.051	9524.37
307.117	9513.82
307.183	9506.79
307.248	9477.31
307.314	9484.83
307.38	9483.33
307.446	9493.88
307.512	9477.65
307.578	9481.94
307.644	9472.69
307.709	9471.78
307.775	9471.58
307.841	9463.93
307.907	9464.6
307.973	9440.91
308.039	9443.17
308.104	9450.01
308.17	9453.09
308.236	9432.67
308.302	9431.85
308.368	9418.75
308.433	9418.8
308.499	9417.69
308.565	9404.55
308.631	9409.03
308.696	9383.22
308.762	9372.62
308.828	9363.9
308.894	9355.14
308.959	9335.54
309.025	9335.35
309.091	9331.45
309.156	9316.91
309.222	9319.12
309.288	9303.91
309.354	9284.41
309.419	9283.64
309.485	9271.94
309.551	9275.02
309.616	9261.97
309.682	9267.7
309.748	9259.76
309.813	9252.15
309.879	9243.77
309.945	9233.66
310.01	9224.13
310.076	9231.35
310.141	9227.64
310.207	9208.91
310.273	9209.44
310.338	9210.4
310.404	9195
310.469	9183.25
310.535	9179.78
310.601	9153.44
310.666	9156.09
310.732	9169.28
310.797	9157.1
310.863	9144.15
310.928	9134.81
310.994	9138.9
311.059	9126
311.125	9129.95
311.191	9139.19
311.256	9124.8
311.322	9127.21
311.387	9110.26
311.453	9320.03
311.518	9300.15
311.584	9304.24
311.649	9304.34
311.715	9293.61
311.78	9290.38
311.846	9278.1
311.911	9277.62
311.976	9285.71
312.042	9271.17
312.107	9253.45
312.173	9243.25
312.238	9242.28
312.304	9239.97
312.369	9226.97
312.434	9220.19
312.5	9207.29
312.565	9173.01
312.631	9180.9
312.696	9172
312.761	9176.14
312.827	8947.63
312.892	8978.2
312.958	8973.87
313.023	8974.74
313.088	8975.17
313.154	8962.03
313.219	8955.68
313.284	8945.86
313.35	8939.98
313.415	8931.41
313.48	8928.96
313.546	8933.1
313.611	8935.89
313.676	8932.38
313.741	8924.34
313.807	8935.51
313.872	8935.27
313.937	8946.63
314.003	8957.03
314.068	8958.33
314.133	8961.55
314.198	8951.92
314.264	8933.29
314.329	8922.7
314.394	8915.57
314.459	8912.49
314.525	8934.83
314.59	8930.11
314.655	8919.62
314.72	8924.62
314.785	8924
314.851	8916.39
314.916	8896.61
314.981	8885.2
315.046	8866.96
315.111	8855.51
315.176	8838.17
315.242	8842.94
315.307	8838.66
315.372	8814.3
315.437	8800.19
315.502	8789.99
315.567	8808.04
315.632	8787.1
315.698	8786
315.763	8783.01
315.828	8776.95
315.893	8765.34
315.958	8759.04
316.023	8751
316.088	8730.55
316.153	8712.02
316.218	8704.03
316.283	8683.68
316.348	8664.57
316.413	8663.27
316.479	8650.57
316.544	8615.58
316.609	8583.68
316.674	8546.58
316.739	8516.31
316.804	8488.74
316.869	8454.43
316.934	8410.97
316.999	8386.39
317.064	8335.44
317.129	8291.07
317.194	8255.8
317.259	8211.39
317.324	8164.64
317.389	8117.78
317.454	8078
317.518	8040.1
317.583	8011.13
317.648	7992.42
317.713	7956.16
317.778	7896.81
317.843	7864.58
317.908	7831.16
317.973	7791.73
318.038	7765.47
318.103	7730.51
318.168	7696.95
318.233	7663.1
318.297	7611.07
318.362	7577.8
318.427	7543.58
318.492	7515.88
318.557	7463.68
318.622	7439.44
318.687	7415.07
318.751	7378.45
318.816	7347.64
318.881	7320.24
318.946	7269.06
319.011	7223.16
319.075	7186.35
319.14	7152.14
319.205	7112.49
319.27	7077.66
319.335	7038.89
319.399	6994.92
319.464	6962.16
319.529	6915.46
319.594	6877.37
319.658	6849.75
319.723	6805.22
319.788	6772.56
319.853	6720.15
319.917	6690.24
319.982	6635.53
320.047	6596.2
320.112	6568.01
320.176	6516.01
320.241	6482.2
320.306	6449.03
320.37	6407.27
320.435	6373.32
320.5	6344.62
320.564	6303.34
320.629	6262.4
320.694	6229.14
320.758	6188.5
320.823	6145.35
320.888	6115.89
320.952	6068.44
321.017	6026.7
321.082	5984.77
321.146	5953.68
321.211	5915.06
321.275	5876.22
321.34	5831.42
321.405	5789.79
321.469	5743.51
321.534	5702.04
321.598	5644.6
321.663	5617.11
321.727	5586.38
321.792	5536.33
321.857	5494.67
321.921	5459.1
321.986	5415.59
322.05	5356.46
322.115	5322.33
322.179	5280.17
322.244	5222.34
322.308	5188.85
322.373	5141.38
322.437	5103.44
322.502	5074.49
322.566	5031.2
322.631	4994.7
322.695	4951.99
322.76	4902.92
322.824	4867.67
322.889	4825.93
322.953	4781.05
323.018	4715.41
323.082	4649.56
323.146	4599.66
323.211	4548.74
323.275	4503.85
323.34	4456.25
323.404	4424.93
323.468	4376.17
323.533	4330.69
323.597	4288.05
323.662	4236.59
323.726	4204.4
323.79	4152.71
323.855	4090.43
323.919	4044.11
323.983	4000.84
324.048	3937.17
324.112	4091.77
324.177	3962.65
324.241	3758.09
324.305	3561.31
324.37	3362.82
324.434	3176.61
324.498	3137.34
324.562	3085.96
324.627	3025.42
324.691	2974.28
324.755	2909.17
324.82	2836.7
324.884	2763.35
324.948	2693.61
325.012	2602.8
325.077	2480.79
