Data from 24HourExp_27052025_FLMS018081_19-08-19-398.txt Node
Date: Tue May 27 19:08:19 BST 2025
User: adleo
Spectrometer: FLMS01808
Trigger mode: 0
Integration Time (sec): 4.000000E-1
Scans to average: 10
Electric dark correction enabled: true
Nonlinearity correction enabled: true
Boxcar width: 10
XAxis mode: Wavelengths
Number of Pixels in Spectrum: 2048
>>>>>Begin Spectral Data<<<<<
178.471	-120.04
178.857	-113.43
179.244	-108.43
179.631	-99.24
180.017	-93.36
180.404	-84.26
180.79	-72.78
181.176	-63.56
181.563	-55.96
181.949	-45.51
182.335	-35.95
182.722	-21.05
183.108	-2.08
183.494	22.91
183.88	76.69
184.266	129.89
184.653	188.52
185.039	243.48
185.425	299.61
185.811	352.96
186.197	405.88
186.582	457.61
186.968	511.24
187.354	564.03
187.74	614.63
188.126	666.79
188.511	716.87
188.897	765.06
189.283	812.89
189.668	862.23
190.054	905.17
190.439	953.35
190.825	997.3
191.21	1038.04
191.596	1072.36
191.981	1080.23
192.366	1084.89
192.752	1085.47
193.137	1091.04
193.522	1091.49
193.908	1094.19
194.293	1096.79
194.678	1099.54
195.063	1099.95
195.448	1102.26
195.833	1102.56
196.218	1102.35
196.603	1102.68
196.988	1100.54
197.373	1101.65
197.757	1101.05
198.142	1101.99
198.527	1097.35
198.912	1097.33
199.296	1097.94
199.681	1097.19
200.066	1094.21
200.45	1092.25
200.835	1092.79
201.219	1091.2
201.604	1091.34
201.988	1092.99
202.372	1095.39
202.757	1095.78
203.141	1096.94
203.525	1096.92
203.91	1096.47
204.294	1099.17
204.678	1099.27
205.062	1099.74
205.446	1098.96
205.83	1099.15
206.214	1099.88
206.598	1100.99
206.982	1102.17
207.366	1101.32
207.75	1103.1
208.134	1105.97
208.517	1108.11
208.901	1106.61
209.285	1108.09
209.669	1108.72
210.052	1108.5
210.436	1106.91
210.819	1107.37
211.203	1106.35
211.586	1107.37
211.97	1109.08
212.353	1109.41
212.737	1110.44
213.12	1113.08
213.503	1114.39
213.886	1114.76
214.27	1118.15
214.653	1120.74
215.036	1121.33
215.419	1123.44
215.802	1125.84
216.185	1127.86
216.568	1132.06
216.951	1135.13
217.334	1136.96
217.717	1141.63
218.1	1144.38
218.482	1149.63
218.865	1152.79
219.248	1158.4
219.631	1162.46
220.013	1167.41
220.396	1172.75
220.778	1177.55
221.161	1182.15
221.544	1188.15
221.926	1197.43
222.308	1203.29
222.691	1209.84
223.073	1219.77
223.455	1228.92
223.838	1237.79
224.22	1247.14
224.602	1258.03
224.984	1269.91
225.366	1281.26
225.749	1295.53
226.131	1307.36
226.513	1319.25
226.895	1334.18
227.276	1346.91
227.658	1362.38
228.04	1377.59
228.422	1391.96
228.804	1409.37
229.186	1426.69
229.567	1445.36
229.949	1460.48
230.331	1479.5
230.712	1497.2
231.094	1515.53
231.475	1534.7
231.857	1555.27
232.238	1576.14
232.62	1593.87
233.001	1613.16
233.382	1634.07
233.763	1653.61
234.145	1675.99
234.526	1697.19
234.907	1717.54
235.288	1739.4
235.669	1758.49
236.05	1779.48
236.431	1798.58
236.812	1819.2
237.193	1840.8
237.574	1862.2
237.955	1885.91
238.336	1907.8
238.717	1933.52
239.097	1958.13
239.478	1979.08
239.859	2001.06
240.239	2026.54
240.62	2051.22
241.001	2075.82
241.381	2100.95
241.762	2122.69
242.142	2145.84
242.522	2169.91
242.903	2196.29
243.283	2222.27
243.663	2250.5
244.044	2281.54
244.424	2313.05
244.804	2342.39
245.184	2373.43
245.564	2403.5
245.944	2435.81
246.324	2467.04
246.704	2497.39
247.084	2527.44
247.464	2562.67
247.844	2595.51
248.224	2628.6
248.604	2661.92
248.983	2694.26
249.363	2729.36
249.743	2761.35
250.122	2793.86
250.502	2826.67
250.882	2858.91
251.261	2893.58
251.641	2927.42
252.02	2961.07
252.399	2997.7
252.779	3035.86
253.158	3073.13
253.537	3113.27
253.917	3157.08
254.296	3198.14
254.675	3240.5
255.054	3280.7
255.433	3323.67
255.812	3364.62
256.191	3405.13
256.57	3448.95
256.949	3495.42
257.328	3540.25
257.707	3588.28
258.086	3637.9
258.465	3687.16
258.843	3739.54
259.222	3791.96
259.601	3847.59
259.979	3903.8
260.358	3958.99
260.736	4013.42
261.115	4070.62
261.493	4125.87
261.872	4177.17
262.25	4235.45
262.629	4293.09
263.007	4357.81
263.385	4417.74
263.763	4482.82
264.142	4547.1
264.52	4614.76
264.898	4683.11
265.276	4749.35
265.654	4820.14
266.032	4891.76
266.41	4965.01
266.788	5040.24
267.166	5118.43
267.544	5193.67
267.921	5271.12
268.299	5351.65
268.677	5433.53
269.055	5518.05
269.432	5605.94
269.81	5692.56
270.188	5781.72
270.565	5871.84
270.943	5963.67
271.32	6057.26
271.697	6153.84
272.075	6250.22
272.452	6345.68
272.829	6444.8
273.207	6549.66
273.584	6658.02
273.961	6764.92
274.338	6878.07
274.715	6993.63
275.092	7111.62
275.469	7234.16
275.846	7357.39
276.223	7478.12
276.6	7600.68
276.977	7727.63
277.354	7855.67
277.731	7984.68
278.108	8116.85
278.484	8248.61
278.861	8380.3
279.238	8520.68
279.614	8661.73
279.991	8804.14
280.367	8950.48
280.744	9101.6
281.12	9252.78
281.497	9397.78
281.873	9553.72
282.249	9704.95
282.625	9854.15
283.002	10002.78
283.378	10155.54
283.754	10304.45
284.13	10462.55
284.506	10621.64
284.882	10779.2
285.258	10934.48
285.634	11090.02
286.01	11249.27
286.386	11410.47
286.762	11576.95
287.138	11739.56
287.513	11902.26
287.889	12069.49
288.265	12231.15
288.641	12391.6
289.016	12552.09
289.392	12719.03
289.767	12882.92
290.143	13051.31
290.518	13213.76
290.894	13382.82
291.269	13542.59
291.644	13705.86
292.02	13862.79
292.395	14018.8
292.77	14172.56
293.145	14329.52
293.52	14492.01
293.895	14644.54
294.27	14800.8
294.646	14954.28
295.02	15106.15
295.395	15259.9
295.77	15413.33
296.145	15569.5
296.52	15727.73
296.895	15878.99
297.269	16033.17
297.644	16188.98
298.019	16335.63
298.393	16488.64
298.768	16641.33
299.143	16798.68
299.517	16951.35
299.891	17109.81
300.266	17272.5
300.64	17433.34
301.015	17598.99
301.389	17769.4
301.763	17949.01
302.137	18124.5
302.512	18303.95
302.886	18483.14
303.26	18668.2
303.634	18849.65
304.008	19026.63
304.382	19213.53
304.756	19404.56
305.13	19597.12
305.504	19779.55
305.877	19975.56
306.251	20185.04
306.625	20389.38
306.999	20595.87
307.372	20811.63
307.746	21033.93
308.119	21248.3
308.493	21461.97
308.866	21673.63
309.24	21888.54
309.613	22094.09
309.987	22306.72
310.36	22506.36
310.733	22715.13
311.107	22934.76
311.48	23158.74
311.853	23394.79
312.226	23618.91
312.599	23855.13
312.972	24078.88
313.345	24311.77
313.718	24543.77
314.091	24766.58
314.464	24997.44
314.837	25226.95
315.21	25440.83
315.582	25655.75
315.955	25867.33
316.328	26089.84
316.7	26312.44
317.073	26537.31
317.446	26768.92
317.818	26997.81
318.191	27238.8
318.563	27467.89
318.936	27675.81
319.308	27884.85
319.68	28092.75
320.053	28290.62
320.425	28477.54
320.797	28662.45
321.169	28827.05
321.541	28975.29
321.913	29107.44
322.285	29225.06
322.657	29348.41
323.029	29501.39
323.401	29647.13
323.773	29819.62
324.145	29997.81
324.517	30186.82
324.889	30365.34
325.26	30563.08
325.632	30779.34
326.004	31012.45
326.375	31268.58
326.747	31543.63
327.118	31845.14
327.49	32132.01
327.861	32442.25
328.233	32748.29
328.604	33059.12
328.975	33376.9
329.346	33690.39
329.718	34005.48
330.089	34317.21
330.46	34621.13
330.831	34895.23
331.202	35155.62
331.573	35403.22
331.944	35633.52
332.315	35861.72
332.686	36080.12
333.057	36284.89
333.428	36469.08
333.799	36638.55
334.169	36795.21
334.54	36936.38
334.911	37058.63
335.281	37190.54
335.652	37317.16
336.022	37455.07
336.393	37608.08
336.763	37779.73
337.134	37971.14
337.504	38171.08
337.874	38375.22
338.245	38576.78
338.615	38797.78
338.985	39026.55
339.355	39252.1
339.726	39482.9
340.096	39712.3
340.466	39968.98
340.836	40210.82
341.206	40453.16
341.576	40707.13
341.945	40956.53
342.315	41200.38
342.685	41443.11
343.055	41701.16
343.425	41943.27
343.794	42176.6
344.164	42406.41
344.533	42640.79
344.903	42872.87
345.273	43114.35
345.642	43343.21
346.011	43580.71
346.381	43809.31
346.75	44051.06
347.12	44297.42
347.489	44547.14
347.858	44786.91
348.227	44997.83
348.596	45228.82
348.965	45469.75
349.334	45694.78
349.704	45938.39
350.072	46181.16
350.441	46421.99
350.81	46665.56
351.179	46894.57
351.548	47134.17
351.917	47361.97
352.285	47555.77
352.654	47760.03
353.023	47964.64
353.391	48168.57
353.76	48383.9
354.129	48585.71
354.497	48813.07
354.865	49029.25
355.234	49260.11
355.602	49476.82
355.971	49727.78
356.339	49938.31
356.707	50156.6
357.075	50375.33
357.443	50594.69
357.811	50807.38
358.18	51016.06
358.548	51217.48
358.916	51432.4
359.284	51650.68
359.651	51866.43
360.019	52082.67
360.387	52288.78
360.755	52490.73
361.123	52720.08
361.49	52943.71
361.858	53157.58
362.226	53354.13
362.593	53565.75
362.961	53743.08
363.328	53949.7
363.696	54117.62
364.063	54335.98
364.43	54546.7
364.798	54762.83
365.165	54944.2
365.532	55133.67
365.899	55322.35
366.267	55491.78
366.634	55639.7
367.001	55800.56
367.368	55935.22
367.735	56129.48
368.102	56306.4
368.469	56495.49
368.835	56675.13
369.202	56837.28
369.569	57025.47
369.936	57217.57
370.303	57402.08
370.669	57602.83
371.036	57769.36
371.402	57973.56
371.769	58163.28
372.135	58315.74
372.502	58440.02
372.868	58586.48
373.235	58727.42
373.601	58859.84
373.967	59036.62
374.333	59230.25
374.7	59424.18
375.066	59637.17
375.432	59817.22
375.798	60001.84
376.164	60172.65
376.53	60320.34
376.896	60495.46
377.262	60675.85
377.628	60803.94
377.993	60951.54
378.359	61098.96
378.725	61262.49
379.091	61412.26
379.456	61541.85
379.822	61676.14
380.187	61838.12
380.553	62029.07
380.918	62233.63
381.284	62426.34
381.649	62592.45
382.015	62728.71
382.38	62847.89
382.745	63010.1
383.11	63168.21
383.476	63318.49
383.841	63452.39
384.206	63612.69
384.571	63735.66
384.936	63865.92
385.301	64041.56
385.666	64177.56
386.031	64333.26
386.396	64497.02
386.76	64648.04
387.125	64845.33
387.49	65048.41
387.855	65238.57
388.219	65406.96
388.584	65583.18
388.948	65770.87
389.313	65941.88
389.677	66154.88
390.042	66392.44
390.406	66552.35
390.771	66744.25
391.135	66922.62
391.499	67161.53
391.863	67398.52
392.227	67642.28
392.592	67851.82
392.956	68050.72
393.32	68253.78
393.684	68478.22
394.048	68654.74
394.412	68838.45
394.775	68985.66
395.139	69135.58
395.503	69290.67
395.867	69447.17
396.231	69590.03
396.594	69693.2
396.958	69832.91
397.321	69998.76
397.685	70123.93
398.048	70271.17
398.412	70403.01
398.775	70540.18
399.139	70664.43
399.502	70781.95
399.865	70925.91
400.228	71120.26
400.592	71257.73
400.955	71454.73
401.318	71589.48
401.681	71745.38
402.044	71891.9
402.407	72053.58
402.77	72212.62
403.133	72416.87
403.496	72560.7
403.859	72708.27
404.221	72952.73
404.584	73193.62
404.947	73437.31
405.309	73660.36
405.672	73906.37
406.034	74132.42
406.397	74396.1
406.759	74624.78
407.122	74810.01
407.484	74984.46
407.847	75169.45
408.209	75423.2
408.571	75647.22
408.933	75902.46
409.296	76170.17
409.658	76426.45
410.02	76689.45
410.382	76978.68
410.744	77210.15
411.106	77477.5
411.468	77737.79
411.83	77944.92
412.191	78116.77
412.553	78255.14
412.915	78419.13
413.277	78579.66
413.638	78734.33
414	78861.89
414.361	78991.69
414.723	79163.42
415.084	79325.66
415.446	79441.86
415.807	79527.96
416.169	79592.19
416.53	79636.66
416.891	79682.61
417.252	79740.51
417.614	79771.82
417.975	79785.44
418.336	79804.25
418.697	79825.67
419.058	79842.34
419.419	79855.97
419.78	79869.97
420.141	79878.33
420.501	79887.48
420.862	79893.12
421.223	79899.24
421.584	79915.23
421.944	79923.27
422.305	79930.1
422.666	79934.12
423.026	79934.34
423.387	79941.35
423.747	79944.71
424.107	79950.39
424.468	79955.41
424.828	79960.21
425.188	79963.5
425.549	79968.19
425.909	79971.92
426.269	79970.78
426.629	79973.99
426.989	79974.99
427.349	79977.98
427.709	79981.31
428.069	79981.9
428.429	79986.03
428.789	79988.95
429.149	79993.42
429.508	79995.94
429.868	79998.49
430.228	80000.67
430.587	80003.73
430.947	80007.21
431.306	80011.31
431.666	80012.12
432.025	80014.41
432.385	80015
432.744	80017.85
433.103	80017.89
433.463	80017.93
433.822	80019.88
434.181	80020.48
434.54	80022.62
434.899	80024.32
435.258	80025.95
435.618	80028.72
435.976	80031.79
436.335	80032.19
436.694	80031.2
437.053	80032.49
437.412	80032.93
437.771	80034.04
438.129	80034.86
438.488	80036.82
438.847	80037.45
439.205	80037.96
439.564	80038.67
439.922	80041.03
440.281	80041.59
440.639	80042.44
440.997	80043.44
441.356	80045.91
441.714	80048.21
442.072	80048.84
442.431	80048.13
442.789	80050.02
443.147	80049.28
443.505	80048.65
443.863	80050.91
444.221	80051.46
444.579	80050.72
444.937	80051.02
445.294	80052.53
445.652	80054.42
446.01	80053.5
446.368	80054.79
446.725	80055.71
447.083	80056.97
447.441	80056.6
447.798	80055.53
448.156	80056.38
448.513	80056.23
448.87	80056.64
449.228	80056.56
449.585	80058.82
449.942	80060.45
450.3	80060.37
450.657	80061.89
451.014	80062.22
451.371	80062.74
451.728	80063.56
452.085	80064.33
452.442	80064.89
452.799	80065.81
453.156	80064.41
453.513	80063.78
453.869	80063.67
454.226	80065.15
454.583	80064.26
454.939	80063.78
455.296	80063.52
455.653	80063
456.009	80061.93
456.366	80061.78
456.722	80060.45
457.078	80058.12
457.435	80057.93
457.791	80058.34
458.147	80057.82
458.503	80058.71
458.86	80057.93
459.216	80057.71
459.572	80056.19
459.928	80055.38
460.284	80055.12
460.64	80057.23
460.996	80057.05
461.351	80056.97
461.707	80055.86
462.063	80057.34
462.419	80057.23
462.774	80057.82
463.13	80058.82
463.486	80060.97
463.841	80062
464.197	80063.22
464.552	80065.59
464.908	80065.37
465.263	80066
465.618	80065.37
465.974	80064.89
466.329	80066.33
466.684	80067.22
467.039	80067.89
467.394	80068.96
467.749	80068.77
468.104	80068.29
468.459	80070.22
468.814	80069.66
469.169	80071.33
469.524	80070.55
469.879	80070.81
470.233	80070.55
470.588	80070.4
470.943	80071.77
471.297	80071.96
471.652	80073.73
472.006	80072.92
472.361	80075.06
472.715	80074.55
473.07	80075.88
473.424	80077.76
473.778	80078.1
474.133	80078.1
474.487	80079.99
474.841	80081.13
475.195	80083.35
475.549	80084.87
475.903	80085.72
476.257	80087.31
476.611	80088.2
476.965	80089.9
477.319	80092.75
477.673	80093.64
478.026	80095.49
478.38	80095.16
478.734	80094.94
479.087	80094.27
479.441	80095.53
479.795	80096.45
480.148	80098.19
480.502	80099.45
480.855	80097.68
481.208	80096.97
481.562	80098.12
481.915	80097.9
482.268	80098.56
482.621	80097.97
482.974	80098.86
483.328	80098.79
483.681	80099.3
484.034	80098.6
484.387	80099.08
484.739	80098.9
485.092	80098.75
485.445	80098.82
485.798	80098.01
486.151	80099.19
486.503	80100.01
486.856	80099.79
487.209	80098.93
487.561	80098.38
487.914	80096.57
488.266	80098.86
488.618	80099.27
488.971	80098.38
489.323	80098.27
489.675	80098.49
490.028	80097.93
490.38	80096.12
490.732	80095.75
491.084	80095.38
491.436	80095.31
491.788	80094.46
492.14	80093.31
492.492	80094.75
492.844	80095.6
493.196	80096.97
493.548	80096.05
493.899	80097.53
494.251	80096.79
494.603	80096.05
494.954	80095.27
495.306	80096.42
495.657	80096.31
496.009	80097.08
496.36	80098.49
496.712	80099.12
497.063	80099.01
497.414	80100.08
497.765	80102.04
498.117	80102.04
498.468	80103.3
498.819	80104.3
499.17	80106.41
499.521	80106.97
499.872	80106.56
500.223	80106.23
500.574	80106
500.924	80107.71
501.275	80106.23
501.626	80105.08
501.977	80105.78
502.327	80106.71
502.678	80107.56
503.029	80107.15
503.379	80106.6
503.73	80106.52
504.08	80106.49
504.43	80106.19
504.781	80105.89
505.131	80104.67
505.481	80104.75
505.831	80104.04
506.182	80102.45
506.532	80101.49
506.882	80100.41
507.232	80101.27
507.582	80099.19
507.932	80098.6
508.281	80098.19
508.631	80099.34
508.981	80101.16
509.331	80100.97
509.681	80099.45
510.03	80099.71
510.38	80098.68
510.729	80098.16
511.079	80097.64
511.428	80097.16
511.778	80098.05
512.127	80096.16
512.476	80095.34
512.826	80096.01
513.175	80095.79
513.524	80097.38
513.873	80096.57
514.222	80096.64
514.571	80097.16
514.92	80099.08
515.269	80099.6
515.618	80098.75
515.967	80097.79
516.316	80097.23
516.665	80097.34
517.014	80097.27
517.362	80096.31
517.711	80098.82
518.059	80099.45
518.408	80098.08
518.757	80098.56
519.105	80097.71
519.453	80099.34
519.802	80100.49
520.15	80100.53
520.498	80101.41
520.847	80101.97
521.195	80102.45
521.543	80102.67
521.891	80101.78
522.239	80102.12
522.587	80103.23
522.935	80105.3
523.283	80104.45
523.631	80104.3
523.979	80104.27
524.326	80105.52
524.674	80104.41
525.022	80103.93
525.369	80104.12
525.717	80105.86
526.064	80106.56
526.412	80107.26
526.759	80107.19
527.107	80106.78
527.454	80106.41
527.801	80105.89
528.149	80106.26
528.496	80107.6
528.843	80109.67
529.19	80109.82
529.537	80108.08
529.884	80107.63
530.231	80107.19
530.578	80107.78
530.925	80108.52
531.272	80108.3
531.619	80109
531.966	80112.22
532.312	80112.52
532.659	80112.82
533.006	80112.04
533.352	80112.08
533.699	80112.89
534.045	80112.37
534.392	80111
534.738	80110.26
535.084	80112.15
535.431	80113.12
535.777	80111.75
536.123	80111.08
536.469	80110.86
536.815	80111.6
537.161	80112.6
537.507	80110.15
537.853	80109.04
538.199	80108.49
538.545	80108.19
538.891	80107.08
539.237	80105.86
539.582	80103.9
539.928	80103.08
540.274	80102.45
540.619	80102.97
540.965	80100.64
541.31	80100.93
541.656	80102.01
542.001	80103.34
542.347	80100.23
542.692	80097.53
543.037	80096.82
543.382	80095.9
543.728	80096.82
544.073	80098.01
544.418	80096.57
544.763	80098.23
545.108	80098.01
545.453	80098.97
545.798	80100.16
546.142	80100.38
546.487	80100.67
546.832	80100.45
547.177	80100.93
547.521	80102.04
547.866	80101.38
548.211	80102.82
548.555	80103.08
548.9	80103.93
549.244	80102.49
549.588	80103.56
549.933	80103.93
550.277	80105.19
550.621	80104.41
550.965	80103.19
551.31	80103.27
551.654	80104.34
551.998	80103.6
552.342	80105.23
552.686	80105.08
553.03	80104.3
553.373	80105.75
553.717	80105.01
554.061	80105.38
554.405	80105
554.748	80104.67
555.092	80104.89
555.436	80104.08
555.779	80103.12
556.123	80103.15
556.466	80103.04
556.81	80102.97
557.153	80103.86
557.496	80102.27
557.839	80104.08
558.183	80104.3
558.526	80103.45
558.869	80102.04
559.212	80101.3
559.555	80100.08
559.898	80099.27
560.241	80099.08
560.584	80096.97
560.927	80096.64
561.269	80097.68
561.612	80097.19
561.955	80098.19
562.297	80096.6
562.64	80095.42
562.983	80096.97
563.325	80097.31
563.668	80098.45
564.01	80097.75
564.352	80096.05
564.695	80096.6
565.037	80095.57
565.379	80096.27
565.721	80095.68
566.063	80095.53
566.406	80097.12
566.748	80098.31
567.09	80096.53
567.431	80096.45
567.773	80096.57
568.115	80096.42
568.457	80095.27
568.799	80096.27
569.14	80094.05
569.482	80094.57
569.824	80095.86
570.165	80094.71
570.507	80095.42
570.848	80094.75
571.19	80095.68
571.531	80096.16
571.872	80095.38
572.214	80095.97
572.555	80094.53
572.896	80095.46
573.237	80094.23
573.578	80092.24
573.919	80091.2
574.26	80093.57
574.601	80092.98
574.942	80092.64
575.283	80090.83
575.624	80091.12
575.964	80091.09
576.305	80091.46
576.646	80092.27
576.986	80092.83
577.327	80092.16
577.667	80090.13
578.008	80089.64
578.348	80090.94
578.689	80091.31
579.029	80090.87
579.369	80089.42
579.71	80090.27
580.05	80088.28
580.39	80088.57
580.73	80090.53
581.07	80091.46
581.41	80090.98
581.75	80089.53
582.09	80089.02
582.43	80090.53
582.769	80090.27
583.109	80089.09
583.449	80087.54
583.789	80086.46
584.128	80083.95
584.468	80083.13
584.807	80084.09
585.147	80084.35
585.486	80082.8
585.825	80082.46
586.165	80083.24
586.504	80083.28
586.843	80083.8
587.182	80084.8
587.522	80084.2
587.861	80083.28
588.2	80081.87
588.539	80080.36
588.878	80081.28
589.216	80081.65
589.555	80081.47
589.894	80080.06
590.233	80080.28
590.572	80082.06
590.91	80082.46
591.249	80085.13
591.587	80085.5
591.926	80084.83
592.264	80086.28
592.603	80086.46
592.941	80085.72
593.279	80085.02
593.618	80085.39
593.956	80084.76
594.294	80084.72
594.632	80086.13
594.97	80086.17
595.308	80086.35
595.646	80088.02
595.984	80089.16
596.322	80088.79
596.66	80088.5
596.998	80088.13
597.335	80088.16
597.673	80086.61
598.011	80086.72
598.348	80084.98
598.686	80085.35
599.023	80083.87
599.361	80081.61
599.698	80080.47
600.035	80079.47
600.373	80079.69
600.71	80079.1
601.047	80078.54
601.384	80077.62
601.722	80077.91
602.059	80076.36
602.396	80076.28
602.733	80074.58
603.069	80072.92
603.406	80072.99
603.743	80073.77
604.08	80074.1
604.417	80074.06
604.753	80074.17
605.09	80072.77
605.426	80072.73
605.763	80072.21
606.099	80073.1
606.436	80073.14
606.772	80074.03
607.109	80073.77
607.445	80074.4
607.781	80073.55
608.117	80071.36
608.453	80071.66
608.79	80067.63
609.126	80068.89
609.462	80068.63
609.798	80068.44
610.133	80068.15
610.469	80068.33
610.805	80067.96
611.141	80068.74
611.477	80067.18
611.812	80068.18
612.148	80067.37
612.483	80066.96
612.819	80067.11
613.154	80066.18
613.49	80065.44
613.825	80063.96
614.16	80064.7
614.496	80063.56
614.831	80063.7
615.166	80064.26
615.501	80062.48
615.836	80065.26
616.171	80064.59
616.506	80065
616.841	80066.52
617.176	80067.26
617.511	80068.07
617.846	80066.15
618.18	80066.03
618.515	80066.22
618.85	80064.56
619.184	80065.41
619.519	80065.52
619.853	80065.85
620.188	80064.41
620.522	80064.44
620.856	80063.96
621.191	80064.26
621.525	80065.63
621.859	80064.93
622.193	80065.52
622.527	80066.81
622.861	80067.07
623.195	80066.66
623.529	80065.74
623.863	80064.59
624.197	80064.59
624.531	80063.11
624.865	80063
625.198	80061.71
625.532	80061.08
625.866	80062.67
626.199	80061.89
626.533	80060.12
626.866	80057.97
627.2	80059.89
627.533	80060.86
627.866	80060.86
628.2	80061.45
628.533	80058.6
628.866	80059.49
629.199	80057.56
629.532	80056.6
629.865	80054.31
630.198	80053.87
630.531	80052.94
630.864	80052.57
631.197	80052.87
631.529	80052.39
631.862	80052.2
632.195	80052.57
632.527	80052.98
632.86	80051.98
633.193	80051.76
633.525	80052.42
633.857	80053.72
634.19	80053.24
634.522	80051.79
634.854	80052.53
635.187	80052.16
635.519	80053.05
635.851	80052.87
636.183	80055.23
636.515	80056.34
636.847	80057.56
637.179	80058.67
637.511	80058.3
637.843	80058.19
638.174	80058.27
638.506	80058.49
638.838	80059.38
639.17	80059.56
639.501	80059.34
639.833	80059.78
640.164	80059.41
640.496	80058.82
640.827	80058.78
641.158	80057.38
641.49	80057.86
641.821	80056.93
642.152	80055.64
642.483	80055.45
642.814	80054.38
643.145	80052.57
643.476	80051.9
643.807	80051.39
644.138	80049.61
644.469	80050.65
644.8	80050.35
645.131	80050.13
645.461	80051.39
645.792	80049.83
646.122	80050.02
646.453	80050.35
646.784	80050.13
647.114	80051.31
647.444	80051.35
647.775	80051.2
648.105	80051.76
648.435	80051.39
648.765	80050.39
649.096	80051.05
649.426	80051.9
649.756	80052.05
650.086	80051.76
650.416	80052.13
650.746	80053.2
651.075	80054.05
651.405	80054.09
651.735	80052.76
652.065	80052.61
652.394	80051.79
652.724	80053.12
653.054	80053.2
653.383	80053.24
653.712	80053.35
654.042	80052.01
654.371	80052.64
654.701	80053.16
655.03	80053.53
655.359	80051.94
655.688	80051.9
656.017	80052.83
656.346	80050.72
656.675	80050.31
657.004	80049.98
657.333	80049.24
657.662	80047.95
657.991	80046.14
658.32	80045.21
658.648	80046.36
658.977	80045.06
659.306	80044.8
659.634	80044.03
659.963	80042.99
660.291	80042.18
660.619	80042.07
660.948	80041.22
661.276	80040.33
661.604	80039.44
661.933	80038
662.261	80037.78
662.589	80038.59
662.917	80038.04
663.245	80039.77
663.573	80039.77
663.901	80040.29
664.229	80039.63
664.556	80040.18
664.884	80042.03
665.212	80041.73
665.539	80041.62
665.867	80040.66
666.195	80039.92
666.522	80041.4
666.85	80042.14
667.177	80043.66
667.504	80042.14
667.832	80041.99
668.159	80042.33
668.486	80041.96
668.813	80042.36
669.14	80043.1
669.467	80043.47
669.794	80041.99
670.121	80041.1
670.448	80040.48
670.775	80040.33
671.102	80040.59
671.429	80040.11
671.755	80038
672.082	80038.96
672.409	80036.82
672.735	80037.7
673.062	80036.67
673.388	80034.89
673.714	80032.34
674.041	80031.68
674.367	80032.75
674.693	80032.78
675.019	80032.05
675.346	80029.38
675.672	80029.05
675.998	80028.5
676.324	80026.91
676.65	80026.83
676.976	80027.02
677.301	80027.98
677.627	80027.2
677.953	80026.09
678.279	80024.87
678.604	80024.73
678.93	80022.77
679.255	80024.06
679.581	80022.84
679.906	80023.25
680.232	80022.43
680.557	80022.88
680.882	80020.25
681.208	80017.74
681.533	80017.26
681.858	80015.93
682.183	80016.22
682.508	80015.81
682.833	80016.55
683.158	80015.85
683.483	80016.33
683.808	80015.04
684.132	80013.78
684.457	80013.08
684.782	80012.16
685.106	80011.45
685.431	80011.86
685.755	80012.12
686.08	80012.01
686.404	80011.19
686.729	80010.34
687.053	80010.12
687.377	80009.42
687.701	80008.72
688.026	80006.95
688.35	80007.09
688.674	80008.53
688.998	80008.72
689.322	80008.94
689.646	80007.02
689.97	80006.72
690.293	80005.87
690.617	80004.76
690.941	80004.06
691.264	80003.36
691.588	80003.8
691.912	80003.73
692.235	80001.92
692.559	80000.59
692.882	79999.18
693.205	79999.26
693.529	79996.34
693.852	79994.79
694.175	79994.01
694.498	79993.24
694.821	79992.64
695.144	79991.61
695.467	79986.4
695.79	79984.7
696.113	79980.53
696.436	79976.24
696.759	79971.26
697.082	79966.27
697.404	79963.73
697.727	79958.11
698.049	79952.32
698.372	79941.7
698.694	79931.88
699.017	79921.01
699.339	79909.5
699.662	79895.72
699.984	79875.91
700.306	79856.59
700.628	79824.89
700.95	79785.43
701.272	79736.7
701.594	79677.53
701.916	79616.52
702.238	79548.48
702.56	79444.48
702.882	79333.31
703.204	79226.55
703.525	79100.56
703.847	78930.74
704.169	78769.68
704.49	78588.92
704.812	78399.67
705.133	78206.19
705.455	78004.5
705.776	77782.37
706.097	77571.1
706.419	77352.06
706.74	77116.37
707.061	76861.69
707.382	76578.68
707.703	76288.94
708.024	76010.46
708.345	75722.18
708.666	75406.64
708.987	75089.05
709.307	74813.79
709.628	74486.16
709.949	74160.22
710.27	73835.25
710.59	73556.45
710.911	73245.21
711.231	72930.94
711.552	72646.62
711.872	72313.26
712.192	72028.45
712.512	71764.49
712.833	71487.93
713.153	71197.72
713.473	70952.47
713.793	70709.71
714.113	70492.91
714.433	70276.94
714.753	70061.54
715.073	69864.48
715.393	69661.35
715.712	69483.34
716.032	69251.16
716.352	69082.86
716.671	68917.36
716.991	68737.38
717.31	68538.32
717.63	68376.01
717.949	68196.51
718.268	67986.58
718.588	67807.04
718.907	67579.64
719.226	67311.29
719.545	67060.39
719.864	66785.51
720.183	66503.59
720.502	66216.87
720.821	65930.74
721.14	65649.11
721.459	65331.59
721.778	65043.46
722.096	64722.18
722.415	64419.37
722.734	64149.81
723.052	63856.27
723.371	63559
723.689	63279.96
724.008	62996.1
724.326	62689
724.644	62414.01
724.963	62139.71
725.281	61915.38
725.599	61676.54
725.917	61488.21
726.235	61284.23
726.553	61129.09
726.871	60933.89
727.189	60725.42
727.507	60528.1
727.824	60359.65
728.142	60227.07
728.46	60024.39
728.777	59918.85
729.095	59780.9
729.413	59635.88
729.73	59492.32
730.047	59355.81
730.365	59243.94
730.682	59132.12
730.999	59042.06
731.317	58974.64
731.634	58901.29
731.951	58780.16
732.268	58661.51
732.585	58513.1
732.902	58353.77
733.219	58189.67
733.536	58019.2
733.852	57901.08
734.169	57770.87
734.486	57622.4
734.802	57459.02
735.119	57342.2
735.435	57164.95
735.752	56999.82
736.068	56821.39
736.385	56655.01
736.701	56459.29
737.017	56227.04
737.333	55979.49
737.65	55679.62
737.966	55303.41
738.282	54892.94
738.598	54477.48
738.914	54014.03
739.23	53523.35
739.545	52998.55
739.861	52442.35
740.177	51893.67
740.493	51294.51
740.808	50712.06
741.124	50109.17
741.439	49528.14
741.755	48956.29
742.07	48430.53
742.386	47876.89
742.701	47376.61
743.016	46881.22
743.331	46405.31
743.647	45970.14
743.962	45582.94
744.277	45244.91
744.592	44966.02
744.907	44751.55
745.222	44583.5
745.537	44491.81
745.851	44461.43
746.166	44483.64
746.481	44536.28
746.795	44650.94
747.11	44804.63
747.424	44983.01
747.739	45140.65
748.053	45314.47
748.368	45468.16
748.682	45585.06
748.996	45714.14
749.311	45817.23
749.625	45911.08
749.939	46015.73
750.253	46079.65
750.567	46141.71
750.881	46195.27
751.195	46256.03
751.509	46327.57
751.822	46377.79
752.136	46425.51
752.45	46484.57
752.763	46544.34
753.077	46605.65
753.39	46630.95
753.704	46655.38
754.017	46665.6
754.331	46704.64
754.644	46710.68
754.957	46716.13
755.27	46721.48
755.584	46729.21
755.897	46738.3
756.21	46740.93
756.523	46714.48
756.836	46697.73
757.149	46621.94
757.461	46548.21
757.774	46467.34
758.087	46339.66
758.4	46200.36
758.712	46059.37
759.025	45896.31
759.337	45744.57
759.65	45583.44
759.962	45429.6
760.275	45267.61
760.587	45124.49
760.899	44979.1
761.211	44885.06
761.523	44815.15
761.836	44811.58
762.148	44815.41
762.46	44839.73
762.772	44898.93
763.083	45034.16
763.395	45176.11
763.707	45397.17
764.019	45621.92
764.33	45845.75
764.642	46103.86
764.954	46371.4
765.265	46645.1
765.577	46905.44
765.888	47156.75
766.199	47401.65
766.511	47626
766.822	47856.16
767.133	48040.5
767.444	48217.46
767.755	48311.07
768.066	48372.01
768.377	48365.53
768.688	48306.71
768.999	48219.51
769.31	48099.76
769.621	47913.81
769.931	47695.33
770.242	47431.61
770.553	47137.95
770.863	46810.66
771.174	46458.58
771.484	46077.54
771.794	45669.28
772.105	45266.11
772.415	44825.67
772.725	44377.27
773.035	43928.1
773.345	43465.67
773.656	42997.47
773.966	42518.05
774.276	42084.84
774.585	41649.8
774.895	41211.89
775.205	40825.28
775.515	40432.62
775.824	40032.69
776.134	39640.45
776.444	39274.27
776.753	38915.61
777.063	38572.95
777.372	38244.23
777.681	37911.49
777.991	37606.88
778.3	37298.41
778.609	36994.18
778.918	36707.96
779.228	36440.12
779.537	36179.93
779.846	35914.48
780.154	35658.87
780.463	35427.5
780.772	35178.53
781.081	34945.5
781.39	34739.87
781.698	34526.32
782.007	34311.51
782.316	34105.22
782.624	33891.18
782.932	33686.51
783.241	33493.36
783.549	33290.49
783.858	33121.34
784.166	32958.58
784.474	32776.59
784.782	32613.08
785.09	32447.29
785.398	32299.02
785.706	32159.61
786.014	32010.95
786.322	31874.95
786.63	31739.67
786.937	31612.96
787.245	31483.62
787.553	31356.51
787.86	31245.01
788.168	31116.84
788.475	31009.57
788.783	30911.5
789.09	30813.7
789.398	30713.52
789.705	30606.68
790.012	30510.34
790.319	30397.53
790.626	30290.62
790.933	30206.94
791.24	30117.87
791.547	30031.13
791.854	29939.27
792.161	29836.94
792.468	29739.57
792.774	29644.09
793.081	29560.76
793.388	29471.28
793.694	29376.72
794.001	29289.58
794.307	29166.69
794.614	29066.63
794.92	28935.83
795.226	28814.29
795.533	28703.7
795.839	28603.98
796.145	28493.82
796.451	28386.28
796.757	28285.51
797.063	28173.45
797.369	28056.6
797.675	27955.62
797.98	27854.07
798.286	27731.83
798.592	27625.55
798.898	27517.2
799.203	27398.72
799.509	27275.06
799.814	27150.02
800.12	27049.64
800.425	26940.64
800.73	26830.48
801.035	26710.49
801.341	26611
801.646	26504.15
801.951	26395.75
802.256	26289.35
802.561	26183.05
802.866	26083.91
803.171	25985.31
803.476	25896.7
803.78	25802.16
804.085	25704.37
804.39	25593.16
804.694	25493.94
804.999	25397.85
805.303	25301.53
805.608	25216.47
805.912	25135.52
806.216	25061.16
806.521	24989.04
806.825	24904.15
807.129	24833.07
807.433	24760.55
807.737	24688.26
808.041	24627.94
808.345	24574.38
808.649	24517.54
808.953	24475.86
809.257	24415.37
809.561	24356.23
809.864	24301.75
810.168	24263.76
810.471	24222.85
810.775	24195.55
811.078	24176.8
811.382	24147.07
811.685	24139.34
811.988	24130.82
812.292	24120.53
812.595	24120.06
812.898	24116.89
813.201	24130.91
813.504	24154.48
813.807	24183.57
814.11	24221.11
814.413	24247.65
814.716	24276.3
815.018	24322.19
815.321	24380.45
815.624	24467.83
815.926	24576.74
816.229	24698.51
816.531	24843.93
816.834	25010.17
817.136	25207.43
817.438	25427.24
817.74	25699.37
818.043	26017.11
818.345	26398.7
818.647	26858.1
818.949	27401.49
819.251	28040.49
819.553	28791.62
819.855	29663.8
820.156	30638.01
820.458	31719.76
820.76	32886.49
821.062	34098.2
821.363	35366.66
821.665	36706.29
821.966	38141.55
822.268	39591.71
822.569	41045.39
822.87	42529.61
823.171	44024.83
823.473	45557.88
823.774	47140.79
824.075	48676.38
824.376	50173.55
824.677	51646.83
824.978	53028.51
825.279	54325.49
825.58	55505.72
825.88	56546.81
826.181	57436.48
826.482	58221.98
826.782	58850.31
827.083	59360.27
827.383	59749.6
827.684	59969.28
827.984	60048.79
828.284	59964.57
828.585	59740.77
828.885	59445.45
829.185	58994.07
829.485	58438.18
829.785	57760.99
830.085	56921.81
830.385	56044.26
830.685	55108.05
830.985	54057.99
831.285	52977.91
831.584	51857.71
831.884	50695.18
832.183	49519.24
832.483	48305.52
832.782	47031.16
833.082	45749.36
833.381	44471.84
833.681	43228.27
833.98	42062.22
834.279	40923.17
834.578	39811.94
834.877	38772.85
835.176	37759.36
835.475	36815.03
835.774	35921.76
836.073	35049.49
836.372	34224.47
836.671	33409.62
836.969	32602.82
837.268	31850.45
837.567	31139.05
837.865	30446.48
838.164	29770.91
838.462	29106.88
838.761	28489.34
839.059	27900.2
839.357	27345.38
839.655	26806.55
839.953	26264.77
840.252	25729.39
840.55	25207.67
840.848	24694.32
841.146	24196.77
841.443	23693.91
841.741	23190.1
842.039	22678.2
842.337	22177.46
842.634	21713.82
842.932	21267.35
843.229	20838.22
843.527	20421.2
843.824	19976.13
844.122	19529.4
844.419	19104.64
844.716	18677.84
845.013	18263.57
845.311	17874.66
845.608	17499.61
845.905	17125.67
846.202	16766.47
846.499	16398.1
846.796	16028.8
847.092	15656.76
847.389	15287.86
847.686	14945.79
847.982	14625.02
848.279	14316.4
848.576	14024.89
848.872	13727.8
849.168	13433.85
849.465	13157.13
849.761	12864.88
850.057	12590
850.354	12322.88
850.65	12069.38
850.946	11843.58
851.242	11618.28
851.538	11399.03
851.834	11176.66
852.13	10965.05
852.425	10767.57
852.721	10587.09
853.017	10419.11
853.312	10266.04
853.608	10120.53
853.903	9979.08
854.199	9832.15
854.494	9698
854.79	9563.81
855.085	9429.15
855.38	9301.31
855.675	9165.16
855.971	9045.43
856.266	8945.4
856.561	8847.33
856.856	8752.51
857.151	8655.66
857.445	8556.37
857.74	8457.26
858.035	8365.19
858.33	8269.47
858.624	8183.19
858.919	8106.97
859.213	8020.15
859.508	7937
859.802	7846.31
860.096	7763.62
860.391	7697.74
860.685	7636.67
860.979	7575.32
861.273	7525.2
861.567	7463.48
861.861	7397.44
862.155	7342.33
862.449	7272.39
862.743	7207.7
863.037	7149.61
863.33	7093.42
863.624	7039.16
863.918	6991.83
864.211	6948.46
864.505	6918.39
864.798	6878.63
865.092	6827.73
865.385	6781.68
865.678	6730.44
865.971	6698.34
866.264	6664.35
866.558	6635.16
866.851	6601.38
867.144	6571.57
867.437	6535.56
867.729	6509.25
868.022	6491.24
868.315	6468.97
868.608	6461.27
868.9	6451.76
869.193	6433.58
869.485	6405.84
869.778	6381.38
870.07	6353.35
870.363	6332.33
870.655	6314.8
870.947	6304.73
871.239	6295.66
871.532	6296.71
871.824	6301.13
872.116	6299.94
872.408	6294.32
872.699	6279.54
872.991	6273
873.283	6267.34
873.575	6268.7
873.867	6277.99
874.158	6283.84
874.45	6284.36
874.741	6275.05
875.033	6274.24
875.324	6285.2
875.615	6306.55
875.907	6328.72
876.198	6344.76
876.489	6356.02
876.78	6357.67
877.071	6356.42
877.362	6360.84
877.653	6362.21
877.944	6370.58
878.235	6377.1
878.526	6388.21
878.816	6407.4
