Data from 24HourExp_27052025_FLMS018081_01-38-20-629.txt Node
Date: Wed May 28 01:38:20 BST 2025
User: adleo
Spectrometer: FLMS01808
Trigger mode: 0
Integration Time (sec): 4.000000E-1
Scans to average: 10
Electric dark correction enabled: true
Nonlinearity correction enabled: true
Boxcar width: 10
XAxis mode: Wavelengths
Number of Pixels in Spectrum: 2048
>>>>>Begin Spectral Data<<<<<
178.471	-133.75
178.857	-124.06
179.244	-116.76
179.631	-108.92
180.017	-100.55
180.404	-93.3
180.79	-81.35
181.176	-72.99
181.563	-62.55
181.949	-52.53
182.335	-42.5
182.722	-25.64
183.108	-4.78
183.494	23.2
183.88	76.83
184.266	132.27
184.653	190.3
185.039	244.95
185.425	300.14
185.811	355.04
186.197	408.42
186.582	461.77
186.968	512.81
187.354	563.77
187.74	615.4
188.126	666.94
188.511	717.83
188.897	765.23
189.283	814.36
189.668	860.28
190.054	905.99
190.439	952.33
190.825	995.15
191.21	1035.26
191.596	1068.43
191.981	1076.49
192.366	1079.55
192.752	1080.12
193.137	1084.61
193.522	1085.39
193.908	1085.6
194.293	1089.16
194.678	1089.82
195.063	1092.13
195.448	1094.96
195.833	1095.42
196.218	1094.27
196.603	1093.55
196.988	1091.96
197.373	1089.5
197.757	1089.5
198.142	1089.37
198.527	1086.37
198.912	1086.48
199.296	1086.51
199.681	1084.01
200.066	1082.88
200.45	1083.44
200.835	1081.95
201.219	1080.83
201.604	1080.93
201.988	1083.47
202.372	1084.46
202.757	1085.63
203.141	1087.52
203.525	1087.39
203.91	1087.88
204.294	1090.14
204.678	1091.9
205.062	1092.21
205.446	1093.91
205.83	1093.41
206.214	1092.93
206.598	1095.7
206.982	1096.53
207.366	1095.2
207.75	1096.7
208.134	1097.67
208.517	1097.65
208.901	1097.89
209.285	1098.42
209.669	1098.54
210.052	1097.39
210.436	1097.5
210.819	1096.48
211.203	1094.74
211.586	1093.95
211.97	1094.67
212.353	1093.91
212.737	1094.49
213.12	1098.98
213.503	1101.81
213.886	1103.43
214.27	1106.04
214.653	1107.41
215.036	1109.19
215.419	1112.2
215.802	1115.9
216.185	1116.96
216.568	1122.06
216.951	1126.36
217.334	1128.22
217.717	1132.44
218.1	1135.06
218.482	1137.91
218.865	1141.77
219.248	1147.47
219.631	1154.73
220.013	1159.28
220.396	1166.76
220.778	1172.06
221.161	1175.48
221.544	1180.15
221.926	1187.73
222.308	1194.33
222.691	1200.6
223.073	1208.73
223.455	1216.04
223.838	1224.39
224.22	1236.02
224.602	1245.84
224.984	1257.64
225.366	1269.57
225.749	1283.46
226.131	1297.16
226.513	1311.2
226.895	1326.03
227.276	1340.63
227.658	1355.12
228.04	1369.51
228.422	1384.25
228.804	1401.42
229.186	1417.7
229.567	1436.39
229.949	1453.59
230.331	1471.02
230.712	1489.68
231.094	1507.7
231.475	1528.44
231.857	1547.52
232.238	1565.58
232.62	1584.71
233.001	1604.24
233.382	1626.5
233.763	1645.78
234.145	1665.47
234.526	1687.18
234.907	1706.54
235.288	1723.62
235.669	1743.56
236.05	1765
236.431	1783.44
236.812	1804.4
237.193	1827.31
237.574	1846.44
237.955	1868.18
238.336	1891.83
238.717	1912.95
239.097	1938.54
239.478	1961.65
239.859	1984.1
240.239	2008.09
240.62	2033.18
241.001	2055.46
241.381	2079.04
241.762	2102.15
242.142	2126.84
242.522	2150.29
242.903	2178.69
243.283	2206.41
243.663	2231.73
244.044	2261.48
244.424	2292.14
244.804	2320.61
245.184	2348.64
245.564	2378.19
245.944	2409.58
246.324	2440.54
246.704	2469.18
247.084	2496.64
247.464	2527.95
247.844	2559.64
248.224	2592.54
248.604	2624.9
248.983	2656.8
249.363	2688.1
249.743	2720.88
250.122	2752.52
250.502	2783.77
250.882	2813.49
251.261	2846.27
251.641	2880.74
252.02	2914.29
252.399	2948.91
252.779	2984.56
253.158	3023.31
253.537	3063.78
253.917	3106.92
254.296	3145.93
254.675	3190.61
255.054	3231.95
255.433	3274.69
255.812	3315.56
256.191	3356.35
256.57	3396.62
256.949	3442.71
257.328	3487.89
257.707	3533.64
258.086	3584.11
258.465	3632.83
258.843	3684.97
259.222	3736.5
259.601	3789.18
259.979	3841.62
260.358	3895.21
260.736	3947.61
261.115	4001.84
261.493	4055.5
261.872	4108.22
262.25	4164.3
262.629	4220.48
263.007	4279.44
263.385	4340.5
263.763	4405.09
264.142	4468.87
264.52	4534.7
264.898	4598.03
265.276	4667.27
265.654	4737.75
266.032	4809.31
266.41	4878.49
266.788	4951.08
267.166	5029.63
267.544	5107.05
267.921	5185.28
268.299	5266.13
268.677	5351.85
269.055	5434.49
269.432	5520.88
269.81	5608.77
270.188	5696.57
270.565	5787.08
270.943	5882.09
271.32	5972.05
271.697	6064.48
272.075	6162.46
272.452	6259.29
272.829	6359.66
273.207	6459.31
273.584	6564.19
273.961	6668.96
274.338	6785.82
274.715	6903.44
275.092	7020.65
275.469	7142.32
275.846	7264.52
276.223	7383.07
276.6	7502.36
276.977	7630.66
277.354	7757.01
277.731	7883.52
278.108	8016.27
278.484	8148.65
278.861	8283.04
279.238	8425.11
279.614	8566.78
279.991	8707.17
280.367	8854.25
280.744	9004.91
281.12	9157.49
281.497	9306.1
281.873	9457.88
282.249	9606.37
282.625	9751.57
283.002	9897.19
283.378	10044.21
283.754	10195.38
284.13	10353.95
284.506	10514.71
284.882	10672.32
285.258	10831.91
285.634	10987.42
286.01	11150.77
286.386	11310.13
286.762	11473.23
287.138	11634.53
287.513	11800.77
287.889	11966.73
288.265	12128.51
288.641	12291.81
289.016	12449.17
289.392	12615.84
289.767	12777.07
290.143	12945.98
290.518	13110.24
290.894	13275.35
291.269	13436.34
291.644	13594.81
292.02	13749.22
292.395	13907.1
292.77	14061.89
293.145	14214.46
293.52	14372.74
293.895	14519.83
294.27	14677.19
294.646	14831.49
295.02	14981.05
295.395	15133.26
295.77	15291.81
296.145	15447.73
296.52	15600.15
296.895	15755.94
297.269	15910.05
297.644	16065.95
298.019	16216.12
298.393	16371.11
298.768	16526.83
299.143	16684.86
299.517	16842.71
299.891	17001.04
300.266	17156.9
300.64	17314.4
301.015	17480.14
301.389	17652.29
301.763	17829
302.137	18001.22
302.512	18181.67
302.886	18358.86
303.26	18545.25
303.634	18722.82
304.008	18904.56
304.382	19090.04
304.756	19276.4
305.13	19454.04
305.504	19637.76
305.877	19828.89
306.251	20035.81
306.625	20235.12
306.999	20443.11
307.372	20659.16
307.746	20875.91
308.119	21094.7
308.493	21306.56
308.866	21520.14
309.24	21732.95
309.613	21941.9
309.987	22151.95
310.36	22347.76
310.733	22563.01
311.107	22774.47
311.48	22996.09
311.853	23222.14
312.226	23446.94
312.599	23678.54
312.972	23912.48
313.345	24143.59
313.718	24376.79
314.091	24592.61
314.464	24829.74
314.837	25050.15
315.21	25259.38
315.582	25480.84
315.955	25692.96
316.328	25921.07
316.7	26139.96
317.073	26361.58
317.446	26586.74
317.818	26818.74
318.191	27048.34
318.563	27266.94
318.936	27477.4
319.308	27679.69
319.68	27883.2
320.053	28083.46
320.425	28276.71
320.797	28464.44
321.169	28627.96
321.541	28771.26
321.913	28914.9
322.285	29028.7
322.657	29162.77
323.029	29312.85
323.401	29454.15
323.773	29616.5
324.145	29784.21
324.517	29975.55
324.889	30152.15
325.26	30357.98
325.632	30572.85
326.004	30815.65
326.375	31080.03
326.747	31361.96
327.118	31669.57
327.49	31964.35
327.861	32273.37
328.233	32571.2
328.604	32883.8
328.975	33203.02
329.346	33516.44
329.718	33817.31
330.089	34125.81
330.46	34420.27
330.831	34691.74
331.202	34953.44
331.573	35204.32
331.944	35435.95
332.315	35662.11
332.686	35886.41
333.057	36082.89
333.428	36262.27
333.799	36433.2
334.169	36587.95
334.54	36723.06
334.911	36841.04
335.281	36970.71
335.652	37101.19
336.022	37247.44
336.393	37391.28
336.763	37556.49
337.134	37744.32
337.504	37949.9
337.874	38156.42
338.245	38362.7
338.615	38588.39
338.985	38819.64
339.355	39046.85
339.726	39274.95
340.096	39502.11
340.466	39755.97
340.836	40002.64
341.206	40251.27
341.576	40502.33
341.945	40745.59
342.315	40982.17
342.685	41229.13
343.055	41477.45
343.425	41710.43
343.794	41940.9
344.164	42171.94
344.533	42408.46
344.903	42636.71
345.273	42868.47
345.642	43096.34
346.011	43326.54
346.381	43557.79
346.75	43792.51
347.12	44036.71
347.489	44285.18
347.858	44524.72
348.227	44734.35
348.596	44959.62
348.965	45201.02
349.334	45428.43
349.704	45669.57
350.072	45923.75
350.441	46155.83
350.81	46397.64
351.179	46636.31
351.548	46867.41
351.917	47089.3
352.285	47283.55
352.654	47490.81
353.023	47697.32
353.391	47895.51
353.76	48111.88
354.129	48300.51
354.497	48532.22
354.865	48751.13
355.234	48980.59
355.602	49196.98
355.971	49444.4
356.339	49655.68
356.707	49870.01
357.075	50087.47
357.443	50302.84
357.811	50508.48
358.18	50714.3
358.548	50920.46
358.916	51128.46
359.284	51352.98
359.651	51570.8
360.019	51787.8
360.387	51994.61
360.755	52198.47
361.123	52429.56
361.49	52650.41
361.858	52867.7
362.226	53066.32
362.593	53269.19
362.961	53456.97
363.328	53659.76
363.696	53825.14
364.063	54046.3
364.43	54251.94
364.798	54468.06
365.165	54651.77
365.532	54838.72
365.899	55033.94
366.267	55204.69
366.634	55355.16
367.001	55516.33
367.368	55656.49
367.735	55837.58
368.102	56020.95
368.469	56215.56
368.835	56393.88
369.202	56564.68
369.569	56762.78
369.936	56948.55
370.303	57128.32
370.669	57323.5
371.036	57489.13
371.402	57692.37
371.769	57867.77
372.135	58014.42
372.502	58134.67
372.868	58278
373.235	58422.15
373.601	58558.05
373.967	58730.91
374.333	58915.44
374.7	59100.42
375.066	59305.94
375.432	59499.83
375.798	59673.29
376.164	59837.9
376.53	59983.28
376.896	60151.35
377.262	60324.74
377.628	60451.8
377.993	60605.27
378.359	60755.42
378.725	60914.57
379.091	61070.49
379.456	61211.2
379.822	61344.57
380.187	61499.97
380.553	61694.88
380.918	61887.78
381.284	62060.42
381.649	62228.05
382.015	62377.18
382.38	62501.85
382.745	62675
383.11	62821.15
383.476	62962.31
383.841	63096.59
384.206	63259.87
384.571	63376.55
384.936	63503.35
385.301	63680.84
385.666	63817.75
386.031	63964
386.396	64130.4
386.76	64281.96
387.125	64474.92
387.49	64678.1
387.855	64868.52
388.219	65038.76
388.584	65214
388.948	65412.8
389.313	65584.62
389.677	65785.31
390.042	66018.92
390.406	66166.48
390.771	66358.86
391.135	66551.04
391.499	66781.73
391.863	67012.57
392.227	67261.83
392.592	67464.55
392.956	67659.86
393.32	67854.4
393.684	68074.63
394.048	68244.29
394.412	68420.89
394.775	68569.1
395.139	68721.3
395.503	68885.25
395.867	69031.09
396.231	69177.4
396.594	69272.63
396.958	69414.36
397.321	69576.77
397.685	69703.94
398.048	69849.76
398.412	69982.95
398.775	70111.09
399.139	70234.48
399.502	70343.74
399.865	70482.43
400.228	70671.43
400.592	70811.17
400.955	71011.96
401.318	71149.36
401.681	71318.5
402.044	71458.82
402.407	71613.31
402.77	71776.24
403.133	71959.23
403.496	72105.22
403.859	72256.84
404.221	72510.56
404.584	72741.74
404.947	72980.66
405.309	73187.5
405.672	73423.57
406.034	73655.83
406.397	73918.03
406.759	74144.21
407.122	74335.91
407.484	74511.63
407.847	74704.54
408.209	74947.44
408.571	75171.44
408.933	75427.17
409.296	75680.05
409.658	75934.59
410.02	76201.39
410.382	76495.06
410.744	76748.14
411.106	77029.5
411.468	77297.85
411.83	77515.09
412.191	77702.72
412.553	77861.64
412.915	78052.24
413.277	78236.47
413.638	78402.15
414	78549.54
414.361	78701.66
414.723	78897.33
415.084	79079.22
415.446	79214.52
415.807	79323.75
416.169	79403.51
416.53	79466.1
416.891	79536.99
417.252	79620.78
417.614	79671.12
417.975	79694.88
418.336	79721.53
418.697	79748.04
419.058	79770.31
419.419	79789
419.78	79810.23
420.141	79824.88
420.501	79838.29
420.862	79850.44
421.223	79859.39
421.584	79878.45
421.944	79889.25
422.305	79895.29
422.666	79899.87
423.026	79901.16
423.387	79910.67
423.747	79917.49
424.107	79923.24
424.468	79930.29
424.828	79935.42
425.188	79939.48
425.549	79942.95
425.909	79946.39
426.269	79946.28
426.629	79950
426.989	79951.22
427.349	79951.3
427.709	79952.52
428.069	79953.99
428.429	79957.54
428.789	79962.01
429.149	79964.78
429.508	79968.25
429.868	79970.43
430.228	79973.64
430.587	79977.19
430.947	79979.04
431.306	79983.17
431.666	79986.68
432.025	79988.71
432.385	79990.45
432.744	79990.67
433.103	79993.04
433.463	79996.11
433.822	80001.28
434.181	80002.57
434.54	80006.3
434.899	80009.92
435.258	80011.66
435.618	80012.84
435.976	80014.36
436.335	80013.03
436.694	80014.43
437.053	80014.99
437.412	80016.32
437.771	80016.32
438.129	80017.43
438.488	80019.35
438.847	80021.31
439.205	80022.16
439.564	80021.97
439.922	80021.79
440.281	80022.71
440.639	80023.71
440.997	80023.45
441.356	80025.15
441.714	80027
442.072	80025.34
442.431	80025.04
442.789	80028
443.147	80028.74
443.505	80027.59
443.863	80029.26
444.221	80029.96
444.579	80029.96
444.937	80030.25
445.294	80031.22
445.652	80030.85
446.01	80029.7
446.368	80028.07
446.725	80030.48
447.083	80031.33
447.441	80028.92
447.798	80029.29
448.156	80028.19
448.513	80028.78
448.87	80027.08
449.228	80027.41
449.585	80028.33
449.942	80029.07
450.3	80027.3
450.657	80027.67
451.014	80030.74
451.371	80030.77
451.728	80030.14
452.085	80030.33
452.442	80030.29
452.799	80031.29
453.156	80031.4
453.513	80032.59
453.869	80033.51
454.226	80030.4
454.583	80030.29
454.939	80033.69
455.296	80033.95
455.653	80034.95
456.009	80035.65
456.366	80036.43
456.722	80035.84
457.078	80036.1
457.435	80035.99
457.791	80035.84
458.147	80037.35
458.503	80036.58
458.86	80037.21
459.216	80038.13
459.572	80039.35
459.928	80039.72
460.284	80039.72
460.64	80040.9
460.996	80040.83
461.351	80041.83
461.707	80043.38
462.063	80044.45
462.419	80044.34
462.774	80044.82
463.13	80045.9
463.486	80045.01
463.841	80047.34
464.197	80048.89
464.552	80048.71
464.908	80049.15
465.263	80049.3
465.618	80048.71
465.974	80049.15
466.329	80050.63
466.684	80051.78
467.039	80052.07
467.394	80052.07
467.749	80052.11
468.104	80052.66
468.459	80053.96
468.814	80053.52
469.169	80053.11
469.524	80053.18
469.879	80055
470.233	80055.59
470.588	80054.88
470.943	80055.7
471.297	80055.51
471.652	80055
472.006	80057.4
472.361	80059.73
472.715	80061.54
473.07	80061.69
473.424	80061.14
473.778	80063.13
474.133	80063.13
474.487	80064.21
474.841	80064.65
475.195	80064.8
475.549	80065.61
475.903	80065.87
476.257	80067.39
476.611	80068.83
476.965	80069.72
477.319	80069.61
477.673	80069.72
478.026	80071.46
478.38	80074.09
478.734	80074.34
479.087	80076.97
479.441	80077.23
479.795	80076.38
480.148	80077.86
480.502	80078.93
480.855	80080.82
481.208	80080.15
481.562	80081.3
481.915	80081.45
482.268	80083
482.621	80083.67
482.974	80083.45
483.328	80084.3
483.681	80084.85
484.034	80085.04
484.387	80086.04
484.739	80084
485.092	80085.04
485.445	80085.41
485.798	80084.48
486.151	80085.07
486.503	80083.52
486.856	80083.74
487.209	80082.41
487.561	80082.85
487.914	80083.85
488.266	80081.78
488.618	80080.75
488.971	80080.45
489.323	80079.64
489.675	80080.71
490.028	80081.3
490.38	80082
490.732	80081.19
491.084	80081.52
491.436	80083.56
491.788	80083.23
492.14	80085
492.492	80085.37
492.844	80085.19
493.196	80085.15
493.548	80085.45
493.899	80085.52
494.251	80084.56
494.603	80085.78
494.954	80084.22
495.306	80082.23
495.657	80083.22
496.009	80084.93
496.36	80086.04
496.712	80086.59
497.063	80086.59
497.414	80087.59
497.765	80086.19
498.117	80086.96
498.468	80085.67
498.819	80084
499.17	80084.59
499.521	80083.59
499.872	80083.85
500.223	80084.78
500.574	80085.59
500.924	80085.93
501.275	80086.59
501.626	80087.37
501.977	80087.56
502.327	80087.15
502.678	80088.18
503.029	80089
503.379	80088.04
503.73	80087
504.08	80086.26
504.43	80085.96
504.781	80083.52
505.131	80084.15
505.481	80083.59
505.831	80082.52
506.182	80082.97
506.532	80081.6
506.882	80081.26
507.232	80079.64
507.582	80078.23
507.932	80076.71
508.281	80075.93
508.631	80075.34
508.981	80075.6
509.331	80076.97
509.681	80076.97
510.03	80076.71
510.38	80075.27
510.729	80076.05
511.079	80076.97
511.428	80077.71
511.778	80075.86
512.127	80077.56
512.476	80077.05
512.826	80077.16
513.175	80079.86
513.524	80080.56
513.873	80080.01
514.222	80081.19
514.571	80081.49
514.92	80081.63
515.269	80081.97
515.618	80081.3
515.967	80081.71
516.316	80080.67
516.665	80080.08
517.014	80079.93
517.362	80079.34
517.711	80080.52
518.059	80079.34
518.408	80078.12
518.757	80078.78
519.105	80078.97
519.453	80078.04
519.802	80078.75
520.15	80080.45
520.498	80077.97
520.847	80074.83
521.195	80076.93
521.543	80076.71
521.891	80076.16
522.239	80077.08
522.587	80077.42
522.935	80079.23
523.283	80078.64
523.631	80078.08
523.979	80078.34
524.326	80080.56
524.674	80081.12
525.022	80081.26
525.369	80082
525.717	80082.89
526.064	80083.74
526.412	80085.97
526.759	80086.67
527.107	80085.56
527.454	80084.63
527.801	80086
528.149	80089.33
528.496	80087.93
528.843	80086.78
529.19	80089.33
529.537	80087.78
529.884	80087.7
530.231	80087
530.578	80088.04
530.925	80090.52
531.272	80089.7
531.619	80089.04
531.966	80088.74
532.312	80089.48
532.659	80089.07
533.006	80088.7
533.352	80087.26
533.699	80086.33
534.045	80084.71
534.392	80086.08
534.738	80085.52
535.084	80085.11
535.431	80083.85
535.777	80083.78
536.123	80085
536.469	80083.67
536.815	80085.19
537.161	80086.07
537.507	80084.63
537.853	80083.74
538.199	80081.37
538.545	80080.3
538.891	80080.41
539.237	80080.26
539.582	80077.49
539.928	80077.49
540.274	80076.42
540.619	80077.45
540.965	80077.86
541.31	80078.38
541.656	80079.12
542.001	80079.71
542.347	80081.12
542.692	80080.56
543.037	80081.78
543.382	80082.71
543.728	80084.04
544.073	80083.3
544.418	80083.93
544.763	80085.08
545.108	80084.82
545.453	80085.89
545.798	80087
546.142	80086.04
546.487	80087.19
546.832	80089.55
547.177	80089.18
547.521	80089.81
547.866	80088.96
548.211	80086.93
548.555	80087.55
548.9	80087.22
549.244	80085.96
549.588	80084.52
549.933	80084.96
550.277	80083.82
550.621	80083.04
550.965	80081
551.31	80080.38
551.654	80079.45
551.998	80079.38
552.342	80079.49
552.686	80079.23
553.03	80078.78
553.373	80078.67
553.717	80077.67
554.061	80076.49
554.405	80077.01
554.748	80076.05
555.092	80076.42
555.436	80077.71
555.779	80077.9
556.123	80077.45
556.466	80078.78
556.81	80078.82
557.153	80079.34
557.496	80079.97
557.839	80080.74
558.183	80083.26
558.526	80084.04
558.869	80084.63
559.212	80084.48
559.555	80085.33
559.898	80085.11
560.241	80085.78
560.584	80085.33
560.927	80086.44
561.269	80087.78
561.612	80088.07
561.955	80088.26
562.297	80087.55
562.64	80087.11
562.983	80086.93
563.325	80088.37
563.668	80088.3
564.01	80088.41
564.352	80088.33
564.695	80088.41
565.037	80087.55
565.379	80085.26
565.721	80085.41
566.063	80084.59
566.406	80084.19
566.748	80081.97
567.09	80081.23
567.431	80079.23
567.773	80079.82
568.115	80077.34
568.457	80077.86
568.799	80077.86
569.14	80078.97
569.482	80078.27
569.824	80078.08
570.165	80077.71
570.507	80076.23
570.848	80075.2
571.19	80073.35
571.531	80071.87
571.872	80071.83
572.214	80071.68
572.555	80071.68
572.896	80071.31
573.237	80068.87
573.578	80068.24
573.919	80068.79
574.26	80069.24
574.601	80071.31
574.942	80069.65
575.283	80069.79
575.624	80067.31
575.964	80065.76
576.305	80065.02
576.646	80065.43
576.986	80066.13
577.327	80065.87
577.667	80064.39
578.008	80063.02
578.348	80064.61
578.689	80064.61
579.029	80064.24
579.369	80062.95
579.71	80064.13
580.05	80063.76
580.39	80065.43
580.73	80065.87
581.07	80066.2
581.41	80067.2
581.75	80065.35
582.09	80066.5
582.43	80068.28
582.769	80068.57
583.109	80068.76
583.449	80068.79
583.789	80069.16
584.128	80069.39
584.468	80069.27
584.807	80068.5
585.147	80069.87
585.486	80069.05
585.825	80069.57
586.165	80069.5
586.504	80070.13
586.843	80067.54
587.182	80067.02
587.522	80066.13
587.861	80065.39
588.2	80064.58
588.539	80061.28
588.878	80061.06
589.216	80060.17
589.555	80059.73
589.894	80059.69
590.233	80062.8
590.572	80062.06
590.91	80062.03
591.249	80060.92
591.587	80059.92
591.926	80060.88
592.264	80060.84
592.603	80060.36
592.941	80059.88
593.279	80059.18
593.618	80058.99
593.956	80060.14
594.294	80060.21
594.632	80060.06
594.97	80060.18
595.308	80062.32
595.646	80063.43
595.984	80063.84
596.322	80065.1
596.66	80064.87
596.998	80065.06
597.335	80061.99
597.673	80062.58
598.011	80060.43
598.348	80060.43
598.686	80061.91
599.023	80061.95
599.361	80060.36
599.698	80058.92
600.035	80058.69
600.373	80058.36
600.71	80057.99
601.047	80057.25
601.384	80057.62
601.722	80058.4
602.059	80057.84
602.396	80055.99
602.733	80056.22
603.069	80056.29
603.406	80056.07
603.743	80055.99
604.08	80055.99
604.417	80055.77
604.753	80054.4
605.09	80054.55
605.426	80054.14
605.763	80053.59
606.099	80053
606.436	80053.77
606.772	80054.62
607.109	80053.03
607.445	80053.22
607.781	80054.18
608.117	80054.81
608.453	80053.85
608.79	80052.18
609.126	80051.92
609.462	80051
609.798	80050.19
610.133	80049.85
610.469	80049.52
610.805	80047.75
611.141	80047.67
611.477	80047.15
611.812	80048.78
612.148	80049.63
612.483	80048.74
612.819	80048.56
613.154	80049
613.49	80048.34
613.825	80048.34
614.16	80050.33
614.496	80051.33
614.831	80050.96
615.166	80050.63
615.501	80050.85
615.836	80051.63
616.171	80052.18
616.506	80053.52
616.841	80055.33
617.176	80056.4
617.511	80057.14
617.846	80058.18
618.18	80057.95
618.515	80058.29
618.85	80056.33
619.184	80055.51
619.519	80054.96
619.853	80055.33
620.188	80054.63
620.522	80054
620.856	80054.29
621.191	80052.85
621.525	80051.59
621.859	80051.19
622.193	80051.63
622.527	80051.52
622.861	80051.19
623.195	80050.78
623.529	80049.67
623.863	80049.6
624.197	80049.52
624.531	80048.49
624.865	80048.26
625.198	80047.41
625.532	80046.64
625.866	80047.26
626.199	80047.97
626.533	80047.89
626.866	80046.78
627.2	80047.41
627.533	80047.52
627.866	80047.23
628.2	80047.97
628.533	80047.6
628.866	80046.38
629.199	80046.19
629.532	80045.34
629.865	80045.9
630.198	80047.15
630.531	80046.53
630.864	80045.08
631.197	80045.34
631.529	80044.2
631.862	80045.08
632.195	80044.79
632.527	80045.34
632.86	80044.49
633.193	80044.97
633.525	80044.9
633.857	80043.97
634.19	80043.71
634.522	80045.27
634.854	80045.53
635.187	80044.79
635.519	80044.45
635.851	80045.6
636.183	80044.6
636.515	80046.86
636.847	80046.3
637.179	80044.16
637.511	80044.49
637.843	80043.38
638.174	80041.16
638.506	80042.09
638.838	80040.39
639.17	80042.35
639.501	80042.01
639.833	80043.12
640.164	80043.31
640.496	80043.71
640.827	80043.83
641.158	80044.12
641.49	80043.23
641.821	80043.01
642.152	80041.39
642.483	80042.01
642.814	80041.61
643.145	80041.53
643.476	80039.57
643.807	80037.87
644.138	80037.35
644.469	80038.21
644.8	80038.57
645.131	80038.17
645.461	80036.1
645.792	80036.25
646.122	80033.8
646.453	80032.88
646.784	80031.7
647.114	80029.63
647.444	80029.03
647.775	80028.44
648.105	80025.89
648.435	80025.71
648.765	80024.93
649.096	80024.3
649.426	80022.45
649.756	80021.6
650.086	80020.09
650.416	80020.46
650.746	80021.57
651.075	80022.79
651.405	80022.27
651.735	80021.9
652.065	80020.86
652.394	80021.2
652.724	80021.46
653.054	80020.86
653.383	80022.01
653.712	80020.79
654.042	80020.05
654.371	80021.09
654.701	80021.94
655.03	80023.27
655.359	80021.97
655.688	80022.01
656.017	80023.16
656.346	80022.86
656.675	80022.23
657.004	80022.45
657.333	80022.01
657.662	80021.05
657.991	80018.94
658.32	80019.02
658.648	80020.05
658.977	80021.46
659.306	80020.9
659.634	80020.72
659.963	80022.23
660.291	80019.05
660.619	80019.42
660.948	80019.79
661.276	80019.5
661.604	80018.94
661.933	80019.53
662.261	80019.61
662.589	80019.72
662.917	80018.68
663.245	80019.76
663.573	80019.2
663.901	80021.42
664.229	80021.46
664.556	80021.97
664.884	80022.97
665.212	80021.31
665.539	80021.16
665.867	80020.79
666.195	80021.94
666.522	80020.49
666.85	80019.05
667.177	80021.75
667.504	80018.98
667.832	80018.5
668.159	80018.24
668.486	80018.24
668.813	80015.99
669.14	80015.91
669.467	80016.21
669.794	80017.02
670.121	80016.28
670.448	80017.21
670.775	80015.21
671.102	80013.66
671.429	80012.33
671.755	80010.74
672.082	80010.63
672.409	80009.74
672.735	80007.89
673.062	80007.93
673.388	80007.56
673.714	80007.52
674.041	80006.45
674.367	80009.03
674.693	80008.15
675.019	80007.85
675.346	80008.59
675.672	80010.03
675.998	80010.92
676.324	80010
676.65	80010
676.976	80009.96
677.301	80009.81
677.627	80009.26
677.953	80007.85
678.279	80007.7
678.604	80008.26
678.93	80008.37
679.255	80007.59
679.581	80007.96
679.906	80005.19
680.232	80005.27
680.557	80003.94
680.882	80002.2
681.208	80001.68
681.533	80002.05
681.858	80001.72
682.183	80000.2
682.508	79999.02
682.833	79998.54
683.158	79998.24
683.483	79997.17
683.808	79997.28
684.132	79995.62
684.457	79994.84
684.782	79994.95
685.106	79994.99
685.431	79994.84
685.755	79992.85
686.08	79992.74
686.404	79993.22
686.729	79993.85
687.053	79993.85
687.377	79993.66
687.701	79993.73
688.026	79991.67
688.35	79991.96
688.674	79990.78
688.998	79990.11
689.322	79990.45
689.646	79988.82
689.97	79987.42
690.293	79985.31
690.617	79983.87
690.941	79982.84
691.264	79981.99
691.588	79981.99
691.912	79981.4
692.235	79980.43
692.559	79980.32
692.882	79977.18
693.205	79975.85
693.529	79975.89
693.852	79972.09
694.175	79970.79
694.498	79969.98
694.821	79969.8
695.144	79965.66
695.467	79962.15
695.79	79957.06
696.113	79952.26
696.436	79948.24
696.759	79944.4
697.082	79940.63
697.404	79935.02
697.727	79928.05
698.049	79921.71
698.372	79911.9
698.694	79899.33
699.017	79885.11
699.339	79870.34
699.662	79854.47
699.984	79829.14
700.306	79800.47
700.628	79759.59
700.95	79701.8
701.272	79629.97
701.594	79547.76
701.916	79468
702.238	79373.85
702.56	79230.47
702.882	79084.75
703.204	78948.13
703.525	78793.98
703.847	78598.71
704.169	78415.46
704.49	78218.2
704.812	78004.3
705.133	77792.32
705.455	77577.6
705.776	77344.13
706.097	77110.97
706.419	76869.1
706.74	76613.66
707.061	76344.47
707.382	76049.52
707.703	75757.06
708.024	75475.43
708.345	75188.67
708.666	74876.74
708.987	74556.77
709.307	74301.72
709.628	73998.49
709.949	73677.49
710.27	73360.68
710.59	73089.52
710.911	72788.68
711.231	72481.99
711.552	72206.41
711.872	71870.11
712.192	71579.94
712.512	71313.95
712.833	71039.96
713.153	70759.22
713.473	70524.88
713.793	70282.26
714.113	70070.32
714.433	69864.19
714.753	69659.5
715.073	69460.48
715.393	69260.38
715.712	69097.96
716.032	68867.96
716.352	68691.68
716.671	68536.48
716.991	68358.86
717.31	68166.09
717.63	68001.49
717.949	67813.54
718.268	67602.68
718.588	67428.52
718.907	67201.34
719.226	66943.79
719.545	66693.1
719.864	66414.98
720.183	66129.23
720.502	65846.75
720.821	65561.88
721.14	65265.64
721.459	64949.02
721.778	64670.6
722.096	64345.03
722.415	64044.64
722.734	63784.27
723.052	63500.57
723.371	63198.27
723.689	62926.26
724.008	62640.71
724.326	62340.49
724.644	62078.75
724.963	61800.77
725.281	61574.46
725.599	61347.4
725.917	61149.9
726.235	60956.37
726.553	60806.29
726.871	60614.67
727.189	60416.66
727.507	60224.46
727.824	60075.53
728.142	59938.73
728.46	59731.02
728.777	59632.73
729.095	59485.13
729.413	59338.61
729.73	59188.88
730.047	59053.58
730.365	58936.84
730.682	58821.21
730.999	58741.37
731.317	58660.57
731.634	58583.05
731.951	58468.55
732.268	58338.05
732.585	58192.84
732.902	58028.11
733.219	57860.05
733.536	57683.6
733.852	57561.69
734.169	57428.93
734.486	57279.03
734.802	57120.01
735.119	57010.15
735.435	56827.93
735.752	56673.33
736.068	56489.03
736.385	56328.05
736.701	56138.75
737.017	55906.01
737.333	55669.34
737.65	55350.68
737.966	54971.19
738.282	54577.47
738.598	54162.31
738.914	53710.59
739.23	53217.06
739.545	52700.44
739.861	52157.64
740.177	51616.23
740.493	51011.9
740.808	50436.34
741.124	49822.12
741.439	49243.53
741.755	48670.16
742.07	48144.35
742.386	47578.92
742.701	47082.16
743.016	46580.42
743.331	46106.94
743.647	45675.78
743.962	45282.71
744.277	44941.74
744.592	44676.29
744.907	44456.3
745.222	44289.91
745.537	44201.71
745.851	44178.75
746.166	44193.24
746.481	44244.08
746.795	44353.17
747.11	44516.22
747.424	44684.96
747.739	44846.31
748.053	45025.13
748.368	45180.89
748.682	45303.98
748.996	45439.32
749.311	45545.71
749.625	45646.56
749.939	45744.19
750.253	45805.18
750.567	45866.72
750.881	45925.22
751.195	45990.44
751.509	46061.83
751.822	46108.19
752.136	46149.26
752.45	46197.89
752.763	46269.8
753.077	46322.98
753.39	46360.15
753.704	46381.61
754.017	46401.78
754.331	46443.22
754.644	46440.54
754.957	46448.17
755.27	46460.51
755.584	46476.58
755.897	46476.87
756.21	46469.37
756.523	46444.92
756.836	46426.35
757.149	46356.09
757.461	46293.23
757.774	46201.95
758.087	46078.21
758.4	45940.7
758.712	45794.08
759.025	45637.98
759.337	45476.65
759.65	45317.49
759.962	45159.45
760.275	44998.18
760.587	44847.41
760.899	44702.89
761.211	44607.34
761.523	44532.55
761.836	44524.12
762.148	44519.71
762.46	44552.62
762.772	44620.04
763.083	44754.38
763.395	44900.7
763.707	45114.15
764.019	45334.66
764.33	45560.34
764.642	45813.96
764.954	46084.67
765.265	46366.61
765.577	46627.72
765.888	46871.15
766.199	47111.02
766.511	47330.74
766.822	47552.83
767.133	47736.2
767.444	47910.31
767.755	48008.15
768.066	48065.97
768.377	48056.58
768.688	48004.69
768.999	47916.96
769.31	47794
769.621	47607.27
769.931	47388.39
770.242	47136.7
770.553	46837.4
770.863	46511.14
771.174	46156.51
771.484	45772.24
771.794	45363.92
772.105	44959.28
772.415	44537.96
772.725	44096.48
773.035	43657.92
773.345	43199.2
773.656	42725.08
773.966	42255.82
774.276	41816.94
774.585	41385.57
774.895	40951.87
775.205	40567.6
775.515	40172.44
775.824	39778.44
776.134	39395.89
776.444	39032.87
776.753	38671.65
777.063	38331.1
777.372	38000.34
777.681	37675.24
777.991	37368.18
778.3	37066.27
778.609	36761.08
778.918	36470.99
779.228	36198.74
779.537	35930.98
779.846	35674.19
780.154	35433.15
780.463	35197.06
780.772	34952.09
781.081	34720.4
781.39	34515.09
781.698	34295.48
782.007	34086.1
782.316	33881.95
782.624	33661.12
782.932	33454.69
783.241	33257.19
783.549	33063.49
783.858	32894.89
784.166	32731.2
784.474	32557.06
784.782	32386.01
785.09	32227.12
785.398	32077.85
785.706	31946.04
786.014	31803.55
786.322	31657.46
786.63	31520.45
786.937	31388.82
787.245	31270.81
787.553	31144.28
787.86	31039.86
788.168	30914
788.475	30809.25
788.783	30710.56
789.09	30618.57
789.398	30524.83
789.705	30427.58
790.012	30330.89
790.319	30225.63
790.626	30121.68
790.933	30033.19
791.24	29949.38
791.547	29858.81
791.854	29762.83
792.161	29660.31
792.468	29564.08
792.774	29467.37
793.081	29382.48
793.388	29301.38
793.694	29203.83
794.001	29115.5
794.307	28987.86
794.614	28886.68
794.92	28755.7
795.226	28626.15
795.533	28510.04
795.839	28402.97
796.145	28283.03
796.451	28165.87
796.757	28059.2
797.063	27939.18
797.369	27822.69
797.675	27714.57
797.98	27608.54
798.286	27492.41
798.592	27388.3
798.898	27275.11
799.203	27163.18
799.509	27043.68
799.814	26915.76
800.12	26814.92
800.425	26700.18
800.73	26592.8
801.035	26470.18
801.341	26372.41
801.646	26269.66
801.951	26169.98
802.256	26073.94
802.561	25975.74
802.866	25881.99
803.171	25787.99
803.476	25704.11
803.78	25616.3
804.085	25520.28
804.39	25409.21
804.694	25311.4
804.999	25202.15
805.303	25106.28
805.608	25023.82
805.912	24941.59
806.216	24875.75
806.521	24800.4
806.825	24726.17
807.129	24650.81
807.433	24579.21
807.737	24510.17
808.041	24454.9
808.345	24400.01
808.649	24335.66
808.953	24289.57
809.257	24235.51
809.561	24182.61
809.864	24131.31
810.168	24092.63
810.471	24057.64
810.775	24033.62
811.078	24007.69
811.382	23990.84
811.685	23990.63
811.988	23979.87
812.292	23970.45
812.595	23965.78
812.898	23964.17
813.201	23977.78
813.504	24001.37
813.807	24035.27
814.11	24062.4
814.413	24092.72
814.716	24117.42
815.018	24164.25
815.321	24218.46
815.624	24302.24
815.926	24403.04
816.229	24528.91
816.531	24674.99
816.834	24836.07
817.136	25033.84
817.438	25252.09
817.74	25523.26
818.043	25828.93
818.345	26206.38
818.647	26664.89
818.949	27210.26
819.251	27846.61
819.553	28596.69
819.855	29468.65
820.156	30441.42
820.458	31526.86
820.76	32683.26
821.062	33899.01
821.363	35169.58
821.665	36513.97
821.966	37943.15
822.268	39392.32
822.569	40844.87
822.87	42320.96
823.171	43818.93
823.473	45352.36
823.774	46938.5
824.075	48466.13
824.376	49971.75
824.677	51444.67
824.978	52822.83
825.279	54109.07
825.58	55282.95
825.88	56317.11
826.181	57197.36
826.482	57976.99
826.782	58596.5
827.083	59105.77
827.383	59489.69
827.684	59705.69
827.984	59778.05
828.284	59686.7
828.585	59457.37
828.885	59149.89
829.185	58694.82
829.485	58131.99
829.785	57456.23
830.085	56613.91
830.385	55741.16
830.685	54802.56
830.985	53750.91
831.285	52674.17
831.584	51556.98
831.884	50407.11
832.183	49230.36
832.483	48020.35
832.782	46741.26
833.082	45464.23
833.381	44188.71
833.681	42945.68
833.98	41778.13
834.279	40643.09
834.578	39538.38
834.877	38504.51
835.176	37491.29
835.475	36557.43
835.774	35669.8
836.073	34798.06
836.372	33983.64
836.671	33170.98
836.969	32364.87
837.268	31627.5
837.567	30918.68
837.865	30226.91
838.164	29548.55
838.462	28903.18
838.761	28293.86
839.059	27716.05
839.357	27163.17
839.655	26631.96
839.953	26094.38
840.252	25566.2
840.55	25039.49
840.848	24531.13
841.146	24043.06
841.443	23545.71
841.741	23042.51
842.039	22535.1
842.337	22034.7
842.634	21570.21
842.932	21125.54
843.229	20696.06
843.527	20275.79
843.824	19832.65
844.122	19385.93
844.419	18964.74
844.716	18533.75
845.013	18115.59
845.311	17730.5
845.608	17359.9
845.905	16993.1
846.202	16636.22
846.499	16264.7
846.796	15906.82
847.092	15537.73
847.389	15170.06
847.686	14837
847.982	14518.17
848.279	14210.14
848.576	13919.87
848.872	13624.94
849.168	13336.14
849.465	13062.91
849.761	12770.71
850.057	12501.05
850.354	12240.28
850.65	11988.06
850.946	11758.37
851.242	11537.46
851.538	11318.81
851.834	11098.11
852.13	10877.62
852.425	10684.09
852.721	10506.62
853.017	10339.31
853.312	10188.81
853.608	10042.32
853.903	9902.27
854.199	9755.93
854.494	9623.98
854.79	9492.11
855.085	9357.69
855.38	9229.88
855.675	9098.51
855.971	8980.89
856.266	8877.65
856.561	8780.46
856.856	8687.76
857.151	8599.7
857.445	8503.21
857.74	8401.87
858.035	8311.28
858.33	8222.27
858.624	8131.94
858.919	8056.32
859.213	7970.27
859.508	7887.69
859.802	7800.81
860.096	7717.94
860.391	7651.8
860.685	7588.64
860.979	7530.09
861.273	7478.47
861.567	7420.04
861.861	7354.61
862.155	7298.12
862.449	7228.56
862.743	7164.93
863.037	7104.75
863.33	7046.36
863.624	6990.36
863.918	6945.37
864.211	6906.39
864.505	6873.82
864.798	6834.73
865.092	6784.59
865.385	6739.12
865.678	6689.38
865.971	6652.99
866.264	6618.66
866.558	6591.1
866.851	6557.61
867.144	6524.75
867.437	6490.62
867.729	6459.66
868.022	6440.09
868.315	6420.52
868.608	6409.54
868.9	6404.07
869.193	6387.56
869.485	6359.88
869.778	6338.54
870.07	6309.84
870.363	6287.27
870.655	6267.26
870.947	6258.53
871.239	6250.24
871.532	6251.45
871.824	6253.01
872.116	6253.36
872.408	6248.08
872.699	6235.06
872.991	6228.66
873.283	6227.48
873.575	6228.8
873.867	6237.89
874.158	6243
874.45	6242.33
874.741	6242.28
875.033	6238.36
875.324	6249.5
875.615	6269.59
875.907	6290.68
876.198	6309.51
876.489	6320
876.78	6324.4
877.071	6324
877.362	6329.36
877.653	6332.16
877.944	6344.07
878.235	6350.08
878.526	6361.78
878.816	6377.59
