Data from 24HourExp_27052025_FLMS018081_10-48-22-285.txt Node
Date: Tue May 27 10:48:22 BST 2025
User: adleo
Spectrometer: FLMS01808
Trigger mode: 0
Integration Time (sec): 4.000000E-1
Scans to average: 10
Electric dark correction enabled: true
Nonlinearity correction enabled: true
Boxcar width: 10
XAxis mode: Wavelengths
Number of Pixels in Spectrum: 2048
>>>>>Begin Spectral Data<<<<<
178.471	-133.76
178.857	-128.55
179.244	-120.83
179.631	-110.08
180.017	-101.8
180.404	-93.66
180.79	-80.55
181.176	-71.08
181.563	-61.44
181.949	-50.58
182.335	-41.04
182.722	-25.61
183.108	-6.74
183.494	20.16
183.88	74.73
184.266	128.06
184.653	184.1
185.039	237.65
185.425	294.75
185.811	348.25
186.197	402.8
186.582	454.39
186.968	508.09
187.354	559.84
187.74	610.52
188.126	661.38
188.511	712.18
188.897	758.78
189.283	805.4
189.668	850.53
190.054	894.96
190.439	941.24
190.825	984.27
191.21	1025.75
191.596	1058.75
191.981	1065.43
192.366	1070.64
192.752	1072.77
193.137	1077.3
193.522	1076.72
193.908	1079.43
194.293	1082.19
194.678	1085.27
195.063	1086.51
195.448	1089.19
195.833	1090.29
196.218	1090.57
196.603	1089.47
196.988	1089.52
197.373	1090.82
197.757	1090.6
198.142	1091.62
198.527	1089.41
198.912	1091.25
199.296	1091.04
199.681	1090.64
200.066	1090.12
200.45	1088.72
200.835	1088.91
201.219	1090.73
201.604	1092.06
201.988	1091.84
202.372	1091.99
202.757	1091.65
203.141	1093.81
203.525	1093.97
203.91	1092.79
204.294	1093.88
204.678	1094.66
205.062	1092.78
205.446	1092.41
205.83	1095.47
206.214	1094.75
206.598	1095.63
206.982	1096.1
207.366	1095.5
207.75	1097.03
208.134	1099.74
208.517	1101.41
208.901	1102.11
209.285	1100.66
209.669	1101.22
210.052	1102.18
210.436	1101.43
210.819	1100.82
211.203	1100.83
211.586	1099.67
211.97	1099.12
212.353	1097.5
212.737	1098.77
213.12	1102.94
213.503	1104.62
213.886	1104.37
214.27	1106.79
214.653	1108.58
215.036	1111.26
215.419	1113.77
215.802	1115.28
216.185	1115.85
216.568	1118.34
216.951	1122.42
217.334	1123.6
217.717	1125.75
218.1	1127.58
218.482	1131.62
218.865	1136.42
219.248	1140.13
219.631	1145.73
220.013	1151.89
220.396	1159.26
220.778	1164.01
221.161	1167.44
221.544	1173.9
221.926	1182.59
222.308	1189.52
222.691	1195.69
223.073	1201.67
223.455	1209.04
223.838	1218.65
224.22	1227.44
224.602	1237.68
224.984	1246.91
225.366	1258.68
225.749	1271.92
226.131	1284.22
226.513	1295.98
226.895	1309.58
227.276	1323.1
227.658	1337.69
228.04	1351.27
228.422	1366.61
228.804	1382.99
229.186	1399.56
229.567	1416.2
229.949	1431.03
230.331	1446.45
230.712	1463.92
231.094	1481.91
231.475	1502.48
231.857	1519.08
232.238	1536.74
232.62	1554.58
233.001	1571.85
233.382	1592.66
233.763	1611.39
234.145	1630.46
234.526	1651.82
234.907	1670.77
235.288	1688.75
235.669	1707.31
236.05	1726.57
236.431	1745.9
236.812	1767.04
237.193	1788.71
237.574	1809.71
237.955	1831.48
238.336	1854.28
238.717	1876.76
239.097	1898.94
239.478	1919.26
239.859	1941.93
240.239	1968.28
240.62	1993.27
241.001	2017.42
241.381	2039.23
241.762	2064.14
242.142	2087.42
242.522	2109.34
242.903	2135.67
243.283	2162.93
243.663	2189.56
244.044	2216.75
244.424	2244.19
244.804	2269.92
245.184	2297.6
245.564	2323.62
245.944	2353.91
246.324	2383.32
246.704	2412.97
247.084	2441.53
247.464	2471.98
247.844	2502.83
248.224	2530.26
248.604	2559.31
248.983	2590.82
249.363	2625.27
249.743	2653.27
250.122	2681.38
250.502	2711.88
250.882	2740.35
251.261	2772.67
251.641	2803.99
252.02	2837.63
252.399	2870.67
252.779	2905.38
253.158	2939.13
253.537	2977.71
253.917	3017.99
254.296	3054.73
254.675	3094.28
255.054	3132.08
255.433	3173.94
255.812	3212.54
256.191	3253.75
256.57	3294.99
256.949	3337.93
257.328	3379.7
257.707	3425.01
258.086	3473.59
258.465	3519.59
258.843	3569.78
259.222	3617.49
259.601	3669.53
259.979	3721.96
260.358	3775.97
260.736	3830.15
261.115	3884.88
261.493	3935.19
261.872	3984.83
262.25	4040.57
262.629	4094.94
263.007	4156.5
263.385	4213.46
263.763	4275.21
264.142	4339.5
264.52	4403.46
264.898	4468.53
265.276	4532.65
265.654	4602.55
266.032	4669.8
266.41	4741.83
266.788	4811.4
267.166	4884.81
267.544	4957.46
267.921	5032.79
268.299	5108.43
268.677	5187.33
269.055	5270.35
269.432	5358.07
269.81	5443.01
270.188	5528.35
270.565	5615.36
270.943	5704.98
271.32	5793.65
271.697	5888.02
272.075	5982.2
272.452	6075.48
272.829	6169.18
273.207	6268.15
273.584	6372.27
273.961	6480.47
274.338	6591.41
274.715	6706.61
275.092	6826.52
275.469	6945.2
275.846	7062.06
276.223	7183.09
276.6	7304.23
276.977	7427.04
277.354	7549.62
277.731	7678.18
278.108	7810.4
278.484	7941.83
278.861	8072.52
279.238	8213.81
279.614	8349.82
279.991	8487.14
280.367	8632.6
280.744	8785.06
281.12	8935.69
281.497	9080.42
281.873	9231.94
282.249	9380.03
282.625	9528.66
283.002	9672.37
283.378	9821.31
283.754	9973.9
284.13	10130.25
284.506	10286.68
284.882	10444.75
285.258	10599.83
285.634	10757.62
286.01	10916.6
286.386	11074.59
286.762	11241.42
287.138	11404.26
287.513	11569.12
287.889	11735.94
288.265	11899.82
288.641	12060.32
289.016	12222.91
289.392	12388.25
289.767	12550.78
290.143	12717.74
290.518	12882.02
290.894	13046.78
291.269	13208.32
291.644	13372.68
292.02	13524.85
292.395	13682.15
292.77	13837.32
293.145	13997.91
293.52	14150.36
293.895	14302.39
294.27	14460.67
294.646	14609.74
295.02	14758.08
295.395	14909.52
295.77	15063.41
296.145	15218.25
296.52	15372.13
296.895	15525.23
297.269	15679.44
297.644	15833.94
298.019	15986.65
298.393	16140.14
298.768	16295.41
299.143	16451.42
299.517	16602.69
299.891	16761.89
300.266	16919.39
300.64	17083.23
301.015	17244.47
301.389	17424.24
301.763	17597.7
302.137	17770.35
302.512	17953.57
302.886	18132.73
303.26	18319.68
303.634	18498.98
304.008	18672.94
304.382	18857.77
304.756	19041.62
305.13	19228.96
305.504	19406.45
305.877	19599.42
306.251	19805.51
306.625	20007.62
306.999	20218.57
307.372	20428.35
307.746	20647.47
308.119	20862.52
308.493	21071.17
308.866	21290.02
309.24	21499.06
309.613	21707.55
309.987	21919.36
310.36	22113.39
310.733	22319.99
311.107	22531.82
311.48	22752.46
311.853	22986.08
312.226	23208.67
312.599	23442.28
312.972	23665.4
313.345	23900.55
313.718	24126.55
314.091	24345.45
314.464	24575.95
314.837	24795.98
315.21	25011.87
315.582	25231.74
315.955	25446.33
316.328	25666.32
316.7	25879.91
317.073	26096.35
317.446	26317.17
317.818	26541.3
318.191	26770.6
318.563	26992.04
318.936	27204.22
319.308	27405.32
319.68	27612.75
320.053	27816.22
320.425	27996.62
320.797	28175.87
321.169	28337.74
321.541	28483.28
321.913	28615.51
322.285	28733.67
322.657	28860.83
323.029	29009.77
323.401	29148.97
323.773	29306.8
324.145	29484.59
324.517	29666.55
324.889	29848.06
325.26	30049.23
325.632	30266.51
326.004	30500.57
326.375	30760.63
326.747	31031.08
327.118	31334.71
327.49	31610.24
327.861	31912.66
328.233	32227.34
328.604	32535.87
328.975	32854.02
329.346	33164.36
329.718	33474.74
330.089	33774.86
330.46	34068.35
330.831	34339.67
331.202	34597.75
331.573	34842.2
331.944	35066.68
332.315	35294.41
332.686	35510.6
333.057	35709.12
333.428	35887.65
333.799	36059.68
334.169	36212.23
334.54	36356.12
334.911	36476.62
335.281	36615.05
335.652	36736.44
336.022	36865.6
336.393	37014.69
336.763	37181.36
337.134	37369.05
337.504	37563.77
337.874	37766.83
338.245	37972.72
338.615	38190.94
338.985	38419.36
339.355	38645.32
339.726	38863.08
340.096	39081.97
340.466	39325.56
340.836	39570.93
341.206	39814.9
341.576	40066.59
341.945	40309.15
342.315	40542.47
342.685	40786.4
343.055	41031.68
343.425	41274
343.794	41506.73
344.164	41738.6
344.533	41965.1
344.903	42190.25
345.273	42424.1
345.642	42657.63
346.011	42885.31
346.381	43120.42
346.75	43350.7
347.12	43601.05
347.489	43853.77
347.858	44100.71
348.227	44318.85
348.596	44541.69
348.965	44781.24
349.334	45008.38
349.704	45248.68
350.072	45497.73
350.441	45728.44
350.81	45967.77
351.179	46199.68
351.548	46436.53
351.917	46662.67
352.285	46856.33
352.654	47060.81
353.023	47264.17
353.391	47463.66
353.76	47678.79
354.129	47860.79
354.497	48092.97
354.865	48313.51
355.234	48544.7
355.602	48766.87
355.971	49009.05
356.339	49222.32
356.707	49432.94
357.075	49645.58
357.443	49863.18
357.811	50069.14
358.18	50283.41
358.548	50495.79
358.916	50704.74
359.284	50919.7
359.651	51133.89
360.019	51354.2
360.387	51559.98
360.755	51771.64
361.123	51998.65
361.49	52227.16
361.858	52443.59
362.226	52637.22
362.593	52835.99
362.961	53015.78
363.328	53216.33
363.696	53382.28
364.063	53602.65
364.43	53807.25
364.798	54023.66
365.165	54209.09
365.532	54399
365.899	54583.17
366.267	54741.27
366.634	54893.13
367.001	55052.32
367.368	55186.63
367.735	55373.28
368.102	55553.28
368.469	55733.7
368.835	55912.14
369.202	56070.85
369.569	56266.48
369.936	56460.28
370.303	56643.68
370.669	56839.18
371.036	57000.28
371.402	57209.94
371.769	57389.03
372.135	57547.39
372.502	57674.5
372.868	57810.15
373.235	57948.86
373.601	58088.21
373.967	58269.04
374.333	58451.79
374.7	58639.37
375.066	58843.68
375.432	59023.64
375.798	59201.83
376.164	59375.65
376.53	59519.5
376.896	59685.7
377.262	59855.65
377.628	59975.66
377.993	60120.56
378.359	60266.45
378.725	60422.13
379.091	60567.39
379.456	60692.71
379.822	60818.36
380.187	60967.94
380.553	61164.79
380.918	61358.2
381.284	61530.44
381.649	61692.52
382.015	61838.23
382.38	61958.79
382.745	62130.78
383.11	62288.1
383.476	62428.54
383.841	62556.76
384.206	62720.74
384.571	62842.59
384.936	62975.55
385.301	63152.74
385.666	63289.25
386.031	63442.77
386.396	63608.22
386.76	63762.48
387.125	63956.8
387.49	64157.49
387.855	64346.57
388.219	64508.83
388.584	64683.27
388.948	64874.6
389.313	65044.09
389.677	65250.32
390.042	65484.7
390.406	65630.96
390.771	65819.55
391.135	66010.96
391.499	66239.24
391.863	66464.8
392.227	66705.09
392.592	66897.65
392.956	67095.11
393.32	67296.86
393.684	67511.32
394.048	67689.56
394.412	67866.8
394.775	68011.68
395.139	68162.74
395.503	68324.14
395.867	68479.21
396.231	68621.56
396.594	68725.32
396.958	68864.22
397.321	69015.06
397.685	69137.83
398.048	69285.54
398.412	69411.57
398.775	69539.36
399.139	69665.84
399.502	69778.11
399.865	69921.54
400.228	70123.18
400.592	70257.65
400.955	70444.87
401.318	70577.74
401.681	70733.46
402.044	70873.16
402.407	71035.35
402.77	71185.78
403.133	71374.62
403.496	71517.61
403.859	71663.18
404.221	71899.54
404.584	72137.4
404.947	72384.22
405.309	72587.54
405.672	72825.51
406.034	73048.32
406.397	73297.91
406.759	73517.87
407.122	73698.96
407.484	73866.32
407.847	74056.47
408.209	74305.12
408.571	74534.44
408.933	74798.47
409.296	75053
409.658	75297.54
410.02	75570.98
410.382	75890
410.744	76146.87
411.106	76432.58
411.468	76714.88
411.83	76955.07
412.191	77153.45
412.553	77324.67
412.915	77541.93
413.277	77742.18
413.638	77941.49
414	78113.13
414.361	78288.85
414.723	78511.47
415.084	78724.65
415.446	78882.09
415.807	79013.32
416.169	79119.08
416.53	79199.86
416.891	79296.57
417.252	79413.92
417.614	79483.99
417.975	79518.7
418.336	79562.88
418.697	79610.52
419.058	79653.89
419.419	79685.92
419.78	79719.25
420.141	79743.41
420.501	79763.41
420.862	79780.69
421.223	79792.86
421.584	79823.96
421.944	79841.03
422.305	79851.08
422.666	79857.75
423.026	79862.11
423.387	79871.17
423.747	79879.75
424.107	79890.62
424.468	79901.68
424.828	79905.52
425.188	79911.06
425.549	79917.62
425.909	79922.75
426.269	79920.36
426.629	79924.05
426.989	79927.26
427.349	79930.55
427.709	79932.69
428.069	79936.64
428.429	79942.73
428.789	79948.52
429.149	79951.59
429.508	79955.61
429.868	79960.12
430.228	79965.07
430.587	79968.46
430.947	79974.3
431.306	79979.21
431.666	79982.39
432.025	79983.31
432.385	79986.93
432.744	79987.86
433.103	79989.67
433.463	79992.92
433.822	80000.63
434.181	80002.22
434.54	80005.4
434.899	80008.28
435.258	80012.35
435.618	80013.53
435.976	80015.23
436.335	80016.04
436.694	80015.56
437.053	80015.86
437.412	80017.41
437.771	80018.63
438.129	80019.93
438.488	80020.33
438.847	80019.89
439.205	80022.29
439.564	80022.81
439.922	80023.44
440.281	80025.99
440.639	80028.76
440.997	80027.36
441.356	80027.95
441.714	80028.47
442.072	80027.87
442.431	80028.47
442.789	80028.87
443.147	80029.13
443.505	80030.17
443.863	80032.46
444.221	80033.86
444.579	80036.93
444.937	80036.34
445.294	80035.38
445.652	80036.49
446.01	80037.27
446.368	80037.53
446.725	80038.52
447.083	80040.15
447.441	80040.78
447.798	80039.26
448.156	80037.49
448.513	80037.82
448.87	80039.26
449.228	80039.89
449.585	80038.89
449.942	80038.08
450.3	80038.75
450.657	80038.63
451.014	80037.64
451.371	80036.6
451.728	80036.93
452.085	80034.01
452.442	80035.23
452.799	80036.34
453.156	80034.49
453.513	80033.57
453.869	80033.01
454.226	80031.13
454.583	80029.91
454.939	80029.72
455.296	80030.24
455.653	80031.05
456.009	80032.68
456.366	80032.75
456.722	80033.64
457.078	80034.57
457.435	80034.27
457.791	80034.38
458.147	80034.94
458.503	80036.56
458.86	80037.86
459.216	80039.11
459.572	80040
459.928	80039.34
460.284	80039.23
460.64	80040.45
460.996	80041.74
461.351	80044.4
461.707	80046.07
462.063	80047.73
462.419	80048.62
462.774	80048.03
463.13	80049.32
463.486	80049.43
463.841	80050.28
464.197	80051.17
464.552	80051.32
464.908	80052.32
465.263	80051.58
465.618	80053.02
465.974	80054.8
466.329	80055.09
466.684	80055.02
467.039	80055.57
467.394	80058.68
467.749	80057.83
468.104	80058.46
468.459	80057.09
468.814	80056.83
469.169	80055.54
469.524	80055.24
469.879	80055.02
470.233	80057.09
470.588	80057.35
470.943	80059.13
471.297	80058.2
471.652	80055.95
472.006	80058.35
472.361	80060.01
472.715	80061.79
473.07	80061.57
473.424	80059.61
473.778	80061.35
474.133	80062.01
474.487	80063.46
474.841	80061.27
475.195	80062.9
475.549	80064.12
475.903	80066.34
476.257	80066.08
476.611	80067.56
476.965	80068.67
477.319	80071.08
477.673	80070.59
478.026	80070.41
478.38	80070
478.734	80071.41
479.087	80072.7
479.441	80072.33
479.795	80074
480.148	80073.85
480.502	80074.26
480.855	80076.44
481.208	80074.59
481.562	80076.33
481.915	80076.99
482.268	80078.47
482.621	80080.1
482.974	80079.81
483.328	80080.03
483.681	80080.73
484.034	80081.88
484.387	80081.25
484.739	80078.96
485.092	80078.22
485.445	80079.29
485.798	80078.88
486.151	80078.51
486.503	80079.29
486.856	80079.73
487.209	80078.14
487.561	80080.4
487.914	80081.03
488.266	80079.88
488.618	80079.29
488.971	80077.66
489.323	80077.44
489.675	80079.1
490.028	80078.44
490.38	80078.84
490.732	80080.25
491.084	80079.96
491.436	80080.58
491.788	80081.81
492.14	80081.32
492.492	80081.29
492.844	80082.95
493.196	80084.51
493.548	80083.95
493.899	80084.62
494.251	80083.58
494.603	80083.62
494.954	80081.88
495.306	80081.81
495.657	80082.51
496.009	80084.43
496.36	80085.73
496.712	80086.28
497.063	80082.55
497.414	80083.77
497.765	80082.73
498.117	80081.44
498.468	80082.58
498.819	80081.25
499.17	80081.33
499.521	80082.55
499.872	80083.47
500.223	80082.29
500.574	80081.55
500.924	80082.03
501.275	80082.1
501.626	80081.99
501.977	80083.62
502.327	80082.88
502.678	80082.32
503.029	80081.58
503.379	80080.99
503.73	80080.14
504.08	80078.4
504.43	80079.44
504.781	80076.81
505.131	80077.4
505.481	80077.59
505.831	80077.96
506.182	80079.14
506.532	80078.77
506.882	80079.1
507.232	80079.99
507.582	80078.62
507.932	80079.14
508.281	80079.92
508.631	80079.77
508.981	80081.25
509.331	80080.55
509.681	80081.4
510.03	80082.95
510.38	80083.03
510.729	80082.88
511.079	80082.21
511.428	80081.77
511.778	80082.03
512.127	80082.77
512.476	80082.17
512.826	80082.8
513.175	80083.06
513.524	80082.66
513.873	80082.29
514.222	80082.77
514.571	80083.03
514.92	80082.73
515.269	80081.29
515.618	80081.18
515.967	80081.58
516.316	80080.95
516.665	80080.95
517.014	80081.03
517.362	80079.88
517.711	80080.99
518.059	80081.18
518.408	80082.54
518.757	80083.43
519.105	80084.25
519.453	80085.54
519.802	80086.13
520.15	80085.25
520.498	80084.21
520.847	80083.88
521.195	80083.03
521.543	80083.43
521.891	80083.73
522.239	80083.8
522.587	80084.76
522.935	80084.91
523.283	80086.1
523.631	80085.62
523.979	80085.76
524.326	80084.77
524.674	80085.91
525.022	80084.88
525.369	80086.36
525.717	80086.69
526.064	80088.32
526.412	80088.76
526.759	80089.91
527.107	80089.1
527.454	80089.61
527.801	80089.76
528.149	80088.91
528.496	80091.32
528.843	80089.65
529.19	80087.99
529.537	80088.62
529.884	80089.98
530.231	80090.17
530.578	80089.06
530.925	80089.36
531.272	80089.32
531.619	80089.39
531.966	80089.21
532.312	80088.25
532.659	80085.95
533.006	80083.4
533.352	80081.55
533.699	80081.62
534.045	80080.51
534.392	80080.44
534.738	80079.92
535.084	80080.14
535.431	80082.69
535.777	80081.92
536.123	80083.06
536.469	80083.77
536.815	80083.92
537.161	80081.99
537.507	80082.88
537.853	80081.62
538.199	80082.03
538.545	80081.55
538.891	80082.58
539.237	80082.14
539.582	80083.88
539.928	80084.51
540.274	80085.99
540.619	80086.95
540.965	80086.36
541.31	80085.76
541.656	80087.58
542.001	80088.24
542.347	80088.02
542.692	80085.43
543.037	80085.17
543.382	80085.58
543.728	80087.1
544.073	80088.13
544.418	80088.24
544.763	80087.98
545.108	80088.98
545.453	80089.06
545.798	80088.8
546.142	80088.47
546.487	80089.28
546.832	80088.06
547.177	80087.54
547.521	80086.32
547.866	80088.54
548.211	80089.69
548.555	80090.69
548.9	80090.17
549.244	80090.43
549.588	80089.61
549.933	80090.58
550.277	80090.39
550.621	80090.65
550.965	80089.73
551.31	80089.98
551.654	80089.8
551.998	80089.8
552.342	80089.95
552.686	80090.58
553.03	80090.39
553.373	80091.65
553.717	80092.46
554.061	80092.17
554.405	80093.95
554.748	80095.98
555.092	80095.05
555.436	80093.76
555.779	80092.69
556.123	80093.2
556.466	80091.58
556.81	80093.2
557.153	80093.83
557.496	80093.17
557.839	80092.72
558.183	80091.21
558.526	80089.69
558.869	80089.32
559.212	80087.84
559.555	80086.69
559.898	80085.62
560.241	80087.1
560.584	80087.51
560.927	80086.54
561.269	80088.87
561.612	80089.8
561.955	80088.69
562.297	80087.1
562.64	80087.06
562.983	80087.76
563.325	80087.69
563.668	80088.61
564.01	80086.8
564.352	80084.69
564.695	80085.4
565.037	80083.77
565.379	80083.69
565.721	80083.47
566.063	80084.77
566.406	80084.54
566.748	80085.69
567.09	80085.62
567.431	80084.47
567.773	80082.69
568.115	80081.51
568.457	80078.59
568.799	80076.85
569.14	80078.33
569.482	80077.59
569.824	80077.59
570.165	80075.74
570.507	80073.92
570.848	80072.55
571.19	80072.92
571.531	80072.92
571.872	80073.04
572.214	80073.41
572.555	80075
572.896	80074.07
573.237	80071.52
573.578	80070.74
573.919	80070.82
574.26	80072.04
574.601	80072.22
574.942	80072.41
575.283	80071.48
575.624	80072.22
575.964	80072.22
576.305	80070.48
576.646	80071
576.986	80071.56
577.327	80071.52
577.667	80071.07
578.008	80073.18
578.348	80073.07
578.689	80073.15
579.029	80072.81
579.369	80072.44
579.71	80071.11
580.05	80071.52
580.39	80072.48
580.73	80072.3
581.07	80071.93
581.41	80069.82
581.75	80068.26
582.09	80066.12
582.43	80067.49
582.769	80070.15
583.109	80068.78
583.449	80068.82
583.789	80068.89
584.128	80069.11
584.468	80070.11
584.807	80071.74
585.147	80070.04
585.486	80069.59
585.825	80070.33
586.165	80069.74
586.504	80070.93
586.843	80072.15
587.182	80072.07
587.522	80070.67
587.861	80071.19
588.2	80069.23
588.539	80068.82
588.878	80069.3
589.216	80070.45
589.555	80069.19
589.894	80065.56
590.233	80066.01
590.572	80067.15
590.91	80066.86
591.249	80066.34
591.587	80064.67
591.926	80063.56
592.264	80064.53
592.603	80065.78
592.941	80065.45
593.279	80065.3
593.618	80063.75
593.956	80061.97
594.294	80063.12
594.632	80063.49
594.97	80063.49
595.308	80064.04
595.646	80065.78
595.984	80065.82
596.322	80065.86
596.66	80066.6
596.998	80065.38
597.335	80065.34
597.673	80064.05
598.011	80063.42
598.348	80062.16
598.686	80063.49
599.023	80063.42
599.361	80061.57
599.698	80060.53
600.035	80060.05
600.373	80058.46
600.71	80059.94
601.047	80060.09
601.384	80059.01
601.722	80059.79
602.059	80061.2
602.396	80062.45
602.733	80061.42
603.069	80061.16
603.406	80060.38
603.743	80059.57
604.08	80061.45
604.417	80060.49
604.753	80059.97
605.09	80061.71
605.426	80062.38
605.763	80062.34
606.099	80062.23
606.436	80063.16
606.772	80062.34
607.109	80062.93
607.445	80063.71
607.781	80063.01
608.117	80062.19
608.453	80062.68
608.79	80061.86
609.126	80059.31
609.462	80058.35
609.798	80057.94
610.133	80057.76
610.469	80058.83
610.805	80059.16
611.141	80058.05
611.477	80058.2
611.812	80057.13
612.148	80054.39
612.483	80053.65
612.819	80052.91
613.154	80052.5
613.49	80052.13
613.825	80050.84
614.16	80049.84
614.496	80049.14
614.831	80048.25
615.166	80048.21
615.501	80045.7
615.836	80044.96
616.171	80044.03
616.506	80043.33
616.841	80043.66
617.176	80043.26
617.511	80041.19
617.846	80040.33
618.18	80040.33
618.515	80040
618.85	80041.15
619.184	80040.7
619.519	80039.82
619.853	80039.67
620.188	80040
620.522	80039.74
620.856	80040.33
621.191	80038.45
621.525	80040.15
621.859	80040.93
622.193	80041.63
622.527	80042.59
622.861	80043.66
623.195	80045.29
623.529	80045
623.863	80044.81
624.197	80045.22
624.531	80046.4
624.865	80045.7
625.198	80044.81
625.532	80045.66
625.866	80045.62
626.199	80047.84
626.533	80047.4
626.866	80046.77
627.2	80046.22
627.533	80046.1
627.866	80046.14
628.2	80047.62
628.533	80046.22
628.866	80045.36
629.199	80045.11
629.532	80045.62
629.865	80045.92
630.198	80045.33
630.531	80044.92
630.864	80042.48
631.197	80039.45
631.529	80039.19
631.862	80039.93
632.195	80041.63
632.527	80040.63
632.86	80039.56
633.193	80038.23
633.525	80037.34
633.857	80038.19
634.19	80037.6
634.522	80035.94
634.854	80035.01
635.187	80034.57
635.519	80034.01
635.851	80033.46
636.183	80032.72
636.515	80031.2
636.847	80030.54
637.179	80031.9
637.511	80032.76
637.843	80033.31
638.174	80034.57
638.506	80034.64
638.838	80034.57
639.17	80032.35
639.501	80032.13
639.833	80033.46
640.164	80034.23
640.496	80034.9
640.827	80033.98
641.158	80034.27
641.49	80035.6
641.821	80035.86
642.152	80035.34
642.483	80035.71
642.814	80034.68
643.145	80034.31
643.476	80034.9
643.807	80034.46
644.138	80033.31
644.469	80031.72
644.8	80031.87
645.131	80033.01
645.461	80032.31
645.792	80032.42
646.122	80032.46
646.453	80032.38
646.784	80030.61
647.114	80028.32
647.444	80028.65
647.775	80029.02
648.105	80028.46
648.435	80027.84
648.765	80027.17
649.096	80028.87
649.426	80028.87
649.756	80029.02
650.086	80028.39
650.416	80029.35
650.746	80029.8
651.075	80030.46
651.405	80029.91
651.735	80030.46
652.065	80030.54
652.394	80031.35
652.724	80029.72
653.054	80031.31
653.383	80031.24
653.712	80030.91
654.042	80032.13
654.371	80031.65
654.701	80029.76
655.03	80030.65
655.359	80029.65
655.688	80030.02
656.017	80029.43
656.346	80028.95
656.675	80028.47
657.004	80029.28
657.333	80026.95
657.662	80026.8
657.991	80025.47
658.32	80026.69
658.648	80026.95
658.977	80026.54
659.306	80023.66
659.634	80023.11
659.963	80022.18
660.291	80022.44
660.619	80023.4
660.948	80022.55
661.276	80023.29
661.604	80023.84
661.933	80021.92
662.261	80021.81
662.589	80022.7
662.917	80021.85
663.245	80022.51
663.573	80024.14
663.901	80024.1
664.229	80026.1
664.556	80025.43
664.884	80023.85
665.212	80022.22
665.539	80019.19
665.867	80019.37
666.195	80020
666.522	80020.78
666.85	80019.96
667.177	80018.71
667.504	80018.37
667.832	80018.19
668.159	80016.78
668.486	80016.53
668.813	80017.45
669.14	80017.04
669.467	80016.05
669.794	80015.93
670.121	80013.97
670.448	80012.9
670.775	80012.24
671.102	80011.35
671.429	80009.95
671.755	80010.24
672.082	80011.13
672.409	80012.68
672.735	80012.61
673.062	80013.42
673.388	80013.6
673.714	80013.71
674.041	80013.09
674.367	80012.53
674.693	80011.87
675.019	80010.94
675.346	80011.31
675.672	80010.65
675.998	80010.06
676.324	80009.87
676.65	80010.24
676.976	80010.68
677.301	80010.46
677.627	80010.24
677.953	80010.35
678.279	80010.98
678.604	80012.13
678.93	80011.24
679.255	80010.65
679.581	80009.32
679.906	80009.09
680.232	80008.87
680.557	80009.28
680.882	80009.61
681.208	80007.87
681.533	80007.8
681.858	80008.87
682.183	80007.47
682.508	80007.36
682.833	80009.06
683.158	80009.69
683.483	80006.77
683.808	80005.44
684.132	80003.59
684.457	80001.85
684.782	80000.67
685.106	80001
685.431	79999.49
685.755	79999.01
686.08	79999.04
686.404	79998.12
686.729	79996.53
687.053	79997.12
687.377	79996.83
687.701	79998.12
688.026	79998.9
688.35	79999.08
688.674	79998.9
688.998	79998.3
689.322	79998.64
689.646	79995.87
689.97	79992.58
690.293	79992.69
690.617	79992.76
690.941	79992.69
691.264	79991.54
691.588	79990.44
691.912	79988.74
692.235	79987.22
692.559	79985.45
692.882	79985.19
693.205	79984.38
693.529	79982.97
693.852	79978.39
694.175	79974.51
694.498	79970.49
694.821	79966.5
695.144	79963.65
695.467	79959.63
695.79	79957.86
696.113	79951.99
696.436	79947.7
696.759	79944.46
697.082	79939.62
697.404	79934.09
697.727	79926.23
698.049	79918.74
698.372	79907.83
698.694	79894.49
699.017	79879.61
699.339	79864.95
699.662	79846.39
699.984	79815.57
700.306	79780.9
700.628	79727.83
700.95	79658.92
701.272	79572.85
701.594	79477.28
701.916	79381.2
702.238	79268.28
702.56	79102.93
702.882	78938.14
703.204	78787.8
703.525	78615.18
703.847	78397.76
704.169	78192.5
704.49	77971.34
704.812	77738.18
705.133	77509.63
705.455	77277.99
705.776	77021.15
706.097	76783.3
706.419	76531.56
706.74	76268.16
707.061	75991.14
707.382	75698.52
707.703	75407.71
708.024	75131.93
708.345	74842.48
708.666	74530.86
708.987	74219.36
709.307	73968.68
709.628	73660.74
709.949	73347.24
710.27	73031.73
710.59	72769.83
710.911	72473.36
711.231	72179.82
711.552	71912.85
711.872	71587.93
712.192	71305.65
712.512	71045.21
712.833	70768.3
713.153	70485.74
713.473	70247.13
713.793	70009.82
714.113	69794.01
714.433	69581.66
714.753	69373.13
715.073	69184.54
715.393	68985.79
715.712	68818.29
716.032	68596.7
716.352	68437.09
716.671	68277.45
716.991	68102.24
717.31	67907.47
717.63	67754.65
717.949	67569.59
718.268	67363.69
718.588	67185.5
718.907	66962.2
719.226	66705.72
719.545	66451.38
719.864	66176.96
720.183	65904.23
720.502	65627.12
720.821	65346.65
721.14	65069.75
721.459	64756.11
721.778	64474.43
722.096	64152.86
722.415	63849.78
722.734	63585.55
723.052	63302
723.371	63008.04
723.689	62739.18
724.008	62461.19
724.326	62163.46
724.644	61904.35
724.963	61633.23
725.281	61405.79
725.599	61168.27
725.917	60978.72
726.235	60784.96
726.553	60629.73
726.871	60435.41
727.189	60230.65
727.507	60034.15
727.824	59870.26
728.142	59736.12
728.46	59531.65
728.777	59427.62
729.095	59290.17
729.413	59140.19
729.73	58992.66
730.047	58859.78
730.365	58748.12
730.682	58624.76
730.999	58535.73
731.317	58453.25
731.634	58372.57
731.951	58259.67
732.268	58142.31
732.585	57998.34
732.902	57836.97
733.219	57672.79
733.536	57499.56
733.852	57384.1
734.169	57256.87
734.486	57106.92
734.802	56946.74
735.119	56834.9
735.435	56667.69
735.752	56513.65
736.068	56344.78
736.385	56183.35
736.701	55987.68
737.017	55749.4
737.333	55516.06
737.65	55204.8
737.966	54833.62
738.282	54434.24
738.598	54011.39
738.914	53557.75
739.23	53064.05
739.545	52546.51
739.861	52000.17
740.177	51448.44
740.493	50845.57
740.808	50270.19
741.124	49666.02
741.439	49087.3
741.755	48515.26
742.07	47993.96
742.386	47426.75
742.701	46916.92
743.016	46411.94
743.331	45936.45
743.647	45508.2
743.962	45119.45
744.277	44776.86
744.592	44505.37
744.907	44285.16
745.222	44125.3
745.537	44037.94
745.851	44010.94
746.166	44027.44
746.481	44084.88
746.795	44201.26
747.11	44351.39
747.424	44524.99
747.739	44687.73
748.053	44862.38
748.368	45009.86
748.682	45120.58
748.996	45263.04
749.311	45366.59
749.625	45469.91
749.939	45573.89
750.253	45641.17
750.567	45708.55
750.881	45765.48
751.195	45826.36
751.509	45901.52
751.822	45949.3
752.136	45991.52
752.45	46045.7
752.763	46112.64
753.077	46164.46
753.39	46193.77
753.704	46222.01
754.017	46236.63
754.331	46274.31
754.644	46280.44
754.957	46295.63
755.27	46302.77
755.584	46312.46
755.897	46315.74
756.21	46312.69
756.523	46289.01
756.836	46269.63
757.149	46190.18
757.461	46123.86
757.774	46042.11
758.087	45916.75
758.4	45780.26
758.712	45623.49
759.025	45460.85
759.337	45297.76
759.65	45140.99
759.962	44993.96
760.275	44832.77
760.587	44682.54
760.899	44540.57
761.211	44445.65
761.523	44376.73
761.836	44375.29
762.148	44380.29
762.46	44416.88
762.772	44480.44
763.083	44610.66
763.395	44751.03
763.707	44965.71
764.019	45191.21
764.33	45410.69
764.642	45668.69
764.954	45939.36
765.265	46222.36
765.577	46493.06
765.888	46745.68
766.199	46988.78
766.511	47201.25
766.822	47424.66
767.133	47605.77
767.444	47782.27
767.755	47876.5
768.066	47933.04
768.377	47924.04
768.688	47862.87
768.999	47773.36
769.31	47643.78
769.621	47457.77
769.931	47245.99
770.242	46998.42
770.553	46696.93
770.863	46365.38
771.174	46007.55
771.484	45625.66
771.794	45220.35
772.105	44812.51
772.415	44384.09
772.725	43933.17
773.035	43490.06
773.345	43032.79
773.656	42568.52
773.966	42088.8
774.276	41660.13
774.585	41224.77
774.895	40785.8
775.205	40396.11
775.515	39999.45
775.824	39613.39
776.134	39221.87
776.444	38856.16
776.753	38488.94
777.063	38150.47
777.372	37827.05
777.681	37500.13
777.991	37193.5
778.3	36891.87
778.609	36588.25
778.918	36301.77
779.228	36042.75
779.537	35785.85
779.846	35523.87
780.154	35275.73
780.463	35038.3
780.772	34785.05
781.081	34555.37
781.39	34355.63
781.698	34143.03
782.007	33941.01
782.316	33737.99
782.624	33527.82
782.932	33320.2
783.241	33127.48
783.549	32942.05
783.858	32771.2
784.166	32603.11
784.474	32429.73
784.782	32266.95
785.09	32111.59
785.398	31966.7
785.706	31825.94
786.014	31684.97
786.322	31547.96
786.63	31418.49
786.937	31293.17
787.245	31174.52
787.553	31055.08
787.86	30945.28
788.168	30819.91
788.475	30706.23
788.783	30607.1
789.09	30515.56
789.398	30419.59
789.705	30314.92
790.012	30204.6
790.319	30100.7
790.626	30002.12
790.933	29912.58
791.24	29824.96
791.547	29731.54
791.854	29636.94
792.161	29537.83
792.468	29434.55
792.774	29338.44
793.081	29249.23
793.388	29170.94
793.694	29070.04
794.001	28979.61
794.307	28855.91
794.614	28756.36
794.92	28629.89
795.226	28498.83
795.533	28382.8
795.839	28283.39
796.145	28172.39
796.451	28065.05
796.757	27959.42
797.063	27850.06
797.369	27743.07
797.675	27639.42
797.98	27535.83
798.286	27415.77
798.592	27313.97
798.898	27205.28
799.203	27095.9
799.509	26977.92
799.814	26849.07
800.12	26747.58
800.425	26634.94
800.73	26522.22
801.035	26408.33
801.341	26309.39
801.646	26212.83
801.951	26112.08
802.256	26010.52
802.561	25914.43
802.866	25820.55
803.171	25727.8
803.476	25636.17
803.78	25531.56
804.085	25426.11
804.39	25315.72
804.694	25223.61
804.999	25117.32
805.303	25026.33
805.608	24942.45
805.912	24851.79
806.216	24785.06
806.521	24720.16
806.825	24644.37
807.129	24576.03
807.433	24499.2
807.737	24432.5
808.041	24368.75
808.345	24316.55
808.649	24256.07
808.953	24206.64
809.257	24151.37
809.561	24092.79
809.864	24047.38
810.168	24015.54
810.471	23987.89
810.775	23964.62
811.078	23939.71
811.382	23918.55
811.685	23908.04
811.988	23897.07
812.292	23891.95
812.595	23887.97
812.898	23882.13
813.201	23898.68
813.504	23925.04
813.807	23957.66
814.11	23991.65
814.413	24022.44
814.716	24048.52
815.018	24092.32
815.321	24150.18
815.624	24233.65
815.926	24340.75
816.229	24457.71
816.531	24603
816.834	24764.73
817.136	24964.31
817.438	25180.68
817.74	25451.12
818.043	25766.68
818.345	26144.21
818.647	26607.19
818.949	27147.02
819.251	27778.23
819.553	28516.87
819.855	29374.05
820.156	30340.84
820.458	31420.81
820.76	32574.67
821.062	33777.54
821.363	35040.25
821.665	36373.94
821.966	37799.12
822.268	39238.86
822.569	40689.35
822.87	42165.37
823.171	43645.64
823.473	45166.19
823.774	46738.98
824.075	48259.84
824.376	49754.1
824.677	51217.32
824.978	52580.03
825.279	53868.59
825.58	55044.17
825.88	56079
826.181	56969.43
826.482	57752.02
826.782	58375.55
827.083	58896.84
827.383	59287.28
827.684	59509.59
827.984	59591.05
828.284	59508.76
828.585	59286.91
828.885	58988.41
829.185	58530.1
829.485	57982.98
829.785	57319.69
830.085	56486.44
830.385	55620.17
830.685	54691.05
830.985	53649.96
831.285	52585.27
831.584	51465.37
831.884	50315.56
832.183	49149.55
832.483	47943.38
832.782	46671.79
833.082	45394.16
833.381	44115.17
833.681	42879.35
833.98	41716.16
834.279	40578.93
834.578	39470.67
834.877	38438.52
835.176	37426.36
835.475	36496.69
835.774	35605.03
836.073	34732.12
836.372	33919.74
836.671	33109.13
836.969	32302.28
837.268	31555.08
837.567	30849.47
837.865	30164.59
838.164	29490.18
838.462	28836.44
838.761	28223.01
839.059	27642.76
839.357	27089.23
839.655	26552.49
839.953	26011.11
840.252	25481.78
840.55	24960.88
840.848	24454.13
841.146	23960.5
841.443	23461.6
841.741	22962.2
842.039	22462.34
842.337	21961.96
842.634	21497.36
842.932	21054.05
843.229	20632.3
843.527	20215.63
843.824	19776.95
844.122	19334.49
844.419	18912.98
844.716	18485.18
845.013	18071.73
845.311	17679.97
845.608	17314.11
845.905	16950.16
846.202	16589.71
846.499	16221.19
846.796	15865.12
847.092	15493.8
847.389	15129.88
847.686	14794.52
847.982	14476.64
848.279	14161.46
848.576	13871.05
848.872	13578.52
849.168	13290.66
849.465	13011.15
849.761	12728.55
850.057	12451.28
850.354	12187.34
850.65	11942.45
850.946	11716.11
851.242	11497.76
851.538	11279.11
851.834	11052.58
852.13	10835.02
852.425	10644.93
852.721	10468.86
853.017	10297.83
853.312	10150.19
853.608	10008.58
853.903	9870.25
854.199	9723.13
854.494	9596.32
854.79	9464.15
855.085	9329.69
855.38	9200.84
855.675	9069.95
855.971	8948.35
856.266	8848.83
856.561	8754.73
856.856	8657.27
857.151	8564.08
857.445	8463.29
857.74	8373.18
858.035	8285.34
858.33	8192.8
858.624	8104.07
858.919	8027.7
859.213	7945.92
859.508	7862.04
859.802	7772.12
860.096	7686.66
860.391	7625.84
860.685	7562.62
860.979	7504.55
861.273	7455.42
861.567	7398.09
861.861	7333.8
862.155	7278.5
862.449	7208.83
862.743	7141.96
863.037	7078.92
863.33	7023.9
863.624	6972.69
863.918	6925.17
864.211	6885.36
864.505	6854.27
864.798	6817.11
865.092	6767.1
865.385	6718.26
865.678	6668.48
865.971	6633.31
866.264	6603.65
866.558	6573.24
866.851	6541.54
867.144	6510.83
867.437	6475.46
867.729	6444.52
868.022	6424.76
868.315	6404.49
868.608	6392.78
868.9	6387.78
869.193	6373.34
869.485	6343.77
869.778	6320.67
870.07	6292.79
870.363	6271.26
870.655	6253.34
870.947	6243.5
871.239	6240.02
871.532	6243.41
871.824	6245.84
872.116	6244.3
872.408	6241.72
872.699	6225.16
872.991	6220.58
873.283	6214.74
873.575	6216.3
873.867	6223.24
874.158	6230.1
874.45	6229.52
874.741	6227.41
875.033	6225.34
875.324	6239.29
875.615	6263.62
875.907	6287.16
876.198	6302.85
876.489	6314.03
876.78	6319.2
877.071	6320.07
877.362	6319.34
877.653	6320.51
877.944	6332.45
878.235	6342.28
878.526	6348.03
878.816	6368.97
