Data from 24HourExp_27052025_FLMS018081_17-08-19-548.txt Node
Date: Tue May 27 17:08:19 BST 2025
User: adleo
Spectrometer: FLMS01808
Trigger mode: 0
Integration Time (sec): 4.000000E-1
Scans to average: 10
Electric dark correction enabled: true
Nonlinearity correction enabled: true
Boxcar width: 10
XAxis mode: Wavelengths
Number of Pixels in Spectrum: 2048
>>>>>Begin Spectral Data<<<<<
178.471	-125.25
178.857	-119.21
179.244	-113.44
179.631	-106.54
180.017	-97.87
180.404	-89.91
180.79	-79.19
181.176	-70.16
181.563	-60.51
181.949	-48.81
182.335	-38.92
182.722	-23.26
183.108	-3.73
183.494	22.49
183.88	75.27
184.266	128.07
184.653	184.65
185.039	239.93
185.425	296.41
185.811	348.18
186.197	400.19
186.582	452.48
186.968	506.17
187.354	558.25
187.74	609.39
188.126	658.24
188.511	708.03
188.897	757.05
189.283	804.09
189.668	848.71
190.054	891.58
190.439	937.37
190.825	981.32
191.21	1022.04
191.596	1056.52
191.981	1064.34
192.366	1069.37
192.752	1070.19
193.137	1073.59
193.522	1074.39
193.908	1077.37
194.293	1079.26
194.678	1082.68
195.063	1084.29
195.448	1086.75
195.833	1088.01
196.218	1088.48
196.603	1088.76
196.988	1086.55
197.373	1087.49
197.757	1089.34
198.142	1090.58
198.527	1088.17
198.912	1088.04
199.296	1087.53
199.681	1085.99
200.066	1083.39
200.45	1083.07
200.835	1084.77
201.219	1083.65
201.604	1082.83
201.988	1083.71
202.372	1086.16
202.757	1086.14
203.141	1085.44
203.525	1085.06
203.91	1085.23
204.294	1087.98
204.678	1086.57
205.062	1087.57
205.446	1087.6
205.83	1087.76
206.214	1087.93
206.598	1089.73
206.982	1089.17
207.366	1088.3
207.75	1088.96
208.134	1092.59
208.517	1093.71
208.901	1093.34
209.285	1095.85
209.669	1097.51
210.052	1100.24
210.436	1098.79
210.819	1098.77
211.203	1098.54
211.586	1099.44
211.97	1099.51
212.353	1097.88
212.737	1101.39
213.12	1101.96
213.503	1102.85
213.886	1104.22
214.27	1106.77
214.653	1107.6
215.036	1110.75
215.419	1113.82
215.802	1115.34
216.185	1117.46
216.568	1120.96
216.951	1123.88
217.334	1125.03
217.717	1127.78
218.1	1128.01
218.482	1132.6
218.865	1135.76
219.248	1140.76
219.631	1145.23
220.013	1148.86
220.396	1156.57
220.778	1161.68
221.161	1167.64
221.544	1174.44
221.926	1181.66
222.308	1187.92
222.691	1196.11
223.073	1204.43
223.455	1212.7
223.838	1221.95
224.22	1228.18
224.602	1238.82
224.984	1249.58
225.366	1261.92
225.749	1274.88
226.131	1287.63
226.513	1300.66
226.895	1315.73
227.276	1328.96
227.658	1344.6
228.04	1360.75
228.422	1374.8
228.804	1390.89
229.186	1406.48
229.567	1423.91
229.949	1439.28
230.331	1455.31
230.712	1472.36
231.094	1489.45
231.475	1508.19
231.857	1526.63
232.238	1547.54
232.62	1564.98
233.001	1585.04
233.382	1606
233.763	1624.54
234.145	1645.01
234.526	1665.38
234.907	1684.38
235.288	1705.35
235.669	1725.46
236.05	1746.74
236.431	1767.98
236.812	1789.16
237.193	1812.44
237.574	1831.29
237.955	1854.12
238.336	1877.36
238.717	1901.65
239.097	1925.78
239.478	1947.84
239.859	1971.13
240.239	1996.45
240.62	2021.95
241.001	2044.79
241.381	2066.93
241.762	2091.84
242.142	2116.26
242.522	2140.66
242.903	2166.16
243.283	2193.68
243.663	2220.52
244.044	2250.02
244.424	2279
244.804	2307.21
245.184	2336.19
245.564	2368.12
245.944	2399.52
246.324	2431.06
246.704	2460.36
247.084	2489.06
247.464	2521.37
247.844	2556.78
248.224	2588.65
248.604	2618.58
248.983	2650.3
249.363	2685.78
249.743	2718.08
250.122	2748.98
250.502	2781.36
250.882	2813.89
251.261	2844.63
251.641	2875.75
252.02	2907.33
252.399	2942
252.779	2979.47
253.158	3017.52
253.537	3055.45
253.917	3100.21
254.296	3137.96
254.675	3178.94
255.054	3221.75
255.433	3262.98
255.812	3301.17
256.191	3341.84
256.57	3385
256.949	3429.66
257.328	3471.97
257.707	3517.3
258.086	3566.11
258.465	3614.66
258.843	3666.11
259.222	3719.11
259.601	3775.1
259.979	3830.08
260.358	3883.23
260.736	3936.43
261.115	3991.53
261.493	4046.51
261.872	4095.39
262.25	4154.34
262.629	4211.06
263.007	4270.01
263.385	4328.81
263.763	4391.38
264.142	4456.03
264.52	4521.36
264.898	4588.52
265.276	4653.98
265.654	4722.53
266.032	4792.54
266.41	4862.24
266.788	4935.42
267.166	5013.4
267.544	5085.78
267.921	5163.19
268.299	5242.16
268.677	5322.53
269.055	5405.35
269.432	5492.23
269.81	5577.4
270.188	5663.6
270.565	5752.38
270.943	5842.82
271.32	5934.29
271.697	6027.9
272.075	6120.78
272.452	6216.17
272.829	6311.59
273.207	6411.66
273.584	6517.96
273.961	6621.31
274.338	6733.12
274.715	6848.62
275.092	6964.04
275.469	7086.87
275.846	7208.59
276.223	7333.2
276.6	7456.43
276.977	7579.86
277.354	7703.08
277.731	7833.05
278.108	7964.45
278.484	8098.53
278.861	8229.56
279.238	8372
279.614	8506.93
279.991	8649.05
280.367	8796.22
280.744	8946.79
281.12	9096.75
281.497	9242.24
281.873	9394.44
282.249	9544.07
282.625	9688
283.002	9835.19
283.378	9981.24
283.754	10129.7
284.13	10280.29
284.506	10438.31
284.882	10595.51
285.258	10750.66
285.634	10906.22
286.01	11064.34
286.386	11219.84
286.762	11383.65
287.138	11545.24
287.513	11717.15
287.889	11879.9
288.265	12039.99
288.641	12195.75
289.016	12357.3
289.392	12519.62
289.767	12683.14
290.143	12849.97
290.518	13013.31
290.894	13176.56
291.269	13336.99
291.644	13495.35
292.02	13648.87
292.395	13799
292.77	13955.73
293.145	14108.09
293.52	14264.49
293.895	14410.11
294.27	14565.02
294.646	14720.46
295.02	14866.95
295.395	15014.02
295.77	15171.99
296.145	15326.11
296.52	15485.56
296.895	15636.72
297.269	15793.02
297.644	15946.33
298.019	16094.84
298.393	16244.4
298.768	16390.86
299.143	16546.81
299.517	16700.86
299.891	16857.99
300.266	17018.58
300.64	17174.04
301.015	17338.34
301.389	17505.97
301.763	17685.34
302.137	17855.28
302.512	18035.46
302.886	18215.19
303.26	18399.75
303.634	18575.7
304.008	18751.55
304.382	18935.67
304.756	19121
305.13	19304.62
305.504	19487.25
305.877	19679.2
306.251	19889.48
306.625	20099.73
306.999	20306.79
307.372	20518.1
307.746	20737.27
308.119	20948.46
308.493	21161.16
308.866	21373.61
309.24	21583.75
309.613	21788.67
309.987	22003.48
310.36	22197.12
310.733	22400.15
311.107	22618.76
311.48	22836.97
311.853	23069.56
312.226	23290.77
312.599	23520.95
312.972	23749.18
313.345	23973.71
313.718	24200.18
314.091	24418.78
314.464	24644.66
314.837	24869.37
315.21	25082.2
315.582	25299.61
315.955	25513.46
316.328	25734.68
316.7	25957.1
317.073	26181.83
317.446	26406.45
317.818	26635.88
318.191	26863.1
318.563	27087.99
318.936	27288.07
319.308	27498.42
319.68	27702.5
320.053	27905.21
320.425	28093.02
320.797	28274.1
321.169	28442.03
321.541	28592.91
321.913	28724.55
322.285	28848.35
322.657	28968.84
323.029	29120.61
323.401	29261.78
323.773	29432.02
324.145	29602.32
324.517	29793.88
324.889	29971.57
325.26	30175.37
325.632	30384.23
326.004	30617.47
326.375	30875.57
326.747	31156.93
327.118	31457.26
327.49	31750.81
327.861	32061.41
328.233	32366.95
328.604	32671.9
328.975	32988.94
329.346	33298.3
329.718	33606.63
330.089	33901.26
330.46	34195.22
330.831	34458.77
331.202	34718.42
331.573	34958.23
331.944	35185.37
332.315	35407.29
332.686	35623.37
333.057	35823.24
333.428	36005.3
333.799	36181.13
334.169	36336.08
334.54	36481.33
334.911	36594.68
335.281	36715.32
335.652	36831.74
336.022	36965.46
336.393	37109.21
336.763	37270.39
337.134	37455.04
337.504	37657.87
337.874	37863.95
338.245	38075.03
338.615	38298.87
338.985	38528.19
339.355	38754.84
339.726	38980.78
340.096	39204.67
340.466	39455.15
340.836	39696.89
341.206	39944.25
341.576	40196.66
341.945	40436
342.315	40666.99
342.685	40917.32
343.055	41162.44
343.425	41401.93
343.794	41638.48
344.164	41873.23
344.533	42109.77
344.903	42342.67
345.273	42575.86
345.642	42803.75
346.011	43036.66
346.381	43270.86
346.75	43499.91
347.12	43745.16
347.489	43996.65
347.858	44231.51
348.227	44451.43
348.596	44672.8
348.965	44906.75
349.334	45131.46
349.704	45373.43
350.072	45613.25
350.441	45843.39
350.81	46086.11
351.179	46319.43
351.548	46556.81
351.917	46783.1
352.285	46975.87
352.654	47172.93
353.023	47377.05
353.391	47581.36
353.76	47791.28
354.129	47974.98
354.497	48203.3
354.865	48417.84
355.234	48651.8
355.602	48882.5
355.971	49117.96
356.339	49335.38
356.707	49554.06
357.075	49770.36
357.443	49996.71
357.811	50213.69
358.18	50423.97
358.548	50636.13
358.916	50845.31
359.284	51059.32
359.651	51275.75
360.019	51496.69
360.387	51704.71
360.755	51913.1
361.123	52138.45
361.49	52361.73
361.858	52577.06
362.226	52775.92
362.593	52979.05
362.961	53159.9
363.328	53354.06
363.696	53523.22
364.063	53737.38
364.43	53938.02
364.798	54146.76
365.165	54322.42
365.532	54504.05
365.899	54690.94
366.267	54859.98
366.634	55014.94
367.001	55184.4
367.368	55325.41
367.735	55514.66
368.102	55691.46
368.469	55876.97
368.835	56062.74
369.202	56222.14
369.569	56424.63
369.936	56617.7
370.303	56800.99
370.669	56996.01
371.036	57160.54
371.402	57368.22
371.769	57547.9
372.135	57701.57
372.502	57827.64
372.868	57964.39
373.235	58105.06
373.601	58239.61
373.967	58403.3
374.333	58587.67
374.7	58763.63
375.066	58965.94
375.432	59139.05
375.798	59323.79
376.164	59493.86
376.53	59635.4
376.896	59805.92
377.262	59975.49
377.628	60100.67
377.993	60245.8
378.359	60388.47
378.725	60548.26
379.091	60698.5
379.456	60829.75
379.822	60959.67
380.187	61110.07
380.553	61306.67
380.918	61503.04
381.284	61682.55
381.649	61856.19
382.015	61991.88
382.38	62113.85
382.745	62286.14
383.11	62445.87
383.476	62588.81
383.841	62710.07
384.206	62871.52
384.571	62992.24
384.936	63120.49
385.301	63298.67
385.666	63440.1
386.031	63593.62
386.396	63755.93
386.76	63906.86
387.125	64101.22
387.49	64305.24
387.855	64503.61
388.219	64667.34
388.584	64840.25
388.948	65035.73
389.313	65202.57
389.677	65408.53
390.042	65640.68
390.406	65792.99
390.771	65974.32
391.135	66160.57
391.499	66395.27
391.863	66619.31
392.227	66859.08
392.592	67060.4
392.956	67251.86
393.32	67447.74
393.684	67661.68
394.048	67831.49
394.412	68006.32
394.775	68150.64
395.139	68292.79
395.503	68452.34
395.867	68604.21
396.231	68751.07
396.594	68853.47
396.958	68991.82
397.321	69157.39
397.685	69274.9
398.048	69415.79
398.412	69557.09
398.775	69683.23
399.139	69817.12
399.502	69924.83
399.865	70072.47
400.228	70265.36
400.592	70398.93
400.955	70604.33
401.318	70740.03
401.681	70907.38
402.044	71049.02
402.407	71207.2
402.77	71369.87
403.133	71555.29
403.496	71699.79
403.859	71852.29
404.221	72086.87
404.584	72319.59
404.947	72559.89
405.309	72772.96
405.672	73005.18
406.034	73223.99
406.397	73484.85
406.759	73705.26
407.122	73894.66
407.484	74065.7
407.847	74251.99
408.209	74501.4
408.571	74721.19
408.933	74978.06
409.296	75226.65
409.658	75471.11
410.02	75744.97
410.382	76055.43
410.744	76316.16
411.106	76605.76
411.468	76878.96
411.83	77113.12
412.191	77313.51
412.553	77480.7
412.915	77691.11
413.277	77890.75
413.638	78081.35
414	78239.57
414.361	78404.05
414.723	78621.03
415.084	78825.24
415.446	78983.12
415.807	79110.48
416.169	79207.99
416.53	79291.38
416.891	79383.75
417.252	79496.15
417.614	79561.75
417.975	79593.94
418.336	79630.84
418.697	79672.97
419.058	79706.98
419.419	79735.21
419.78	79765.49
420.141	79784.64
420.501	79804.06
420.862	79820.02
421.223	79832.14
421.584	79860.17
421.944	79875.93
422.305	79885.07
422.666	79888.87
423.026	79892.01
423.387	79901.18
423.747	79908.08
424.107	79916.86
424.468	79924.97
424.828	79929.44
425.188	79932.98
425.549	79937.56
425.909	79943.28
426.269	79941.66
426.629	79945.13
426.989	79948.75
427.349	79953.62
427.709	79958.83
428.069	79960.56
428.429	79964.88
428.789	79969.28
429.149	79973.27
429.508	79975.45
429.868	79978.48
430.228	79983.24
430.587	79984.79
430.947	79990
431.306	79993.36
431.666	79995.43
432.025	79998.87
432.385	80001.35
432.744	80004.16
433.103	80006.6
433.463	80007.56
433.822	80014.72
434.181	80017.98
434.54	80018.71
434.899	80019.27
435.258	80021.41
435.618	80024.11
435.976	80027.03
436.335	80028.62
436.694	80029.06
437.053	80030.06
437.412	80032.8
437.771	80035.05
438.129	80037.53
438.488	80036.39
438.847	80037.09
439.205	80037.01
439.564	80037.9
439.922	80037.75
440.281	80039.08
440.639	80041.3
440.997	80043.26
441.356	80043.01
441.714	80044.12
442.072	80046.78
442.431	80047.44
442.789	80048.89
443.147	80050.66
443.505	80050.48
443.863	80051.88
444.221	80053.18
444.579	80054.25
444.937	80054.25
445.294	80054.73
445.652	80055.58
446.01	80056.54
446.368	80057.47
446.725	80059.02
447.083	80057.87
447.441	80058.35
447.798	80059.06
448.156	80057.73
448.513	80057.8
448.87	80058.13
449.228	80058.17
449.585	80057.36
449.942	80058.06
450.3	80058.47
450.657	80058.35
451.014	80060.06
451.371	80059.06
451.728	80057.84
452.085	80059.35
452.442	80058.91
452.799	80058.69
453.156	80059.72
453.513	80059.65
453.869	80060.54
454.226	80060.91
454.583	80061.76
454.939	80061.35
455.296	80059.8
455.653	80059.69
456.009	80057.28
456.366	80056.43
456.722	80055.69
457.078	80055.21
457.435	80055.43
457.791	80056.1
458.147	80055.73
458.503	80055.17
458.86	80056.62
459.216	80059.06
459.572	80057.28
459.928	80058.36
460.284	80059.13
460.64	80059.76
460.996	80061.72
461.351	80060.54
461.707	80060.02
462.063	80061.06
462.419	80062.65
462.774	80063.79
463.13	80066.31
463.486	80067.64
463.841	80069.34
464.197	80072.27
464.552	80074.45
464.908	80075.71
465.263	80076.11
465.618	80076.63
465.974	80076.52
466.329	80077.52
466.684	80076.74
467.039	80078.44
467.394	80078.41
467.749	80078.33
468.104	80077.56
468.459	80079.22
468.814	80082.33
469.169	80084.22
469.524	80085.51
469.879	80083.92
470.233	80085.37
470.588	80084
470.943	80084.88
471.297	80086.25
471.652	80086.07
472.006	80086.7
472.361	80086.88
472.715	80086.44
473.07	80087.92
473.424	80088.7
473.778	80087.25
474.133	80087.7
474.487	80088.18
474.841	80090.14
475.195	80090.36
475.549	80092.03
475.903	80089.77
476.257	80089.03
476.611	80088.21
476.965	80088.36
477.319	80092.95
477.673	80092.47
478.026	80094.4
478.38	80095.28
478.734	80095.17
479.087	80095.62
479.441	80094.58
479.795	80093.36
480.148	80094.1
480.502	80093.25
480.855	80094.25
481.208	80094.84
481.562	80096.65
481.915	80096.8
482.268	80093.84
482.621	80094.8
482.974	80096.06
483.328	80098.21
483.681	80098.65
484.034	80097.69
484.387	80098.1
484.739	80096.88
485.092	80098.21
485.445	80097.43
485.798	80098.25
486.151	80097.8
486.503	80099.28
486.856	80100.91
487.209	80101.36
487.561	80102.1
487.914	80103.5
488.266	80103.1
488.618	80103.84
488.971	80102.95
489.323	80103.17
489.675	80105.57
490.028	80106.02
490.38	80105.17
490.732	80104.5
491.084	80102.43
491.436	80104.28
491.788	80105.61
492.14	80106.17
492.492	80106.13
492.844	80105.54
493.196	80105.98
493.548	80107.06
493.899	80106.61
494.251	80105.61
494.603	80105.61
494.954	80104.21
495.306	80102.65
495.657	80103.24
496.009	80103.43
496.36	80103.13
496.712	80101.5
497.063	80100.73
497.414	80099.95
497.765	80098.84
498.117	80097.91
498.468	80099.65
498.819	80101.5
499.17	80099.84
499.521	80099.61
499.872	80099.43
500.223	80101.02
500.574	80100.95
500.924	80100.98
501.275	80099.5
501.626	80100.17
501.977	80101.98
502.327	80103.43
502.678	80104.61
503.029	80104.58
503.379	80104.72
503.73	80105.87
504.08	80106.61
504.43	80107.43
504.781	80106.98
505.131	80108.05
505.481	80108.43
505.831	80108.87
506.182	80107.24
506.532	80107.17
506.882	80106.28
507.232	80105.2
507.582	80104.87
507.932	80105.54
508.281	80104.8
508.631	80105.24
508.981	80105.35
509.331	80105.87
509.681	80104.98
510.03	80104.2
510.38	80103.54
510.729	80104.2
511.079	80104.09
511.428	80104.2
511.778	80103.21
512.127	80103.72
512.476	80102.43
512.826	80103.35
513.175	80103.72
513.524	80104.17
513.873	80104.95
514.222	80105.17
514.571	80104.65
514.92	80104.24
515.269	80102.21
515.618	80101.98
515.967	80101.43
516.316	80101.39
516.665	80101.06
517.014	80100.69
517.362	80099.5
517.711	80099.06
518.059	80098.69
518.408	80099.36
518.757	80098.32
519.105	80099.25
519.453	80100.54
519.802	80101.1
520.15	80101.02
520.498	80100.06
520.847	80098.8
521.195	80098.99
521.543	80099.95
521.891	80102.1
522.239	80102.61
522.587	80104.09
522.935	80105.24
523.283	80106.28
523.631	80105.76
523.979	80104.21
524.326	80104.98
524.674	80107.02
525.022	80107.8
525.369	80107.02
525.717	80105.39
526.064	80107.91
526.412	80106.43
526.759	80104.61
527.107	80104.5
527.454	80104.83
527.801	80105.61
528.149	80105.5
528.496	80105.17
528.843	80105.65
529.19	80105.57
529.537	80103.43
529.884	80102.95
530.231	80101.54
530.578	80101.8
530.925	80102.02
531.272	80101.21
531.619	80099.76
531.966	80098.54
532.312	80097.17
532.659	80096.77
533.006	80096.03
533.352	80094.43
533.699	80097.06
534.045	80097.25
534.392	80096.4
534.738	80096.51
535.084	80096.54
535.431	80097.8
535.777	80097.73
536.123	80095.73
536.469	80095.14
536.815	80095.54
537.161	80095.58
537.507	80095.51
537.853	80093.95
538.199	80093.47
538.545	80095.8
538.891	80097.36
539.237	80098.76
539.582	80100.65
539.928	80100.1
540.274	80100.91
540.619	80100.8
540.965	80099.76
541.31	80100.43
541.656	80102.09
542.001	80101.35
542.347	80102.02
542.692	80101.43
543.037	80102.35
543.382	80103.8
543.728	80103.69
544.073	80104.87
544.418	80104.24
544.763	80105.69
545.108	80105.54
545.453	80106.98
545.798	80105.72
546.142	80104.94
546.487	80104.06
546.832	80103.43
547.177	80102.84
547.521	80104.21
547.866	80105.76
548.211	80105.09
548.555	80104.39
548.9	80103.58
549.244	80102.76
549.588	80100.84
549.933	80101.87
550.277	80100.58
550.621	80099.58
550.965	80100.06
551.31	80099.5
551.654	80100.06
551.998	80099.76
552.342	80101.84
552.686	80101.24
553.03	80101.1
553.373	80102.61
553.717	80102.8
554.061	80103.58
554.405	80105.91
554.748	80104.98
555.092	80104.28
555.436	80104.69
555.779	80104.83
556.123	80104.69
556.466	80105.13
556.81	80104.83
557.153	80105.69
557.496	80105.02
557.839	80105.06
558.183	80104.94
558.526	80105.13
558.869	80106.54
559.212	80106.32
559.555	80105.46
559.898	80105.72
560.241	80105.39
560.584	80104.13
560.927	80105.06
561.269	80106.72
561.612	80106.91
561.955	80107.2
562.297	80106.24
562.64	80106.91
562.983	80108.02
563.325	80108.72
563.668	80107.13
564.01	80108.28
564.352	80105.76
564.695	80105.65
565.037	80104.98
565.379	80104.21
565.721	80103.24
566.063	80102.1
566.406	80102.5
566.748	80103.58
567.09	80102.47
567.431	80102.43
567.773	80102.1
568.115	80100.06
568.457	80098.06
568.799	80096.06
569.14	80095.65
569.482	80096.73
569.824	80096.99
570.165	80096.43
570.507	80097.02
570.848	80099.36
571.19	80099.84
571.531	80100.98
571.872	80102.13
572.214	80102.65
572.555	80103.21
572.896	80104.35
573.237	80104.32
573.578	80101.39
573.919	80100.58
574.26	80101.95
574.601	80102.43
574.942	80102.58
575.283	80102.35
575.624	80100.76
575.964	80099.84
576.305	80098.32
576.646	80098.54
576.986	80097.54
577.327	80095.88
577.667	80093.8
578.008	80093.1
578.348	80091.03
578.689	80089.62
579.029	80088.92
579.369	80089.96
579.71	80089.77
580.05	80089.47
580.39	80087.18
580.73	80088.55
581.07	80088.4
581.41	80088.07
581.75	80087.1
582.09	80085.92
582.43	80086.73
582.769	80087.88
583.109	80089.95
583.449	80090.06
583.789	80088.84
584.128	80088.21
584.468	80089.25
584.807	80088.51
585.147	80087.62
585.486	80087.03
585.825	80086.18
586.165	80085.96
586.504	80084.7
586.843	80083.37
587.182	80083.48
587.522	80084.33
587.861	80083.88
588.2	80080.78
588.539	80080.11
588.878	80079.41
589.216	80080.41
589.555	80079.96
589.894	80078.3
590.233	80076.63
590.572	80077.52
590.91	80078
591.249	80078.15
591.587	80077.3
591.926	80077.93
592.264	80078.11
592.603	80078.89
592.941	80078.89
593.279	80079.89
593.618	80080.18
593.956	80081.66
594.294	80080.22
594.632	80079.22
594.97	80080.37
595.308	80082.07
595.646	80080.78
595.984	80081.4
596.322	80080.18
596.66	80080.29
596.998	80081.7
597.335	80083.03
597.673	80082.96
598.011	80081.77
598.348	80081.33
598.686	80081.22
599.023	80081.11
599.361	80080.22
599.698	80079.89
600.035	80081
600.373	80080.74
600.71	80079.85
601.047	80078.18
601.384	80077.59
601.722	80076.19
602.059	80076.08
602.396	80076.11
602.733	80075.71
603.069	80074.74
603.406	80073.56
603.743	80073.45
604.08	80071.75
604.417	80070.38
604.753	80070.19
605.09	80069.42
605.426	80070.3
605.763	80070.67
606.099	80070.49
606.436	80070.53
606.772	80069.05
607.109	80069.79
607.445	80067.83
607.781	80067.64
608.117	80067.68
608.453	80068.6
608.79	80070.19
609.126	80069.6
609.462	80068.86
609.798	80070.67
610.133	80071.75
610.469	80073.41
610.805	80072.64
611.141	80073.74
611.477	80074.48
611.812	80073.71
612.148	80074.37
612.483	80074.63
612.819	80073.86
613.154	80073.3
613.49	80073.23
613.825	80075.11
614.16	80073.71
614.496	80075.89
614.831	80076.19
615.166	80075.26
615.501	80075.82
615.836	80076.71
616.171	80075.96
616.506	80076.37
616.841	80074.19
617.176	80072.64
617.511	80072.23
617.846	80072.86
618.18	80072.27
618.515	80072.3
618.85	80072.41
619.184	80071.9
619.519	80069.9
619.853	80070.53
620.188	80070.75
620.522	80071.45
620.856	80070.82
621.191	80072.08
621.525	80070.78
621.859	80069.34
622.193	80070.93
622.527	80069.49
622.861	80070.16
623.195	80068.97
623.529	80068.05
623.863	80067.46
624.197	80067.94
624.531	80066.38
624.865	80065.86
625.198	80065.72
625.532	80065.12
625.866	80064.31
626.199	80063.42
626.533	80063.87
626.866	80063.9
627.2	80063.61
627.533	80063.98
627.866	80064.02
628.2	80060.76
628.533	80058.91
628.866	80059.06
629.199	80057.28
629.532	80057.1
629.865	80055.39
630.198	80057.21
630.531	80057.32
630.864	80057.61
631.197	80057.17
631.529	80056.91
631.862	80056.36
632.195	80056.65
632.527	80056.47
632.86	80055.95
633.193	80056.39
633.525	80056.76
633.857	80057.43
634.19	80057.76
634.522	80056.51
634.854	80056.21
635.187	80059.02
635.519	80059.09
635.851	80058.8
636.183	80060.98
636.515	80060.69
636.847	80060.72
637.179	80059.69
637.511	80059.58
637.843	80060.39
638.174	80060.39
638.506	80062.65
638.838	80061.91
639.17	80061.35
639.501	80059.43
639.833	80060.17
640.164	80059.69
640.496	80058.8
640.827	80056.69
641.158	80056.84
641.49	80056.06
641.821	80056.36
642.152	80054.36
642.483	80054.17
642.814	80054.77
643.145	80052.84
643.476	80053.18
643.807	80051.4
644.138	80050.4
644.469	80050.14
644.8	80048.92
645.131	80049.03
645.461	80048.15
645.792	80048.81
646.122	80049.92
646.453	80050.11
646.784	80048.96
647.114	80049.11
647.444	80048.59
647.775	80047.33
648.105	80046.48
648.435	80046.15
648.765	80045.67
649.096	80045.78
649.426	80046.52
649.756	80045.11
650.086	80045.48
650.416	80045.48
650.746	80047.33
651.075	80045.93
651.405	80046.26
651.735	80046.7
652.065	80044.6
652.394	80044.52
652.724	80044.63
653.054	80043.12
653.383	80044.63
653.712	80043.41
654.042	80042.78
654.371	80041.38
654.701	80041.71
655.03	80041.6
655.359	80041.71
655.688	80040.93
656.017	80039.64
656.346	80039.79
656.675	80041.16
657.004	80040.08
657.333	80040.2
657.662	80038.64
657.991	80039.31
658.32	80038.79
658.648	80038.38
658.977	80041.71
659.306	80040.86
659.634	80040.16
659.963	80040.42
660.291	80040.34
660.619	80042.75
660.948	80042.23
661.276	80043.34
661.604	80043.89
661.933	80042.78
662.261	80043
662.589	80043.26
662.917	80044.3
663.245	80043.19
663.573	80042.04
663.901	80042.41
664.229	80043
664.556	80042.75
664.884	80044.41
665.212	80043.34
665.539	80043
665.867	80041.86
666.195	80041.78
666.522	80040.71
666.85	80039.68
667.177	80038.75
667.504	80036.79
667.832	80037.38
668.159	80037.27
668.486	80036.98
668.813	80036.9
669.14	80036.38
669.467	80035.72
669.794	80035.05
670.121	80035.42
670.448	80034.76
670.775	80033.13
671.102	80032.17
671.429	80032.76
671.755	80032.24
672.082	80032.8
672.409	80033.13
672.735	80031.95
673.062	80031.28
673.388	80032.95
673.714	80031.84
674.041	80031.73
674.367	80031.25
674.693	80031.84
675.019	80031.47
675.346	80031.02
675.672	80032.1
675.998	80031.28
676.324	80030.95
676.65	80031.91
676.976	80030.21
677.301	80029.62
677.627	80029.1
677.953	80027.92
678.279	80027.33
678.604	80026.22
678.93	80025.55
679.255	80024.26
679.581	80024
679.906	80023.41
680.232	80021.97
680.557	80022.26
680.882	80021.6
681.208	80022.59
681.533	80022.59
681.858	80023.33
682.183	80023.07
682.508	80020.75
682.833	80022.11
683.158	80022.19
683.483	80020.89
683.808	80022.34
684.132	80021.97
684.457	80022.96
684.782	80024
685.106	80022.74
685.431	80022
685.755	80022.45
686.08	80023.7
686.404	80022.78
686.729	80022.67
687.053	80021.34
687.377	80021.93
687.701	80021.01
688.026	80019.97
688.35	80016.94
688.674	80014.87
688.998	80014.13
689.322	80014.13
689.646	80011.73
689.97	80009.62
690.293	80008.62
690.617	80006.92
690.941	80005.52
691.264	80002.19
691.588	80000.94
691.912	80000.82
692.235	79999.35
692.559	79997.76
692.882	79995.24
693.205	79994.73
693.529	79993.06
693.852	79991.55
694.175	79987.78
694.498	79985.67
694.821	79982.28
695.144	79981.69
695.467	79976.59
695.79	79972.64
696.113	79968.8
696.436	79964.37
696.759	79960.12
697.082	79953.37
697.404	79947.65
697.727	79941.11
698.049	79934.37
698.372	79922.6
698.694	79907.71
699.017	79892.35
699.339	79874.01
699.662	79854.83
699.984	79821.51
700.306	79784.67
700.628	79727.09
700.95	79652.55
701.272	79555.95
701.594	79450
701.916	79344.38
702.238	79227.49
702.56	79066.51
702.882	78902.98
703.204	78752.85
703.525	78576.13
703.847	78353.09
704.169	78144.36
704.49	77920.24
704.812	77686.43
705.133	77455.87
705.455	77216.77
705.776	76959.5
706.097	76714.41
706.419	76459.63
706.74	76196.11
707.061	75911.82
707.382	75613.7
707.703	75314.25
708.024	75045.44
708.345	74768.8
708.666	74468.4
708.987	74157.23
709.307	73899.28
709.628	73600.92
709.949	73275.79
710.27	72958.7
710.59	72694.92
710.911	72398.71
711.231	72101.64
711.552	71837.29
711.872	71509.94
712.192	71236.21
712.512	70981.71
712.833	70705.01
713.153	70426.99
713.473	70188.46
713.793	69953.38
714.113	69743.94
714.433	69544.7
714.753	69331.4
715.073	69128.41
715.393	68922.12
715.712	68755.96
716.032	68530.86
716.352	68349.74
716.671	68195.21
716.991	68027.31
717.31	67833.27
717.63	67664.55
717.949	67481.9
718.268	67260.63
718.588	67079.21
718.907	66846.75
719.226	66583.7
719.545	66329.92
719.864	66051.99
720.183	65777.35
720.502	65493.98
720.821	65212.35
721.14	64927.32
721.459	64623.54
721.778	64350.23
722.096	64029.22
722.415	63724.65
722.734	63463
723.052	63181.54
723.371	62878.87
723.689	62602.5
724.008	62327.07
724.326	62036.3
724.644	61771.19
724.963	61505.04
725.281	61284.15
725.599	61056.78
725.917	60868.11
726.235	60681.55
726.553	60522.69
726.871	60328.46
727.189	60135.73
727.507	59939.44
727.824	59786.71
728.142	59648.03
728.46	59446.63
728.777	59352.27
729.095	59218.75
729.413	59071.32
729.73	58931.67
730.047	58798.77
730.365	58688.12
730.682	58576.02
730.999	58487.9
731.317	58414.87
731.634	58331.82
731.951	58215.64
732.268	58092.51
732.585	57944.77
732.902	57775.65
733.219	57624.63
733.536	57449.54
733.852	57326.76
734.169	57203.71
734.486	57049.73
734.802	56886.09
735.119	56778.41
735.435	56600.19
735.752	56436.77
736.068	56261.95
736.385	56089.14
736.701	55900.21
737.017	55669.63
737.333	55423.73
737.65	55122.95
737.966	54739.86
738.282	54353.3
738.598	53939.48
738.914	53490.38
739.23	53001.08
739.545	52493.09
739.861	51936.54
740.177	51390.01
740.493	50790.57
740.808	50208.75
741.124	49597.53
741.439	49019.53
741.755	48447.99
742.07	47925.2
742.386	47373.81
742.701	46870.19
743.016	46381.42
743.331	45911.6
743.647	45485.32
743.962	45101.43
744.277	44760.96
744.592	44498.14
744.907	44282.19
745.222	44111.92
745.537	44016.8
745.851	43984.16
746.166	43997.52
746.481	44056.2
746.795	44169.52
747.11	44328.34
747.424	44502.92
747.739	44670.41
748.053	44854.02
748.368	45002.8
748.682	45115.67
748.996	45246.09
749.311	45352.03
749.625	45447.92
749.939	45546.24
750.253	45606.03
750.567	45670.38
750.881	45719.11
751.195	45776.39
751.509	45835.74
751.822	45887.57
752.136	45934.69
752.45	45991.55
752.763	46059.56
753.077	46112.17
753.39	46147.13
753.704	46168.99
754.017	46181.79
754.331	46222.29
754.644	46223.05
754.957	46228.59
755.27	46233.78
755.584	46248.08
755.897	46255.41
756.21	46247.64
756.523	46224.06
756.836	46207.06
757.149	46127.39
757.461	46061.59
757.774	45972.94
758.087	45852.5
758.4	45718.73
758.712	45564.95
759.025	45404.25
759.337	45240.38
759.65	45087.15
759.962	44935.84
760.275	44777.86
760.587	44630.88
760.899	44492.73
761.211	44394.82
761.523	44321.74
761.836	44321.59
762.148	44326.11
762.46	44354.92
762.772	44419.8
763.083	44548.47
763.395	44687.74
763.707	44905.21
764.019	45132.35
764.33	45368.78
764.642	45631.96
764.954	45902.76
765.265	46187.81
765.577	46456.42
765.888	46706.46
766.199	46952.4
766.511	47165.2
766.822	47385.94
767.133	47568.57
767.444	47730.83
767.755	47823.15
768.066	47883.62
768.377	47879.73
768.688	47818.03
768.999	47728.81
769.31	47605.63
769.621	47422.28
769.931	47208.32
770.242	46953.65
770.553	46661.58
770.863	46324.84
771.174	45964.37
771.484	45578.51
771.794	45171.18
772.105	44761.87
772.415	44340.14
772.725	43891.29
773.035	43449.79
773.345	42991.3
773.656	42528.02
773.966	42065.65
774.276	41633.07
774.585	41200.53
774.895	40766.77
775.205	40383.61
775.515	39988.12
775.824	39592.3
776.134	39206.68
776.444	38843.02
776.753	38480.65
777.063	38139.13
777.372	37821.56
777.681	37495.67
777.991	37190.26
778.3	36887.03
778.609	36587.74
778.918	36298.86
779.228	36028.6
779.537	35773.07
779.846	35510.78
780.154	35263.17
780.463	35024.35
780.772	34786.58
781.081	34560.47
781.39	34353.01
781.698	34130.35
782.007	33926.03
782.316	33724.99
782.624	33514.2
782.932	33308.53
783.241	33114.95
783.549	32916.42
783.858	32740.32
784.166	32574.68
784.474	32400.83
784.782	32239.5
785.09	32081
785.398	31933.88
785.706	31796.36
786.014	31651.16
786.322	31516.76
786.63	31384.64
786.937	31253.98
787.245	31130.74
787.553	31002.93
787.86	30888.86
788.168	30771.96
788.475	30663.42
788.783	30567.27
789.09	30474.91
789.398	30370.36
789.705	30269.84
790.012	30169.27
790.319	30068.13
790.626	29964.4
790.933	29870.93
791.24	29781.27
791.547	29691.88
791.854	29594.69
792.161	29498.29
792.468	29400.42
792.774	29300.79
793.081	29211.31
793.388	29129.7
793.694	29029.78
794.001	28938.95
794.307	28818.63
794.614	28716.85
794.92	28590.25
795.226	28464.53
795.533	28346.39
795.839	28252.7
796.145	28141.59
796.451	28034.82
796.757	27924.27
797.063	27816.04
797.369	27706.39
797.675	27596.49
797.98	27492.47
798.286	27377.18
798.592	27269.67
798.898	27157.34
799.203	27050.81
799.509	26932.5
799.814	26805.57
800.12	26711.13
800.425	26602.5
800.73	26498.88
801.035	26376.24
801.341	26277.45
801.646	26178.83
801.951	26082.66
802.256	25982.16
802.561	25878.68
802.866	25785.89
803.171	25694.65
803.476	25605.07
803.78	25513.99
804.085	25419.28
804.39	25306.4
804.694	25209.06
804.999	25108.02
805.303	25021.34
805.608	24932.43
805.912	24847.73
806.216	24776.79
806.521	24696.42
806.825	24621.61
807.129	24549.27
807.433	24478.26
807.737	24406.94
808.041	24343.3
808.345	24281.26
808.649	24218.9
808.953	24175.76
809.257	24113.98
809.561	24059.91
809.864	24009.67
810.168	23975.77
810.471	23944.13
810.775	23916.11
811.078	23893.17
811.382	23868.85
811.685	23857.28
811.988	23847.24
812.292	23838.27
812.595	23837.26
812.898	23832.28
813.201	23842.76
813.504	23862.71
813.807	23895.78
814.11	23925.62
814.413	23954.27
814.716	23981.73
815.018	24032.79
815.321	24089.46
815.624	24178.61
815.926	24282.35
816.229	24406.46
816.531	24546.1
816.834	24700.46
817.136	24897.83
817.438	25110.55
817.74	25378.45
818.043	25687.04
818.345	26065.11
818.647	26520.21
818.949	27062.19
819.251	27700.75
819.553	28446.71
819.855	29310.27
820.156	30277.34
820.458	31363.46
820.76	32510.98
821.062	33724.9
821.363	34988.24
821.665	36317.07
821.966	37736.56
822.268	39174.41
822.569	40625.9
822.87	42102.95
823.171	43595.11
823.473	45118.23
823.774	46702.88
824.075	48232.18
824.376	49727.86
824.677	51194.44
824.978	52575.86
825.279	53873.75
825.58	55045.23
825.88	56084.32
826.181	56975.65
826.482	57756.91
826.782	58384.08
827.083	58903.52
827.383	59289.55
827.684	59504.07
827.984	59594.15
828.284	59510.76
828.585	59291.29
828.885	58982.53
829.185	58531.09
829.485	57979.42
829.785	57324.74
830.085	56495.26
830.385	55617.54
830.685	54687.12
830.985	53643.28
831.285	52566.18
831.584	51440.17
831.884	50292.85
832.183	49118.81
832.483	47908.08
832.782	46635.01
833.082	45346.04
833.381	44064.54
833.681	42830.37
833.98	41663.27
834.279	40524.55
834.578	39423.15
834.877	38384.17
835.176	37372.66
835.475	36435.34
835.774	35543.01
836.073	34668.81
836.372	33847.24
836.671	33039.78
836.969	32232.94
837.268	31487.94
837.567	30782.47
837.865	30094.29
838.164	29417.45
838.462	28763.71
838.761	28152.14
839.059	27572.46
839.357	27029.73
839.655	26504.53
839.953	25958.46
840.252	25435.8
840.55	24921.4
840.848	24411.15
841.146	23925.67
841.443	23432.36
841.741	22931.08
842.039	22424.81
842.337	21920.81
842.634	21456.07
842.932	21017.01
843.229	20598.03
843.527	20185.41
843.824	19744.91
844.122	19297.54
844.419	18879.95
844.716	18452.32
845.013	18040.81
845.311	17653.62
845.608	17282.07
845.905	16918.21
846.202	16567.14
846.499	16201.02
846.796	15835.33
847.092	15467.97
847.389	15101.54
847.686	14767.77
847.982	14453.32
848.279	14148.4
848.576	13860.77
848.872	13567.65
849.168	13280.06
849.465	13000
849.761	12709.77
850.057	12436.71
850.354	12175.96
850.65	11927.1
850.946	11701.24
851.242	11478.7
851.538	11264.02
851.834	11043.96
852.13	10831.23
852.425	10632.99
852.721	10452.57
853.017	10285.4
853.312	10132.97
853.608	9992.03
853.903	9849.88
854.199	9701.03
854.494	9571.83
854.79	9439.7
855.085	9306.55
855.38	9179.94
855.675	9051.57
855.971	8934.59
856.266	8831.92
856.561	8739.18
856.856	8644.36
857.151	8554.47
857.445	8456.99
857.74	8358.18
858.035	8269.25
858.33	8175.31
858.624	8089.14
858.919	8014.7
859.213	7930.53
859.508	7851.17
859.802	7759.36
860.096	7679.96
860.391	7619.44
860.685	7555.99
860.979	7496.33
861.273	7448.31
861.567	7387.02
861.861	7322.55
862.155	7266.28
862.449	7201.24
862.743	7138.19
863.037	7078
863.33	7019.83
863.624	6964.21
863.918	6920.36
864.211	6875.46
864.505	6842.25
864.798	6802.21
865.092	6753.27
865.385	6707.77
865.678	6655.86
865.971	6619.97
866.264	6585.77
866.558	6556.97
866.851	6526.5
867.144	6500.27
867.437	6463.6
867.729	6433.47
868.022	6412.12
868.315	6391.62
868.608	6380.13
868.9	6370.24
869.193	6352.69
869.485	6326.49
869.778	6305.08
870.07	6276.61
870.363	6256.31
870.655	6239.45
870.947	6233.33
871.239	6224.3
871.532	6224.07
871.824	6229.76
872.116	6231.83
872.408	6228.34
872.699	6212.17
872.991	6203.75
873.283	6195.57
873.575	6197.08
873.867	6204.29
874.158	6211.12
874.45	6212.34
874.741	6208.78
875.033	6207.55
875.324	6220.17
875.615	6241.64
875.907	6265.48
876.198	6281.93
876.489	6294.64
876.78	6297.87
877.071	6296.55
877.362	6300.71
877.653	6304.08
877.944	6312.93
878.235	6320.16
878.526	6327.55
878.816	6346.1
