Data from 24HourExp_27052025_FLMS018081_19-58-19-064.txt Node
Date: Tue May 27 19:58:19 BST 2025
User: adleo
Spectrometer: FLMS01808
Trigger mode: 0
Integration Time (sec): 4.000000E-1
Scans to average: 10
Electric dark correction enabled: true
Nonlinearity correction enabled: true
Boxcar width: 10
XAxis mode: Wavelengths
Number of Pixels in Spectrum: 2048
>>>>>Begin Spectral Data<<<<<
178.471	-124.93
178.857	-119
179.244	-112.36
179.631	-104.15
180.017	-94.77
180.404	-86.95
180.79	-75.91
181.176	-68
181.563	-59.58
181.949	-48.37
182.335	-38.23
182.722	-22.92
183.108	-5.14
183.494	20.39
183.88	73.88
184.266	129.94
184.653	185.87
185.039	241.62
185.425	298.79
185.811	352.96
186.197	405.7
186.582	458.44
186.968	512.17
187.354	565.13
187.74	615.31
188.126	664.94
188.511	715.52
188.897	762.38
189.283	812.65
189.668	859.93
190.054	903.72
190.439	949.8
190.825	994.63
191.21	1036.66
191.596	1072.01
191.981	1080.09
192.366	1083.81
192.752	1086.77
193.137	1089.14
193.522	1090.62
193.908	1091.35
194.293	1094.01
194.678	1095.85
195.063	1097.72
195.448	1099.48
195.833	1100.87
196.218	1101.83
196.603	1101.98
196.988	1101.52
197.373	1101.98
197.757	1101.24
198.142	1102.57
198.527	1099.58
198.912	1098.88
199.296	1098.34
199.681	1096.23
200.066	1095.13
200.45	1093.85
200.835	1093.16
201.219	1093.17
201.604	1092.31
201.988	1093.32
202.372	1093.76
202.757	1093.98
203.141	1094.42
203.525	1094.38
203.91	1094.92
204.294	1094.06
204.678	1094.21
205.062	1094.09
205.446	1092.54
205.83	1095.08
206.214	1094.7
206.598	1096.45
206.982	1096.31
207.366	1097.45
207.75	1098.07
208.134	1099.53
208.517	1102.28
208.901	1101.92
209.285	1103.18
209.669	1103.62
210.052	1103.55
210.436	1104.44
210.819	1105.22
211.203	1105.07
211.586	1104.66
211.97	1106.04
212.353	1108.46
212.737	1110.39
213.12	1114.61
213.503	1116.44
213.886	1117.14
214.27	1118.3
214.653	1118.49
215.036	1121.03
215.419	1122.55
215.802	1126.06
216.185	1127.67
216.568	1131.19
216.951	1133.06
217.334	1134.56
217.717	1138.52
218.1	1141.59
218.482	1144.48
218.865	1148.57
219.248	1152.12
219.631	1157.67
220.013	1161.54
220.396	1170.08
220.778	1175.64
221.161	1180.69
221.544	1186.98
221.926	1193.24
222.308	1202.8
222.691	1212.96
223.073	1222.2
223.455	1231.7
223.838	1239.23
224.22	1248.76
224.602	1257.31
224.984	1270.5
225.366	1283.66
225.749	1298.1
226.131	1311.24
226.513	1326.76
226.895	1341.77
227.276	1357.11
227.658	1372.55
228.04	1388.27
228.422	1400.89
228.804	1416.82
229.186	1432.23
229.567	1450.52
229.949	1466.74
230.331	1482.72
230.712	1500.23
231.094	1517.07
231.475	1535.92
231.857	1555.94
232.238	1574.34
232.62	1593.89
233.001	1613.01
233.382	1632.66
233.763	1650.55
234.145	1672.62
234.526	1692.82
234.907	1712.63
235.288	1731.88
235.669	1752.02
236.05	1773.26
236.431	1794.32
236.812	1816.2
237.193	1838.39
237.574	1858.7
237.955	1883.06
238.336	1906.26
238.717	1927.83
239.097	1951.86
239.478	1975.14
239.859	1998.84
240.239	2024.06
240.62	2050.14
241.001	2073.25
241.381	2099.73
241.762	2124.96
242.142	2149.14
242.522	2172.55
242.903	2199.11
243.283	2227.46
243.663	2255.67
244.044	2283.69
244.424	2311.07
244.804	2339.15
245.184	2368.51
245.564	2397.36
245.944	2430.67
246.324	2461.74
246.704	2493.91
247.084	2525.89
247.464	2557.2
247.844	2590.07
248.224	2623.6
248.604	2654.9
248.983	2687.32
249.363	2719.66
249.743	2752.09
250.122	2784.75
250.502	2817.32
250.882	2850.5
251.261	2884.08
251.641	2915.68
252.02	2950.14
252.399	2986.59
252.779	3025.48
253.158	3067.13
253.537	3109.19
253.917	3151.82
254.296	3192.92
254.675	3234.66
255.054	3276.54
255.433	3321.3
255.812	3362.66
256.191	3405.02
256.57	3448.3
256.949	3496.41
257.328	3543.23
257.707	3590.48
258.086	3639.16
258.465	3688.24
258.843	3741.36
259.222	3792.33
259.601	3849.33
259.979	3904.94
260.358	3963.37
260.736	4017.86
261.115	4074.08
261.493	4129.17
261.872	4181.77
262.25	4239.82
262.629	4299.65
263.007	4359.42
263.385	4421.2
263.763	4485.6
264.142	4551.46
264.52	4617.5
264.898	4683.29
265.276	4750.67
265.654	4821.04
266.032	4892.27
266.41	4965.13
266.788	5037.52
267.166	5116.57
267.544	5191.78
267.921	5270.9
268.299	5349.39
268.677	5429.79
269.055	5510.55
269.432	5596.86
269.81	5684.57
270.188	5773.1
270.565	5863.93
270.943	5958.23
271.32	6049.13
271.697	6145.25
272.075	6243.65
272.452	6341.15
272.829	6440.8
273.207	6543.1
273.584	6649.79
273.961	6756.56
274.338	6871.88
274.715	6990.38
275.092	7113.06
275.469	7236.99
275.846	7358.72
276.223	7485.83
276.6	7612.35
276.977	7742.7
277.354	7871.45
277.731	8000.17
278.108	8133.79
278.484	8265.54
278.861	8398.36
279.238	8539.74
279.614	8679.87
279.991	8819.83
280.367	8968.01
280.744	9121.78
281.12	9276.4
281.497	9423.08
281.873	9580.76
282.249	9730.56
282.625	9877.41
283.002	10021.52
283.378	10168.71
283.754	10323.83
284.13	10476.8
284.506	10639.72
284.882	10796.71
285.258	10951.29
285.634	11110.16
286.01	11270.73
286.386	11434.24
286.762	11600.23
287.138	11764.56
287.513	11928.35
287.889	12097.9
288.265	12260.15
288.641	12416.43
289.016	12577.06
289.392	12742.94
289.767	12901.39
290.143	13065.75
290.518	13225.73
290.894	13391.13
291.269	13552.74
291.644	13708.7
292.02	13864.34
292.395	14015.15
292.77	14168.8
293.145	14329.13
293.52	14487.42
293.895	14636.08
294.27	14786.42
294.646	14940.27
295.02	15089.86
295.395	15244.31
295.77	15397.17
296.145	15552.62
296.52	15712.09
296.895	15865.38
297.269	16023.05
297.644	16177.22
298.019	16330.35
298.393	16489.68
298.768	16645.85
299.143	16801.95
299.517	16955.47
299.891	17112.57
300.266	17272.3
300.64	17434.18
301.015	17598.02
301.389	17769.54
301.763	17946.98
302.137	18120.22
302.512	18300.4
302.886	18481.75
303.26	18664.27
303.634	18847.61
304.008	19028.22
304.382	19211.12
304.756	19397.68
305.13	19584.21
305.504	19771.17
305.877	19972.47
306.251	20182.92
306.625	20387.83
306.999	20595.69
307.372	20815.17
307.746	21035.36
308.119	21253.67
308.493	21469.87
308.866	21678.58
309.24	21893.27
309.613	22103.19
309.987	22315.23
310.36	22513.62
310.733	22724.89
311.107	22953.65
311.48	23169.83
311.853	23403.98
312.226	23626.23
312.599	23859.45
312.972	24087.02
313.345	24315.66
313.718	24542.6
314.091	24756.07
314.464	24988.14
314.837	25216.11
315.21	25430.95
315.582	25651.96
315.955	25867.28
316.328	26084.7
316.7	26310.86
317.073	26531.99
317.446	26759.89
317.818	26997.9
318.191	27233.14
318.563	27459.8
318.936	27662.13
319.308	27873.48
319.68	28074.95
320.053	28283.19
320.425	28468.99
320.797	28653.75
321.169	28822.31
321.541	28966.68
321.913	29105.93
322.285	29226.13
322.657	29354.88
323.029	29507.21
323.401	29649.71
323.773	29814.23
324.145	29993.72
324.517	30184.28
324.889	30364.98
325.26	30566.83
325.632	30782.08
326.004	31019.81
326.375	31277.92
326.747	31559.68
327.118	31864.44
327.49	32157.85
327.861	32470.93
328.233	32784.08
328.604	33102.89
328.975	33423.87
329.346	33739.23
329.718	34051.54
330.089	34355
330.46	34655.2
330.831	34926.8
331.202	35194.66
331.573	35448.25
331.944	35680.69
332.315	35904.86
332.686	36127.55
333.057	36327.83
333.428	36508.7
333.799	36680.82
334.169	36841.77
334.54	36981.52
334.911	37101.35
335.281	37235.28
335.652	37356.02
336.022	37497.72
336.393	37643.99
336.763	37813.69
337.134	38003.13
337.504	38208.81
337.874	38415.51
338.245	38626.78
338.615	38845.69
338.985	39073.27
339.355	39295.28
339.726	39519.11
340.096	39748.29
340.466	40003.9
340.836	40254.17
341.206	40501.74
341.576	40748.82
341.945	40988.06
342.315	41223.9
342.685	41468.57
343.055	41719.64
343.425	41961.85
343.794	42192.35
344.164	42428.16
344.533	42656.22
344.903	42883.28
345.273	43119.1
345.642	43349.83
346.011	43580.35
346.381	43818.7
346.75	44048.74
347.12	44300.38
347.489	44549.18
347.858	44797.22
348.227	45005.92
348.596	45229.35
348.965	45467.57
349.334	45701.49
349.704	45946.11
350.072	46192.02
350.441	46431.04
350.81	46665.27
351.179	46900.83
351.548	47133.01
351.917	47352.34
352.285	47556.3
352.654	47768.17
353.023	47975.8
353.391	48180.3
353.76	48392.05
354.129	48579.22
354.497	48815.95
354.865	49033.55
355.234	49268.85
355.602	49486.4
355.971	49733.64
356.339	49948.55
356.707	50164.48
357.075	50379.68
357.443	50604.07
357.811	50817.76
358.18	51024.18
358.548	51239.45
358.916	51451.37
359.284	51674.05
359.651	51892.58
360.019	52103.8
360.387	52306.18
360.755	52512.5
361.123	52740.55
361.49	52966.06
361.858	53185.31
362.226	53383.7
362.593	53586.53
362.961	53767.04
363.328	53966.32
363.696	54133.82
364.063	54346.79
364.43	54553.81
364.798	54772.3
365.165	54944
365.532	55133.7
365.899	55318.39
366.267	55487.54
366.634	55637.82
367.001	55799.17
367.368	55935.96
367.735	56124.32
368.102	56307.69
368.469	56494.5
368.835	56671.6
369.202	56836.64
369.569	57033.74
369.936	57226.16
370.303	57409.99
370.669	57608.89
371.036	57776.22
371.402	57986.69
371.769	58176.84
372.135	58325.34
372.502	58448.56
372.868	58599.41
373.235	58740
373.601	58880.85
373.967	59049.06
374.333	59238.4
374.7	59427.69
375.066	59632.1
375.432	59818.16
375.798	59994.73
376.164	60166.05
376.53	60316.32
376.896	60493.88
377.262	60674.48
377.628	60796.79
377.993	60951.63
378.359	61108.02
378.725	61266.31
379.091	61415.09
379.456	61548.79
379.822	61688.19
380.187	61839.85
380.553	62027.85
380.918	62225.38
381.284	62409.19
381.649	62591.41
382.015	62732.69
382.38	62855.4
382.745	63035.21
383.11	63190.88
383.476	63337.81
383.841	63458.95
384.206	63623.2
384.571	63739.63
384.936	63864.59
385.301	64049.83
385.666	64179.46
386.031	64331.53
386.396	64498.48
386.76	64653.59
387.125	64849.21
387.49	65057.68
387.855	65252.64
388.219	65421
388.584	65594.36
388.948	65793.29
389.313	65953.17
389.677	66163.27
390.042	66396.87
390.406	66551.16
390.771	66739.81
391.135	66932.7
391.499	67179.54
391.863	67413.33
392.227	67662.33
392.592	67866.31
392.956	68052.98
393.32	68254.78
393.684	68474.55
394.048	68651.64
394.412	68832.82
394.775	68977.6
395.139	69127.56
395.503	69294.4
395.867	69454.18
396.231	69597.03
396.594	69697.24
396.958	69835.23
397.321	69991.83
397.685	70122.43
398.048	70264.08
398.412	70409.22
398.775	70542.52
399.139	70663.77
399.502	70766.76
399.865	70900.98
400.228	71094.7
400.592	71240.39
400.955	71444.92
401.318	71580.7
401.681	71739.56
402.044	71876.2
402.407	72034.94
402.77	72193.03
403.133	72387.57
403.496	72529.41
403.859	72686.58
404.221	72929.84
404.584	73180.32
404.947	73435.2
405.309	73654.85
405.672	73898.49
406.034	74120.07
406.397	74373.07
406.759	74601.82
407.122	74798.92
407.484	74979.3
407.847	75166.84
408.209	75409.65
408.571	75631.1
408.933	75885.95
409.296	76152.35
409.658	76417.18
410.02	76685.71
410.382	76971.03
410.744	77204.1
411.106	77473.7
411.468	77729.93
411.83	77936.33
412.191	78101.07
412.553	78232.82
412.915	78398.73
413.277	78560.09
413.638	78712.51
414	78845.67
414.361	78976.74
414.723	79151.67
415.084	79315.17
415.446	79433.02
415.807	79525.03
416.169	79585.92
416.53	79627.77
416.891	79673.73
417.252	79729.87
417.614	79760.95
417.975	79774.38
418.336	79791.78
418.697	79810.98
419.058	79828.27
419.419	79840.68
419.78	79855.3
420.141	79865.65
420.501	79873.51
420.862	79878.89
421.223	79883.8
421.584	79900.1
421.944	79907.74
422.305	79912.05
422.666	79914.67
423.026	79916.44
423.387	79922.68
423.747	79928.06
424.107	79934.01
424.468	79938.73
424.828	79941.98
425.188	79945.45
425.549	79949.33
425.909	79953.31
426.269	79952.87
426.629	79955.86
426.989	79958.41
427.349	79960.77
427.709	79963.4
428.069	79964.91
428.429	79969.93
428.789	79973.44
429.149	79977.36
429.508	79979.94
429.868	79983.01
430.228	79986.48
430.587	79988.85
430.947	79991.18
431.306	79994.5
431.666	79997.05
432.025	79999.82
432.385	80001.34
432.744	80002.67
433.103	80006.4
433.463	80008.06
433.822	80012.94
434.181	80015.16
434.54	80016.27
434.899	80017.71
435.258	80020.66
435.618	80022.96
435.976	80022.66
436.335	80024.73
436.694	80025.03
437.053	80026.84
437.412	80027.21
437.771	80026.54
438.129	80027.43
438.488	80027.8
438.847	80027.87
439.205	80027.36
439.564	80027.24
439.922	80027.02
440.281	80027.43
440.639	80029.02
440.997	80028.35
441.356	80029.24
441.714	80030.43
442.072	80029.06
442.431	80029.39
442.789	80027.8
443.147	80027.21
443.505	80027.65
443.863	80025.62
444.221	80025.55
444.579	80025.84
444.937	80026.1
445.294	80028.69
445.652	80029.95
446.01	80031.02
446.368	80031.39
446.725	80032.05
447.083	80033.16
447.441	80034.6
447.798	80035.71
448.156	80034.27
448.513	80035.45
448.87	80035.23
449.228	80035.05
449.585	80036.42
449.942	80036.82
450.3	80038.56
450.657	80039.26
451.014	80039.67
451.371	80041.11
451.728	80041.41
452.085	80041.85
452.442	80042.37
452.799	80041.63
453.156	80039.71
453.513	80040.45
453.869	80041.93
454.226	80043.33
454.583	80043.11
454.939	80042.55
455.296	80042.15
455.653	80042.37
456.009	80042.18
456.366	80042.3
456.722	80042.37
457.078	80043.85
457.435	80044.85
457.791	80044.81
458.147	80043.92
458.503	80043.77
458.86	80044.66
459.216	80045.99
459.572	80046.77
459.928	80047.62
460.284	80048.32
460.64	80050.84
460.996	80049.58
461.351	80047.14
461.707	80045.66
462.063	80046.7
462.419	80047.14
462.774	80046.59
463.13	80047.14
463.486	80046.33
463.841	80046.55
464.197	80046.55
464.552	80046.99
464.908	80045.92
465.263	80045.62
465.618	80046.55
465.974	80048.62
466.329	80049.03
466.684	80047.73
467.039	80046.1
467.394	80045.62
467.749	80045
468.104	80045.11
468.459	80046.55
468.814	80048.8
469.169	80050.02
469.524	80048.77
469.879	80049.43
470.233	80051.58
470.588	80052.28
470.943	80054.98
471.297	80055.94
471.652	80056.13
472.006	80056.16
472.361	80057.27
472.715	80057.39
473.07	80058.2
473.424	80056.46
473.778	80056.79
474.133	80059.27
474.487	80061.71
474.841	80062.97
475.195	80063.86
475.549	80064.53
475.903	80066.26
476.257	80065.89
476.611	80067.37
476.965	80068.34
477.319	80068.89
477.673	80069.74
478.026	80070.37
478.38	80072.11
478.734	80071.41
479.087	80073.26
479.441	80073.55
479.795	80074.44
480.148	80076.29
480.502	80076.96
480.855	80078.77
481.208	80079.77
481.562	80079.62
481.915	80080.03
482.268	80081.55
482.621	80081.58
482.974	80082.95
483.328	80083.69
483.681	80085.21
484.034	80084.77
484.387	80087.43
484.739	80087.69
485.092	80087.8
485.445	80089.54
485.798	80088.25
486.151	80088.54
486.503	80089.95
486.856	80092.28
487.209	80093.65
487.561	80093.09
487.914	80092.13
488.266	80093.09
488.618	80092.17
488.971	80091.24
489.323	80091.24
489.675	80090.28
490.028	80091.02
490.38	80090.02
490.732	80089.36
491.084	80090.43
491.436	80091.1
491.788	80089.13
492.14	80088.91
492.492	80090.1
492.844	80089.62
493.196	80090.1
493.548	80090.69
493.899	80088.5
494.251	80086.91
494.603	80086.32
494.954	80088.36
495.306	80090.17
495.657	80090.8
496.009	80092.17
496.36	80093.06
496.712	80092.13
497.063	80090.72
497.414	80090.98
497.765	80091.98
498.117	80092.02
498.468	80091.35
498.819	80091.17
499.17	80092.09
499.521	80093.02
499.872	80092.39
500.223	80093.5
500.574	80094.83
500.924	80096.28
501.275	80098.35
501.626	80097.68
501.977	80097.61
502.327	80095.68
502.678	80096.35
503.029	80095.31
503.379	80094.54
503.73	80094.61
504.08	80095.76
504.43	80098.27
504.781	80098.16
505.131	80096.72
505.481	80095.98
505.831	80094.68
506.182	80095.39
506.532	80094.13
506.882	80094.43
507.232	80094.54
507.582	80093.5
507.932	80091.46
508.281	80091.35
508.631	80089.58
508.981	80090.76
509.331	80090.61
509.681	80090.65
510.03	80089.76
510.38	80089.1
510.729	80089.17
511.079	80088.1
511.428	80087.8
511.778	80087.99
512.127	80088.54
512.476	80088.36
512.826	80088.58
513.175	80089.76
513.524	80089.02
513.873	80089.39
514.222	80087.84
514.571	80086.99
514.92	80087.13
515.269	80086.99
515.618	80086.28
515.967	80086.43
516.316	80085.99
516.665	80083.36
517.014	80083.03
517.362	80083.51
517.711	80083.51
518.059	80084.1
518.408	80086.36
518.757	80086.91
519.105	80084.62
519.453	80084.14
519.802	80085.99
520.15	80086.76
520.498	80085.91
520.847	80084.84
521.195	80085.4
521.543	80086.58
521.891	80086.28
522.239	80084.91
522.587	80085.21
522.935	80087.06
523.283	80088.47
523.631	80088.32
523.979	80090.84
524.326	80091.06
524.674	80090.43
525.022	80090.76
525.369	80090.28
525.717	80089.21
526.064	80087.95
526.412	80089.47
526.759	80090.43
527.107	80089.32
527.454	80088.32
527.801	80089.32
528.149	80091.54
528.496	80091.72
528.843	80091.5
529.19	80091.09
529.537	80090.46
529.884	80091.28
530.231	80091.06
530.578	80090.61
530.925	80090.5
531.272	80090.72
531.619	80090.5
531.966	80090.21
532.312	80089.72
532.659	80091.02
533.006	80091.2
533.352	80090.09
533.699	80089.47
534.045	80087.02
534.392	80085.58
534.738	80086.99
535.084	80086.47
535.431	80084.95
535.777	80085.99
536.123	80086.65
536.469	80086.62
536.815	80087.39
537.161	80089.02
537.507	80086.95
537.853	80085.21
538.199	80085.69
538.545	80085.95
538.891	80087.28
539.237	80088.39
539.582	80089.02
539.928	80088.17
540.274	80088.65
540.619	80090.1
540.965	80090.95
541.31	80092.35
541.656	80093.87
542.001	80093.61
542.347	80092.98
542.692	80093.5
543.037	80091.43
543.382	80090.69
543.728	80091.5
544.073	80091.95
544.418	80090.72
544.763	80091.02
545.108	80093.13
545.453	80092.83
545.798	80092.13
546.142	80091.5
546.487	80091.09
546.832	80092.02
547.177	80092.02
547.521	80090.28
547.866	80090.98
548.211	80089.06
548.555	80088.17
548.9	80088.06
549.244	80086.8
549.588	80087.47
549.933	80088.1
550.277	80089.24
550.621	80088.47
550.965	80088.5
551.31	80087.84
551.654	80086.58
551.998	80085.88
552.342	80084.25
552.686	80085.1
553.03	80083.8
553.373	80083.77
553.717	80082.06
554.061	80081.06
554.405	80079.73
554.748	80080.14
555.092	80079.62
555.436	80080.81
555.779	80080.07
556.123	80080.03
556.466	80081.29
556.81	80080.32
557.153	80081.21
557.496	80081.58
557.839	80081.84
558.183	80080.84
558.526	80081.29
558.869	80082.36
559.212	80084.1
559.555	80085.14
559.898	80085.95
560.241	80087.91
560.584	80087.02
560.927	80088.91
561.269	80088.28
561.612	80089.61
561.955	80089.5
562.297	80088.95
562.64	80090.02
562.983	80091.65
563.325	80091.39
563.668	80090.54
564.01	80091.35
564.352	80088.69
564.695	80088.21
565.037	80087.84
565.379	80088.84
565.721	80088.21
566.063	80086.87
566.406	80086.73
566.748	80087.17
567.09	80084.8
567.431	80083.95
567.773	80084.62
568.115	80084.84
568.457	80085.39
568.799	80086.8
569.14	80089.69
569.482	80089.98
569.824	80087.76
570.165	80087.95
570.507	80088.65
570.848	80089.02
571.19	80088.13
571.531	80088.43
571.872	80089.28
572.214	80088.91
572.555	80087.95
572.896	80087.02
573.237	80086.43
573.578	80084.21
573.919	80083.51
574.26	80084.58
574.601	80085.32
574.942	80084.25
575.283	80082.4
575.624	80082.03
575.964	80079.88
576.305	80077.51
576.646	80077.29
576.986	80077.77
577.327	80077.7
577.667	80076.4
578.008	80076.66
578.348	80077.62
578.689	80078.4
579.029	80076.44
579.369	80076.4
579.71	80077.73
580.05	80079.14
580.39	80079.14
580.73	80079.21
581.07	80078.47
581.41	80077.81
581.75	80077.25
582.09	80076.29
582.43	80075.26
582.769	80075.88
583.109	80075.07
583.449	80074.07
583.789	80073.26
584.128	80072.59
584.468	80072.48
584.807	80073.44
585.147	80071.93
585.486	80069.56
585.825	80069.26
586.165	80068.89
586.504	80069.93
586.843	80069.52
587.182	80068.3
587.522	80067.08
587.861	80067.93
588.2	80067.19
588.539	80067.12
588.878	80066.01
589.216	80066.71
589.555	80067.89
589.894	80067.52
590.233	80067.3
590.572	80067.23
590.91	80068.23
591.249	80068.56
591.587	80068.04
591.926	80067.3
592.264	80066.78
592.603	80067.71
592.941	80067.6
593.279	80068.71
593.618	80068.3
593.956	80067.71
594.294	80068.26
594.632	80068.89
594.97	80068.26
595.308	80069.08
595.646	80068.96
595.984	80069.08
596.322	80069.26
596.66	80070.04
596.998	80070.26
597.335	80072.18
597.673	80072.29
598.011	80072.59
598.348	80074.7
598.686	80073.85
599.023	80074.14
599.361	80074.11
599.698	80074.44
600.035	80073.29
600.373	80072.74
600.71	80073.63
601.047	80070.89
601.384	80069.6
601.722	80071.26
602.059	80070.67
602.396	80071
602.733	80070.3
603.069	80069.04
603.406	80067.12
603.743	80066.78
604.08	80065.53
604.417	80065.42
604.753	80065.01
605.09	80064.34
605.426	80063.97
605.763	80064.08
606.099	80061.94
606.436	80060.68
606.772	80060.09
607.109	80059.87
607.445	80059.02
607.781	80056.57
608.117	80058.31
608.453	80058.28
608.79	80058.13
609.126	80059.87
609.462	80058.39
609.798	80059.05
610.133	80060.16
610.469	80061.34
610.805	80060.86
611.141	80060.94
611.477	80058.72
611.812	80059.2
612.148	80058.68
612.483	80056.68
612.819	80056.42
613.154	80058.35
613.49	80060.64
613.825	80059.6
614.16	80059.42
614.496	80059.2
614.831	80058.79
615.166	80057.98
615.501	80057.35
615.836	80055.87
616.171	80056.83
616.506	80056.54
616.841	80057.02
617.176	80056.65
617.511	80056.02
617.846	80054.76
618.18	80055.91
618.515	80056.35
618.85	80055.17
619.184	80053.32
619.519	80053.54
619.853	80053.1
620.188	80051.84
620.522	80051.25
620.856	80052.28
621.191	80050.91
621.525	80051.39
621.859	80051.54
622.193	80050.62
622.527	80052.36
622.861	80052.02
623.195	80049.4
623.529	80051.1
623.863	80050.25
624.197	80049.69
624.531	80050.06
624.865	80051.65
625.198	80048.36
625.532	80048.62
625.866	80048.07
626.199	80048.66
626.533	80047.44
626.866	80046.99
627.2	80046.18
627.533	80045.81
627.866	80046.18
628.2	80046.47
628.533	80045.33
628.866	80045.96
629.199	80047.44
629.532	80046.03
629.865	80046.47
630.198	80046.59
630.531	80045.33
630.864	80043.29
631.197	80043.22
631.529	80041.3
631.862	80039.82
632.195	80040.85
632.527	80039.37
632.86	80041.19
633.193	80041.19
633.525	80040.78
633.857	80041.3
634.19	80041.26
634.522	80039.63
634.854	80039
635.187	80040.85
635.519	80041.52
635.851	80042.44
636.183	80043
636.515	80044.11
636.847	80044.07
637.179	80043.66
637.511	80042.74
637.843	80043.26
638.174	80042.26
638.506	80043.48
638.838	80043.18
639.17	80043.89
639.501	80043.66
639.833	80041.96
640.164	80041.7
640.496	80042.59
640.827	80041.52
641.158	80041.56
641.49	80042.04
641.821	80041.85
642.152	80039.74
642.483	80037.56
642.814	80036.01
643.145	80033.94
643.476	80032.35
643.807	80032.05
644.138	80031.76
644.469	80032.13
644.8	80031.13
645.131	80031.9
645.461	80031.68
645.792	80032.13
646.122	80029.32
646.453	80030.57
646.784	80030.98
647.114	80030.83
647.444	80029.28
647.775	80028.39
648.105	80028.58
648.435	80029.17
648.765	80028.76
649.096	80029.28
649.426	80030.39
649.756	80029.35
650.086	80031.02
650.416	80032.02
650.746	80032.46
651.075	80031.42
651.405	80030.76
651.735	80031.39
652.065	80030.98
652.394	80031.31
652.724	80031.46
653.054	80032.53
653.383	80032.35
653.712	80031.98
654.042	80030.91
654.371	80030.31
654.701	80030.83
655.03	80030.06
655.359	80029.94
655.688	80030.91
656.017	80031.9
656.346	80032.46
656.675	80033.27
657.004	80030.2
657.333	80028.84
657.662	80027.47
657.991	80028.21
658.32	80028.98
658.648	80029.76
658.977	80029.72
659.306	80028.43
659.634	80028.84
659.963	80029.09
660.291	80027.76
660.619	80028.65
660.948	80028.73
661.276	80030.13
661.604	80030.83
661.933	80030.09
662.261	80028.69
662.589	80027.17
662.917	80025.77
663.245	80024.44
663.573	80024.44
663.901	80025.03
664.229	80024.14
664.556	80025.47
664.884	80023.88
665.212	80022.74
665.539	80022.07
665.867	80020.22
666.195	80020.19
666.522	80017.89
666.85	80017.6
667.177	80017.67
667.504	80016.16
667.832	80016.41
668.159	80016.97
668.486	80016.3
668.813	80017.3
669.14	80018.71
669.467	80018.41
669.794	80018.56
670.121	80019.3
670.448	80019
670.775	80020.07
671.102	80018.82
671.429	80015.71
671.755	80018.3
672.082	80018.56
672.409	80018.15
672.735	80019.78
673.062	80019.74
673.388	80019.59
673.714	80019.37
674.041	80018.19
674.367	80017.19
674.693	80017.97
675.019	80016.45
675.346	80015.45
675.672	80015.05
675.998	80013.72
676.324	80013.68
676.65	80013.75
676.976	80013.12
677.301	80012.75
677.627	80011.42
677.953	80013.16
678.279	80013.9
678.604	80012.35
678.93	80011.35
679.255	80011.24
679.581	80010.17
679.906	80009.8
680.232	80009.57
680.557	80009.24
680.882	80010.06
681.208	80010.24
681.533	80008.58
681.858	80009.28
682.183	80009.32
682.508	80007.69
682.833	80007.47
683.158	80006.54
683.483	80004.7
683.808	80004.59
684.132	80003.66
684.457	80003.62
684.782	80003.11
685.106	80002.44
685.431	80000.22
685.755	79999.63
686.08	79999.41
686.404	79998.64
686.729	79997.79
687.053	79998.71
687.377	79998.75
687.701	79997.64
688.026	79998.08
688.35	79997.68
688.674	79996.64
688.998	79996.6
689.322	79997.56
689.646	79996.05
689.97	79997.56
690.293	79997.71
690.617	79996.23
690.941	79995.38
691.264	79994.28
691.588	79993.43
691.912	79992.95
692.235	79993.65
692.559	79993.61
692.882	79991.84
693.205	79991.17
693.529	79990.25
693.852	79988.44
694.175	79986.48
694.498	79985.37
694.821	79982.97
695.144	79980.13
695.467	79975.84
695.79	79971.93
696.113	79968.12
696.436	79966.02
696.759	79961.33
697.082	79956.82
697.404	79953.5
697.727	79948.15
698.049	79942.69
698.372	79934.42
698.694	79925.61
699.017	79916.24
699.339	79904.26
699.662	79891.43
699.984	79871.45
700.306	79850.66
700.628	79816.37
700.95	79773.9
701.272	79724.96
701.594	79667.85
701.916	79612.96
702.238	79549.5
702.56	79451.19
702.882	79344.88
703.204	79241.15
703.525	79112.41
703.847	78947.01
704.169	78783.29
704.49	78601
704.812	78411.86
705.133	78216.91
705.455	78020.45
705.776	77801.82
706.097	77598.68
706.419	77375.87
706.74	77144.73
707.061	76892.38
707.382	76609.26
707.703	76316.1
708.024	76043.44
708.345	75756.56
708.666	75444.42
708.987	75121.31
709.307	74834.88
709.628	74512.87
709.949	74180.17
710.27	73850.94
710.59	73571.28
710.911	73260.05
711.231	72955.51
711.552	72676.85
711.872	72349.3
712.192	72063.39
712.512	71793.27
712.833	71509.16
713.153	71224.61
713.473	70979.08
713.793	70734.29
714.113	70516.05
714.433	70305.17
714.753	70083.89
715.073	69882.97
715.393	69676.94
715.712	69506.63
716.032	69282.73
716.352	69110.84
716.671	68948.75
716.991	68783.51
717.31	68589.44
717.63	68436.07
717.949	68253.19
718.268	68035.8
718.588	67855.78
718.907	67618.9
719.226	67354.92
719.545	67100.9
719.864	66821.16
720.183	66533.09
720.502	66253.83
720.821	65975.69
721.14	65695.68
721.459	65390.37
721.778	65101.56
722.096	64774.23
722.415	64464.84
722.734	64197.62
723.052	63907.81
723.371	63601.87
723.689	63315.44
724.008	63023.67
724.326	62718.97
724.644	62450.28
724.963	62175.94
725.281	61943.09
725.599	61711.98
725.917	61516.09
726.235	61314.43
726.553	61157.25
726.871	60966.99
727.189	60760.36
727.507	60558.61
727.824	60398.14
728.142	60256.05
728.46	60059.04
728.777	59956.53
729.095	59819.13
729.413	59661.57
729.73	59512.36
730.047	59381.41
730.365	59270.01
730.682	59155.32
730.999	59063.14
731.317	58982.91
731.634	58905.08
731.951	58786.62
732.268	58665.65
732.585	58521.35
732.902	58366.48
733.219	58205.98
733.536	58029.89
733.852	57905.23
734.169	57775.59
734.486	57619.64
734.802	57453.2
735.119	57337.31
735.435	57160.29
735.752	56998.94
736.068	56832.49
736.385	56671.99
736.701	56481.03
737.017	56241.6
737.333	55995.45
737.65	55692.47
737.966	55315.05
738.282	54922.43
738.598	54505.98
738.914	54049.41
739.23	53561.07
739.545	53036.87
739.861	52481.75
740.177	51935.89
740.493	51332.25
740.808	50751.4
741.124	50146.01
741.439	49566.6
741.755	48988.21
742.07	48463.66
742.386	47909.97
742.701	47407.47
743.016	46903.43
743.331	46426.02
743.647	46000.29
743.962	45613.72
744.277	45262.46
744.592	44983.31
744.907	44757.07
745.222	44593.47
745.537	44493.02
745.851	44459.93
746.166	44474.36
746.481	44525.98
746.795	44643.65
747.11	44801.23
747.424	44977.06
747.739	45143.77
748.053	45318.61
748.368	45472.08
748.682	45583.11
748.996	45713.24
749.311	45819.89
749.625	45920.66
749.939	46023.96
750.253	46089.2
750.567	46160.27
750.881	46226.31
751.195	46289.49
751.509	46354.44
751.822	46400.34
752.136	46450.97
752.45	46502.42
752.763	46572.17
753.077	46636.24
753.39	46664.91
753.704	46690.86
754.017	46707.85
754.331	46743.03
754.644	46746.32
754.957	46757.31
755.27	46775.98
755.584	46777.62
755.897	46780.22
756.21	46773.48
756.523	46750.07
756.836	46725.88
757.149	46639.12
757.461	46569.52
757.774	46492.24
758.087	46373.78
758.4	46243.65
758.712	46095.27
759.025	45940.35
759.337	45782.52
759.65	45619.55
759.962	45463.46
760.275	45298.94
760.587	45149.33
760.899	45013.3
761.211	44919.06
761.523	44844.22
761.836	44836.49
762.148	44842.22
762.46	44872.63
762.772	44935.4
763.083	45066.41
763.395	45215.09
763.707	45442.51
764.019	45659.22
764.33	45880.17
764.642	46137.3
764.954	46393.51
765.265	46671.28
765.577	46932.73
765.888	47174.19
766.199	47421.22
766.511	47637.78
766.822	47859.06
767.133	48040
767.444	48204.61
767.755	48302.48
768.066	48361.03
768.377	48352.55
768.688	48290.39
768.999	48203.19
769.31	48075.97
769.621	47886.42
769.931	47657.75
770.242	47397.32
770.553	47104.72
770.863	46775.68
771.174	46416.69
771.484	46032.88
771.794	45626.77
772.105	45219.1
772.415	44793.58
772.725	44342.15
773.035	43897.64
773.345	43439.32
773.656	42971.04
773.966	42498.36
774.276	42059.64
774.585	41629.67
774.895	41194.66
775.205	40811.68
775.515	40406.2
775.824	40018.22
776.134	39630.62
776.444	39268.94
776.753	38899.42
777.063	38558.9
777.372	38233.75
777.681	37909.97
777.991	37611.33
778.3	37307.87
778.609	37010.2
778.918	36717.81
779.228	36450.09
779.537	36186.74
779.846	35924.83
780.154	35676.78
780.463	35435.51
780.772	35189.41
781.081	34960.79
781.39	34755.47
781.698	34536.85
782.007	34328
782.316	34114.67
782.624	33899.51
782.932	33698.88
783.241	33501.27
783.549	33304.82
783.858	33135.53
784.166	32966
784.474	32786.13
784.782	32618.89
785.09	32456.82
785.398	32307.37
785.706	32163.59
786.014	32016.48
786.322	31879.62
786.63	31744.47
786.937	31622.91
787.245	31496.73
787.553	31365.11
787.86	31247.63
788.168	31124.6
788.475	31019.65
788.783	30920.05
789.09	30825.9
789.398	30725.03
789.705	30626.93
790.012	30523.56
790.319	30411.42
790.626	30302.94
790.933	30216.15
791.24	30127.56
791.547	30032.88
791.854	29943.63
792.161	29848.4
792.468	29755.79
792.774	29653.75
793.081	29570.89
793.388	29483.81
793.694	29384.79
794.001	29297.44
794.307	29172.26
794.614	29065.62
794.92	28939.71
795.226	28820.34
795.533	28705.67
795.839	28599.94
796.145	28486.51
796.451	28372.38
796.757	28267.2
797.063	28156.44
797.369	28037.37
797.675	27927.18
797.98	27827.56
798.286	27706.82
798.592	27601.23
798.898	27489.48
799.203	27380.8
799.509	27257.52
799.814	27125.68
800.12	27025.25
800.425	26907.55
800.73	26801.65
801.035	26686.6
801.341	26584.56
801.646	26477.17
801.951	26371.37
802.256	26269.64
802.561	26168.72
802.866	26077.16
803.171	25983.18
803.476	25896.61
803.78	25807.09
804.085	25708.27
804.39	25592.23
804.694	25495.67
804.999	25395.14
805.303	25295.68
805.608	25211.56
805.912	25126.46
806.216	25054.49
806.521	24983.93
806.825	24905.92
807.129	24833.73
807.433	24761.4
807.737	24690.56
808.041	24625.45
808.345	24573.79
808.649	24514.47
808.953	24469.95
809.257	24409.72
809.561	24353.38
809.864	24299.36
810.168	24262.15
810.471	24230.06
810.775	24204.72
811.078	24181.12
811.382	24152.13
811.685	24151.45
811.988	24139.24
812.292	24128.41
812.595	24128.07
812.898	24123.67
813.201	24134.24
813.504	24156.51
813.807	24190.36
814.11	24220.88
814.413	24254.81
814.716	24280.45
815.018	24327.47
815.321	24385.36
815.624	24479.41
815.926	24582.64
816.229	24710.56
816.531	24856.01
816.834	25023.57
817.136	25221.94
817.438	25432.62
817.74	25704.9
818.043	26014.14
818.345	26397.77
818.647	26854.48
818.949	27400.77
819.251	28043.2
819.553	28803.31
819.855	29674.4
820.156	30641.48
820.458	31734.82
820.76	32892.69
821.062	34106.34
821.363	35370.97
821.665	36715.73
821.966	38147.79
822.268	39592.75
822.569	41048.05
822.87	42529.6
823.171	44017.52
823.473	45549.9
823.774	47140.71
824.075	48681.02
824.376	50183.29
824.677	51650.08
824.978	53035.93
825.279	54331.49
825.58	55502.08
825.88	56533.63
826.181	57419.41
826.482	58208.64
826.782	58827.55
827.083	59344.38
827.383	59732.93
827.684	59954.87
827.984	60028.56
828.284	59932.57
828.585	59712.82
828.885	59405.8
829.185	58949.94
829.485	58401.69
829.785	57730.01
830.085	56895.99
830.385	56013.44
830.685	55076.97
830.985	54032.02
831.285	52953.91
831.584	51824.82
831.884	50678.48
832.183	49504.32
832.483	48294.04
832.782	47016.25
833.082	45734.08
833.381	44448.35
833.681	43202.65
833.98	42036.42
834.279	40897.33
834.578	39792.39
834.877	38756.15
835.176	37742.8
835.475	36801.6
835.774	35905.51
836.073	35037.21
836.372	34211.02
836.671	33392.6
836.969	32583.75
837.268	31834.33
837.567	31120.65
837.865	30434.95
838.164	29746.25
838.462	29089.36
838.761	28470.06
839.059	27884.22
839.357	27333.09
839.655	26800.59
839.953	26258.73
840.252	25724.84
840.55	25203.1
840.848	24689.97
841.146	24189.37
841.443	23687.38
841.741	23186.66
842.039	22672.2
842.337	22166.31
842.634	21700.72
842.932	21257.06
843.229	20831.26
843.527	20408.84
843.824	19966.99
844.122	19515.46
844.419	19093.51
844.716	18660.58
845.013	18250.64
845.311	17858.93
845.608	17481.43
845.905	17112.65
846.202	16755.49
846.499	16387.65
846.796	16021.53
847.092	15649.33
847.389	15284.06
847.686	14948.83
847.982	14626.8
848.279	14316.57
848.576	14018.81
848.872	13720.65
849.168	13430.61
849.465	13147.51
849.761	12859.43
850.057	12580.77
850.354	12318.46
850.65	12063.88
850.946	11835
851.242	11608.64
851.538	11387.14
851.834	11167.44
852.13	10952.14
852.425	10753.96
852.721	10571.17
853.017	10402.58
853.312	10251.81
853.608	10108.65
853.903	9962.82
854.199	9815.89
854.494	9684.88
854.79	9554.12
855.085	9422.91
855.38	9294.67
855.675	9163.45
855.971	9043.54
856.266	8941.04
856.561	8845.1
856.856	8754.54
857.151	8665.56
857.445	8567.41
857.74	8472.29
858.035	8378.92
858.33	8284.88
858.624	8199.27
858.919	8120.04
859.213	8032.6
859.508	7950.06
859.802	7858.23
860.096	7775.09
860.391	7711.86
860.685	7652.19
860.979	7594.05
861.273	7542.77
861.567	7484.3
861.861	7422.21
862.155	7366.22
862.449	7299.58
862.743	7231.78
863.037	7170.61
863.33	7112.04
863.624	7053.74
863.918	7004.23
864.211	6962.48
864.505	6930.08
864.798	6886.43
865.092	6836.92
865.385	6790.78
865.678	6737.51
865.971	6703.86
866.264	6674.15
866.558	6643.78
866.851	6609.68
867.144	6579.03
867.437	6542.14
867.729	6510.86
868.022	6487.59
868.315	6464.8
868.608	6453.63
868.9	6447.67
869.193	6430.23
869.485	6400.84
869.778	6378.84
870.07	6350.64
870.363	6329.37
870.655	6311.3
870.947	6303.09
871.239	6299.41
871.532	6299.53
871.824	6302.22
872.116	6299.08
872.408	6292.49
872.699	6277.91
872.991	6271.67
873.283	6265.83
873.575	6263.83
873.867	6267.45
874.158	6274.67
874.45	6275.18
874.741	6269.18
875.033	6267.8
875.324	6280.24
875.615	6303.03
875.907	6326.71
876.198	6344.92
876.489	6354.44
876.78	6356.63
877.071	6357.18
877.362	6358.72
877.653	6361.52
877.944	6371.83
878.235	6380.04
878.526	6389.18
878.816	6405.09
