Data from 24HourExp_27052025_FLMS018081_05-48-20-053.txt Node
Date: Wed May 28 05:48:20 BST 2025
User: adleo
Spectrometer: FLMS01808
Trigger mode: 0
Integration Time (sec): 4.000000E-1
Scans to average: 10
Electric dark correction enabled: true
Nonlinearity correction enabled: true
Boxcar width: 10
XAxis mode: Wavelengths
Number of Pixels in Spectrum: 2048
>>>>>Begin Spectral Data<<<<<
178.471	-137.81
178.857	-128.1
179.244	-119.04
179.631	-110.65
180.017	-101.59
180.404	-91.86
180.79	-80.19
181.176	-71.31
181.563	-62.37
181.949	-52.08
182.335	-42.66
182.722	-27.28
183.108	-9.44
183.494	17.14
183.88	70.91
184.266	124.17
184.653	181.46
185.039	237.25
185.425	292.09
185.811	344.56
186.197	398.16
186.582	449.22
186.968	501.12
187.354	553
187.74	602.51
188.126	652.19
188.511	700.65
188.897	747.44
189.283	795.1
189.668	841.43
190.054	886.2
190.439	932.77
190.825	977.24
191.21	1018.71
191.596	1050.56
191.981	1057.73
192.366	1063.13
192.752	1063.84
193.137	1067.25
193.522	1067.01
193.908	1070.72
194.293	1073.85
194.678	1078.17
195.063	1079.71
195.448	1080.04
195.833	1081.63
196.218	1081.51
196.603	1080.66
196.988	1080.61
197.373	1081.3
197.757	1080.2
198.142	1080.86
198.527	1077.96
198.912	1077.35
199.296	1078.55
199.681	1078.96
200.066	1079.21
200.45	1078.61
200.835	1077.97
201.219	1076.22
201.604	1076.81
201.988	1077.43
202.372	1077.43
202.757	1076.45
203.141	1076.85
203.525	1078.4
203.91	1078.01
204.294	1077.76
204.678	1078.7
205.062	1078.71
205.446	1079.5
205.83	1079.69
206.214	1079.92
206.598	1079.36
206.982	1080.22
207.366	1079.9
207.75	1080.3
208.134	1081.31
208.517	1081.79
208.901	1082.9
209.285	1084.48
209.669	1086.16
210.052	1085.34
210.436	1085.73
210.819	1087.55
211.203	1087.19
211.586	1087.32
211.97	1088.09
212.353	1089.99
212.737	1090.88
213.12	1093.47
213.503	1093.53
213.886	1095.44
214.27	1096.33
214.653	1099.76
215.036	1101.8
215.419	1105.11
215.802	1106.39
216.185	1107.03
216.568	1110.61
216.951	1112.31
217.334	1113.23
217.717	1117.02
218.1	1119.43
218.482	1123.27
218.865	1126.07
219.248	1130.22
219.631	1133
220.013	1137.86
220.396	1145.03
220.778	1151.76
221.161	1156.57
221.544	1162.86
221.926	1171.79
222.308	1179.59
222.691	1187.42
223.073	1195.82
223.455	1203.58
223.838	1213.52
224.22	1225.01
224.602	1235.3
224.984	1246.94
225.366	1259.65
225.749	1273.06
226.131	1284.87
226.513	1298.77
226.895	1314.84
227.276	1328.76
227.658	1344.85
228.04	1360.75
228.422	1375.99
228.804	1390.79
229.186	1406.26
229.567	1424.09
229.949	1440.28
230.331	1456.57
230.712	1475.65
231.094	1491.37
231.475	1509.51
231.857	1529.92
232.238	1548.06
232.62	1567.75
233.001	1586.82
233.382	1607.65
233.763	1625.8
234.145	1646.98
234.526	1665.64
234.907	1684.28
235.288	1704.39
235.669	1723.97
236.05	1744.47
236.431	1762.1
236.812	1782.64
237.193	1803.1
237.574	1822.12
237.955	1843.85
238.336	1866.14
238.717	1884.32
239.097	1910.05
239.478	1932.24
239.859	1954.4
240.239	1977.94
240.62	2001.1
241.001	2022.64
241.381	2045.93
241.762	2067.88
242.142	2090.7
242.522	2115.33
242.903	2138.78
243.283	2164.84
243.663	2191.2
244.044	2219.67
244.424	2248.24
244.804	2275.55
245.184	2306.11
245.564	2334.64
245.944	2364.58
246.324	2395.5
246.704	2428.34
247.084	2454.99
247.464	2484.75
247.844	2514.27
248.224	2541.26
248.604	2571.43
248.983	2603.28
249.363	2634.54
249.743	2665.21
250.122	2696.37
250.502	2725.88
250.882	2757.72
251.261	2787.94
251.641	2820.25
252.02	2849.82
252.399	2883.76
252.779	2919.71
253.158	2953.12
253.537	2991.86
253.917	3034.8
254.296	3071.23
254.675	3108.33
255.054	3150.8
255.433	3192.52
255.812	3232.33
256.191	3275.77
256.57	3317.18
256.949	3360.5
257.328	3402.36
257.707	3448.38
258.086	3493.04
258.465	3542.12
258.843	3591.85
259.222	3643.83
259.601	3696.92
259.979	3750.86
260.358	3804.8
260.736	3855.59
261.115	3911.22
261.493	3965.34
261.872	4014.9
262.25	4071.54
262.629	4127.71
263.007	4185.29
263.385	4243.89
263.763	4303.96
264.142	4365.97
264.52	4428.96
264.898	4496.41
265.276	4562.41
265.654	4631.28
266.032	4703.65
266.41	4774.31
266.788	4843.49
267.166	4919.37
267.544	4991.2
267.921	5069.38
268.299	5145.98
268.677	5228.33
269.055	5309.32
269.432	5392.66
269.81	5479.02
270.188	5566.57
270.565	5657.9
270.943	5747.61
271.32	5838.75
271.697	5935.58
272.075	6033.06
272.452	6130.76
272.829	6224.89
273.207	6326.61
273.584	6431.11
273.961	6535.22
274.338	6645.33
274.715	6763.16
275.092	6881.13
275.469	6999.56
275.846	7118.47
276.223	7240.79
276.6	7363.07
276.977	7489.57
277.354	7615.39
277.731	7741.78
278.108	7870.1
278.484	7997.2
278.861	8129.45
279.238	8270.38
279.614	8406.91
279.991	8548.51
280.367	8692.35
280.744	8840.51
281.12	8987.38
281.497	9132.79
281.873	9286.14
282.249	9437.58
282.625	9580.33
283.002	9723.83
283.378	9878.18
283.754	10027.41
284.13	10186.45
284.506	10345.82
284.882	10502.86
285.258	10657.47
285.634	10814.02
286.01	10976.84
286.386	11141.23
286.762	11306.53
287.138	11464.41
287.513	11630.61
287.889	11792.73
288.265	11958.46
288.641	12115.67
289.016	12280.32
289.392	12444.95
289.767	12607.17
290.143	12770.95
290.518	12937.31
290.894	13101.59
291.269	13256.05
291.644	13419.62
292.02	13569.63
292.395	13725.42
292.77	13881.09
293.145	14035.8
293.52	14191.89
293.895	14340.43
294.27	14494.88
294.646	14646.29
295.02	14795.76
295.395	14947.73
295.77	15104.07
296.145	15253.89
296.52	15414.78
296.895	15568.81
297.269	15722.38
297.644	15872.72
298.019	16024.27
298.393	16178.08
298.768	16328.92
299.143	16485.33
299.517	16636.65
299.891	16792.24
300.266	16949.03
300.64	17108.63
301.015	17274.03
301.389	17441.94
301.763	17616.53
302.137	17783.54
302.512	17963.87
302.886	18145.77
303.26	18329.3
303.634	18512.66
304.008	18694.11
304.382	18878.15
304.756	19063.48
305.13	19249.6
305.504	19434.89
305.877	19627.37
306.251	19834.8
306.625	20045.18
306.999	20254.31
307.372	20463.26
307.746	20680.4
308.119	20894.49
308.493	21105.03
308.866	21316.66
309.24	21528.5
309.613	21733.53
309.987	21951
310.36	22144.15
310.733	22353.36
311.107	22570.96
311.48	22781.27
311.853	23011.37
312.226	23235.91
312.599	23464.07
312.972	23691.66
313.345	23919.6
313.718	24146.07
314.091	24360.84
314.464	24580.93
314.837	24802.85
315.21	25017.14
315.582	25235.23
315.955	25443.89
316.328	25663.6
316.7	25879.9
317.073	26100.51
317.446	26323.77
317.818	26550.02
318.191	26782.14
318.563	27004.97
318.936	27211.96
319.308	27420.36
319.68	27618.18
320.053	27811.91
320.425	27997.98
320.797	28180.27
321.169	28344.73
321.541	28490.35
321.913	28625.62
322.285	28748.07
322.657	28871.81
323.029	29021.38
323.401	29161.33
323.773	29329.28
324.145	29501.35
324.517	29688.96
324.889	29863.75
325.26	30067.61
325.632	30271.63
326.004	30508.43
326.375	30765.24
326.747	31035.77
327.118	31338.6
327.49	31631.59
327.861	31942.41
328.233	32247.18
328.604	32554.59
328.975	32867.17
329.346	33177.14
329.718	33485.56
330.089	33786.15
330.46	34084.44
330.831	34356.75
331.202	34624.11
331.573	34867.06
331.944	35092.79
332.315	35326.67
332.686	35544.92
333.057	35741.23
333.428	35924.87
333.799	36096.38
334.169	36244.89
334.54	36383.33
334.911	36493.63
335.281	36624.55
335.652	36747.37
336.022	36889.45
336.393	37036.49
336.763	37203.91
337.134	37394.17
337.504	37600.56
337.874	37803.16
338.245	38005.7
338.615	38220.94
338.985	38445.5
339.355	38664.79
339.726	38885.59
340.096	39098.24
340.466	39349.63
340.836	39589.76
341.206	39839.04
341.576	40079.9
341.945	40319.59
342.315	40556.52
342.685	40804.17
343.055	41044.52
343.425	41280.4
343.794	41505.47
344.164	41737.77
344.533	41967.48
344.903	42188.94
345.273	42414.32
345.642	42642.92
346.011	42873.99
346.381	43107.01
346.75	43332.19
347.12	43579.55
347.489	43836.64
347.858	44080.05
348.227	44293.73
348.596	44514.84
348.965	44747.19
349.334	44981.32
349.704	45222.27
350.072	45470.3
350.441	45707.15
350.81	45947.57
351.179	46183.17
351.548	46423.25
351.917	46645.05
352.285	46842.99
352.654	47046.27
353.023	47251.9
353.391	47456.97
353.76	47665.39
354.129	47851.24
354.497	48081.58
354.865	48301.99
355.234	48526.97
355.602	48744.65
355.971	48990.59
356.339	49209.63
356.707	49425.54
357.075	49639.36
357.443	49860.14
357.811	50065.6
358.18	50269.33
358.548	50477.53
358.916	50687.21
359.284	50899.19
359.651	51109.8
360.019	51328.54
360.387	51537.96
360.755	51739.34
361.123	51962.49
361.49	52190.24
361.858	52406.55
362.226	52606.04
362.593	52810.29
362.961	52990.18
363.328	53194.71
363.696	53357.75
364.063	53576.7
364.43	53780.31
364.798	53991.21
365.165	54173.57
365.532	54361.94
365.899	54557.37
366.267	54724.01
366.634	54876.52
367.001	55037.13
367.368	55175.5
367.735	55356.67
368.102	55535.65
368.469	55729.47
368.835	55910.7
369.202	56074.49
369.569	56265.65
369.936	56452.9
370.303	56633.69
370.669	56834.87
371.036	56996.24
371.402	57197.78
371.769	57372.11
372.135	57525.86
372.502	57652.26
372.868	57791.96
373.235	57930.81
373.601	58056.87
373.967	58229.39
374.333	58409.32
374.7	58592.09
375.066	58797.4
375.432	58983.05
375.798	59159.96
376.164	59318.53
376.53	59460.04
376.896	59626.69
377.262	59802.44
377.628	59933.04
377.993	60075.86
378.359	60216.11
378.725	60371.7
379.091	60521.17
379.456	60655.23
379.822	60785.85
380.187	60934.29
380.553	61126.11
380.918	61325.84
381.284	61505.67
381.649	61671.7
382.015	61813.94
382.38	61937.79
382.745	62108.64
383.11	62249.52
383.476	62391.32
383.841	62524.5
384.206	62683.21
384.571	62801.64
384.936	62928.08
385.301	63100.19
385.666	63234.61
386.031	63383.45
386.396	63544.46
386.76	63701.13
387.125	63891.17
387.49	64093.55
387.855	64286.76
388.219	64449.65
388.584	64609.14
388.948	64794.72
389.313	64965.27
389.677	65170.34
390.042	65402.78
390.406	65551.34
390.771	65742.98
391.135	65924.2
391.499	66149.35
391.863	66376.14
392.227	66616.99
392.592	66816.51
392.956	67012.72
393.32	67211.02
393.684	67425.46
394.048	67594.08
394.412	67764.9
394.775	67907.95
395.139	68049.89
395.503	68206.15
395.867	68357.39
396.231	68507.81
396.594	68608.17
396.958	68743.73
397.321	68891.63
397.685	69007.8
398.048	69149.22
398.412	69289.9
398.775	69425.68
399.139	69556.31
399.502	69669.05
399.865	69811.06
400.228	70005.19
400.592	70131.51
400.955	70328.03
401.318	70464.97
401.681	70631.21
402.044	70781.95
402.407	70938.45
402.77	71095.67
403.133	71289.63
403.496	71432.26
403.859	71581.44
404.221	71825.23
404.584	72058.46
404.947	72302.4
405.309	72506.07
405.672	72738.87
406.034	72957.29
406.397	73209.02
406.759	73429.68
407.122	73606.14
407.484	73773
407.847	73965.93
408.209	74216.41
408.571	74440.58
408.933	74700.13
409.296	74949.48
409.658	75183.22
410.02	75463.05
410.382	75776.56
410.744	76030.71
411.106	76319.25
411.468	76597.64
411.83	76834.42
412.191	77033.15
412.553	77210.9
412.915	77434.27
413.277	77643.53
413.638	77840.45
414	78009.58
414.361	78185.88
414.723	78420.98
415.084	78638.64
415.446	78799.54
415.807	78936.74
416.169	79046.44
416.53	79136.4
416.891	79246.29
417.252	79372.69
417.614	79446.79
417.975	79488.56
418.336	79536.36
418.697	79588.35
419.058	79633.36
419.419	79671.84
419.78	79712.34
420.141	79740.82
420.501	79766.93
420.862	79786.11
421.223	79802.04
421.584	79834.81
421.944	79854.24
422.305	79865.15
422.666	79873.62
423.026	79878.49
423.387	79890.06
423.747	79898.35
424.107	79910.88
424.468	79918.3
424.828	79924.57
425.188	79928.12
425.549	79935.06
425.909	79942.59
426.269	79943.7
426.629	79948.6
426.989	79952.63
427.349	79958.76
427.709	79965.22
428.069	79966.37
428.429	79971.91
428.789	79979.44
429.149	79985.47
429.508	79987.79
429.868	79990.53
430.228	79995.52
430.587	79999.32
430.947	80006.2
431.306	80012.55
431.666	80015.25
432.025	80018.5
432.385	80019.57
432.744	80022.27
433.103	80023.45
433.463	80024.82
433.822	80030.14
434.181	80035.39
434.54	80037.27
434.899	80039.68
435.258	80041.01
435.618	80043.08
435.976	80047.22
436.335	80046.33
436.694	80047.11
437.053	80049.48
437.412	80050.99
437.771	80051.66
438.129	80052.4
438.488	80052.25
438.847	80053.88
439.205	80054.66
439.564	80055.25
439.922	80056.8
440.281	80057.87
440.639	80059.65
440.997	80059.65
441.356	80059.8
441.714	80059.46
442.072	80059.46
442.431	80058.95
442.789	80058.98
443.147	80059.5
443.505	80058.58
443.863	80059.43
444.221	80059.06
444.579	80059.39
444.937	80058.95
445.294	80059.72
445.652	80061.24
446.01	80060.2
446.368	80059.65
446.725	80058.61
447.083	80059.83
447.441	80059.91
447.798	80059.91
448.156	80060.8
448.513	80060.94
448.87	80062.13
449.228	80061.13
449.585	80061.17
449.942	80060.94
450.3	80061.83
450.657	80060.35
451.014	80060.57
451.371	80060.91
451.728	80059.94
452.085	80060.09
452.442	80061.05
452.799	80060.28
453.156	80060.02
453.513	80060.98
453.869	80062.9
454.226	80064.24
454.583	80063.16
454.939	80063.05
455.296	80064.13
455.653	80064.94
456.009	80066.68
456.366	80067.34
456.722	80068.08
457.078	80069.67
457.435	80070.01
457.791	80070.6
458.147	80072.04
458.503	80073.04
458.86	80073.41
459.216	80073.67
459.572	80073.08
459.928	80072.78
460.284	80073.86
460.64	80073.82
460.996	80072.82
461.351	80071.71
461.707	80072.26
462.063	80073.41
462.419	80073.45
462.774	80072.01
463.13	80070.86
463.486	80071.86
463.841	80071.12
464.197	80071.67
464.552	80072.41
464.908	80072.56
465.263	80071.64
465.618	80071.56
465.974	80070.6
466.329	80071.19
466.684	80070.9
467.039	80073.04
467.394	80075.82
467.749	80076.11
468.104	80075.08
468.459	80077.48
468.814	80077.67
469.169	80077.85
469.524	80077.41
469.879	80079.11
470.233	80079.96
470.588	80080.48
470.943	80079.52
471.297	80080.26
471.652	80081.41
472.006	80081.63
472.361	80082.33
472.715	80084.18
473.07	80085.51
473.424	80088.33
473.778	80087.81
474.133	80090.58
474.487	80090.58
474.841	80089.47
475.195	80089.95
475.549	80092.32
475.903	80091.88
476.257	80092.77
476.611	80093.32
476.965	80094.84
477.319	80094.65
477.673	80095.88
478.026	80096.17
478.38	80096.54
478.734	80096.84
479.087	80097.32
479.441	80096.84
479.795	80096.69
480.148	80098.21
480.502	80099.87
480.855	80098.47
481.208	80100.06
481.562	80099.32
481.915	80099.8
482.268	80099.58
482.621	80099.43
482.974	80098.98
483.328	80099.8
483.681	80101.5
484.034	80101.84
484.387	80102.09
484.739	80102.95
485.092	80102.76
485.445	80104.24
485.798	80103.54
486.151	80104.17
486.503	80105.54
486.856	80108.02
487.209	80109.24
487.561	80107.32
487.914	80105.02
488.266	80103.69
488.618	80103.1
488.971	80103.61
489.323	80102.98
489.675	80104.43
490.028	80103.58
490.38	80104.91
490.732	80105.09
491.084	80104.65
491.436	80105.98
491.788	80105.58
492.14	80106.28
492.492	80106.17
492.844	80106.32
493.196	80107.54
493.548	80107.91
493.899	80107.09
494.251	80105.43
494.603	80104.98
494.954	80105.65
495.306	80107.17
495.657	80107.65
496.009	80108.2
496.36	80108.87
496.712	80108.72
497.063	80108.98
497.414	80111.24
497.765	80111.94
498.117	80111.24
498.468	80110.5
498.819	80109.5
499.17	80109.65
499.521	80108.98
499.872	80110.28
500.223	80109.05
500.574	80109.24
500.924	80109.68
501.275	80110.02
501.626	80108.09
501.977	80106.61
502.327	80104.91
502.678	80104.09
503.029	80105.72
503.379	80105.09
503.73	80104.61
504.08	80104.43
504.43	80103.8
504.781	80104.24
505.131	80103.09
505.481	80103.28
505.831	80103.43
506.182	80102.95
506.532	80103.02
506.882	80103.5
507.232	80102.91
507.582	80103.13
507.932	80103.24
508.281	80102.91
508.631	80101.02
508.981	80104.35
509.331	80106.98
509.681	80108.98
510.03	80109.17
510.38	80109.98
510.729	80110.72
511.079	80110.61
511.428	80110.87
511.778	80110.68
512.127	80108.54
512.476	80107.61
512.826	80107.91
513.175	80108.43
513.524	80109.09
513.873	80109.31
514.222	80109.72
514.571	80109.91
514.92	80110.24
515.269	80110.17
515.618	80110.02
515.967	80111.24
516.316	80109.87
516.665	80109.39
517.014	80108.05
517.362	80107.94
517.711	80106.8
518.059	80107.28
518.408	80107.43
518.757	80107.28
519.105	80108.72
519.453	80110.24
519.802	80112.2
520.15	80112.65
520.498	80113.13
520.847	80111.72
521.195	80111.31
521.543	80111.39
521.891	80111.2
522.239	80110.42
522.587	80110.68
522.935	80111.16
523.283	80111.87
523.631	80110.61
523.979	80110.42
524.326	80111.5
524.674	80112.72
525.022	80112.87
525.369	80112.05
525.717	80113.05
526.064	80115.31
526.412	80114.02
526.759	80113.79
527.107	80114.65
527.454	80113.57
527.801	80114.13
528.149	80115.31
528.496	80115.79
528.843	80115.83
529.19	80116.02
529.537	80117.98
529.884	80118.05
530.231	80118.53
530.578	80118.09
530.925	80119.05
531.272	80119.16
531.619	80119.68
531.966	80119.24
532.312	80119.27
532.659	80119.46
533.006	80117.79
533.352	80115.72
533.699	80115.76
534.045	80115.79
534.392	80115.76
534.738	80117.01
535.084	80115.46
535.431	80114.83
535.777	80114.72
536.123	80114.27
536.469	80113.68
536.815	80112.39
537.161	80112.39
537.507	80112.28
537.853	80111.53
538.199	80110.68
538.545	80110.24
538.891	80108.98
539.237	80109.42
539.582	80109.35
539.928	80108.98
540.274	80111.31
540.619	80112.76
540.965	80112.87
541.31	80112.5
541.656	80109.46
542.001	80107.87
542.347	80107.46
542.692	80107.06
543.037	80106.46
543.382	80104.58
543.728	80104.87
544.073	80105.65
544.418	80105.2
544.763	80104.24
545.108	80105.09
545.453	80106.46
545.798	80106.72
546.142	80106.32
546.487	80105.87
546.832	80105.24
547.177	80106.06
547.521	80103.46
547.866	80103.72
548.211	80104.65
548.555	80104.54
548.9	80106.35
549.244	80106.54
549.588	80106.83
549.933	80106.94
550.277	80106.91
550.621	80109.54
550.965	80110.35
551.31	80109.28
551.654	80110.35
551.998	80111.65
552.342	80110.31
552.686	80109.87
553.03	80110.35
553.373	80112.91
553.717	80112.68
554.061	80111.91
554.405	80112.05
554.748	80112.46
555.092	80113.42
555.436	80113.72
555.779	80113.09
556.123	80112.31
556.466	80113.65
556.81	80113.28
557.153	80114.79
557.496	80114.87
557.839	80112.72
558.183	80112.02
558.526	80112.43
558.869	80112.13
559.212	80110.06
559.555	80111.2
559.898	80113.09
560.241	80112.46
560.584	80111.2
560.927	80113.61
561.269	80115.17
561.612	80114.87
561.955	80116.83
562.297	80114.35
562.64	80113.13
562.983	80114.09
563.325	80114.46
563.668	80115.31
564.01	80116.79
564.352	80115.13
564.695	80113.43
565.037	80114.46
565.379	80115.05
565.721	80115.42
566.063	80114.87
566.406	80115.83
566.748	80116.98
567.09	80116.31
567.431	80115.46
567.773	80115.72
568.115	80114.87
568.457	80114.72
568.799	80114.24
569.14	80112.17
569.482	80114.54
569.824	80114.79
570.165	80113.65
570.507	80112.2
570.848	80112.54
571.19	80111.13
571.531	80112.09
571.872	80114.13
572.214	80114.02
572.555	80114.68
572.896	80114.5
573.237	80113.02
573.578	80113.57
573.919	80112.68
574.26	80111.24
574.601	80111.28
574.942	80110.5
575.283	80108.94
575.624	80106.91
575.964	80106.13
576.305	80105.69
576.646	80103.35
576.986	80102.69
577.327	80103.06
577.667	80103.02
578.008	80101.8
578.348	80101.43
578.689	80099.62
579.029	80098.84
579.369	80098.17
579.71	80095.25
580.05	80094.28
580.39	80095.47
580.73	80095.06
581.07	80095.84
581.41	80095.28
581.75	80094.95
582.09	80095.69
582.43	80094.47
582.769	80096.14
583.109	80097.02
583.449	80097.62
583.789	80097.76
584.128	80097.84
584.468	80096.69
584.807	80098.69
585.147	80097.58
585.486	80097.69
585.825	80098.95
586.165	80098.65
586.504	80098.5
586.843	80100.95
587.182	80099.98
587.522	80100.02
587.861	80098.76
588.2	80095.95
588.539	80095.54
588.878	80095.88
589.216	80095.06
589.555	80095.39
589.894	80093.62
590.233	80093.1
590.572	80091.99
590.91	80091.06
591.249	80091.03
591.587	80092.36
591.926	80090.69
592.264	80090.62
592.603	80089.88
592.941	80089.66
593.279	80089.81
593.618	80089.58
593.956	80087.92
594.294	80087.18
594.632	80084.73
594.97	80085.66
595.308	80085.07
595.646	80084.33
595.984	80082.7
596.322	80081.85
596.66	80081.7
596.998	80083.7
597.335	80083.14
597.673	80084.4
598.011	80083.03
598.348	80082.85
598.686	80082.29
599.023	80081.48
599.361	80080.89
599.698	80080.85
600.035	80080.04
600.373	80079.26
600.71	80079.18
601.047	80078.96
601.384	80080.11
601.722	80080.48
602.059	80079.3
602.396	80079.96
602.733	80080.85
603.069	80081.59
603.406	80081.48
603.743	80080.92
604.08	80079
604.417	80080.7
604.753	80080.11
605.09	80081.44
605.426	80081.4
605.763	80080.81
606.099	80082.77
606.436	80082.96
606.772	80082.85
607.109	80082.85
607.445	80082.7
607.781	80080.89
608.117	80079.89
608.453	80079.67
608.79	80080.33
609.126	80080.26
609.462	80081
609.798	80079.85
610.133	80079.33
610.469	80080.67
610.805	80080.18
611.141	80079.41
611.477	80076.89
611.812	80076.63
612.148	80075.71
612.483	80074.45
612.819	80075.74
613.154	80073.97
613.49	80073.04
613.825	80074
614.16	80074.56
614.496	80075.34
614.831	80076.63
615.166	80077.45
615.501	80075.63
615.836	80075.78
616.171	80076.26
616.506	80075.19
616.841	80076.15
617.176	80077
617.511	80075.52
617.846	80075.74
618.18	80076.78
618.515	80076.08
618.85	80075.56
619.184	80075.34
619.519	80075.41
619.853	80073.86
620.188	80072.23
620.522	80072.63
620.856	80070.67
621.191	80068.71
621.525	80068.82
621.859	80067.86
622.193	80067.45
622.527	80067.86
622.861	80066.97
623.195	80065.97
623.529	80066.38
623.863	80065.42
624.197	80064.98
624.531	80064.53
624.865	80064.35
625.198	80064.57
625.532	80063.79
625.866	80064.42
626.199	80064.72
626.533	80063.46
626.866	80063.87
627.2	80064.83
627.533	80063.72
627.866	80064.87
628.2	80066.23
628.533	80065.6
628.866	80065.75
629.199	80066.31
629.532	80066.6
629.865	80066.16
630.198	80066.53
630.531	80066.83
630.864	80067.42
631.197	80067.05
631.529	80065.97
631.862	80065.12
632.195	80064.57
632.527	80066.49
632.86	80065.12
633.193	80065.42
633.525	80066.46
633.857	80066.71
634.19	80066.79
634.522	80067.9
634.854	80067.9
635.187	80068.19
635.519	80068.08
635.851	80068.49
636.183	80067.05
636.515	80066.38
636.847	80068.05
637.179	80068.19
637.511	80066.97
637.843	80066.68
638.174	80065.57
638.506	80066.38
638.838	80067.23
639.17	80068.6
639.501	80067.23
639.833	80066.9
640.164	80067.42
640.496	80067.75
640.827	80066.72
641.158	80067.6
641.49	80067.16
641.821	80067.38
642.152	80065.49
642.483	80064.98
642.814	80065.53
643.145	80065.72
643.476	80067.6
643.807	80067.05
644.138	80066.75
644.469	80067.83
644.8	80066.09
645.131	80065.98
645.461	80067.09
645.792	80067.34
646.122	80065.9
646.453	80066.23
646.784	80067.01
647.114	80064.57
647.444	80062.46
647.775	80061.94
648.105	80061.98
648.435	80061.54
648.765	80060.61
649.096	80062.02
649.426	80061.02
649.756	80060.94
650.086	80061.35
650.416	80060.76
650.746	80060.94
651.075	80060.65
651.405	80058.47
651.735	80058.54
652.065	80060.02
652.394	80059.02
652.724	80057.87
653.054	80057.58
653.383	80056.69
653.712	80056.88
654.042	80056.14
654.371	80057.21
654.701	80057.06
655.03	80054.8
655.359	80053.95
655.688	80053.99
656.017	80053.36
656.346	80054.36
656.675	80052.77
657.004	80054.66
657.333	80052.99
657.662	80050.74
657.991	80051.88
658.32	80053.33
658.648	80054.84
658.977	80055.17
659.306	80054.07
659.634	80053.18
659.963	80053.66
660.291	80055.21
660.619	80052.66
660.948	80054.07
661.276	80053.99
661.604	80053.14
661.933	80054.07
662.261	80054.84
662.589	80053.81
662.917	80052.59
663.245	80052.29
663.573	80051.92
663.901	80049.18
664.229	80049.77
664.556	80049.26
664.884	80047.78
665.212	80047.55
665.539	80046.3
665.867	80044.82
666.195	80046.07
666.522	80047.29
666.85	80045.85
667.177	80042.89
667.504	80044.3
667.832	80044.04
668.159	80042.82
668.486	80044
668.813	80043.41
669.14	80043.3
669.467	80042.97
669.794	80042.63
670.121	80041.08
670.448	80041.41
670.775	80041.71
671.102	80041.97
671.429	80041.97
671.755	80040.93
672.082	80040.19
672.409	80041.45
672.735	80041.16
673.062	80040.49
673.388	80041.3
673.714	80041.56
674.041	80041.82
674.367	80041.16
674.693	80040.45
675.019	80041.04
675.346	80040.27
675.672	80039.75
675.998	80038.83
676.324	80040.23
676.65	80041.82
676.976	80042.45
677.301	80042.41
677.627	80041.6
677.953	80040.97
678.279	80039.9
678.604	80040.45
678.93	80040.82
679.255	80038.79
679.581	80038.94
679.906	80039.09
680.232	80038.49
680.557	80039.31
680.882	80038.6
681.208	80037.61
681.533	80037.83
681.858	80037.53
682.183	80036.02
682.508	80036.72
682.833	80036.31
683.158	80035.61
683.483	80034.09
683.808	80032.21
684.132	80030.21
684.457	80028.99
684.782	80029.25
685.106	80028.88
685.431	80027.11
685.755	80023.67
686.08	80023.11
686.404	80022.23
686.729	80020.56
687.053	80017.97
687.377	80015.94
687.701	80016.02
688.026	80015.31
688.35	80015.13
688.674	80014.61
688.998	80015.09
689.322	80012.58
689.646	80011.65
689.97	80010.51
690.293	80009.4
690.617	80009.32
690.941	80008.44
691.264	80007.14
691.588	80004.93
691.912	80004.93
692.235	80004.56
692.559	80005.41
692.882	80004
693.205	80000.49
693.529	79998.42
693.852	79996.8
694.175	79992.92
694.498	79992.88
694.821	79991.74
695.144	79989.26
695.467	79984.38
695.79	79979.36
696.113	79975.3
696.436	79969.87
696.759	79962.08
697.082	79955
697.404	79947.25
697.727	79937.4
698.049	79927.63
698.372	79913.88
698.694	79898.99
699.017	79878.44
699.339	79855.74
699.662	79827.91
699.984	79785.78
700.306	79735.59
700.628	79654
700.95	79550.55
701.272	79424.92
701.594	79288.5
701.916	79152.64
702.238	78999.45
702.56	78802.53
702.882	78610.41
703.204	78438.33
703.525	78243.23
703.847	78000.87
704.169	77783.57
704.49	77540.83
704.812	77290.44
705.133	77042.71
705.455	76787.81
705.776	76515.89
706.097	76259.03
706.419	75989.13
706.74	75717.28
707.061	75431.99
707.382	75144.44
707.703	74861.46
708.024	74603.07
708.345	74339.61
708.666	74053.63
708.987	73760.25
709.307	73516.64
709.628	73218.97
709.949	72903.36
710.27	72589.79
710.59	72330.8
710.911	72030.05
711.231	71734.11
711.552	71458.62
711.872	71137.39
712.192	70862.69
712.512	70606.87
712.833	70329.08
713.153	70057.36
713.473	69822.8
713.793	69590.85
714.113	69370.35
714.433	69161.7
714.753	68948.06
715.073	68747.07
715.393	68542.95
715.712	68373.56
716.032	68153.64
716.352	67985.86
716.671	67823.64
716.991	67652.56
717.31	67463.12
717.63	67303.23
717.949	67133.08
718.268	66933.44
718.588	66751.99
718.907	66524.68
719.226	66263.55
719.545	66025.43
719.864	65748.34
720.183	65477.28
720.502	65206.86
720.821	64932.25
721.14	64651.96
721.459	64348.54
721.778	64075.59
722.096	63759.98
722.415	63468.05
722.734	63208.42
723.052	62932.6
723.371	62646.79
723.689	62378.78
724.008	62096.57
724.326	61798.09
724.644	61528.13
724.963	61263.48
725.281	61044.79
725.599	60814.68
725.917	60620.31
726.235	60423.75
726.553	60273.05
726.871	60075.57
727.189	59865.89
727.507	59677.13
727.824	59526.77
728.142	59388.03
728.46	59189.06
728.777	59085.27
729.095	58943.76
729.413	58799.29
729.73	58652.79
730.047	58517.63
730.365	58403.73
730.682	58293.65
730.999	58211.96
731.317	58144.62
731.634	58058.03
731.951	57941.22
732.268	57818.36
732.585	57687.57
732.902	57523.82
733.219	57365.57
733.536	57191.68
733.852	57066.49
734.169	56932.82
734.486	56780.44
734.802	56626.78
735.119	56508.76
735.435	56328.62
735.752	56171.97
736.068	55994.12
736.385	55828.21
736.701	55639.7
737.017	55403.52
737.333	55161.71
737.65	54852.66
737.966	54467.09
738.282	54077.42
738.598	53660.18
738.914	53206.62
739.23	52716.75
739.545	52193.42
739.861	51640.69
740.177	51095.42
740.493	50504.26
740.808	49929.1
741.124	49324.91
741.439	48747.41
741.755	48184.32
742.07	47672.98
742.386	47125.48
742.701	46629.82
743.016	46137.14
743.331	45658.22
743.647	45233.96
743.962	44847.83
744.277	44509.6
744.592	44245.47
744.907	44028.32
745.222	43865.95
745.537	43769.33
745.851	43736.46
746.166	43765.42
746.481	43824.33
746.795	43943
747.11	44096.44
747.424	44271.28
747.739	44432.73
748.053	44601.06
748.368	44745.91
748.682	44856.01
748.996	44980.47
749.311	45079.1
749.625	45172.98
749.939	45272.92
750.253	45338.42
750.567	45407.07
750.881	45462.28
751.195	45519.22
751.509	45581.11
751.822	45632.07
752.136	45684.28
752.45	45739.07
752.763	45797.76
753.077	45846.29
753.39	45874.22
753.704	45900.5
754.017	45915.43
754.331	45946.99
754.644	45957.14
754.957	45971.47
755.27	45980.55
755.584	45992.72
755.897	45997.25
756.21	45997.14
756.523	45976.11
756.836	45954.43
757.149	45875.94
757.461	45813.61
757.774	45725.23
758.087	45603.76
758.4	45462.49
758.712	45310.21
759.025	45152.4
759.337	44999.7
759.65	44844.56
759.962	44691.15
760.275	44530.97
760.587	44387.25
760.899	44256.37
761.211	44161.61
761.523	44082.65
761.836	44079.75
762.148	44083.45
762.46	44122.32
762.772	44181.57
763.083	44317.12
763.395	44463.26
763.707	44680.16
764.019	44899.99
764.33	45136.01
764.642	45393.59
764.954	45662.78
765.265	45947.31
765.577	46213.86
765.888	46453.82
766.199	46691.34
766.511	46910.19
766.822	47126.33
767.133	47306.02
767.444	47470.72
767.755	47562.31
768.066	47627.84
768.377	47617.23
768.688	47549.9
768.999	47460.67
769.31	47340.42
769.621	47152.79
769.931	46929.54
770.242	46675.87
770.553	46381.16
770.863	46045
771.174	45687.8
771.484	45306.22
771.794	44900.88
772.105	44491.28
772.415	44066.7
772.725	43634.63
773.035	43195.46
773.345	42745.27
773.656	42277.8
773.966	41814.19
774.276	41381.64
774.585	40945.76
774.895	40514.3
775.205	40138.01
775.515	39748.07
775.824	39352.99
776.134	38967.74
776.444	38609.83
776.753	38249.24
777.063	37907.99
777.372	37584.87
777.681	37262.51
777.991	36960.37
778.3	36659.59
778.609	36356.96
778.918	36071.66
779.228	35806.36
779.537	35543.22
779.846	35281.74
780.154	35036.73
780.463	34800.52
780.772	34561.46
781.081	34339.67
781.39	34134.8
781.698	33924.9
782.007	33713.65
782.316	33513.36
782.624	33300.08
782.932	33102.35
783.241	32902.86
783.549	32715.93
783.858	32547.83
784.166	32387.77
784.474	32213.57
784.782	32048.68
785.09	31892.76
785.398	31745.89
785.706	31606.18
786.014	31470.81
786.322	31336.62
786.63	31200.84
786.937	31067.08
787.245	30944.28
787.553	30816.63
787.86	30705.43
788.168	30579.22
788.475	30471.91
788.783	30377.92
789.09	30283.45
789.398	30181.05
789.705	30085.18
790.012	29979.89
790.319	29874.61
790.626	29765.31
790.933	29676.09
791.24	29590.93
791.547	29504.55
791.854	29416.59
792.161	29315.61
792.468	29211.59
792.774	29115.59
793.081	29035.6
793.388	28960.03
793.694	28861.62
794.001	28774.57
794.307	28656.29
794.614	28547.27
794.92	28419.71
795.226	28291.42
795.533	28181.96
795.839	28088.66
796.145	27973.01
796.451	27861.55
796.757	27755.13
797.063	27649.7
797.369	27537.53
797.675	27431.92
797.98	27327.81
798.286	27207.26
798.592	27105.44
798.898	27002.7
799.203	26887.39
799.509	26769.59
799.814	26643.58
800.12	26543.12
800.425	26430.49
800.73	26317.86
801.035	26203.58
801.341	26106.38
801.646	26010.25
801.951	25913.54
802.256	25808.35
802.561	25713.51
802.866	25620.9
803.171	25532.56
803.476	25445.12
803.78	25354.25
804.085	25257.93
804.39	25148.94
804.694	25054.47
804.999	24953.39
805.303	24852.65
805.608	24774.42
805.912	24688.86
806.216	24618.24
806.521	24549.58
806.825	24475.73
807.129	24408.83
807.433	24340.57
807.737	24268.62
808.041	24208.72
808.345	24149.25
808.649	24091.95
808.953	24040.68
809.257	23982.74
809.561	23921.49
809.864	23867.18
810.168	23831.14
810.471	23797.25
810.775	23771.99
811.078	23747.23
811.382	23720.99
811.685	23722.32
811.988	23709.9
812.292	23702.73
812.595	23699.09
812.898	23691.53
813.201	23700.57
813.504	23723.64
813.807	23755.7
814.11	23785.24
814.413	23813.48
814.716	23841.21
815.018	23882.87
815.321	23945.79
815.624	24029.2
815.926	24135.7
816.229	24259.47
816.531	24396.39
816.834	24553.76
817.136	24742.47
817.438	24962.22
817.74	25229.93
818.043	25539.89
818.345	25916.95
818.647	26371.59
818.949	26913.8
819.251	27545.91
819.553	28292.23
819.855	29152.46
820.156	30121.3
820.458	31204.87
820.76	32351.39
821.062	33551.58
821.363	34820.83
821.665	36152.67
821.966	37582.31
822.268	39030.08
822.569	40479.77
822.87	41963.26
823.171	43454.58
823.473	44987.13
823.774	46560.78
824.075	48084.53
824.376	49576.67
824.677	51038.09
824.978	52415.67
825.279	53712.54
825.58	54888.95
825.88	55923.62
826.181	56810.33
826.482	57587.81
826.782	58202.36
827.083	58721.8
827.383	59108.75
827.684	59322.63
827.984	59410.11
828.284	59316.4
828.585	59090.68
828.885	58787.3
829.185	58326.09
829.485	57771.63
829.785	57095.21
830.085	56261.79
830.385	55389.71
830.685	54454.07
830.985	53409.58
831.285	52340.03
831.584	51214.81
831.884	50066.09
832.183	48893.08
832.483	47683.07
832.782	46413.35
833.082	45140.03
833.381	43858.97
833.681	42619.4
833.98	41453.57
834.279	40313.92
834.578	39216.38
834.877	38177.22
835.176	37167.36
835.475	36240.17
835.774	35355.13
836.073	34490.55
836.372	33673.6
836.671	32864.11
836.969	32063.62
837.268	31326.03
837.567	30613.98
837.865	29929.77
838.164	29250.83
838.462	28602.67
838.761	28002.99
839.059	27426.64
839.357	26884.86
839.655	26356.23
839.953	25825.98
840.252	25300.35
840.55	24782.04
840.848	24273.65
841.146	23788.94
841.443	23300.64
841.741	22802.02
842.039	22299.2
842.337	21804.08
842.634	21348.76
842.932	20912.85
843.229	20493.78
843.527	20079.57
843.824	19641.26
844.122	19198.54
844.419	18783.81
844.716	18360.6
845.013	17945.34
845.311	17557.59
845.608	17184.9
845.905	16825.89
846.202	16472.23
846.499	16110.57
846.796	15748.02
847.092	15384
847.389	15022.55
847.686	14685.23
847.982	14367.99
848.279	14058.2
848.576	13772.33
848.872	13479.58
849.168	13194.12
849.465	12916.66
849.761	12630.71
850.057	12361.16
850.354	12101.33
850.65	11854.71
850.946	11629.52
851.242	11412.22
851.538	11197.93
851.834	10979.65
852.13	10760.87
852.425	10566.44
852.721	10387.83
853.017	10224.46
853.312	10077.74
853.608	9931.16
853.903	9790.58
854.199	9646.7
854.494	9519.93
854.79	9387.85
855.085	9255.94
855.38	9126.83
855.675	8996.02
855.971	8876.56
856.266	8773.56
856.561	8677.28
856.856	8585.5
857.151	8491.54
857.445	8394.11
857.74	8296.35
858.035	8208.6
858.33	8119.6
858.624	8034.86
858.919	7958.2
859.213	7872.87
859.508	7787.53
859.802	7701.7
860.096	7621.57
860.391	7561.24
860.685	7497.59
860.979	7436.58
861.273	7385.35
861.567	7326.06
861.861	7264.01
862.155	7212.26
862.449	7146.16
862.743	7080.52
863.037	7021.98
863.33	6965.38
863.624	6909.23
863.918	6862.91
864.211	6823.09
864.505	6792.79
864.798	6750.38
865.092	6704.61
865.385	6660.38
865.678	6612.52
865.971	6576.51
866.264	6544.15
866.558	6512.49
866.851	6479.73
867.144	6451.24
867.437	6416.03
867.729	6389
868.022	6369.3
868.315	6345.23
868.608	6336.66
868.9	6330.09
869.193	6312.89
869.485	6288.26
869.778	6265.62
870.07	6238.06
870.363	6216.13
870.655	6197.68
870.947	6189.88
871.239	6181.57
871.532	6181.88
871.824	6185.83
872.116	6184.69
872.408	6179.78
872.699	6166.79
872.991	6161.05
873.283	6156.93
873.575	6159.38
873.867	6165.89
874.158	6171.59
874.45	6171.52
874.741	6165.58
875.033	6164.79
875.324	6175.43
875.615	6195.73
875.907	6219.22
876.198	6236.32
876.489	6247.29
876.78	6250.64
877.071	6252.33
877.362	6254.49
877.653	6256.6
877.944	6265.08
878.235	6274.3
878.526	6282.8
878.816	6300.07
