Data from 24HourExp_27052025_FLMS018081_07-58-19-843.txt Node
Date: Wed May 28 07:58:19 BST 2025
User: adleo
Spectrometer: FLMS01808
Trigger mode: 0
Integration Time (sec): 4.000000E-1
Scans to average: 10
Electric dark correction enabled: true
Nonlinearity correction enabled: true
Boxcar width: 10
XAxis mode: Wavelengths
Number of Pixels in Spectrum: 2048
>>>>>Begin Spectral Data<<<<<
178.471	-134.15
178.857	-126.51
179.244	-119.65
179.631	-111.84
180.017	-104.2
180.404	-95.69
180.79	-83.37
181.176	-73.58
181.563	-64.73
181.949	-53.89
182.335	-43.21
182.722	-26.11
183.108	-6.61
183.494	21.02
183.88	75.91
184.266	130.23
184.653	186.76
185.039	242.14
185.425	299.27
185.811	352.58
186.197	405.67
186.582	456.23
186.968	509.13
187.354	560.5
187.74	612.68
188.126	662.65
188.511	713.26
188.897	761.97
189.283	808.33
189.668	854.73
190.054	899.68
190.439	944.22
190.825	987.13
191.21	1029.26
191.596	1062.17
191.981	1068.65
192.366	1073.81
192.752	1075.73
193.137	1078.63
193.522	1079.61
193.908	1081.83
194.293	1085.72
194.678	1086.81
195.063	1087.71
195.448	1090.98
195.833	1089.24
196.218	1089.29
196.603	1090.2
196.988	1087.78
197.373	1088.35
197.757	1090.2
198.142	1091.62
198.527	1090.47
198.912	1090.72
199.296	1088.67
199.681	1087.98
200.066	1088.51
200.45	1086.28
200.835	1086.83
201.219	1087.53
201.604	1085.84
201.988	1086.91
202.372	1085.36
202.757	1086.73
203.141	1088.15
203.525	1087.66
203.91	1090.38
204.294	1091.56
204.678	1089.62
205.062	1089.47
205.446	1091.73
205.83	1091.4
206.214	1089.76
206.598	1090.38
206.982	1090.26
207.366	1090.96
207.75	1091.55
208.134	1093.09
208.517	1095.11
208.901	1093.92
209.285	1093.77
209.669	1095.1
210.052	1095.66
210.436	1096.43
210.819	1097.48
211.203	1097.41
211.586	1098.73
211.97	1099.02
212.353	1099.69
212.737	1101.04
213.12	1102.6
213.503	1102.59
213.886	1102.81
214.27	1104.37
214.653	1107.08
215.036	1109.79
215.419	1111.61
215.802	1113.25
216.185	1114.68
216.568	1118.54
216.951	1121.53
217.334	1124.76
217.717	1129.28
218.1	1130.82
218.482	1134.77
218.865	1137.44
219.248	1141.18
219.631	1145.6
220.013	1149.92
220.396	1157.88
220.778	1163.02
221.161	1167.84
221.544	1174.21
221.926	1183.51
222.308	1191.27
222.691	1198.69
223.073	1206.94
223.455	1215.24
223.838	1225.66
224.22	1235.64
224.602	1245.82
224.984	1258.39
225.366	1269.96
225.749	1285.37
226.131	1298.46
226.513	1312.52
226.895	1327.66
227.276	1342.05
227.658	1356.31
228.04	1372.18
228.422	1386.63
228.804	1404.72
229.186	1422.09
229.567	1438.85
229.949	1453.47
230.331	1470.79
230.712	1487.32
231.094	1504.42
231.475	1524.09
231.857	1543.58
232.238	1561.88
232.62	1579.89
233.001	1598.38
233.382	1619.27
233.763	1635.69
234.145	1656.84
234.526	1676.32
234.907	1695.54
235.288	1713.89
235.669	1734.07
236.05	1752.57
236.431	1772.48
236.812	1792.81
237.193	1813.51
237.574	1833.43
237.955	1854.41
238.336	1874.25
238.717	1895.16
239.097	1919.93
239.478	1940.67
239.859	1960.61
240.239	1982.75
240.62	2005.55
241.001	2028.72
241.381	2051.3
241.762	2072.92
242.142	2096.04
242.522	2120.02
242.903	2146.98
243.283	2174.25
243.663	2198.83
244.044	2228.06
244.424	2253.56
244.804	2279.79
245.184	2308.45
245.564	2337.19
245.944	2368.14
246.324	2399.08
246.704	2430.23
247.084	2457.76
247.464	2488.36
247.844	2521.67
248.224	2554.4
248.604	2584.81
248.983	2615.38
249.363	2648.41
249.743	2680.36
250.122	2711.35
250.502	2740.72
250.882	2772.08
251.261	2804.26
251.641	2836.79
252.02	2868.43
252.399	2904.41
252.779	2941.7
253.158	2976.19
253.537	3013.68
253.917	3055.72
254.296	3093.37
254.675	3132.36
255.054	3170.59
255.433	3212.85
255.812	3253.94
256.191	3293.44
256.57	3335.15
256.949	3378.5
257.328	3419.84
257.707	3465.26
258.086	3510.47
258.465	3557.15
258.843	3603.46
259.222	3651.24
259.601	3701.79
259.979	3753.25
260.358	3808.51
260.736	3859.93
261.115	3915.11
261.493	3967.16
261.872	4016.33
262.25	4073.59
262.629	4131.12
263.007	4191.13
263.385	4248.97
263.763	4308.69
264.142	4372.29
264.52	4435.25
264.898	4498.19
265.276	4564.23
265.654	4632.7
266.032	4702.58
266.41	4774.93
266.788	4846.46
267.166	4924.7
267.544	5000.74
267.921	5079.88
268.299	5156.23
268.677	5235.2
269.055	5318.44
269.432	5405.16
269.81	5493.04
270.188	5576.94
270.565	5662.41
270.943	5752.53
271.32	5843.72
271.697	5937.85
272.075	6036.55
272.452	6137
272.829	6236.25
273.207	6336.43
273.584	6439.89
273.961	6546.1
274.338	6657.17
274.715	6774.06
275.092	6892.25
275.469	7013.07
275.846	7133.43
276.223	7254.64
276.6	7378.42
276.977	7504.33
277.354	7629.21
277.731	7756.52
278.108	7890.55
278.484	8021.57
278.861	8153.06
279.238	8294.97
279.614	8433.54
279.991	8570.69
280.367	8714.48
280.744	8866.47
281.12	9017.04
281.497	9166.71
281.873	9321.04
282.249	9470.98
282.625	9618.4
283.002	9768.55
283.378	9917.74
283.754	10069.48
284.13	10222.86
284.506	10380.91
284.882	10535.29
285.258	10692.64
285.634	10848.83
286.01	11007.01
286.386	11170.6
286.762	11337.61
287.138	11497.14
287.513	11661.61
287.889	11828.61
288.265	11989.55
288.641	12146.96
289.016	12310.73
289.392	12474.31
289.767	12633.03
290.143	12799.51
290.518	12962.11
290.894	13122.98
291.269	13283.15
291.644	13443.06
292.02	13602.93
292.395	13757.22
292.77	13911.38
293.145	14065.53
293.52	14221.25
293.895	14374.93
294.27	14535.2
294.646	14687.92
295.02	14837.93
295.395	14993.46
295.77	15148.16
296.145	15306.47
296.52	15464.84
296.895	15615.7
297.269	15767.96
297.644	15926.73
298.019	16079.66
298.393	16237.8
298.768	16390.12
299.143	16546.02
299.517	16698.98
299.891	16856.1
300.266	17021.37
300.64	17184.58
301.015	17356.23
301.389	17531.86
301.763	17705.47
302.137	17868.88
302.512	18053.91
302.886	18235.48
303.26	18419.58
303.634	18603.83
304.008	18779.32
304.382	18961.76
304.756	19146.05
305.13	19334.11
305.504	19514.27
305.877	19701.07
306.251	19903.34
306.625	20107.7
306.999	20314.18
307.372	20531.46
307.746	20745.74
308.119	20960.22
308.493	21174.07
308.866	21379.98
309.24	21593.59
309.613	21801.93
309.987	22015.93
310.36	22210.37
310.733	22419.57
311.107	22629.81
311.48	22847.23
311.853	23082.01
312.226	23304.4
312.599	23539.11
312.972	23767.19
313.345	23999.07
313.718	24229.64
314.091	24450.04
314.464	24681.41
314.837	24911.35
315.21	25121.89
315.582	25342.47
315.955	25550.16
316.328	25773.6
316.7	25992.76
317.073	26213.92
317.446	26439.22
317.818	26669.29
318.191	26896.95
318.563	27116.07
318.936	27322.21
319.308	27518.99
319.68	27718.21
320.053	27920.38
320.425	28104.79
320.797	28286.93
321.169	28447.12
321.541	28590.7
321.913	28729.33
322.285	28844.64
322.657	28965.52
323.029	29111.93
323.401	29258.03
323.773	29424.51
324.145	29594.98
324.517	29779.2
324.889	29953.45
325.26	30159.3
325.632	30370.9
326.004	30607.91
326.375	30865.29
326.747	31154.87
327.118	31463.47
327.49	31756.49
327.861	32063.9
328.233	32370.62
328.604	32685.15
328.975	33001.41
329.346	33318.97
329.718	33624.86
330.089	33927.25
330.46	34224.15
330.831	34493.82
331.202	34748.07
331.573	34992.36
331.944	35219.92
332.315	35453.11
332.686	35672.56
333.057	35869.79
333.428	36052.91
333.799	36224.95
334.169	36384.64
334.54	36515.15
334.911	36634.21
335.281	36758.32
335.652	36881.28
336.022	37019.72
336.393	37159.88
336.763	37330.94
337.134	37514.96
337.504	37714.49
337.874	37922
338.245	38127.28
338.615	38354.2
338.985	38584.45
339.355	38809.73
339.726	39032.21
340.096	39253.46
340.466	39503.39
340.836	39742.18
341.206	39987.96
341.576	40238.26
341.945	40480.33
342.315	40712.04
342.685	40954.25
343.055	41205.62
343.425	41449.91
343.794	41679.57
344.164	41914.83
344.533	42142.12
344.903	42376.39
345.273	42608.89
345.642	42835.65
346.011	43066.37
346.381	43294.88
346.75	43534.29
347.12	43777.28
347.489	44031.33
347.858	44277.36
348.227	44492.73
348.596	44721.21
348.965	44957.67
349.334	45179.17
349.704	45419.42
350.072	45672.96
350.441	45908.67
350.81	46146.13
351.179	46374.68
351.548	46611.91
351.917	46830.98
352.285	47023.75
352.654	47223.29
353.023	47428.02
353.391	47626.51
353.76	47846.37
354.129	48030.94
354.497	48252.86
354.865	48473.82
355.234	48702.36
355.602	48920.54
355.971	49165.71
356.339	49372.64
356.707	49588.18
357.075	49809.5
357.443	50029
357.811	50235.46
358.18	50440.85
358.548	50652.25
358.916	50862.39
359.284	51082.77
359.651	51297.47
360.019	51526.32
360.387	51733.65
360.755	51934.55
361.123	52163.34
361.49	52382.12
361.858	52600.45
362.226	52797.97
362.593	53002.76
362.961	53182.45
363.328	53380.8
363.696	53541.81
364.063	53767.65
364.43	53979.75
364.798	54197.04
365.165	54371.58
365.532	54550.09
365.899	54742.93
366.267	54908.18
366.634	55054.03
367.001	55218.96
367.368	55364.93
367.735	55548.51
368.102	55728.86
368.469	55928.19
368.835	56108.22
369.202	56267.92
369.569	56469.73
369.936	56662.88
370.303	56846.15
370.669	57046.49
371.036	57207.02
371.402	57412.37
371.769	57586.92
372.135	57730.43
372.502	57851.3
372.868	57998.88
373.235	58149.79
373.601	58284.06
373.967	58455.09
374.333	58647.03
374.7	58823.34
375.066	59024.32
375.432	59206.8
375.798	59381.06
376.164	59538.23
376.53	59684.36
376.896	59856.32
377.262	60019.08
377.628	60139.8
377.993	60285.93
378.359	60431.52
378.725	60592.93
379.091	60741.56
379.456	60869.17
379.822	61004.11
380.187	61158.74
380.553	61340.93
380.918	61538.01
381.284	61717.58
381.649	61888.56
382.015	62030.59
382.38	62152.68
382.745	62322.04
383.11	62475.94
383.476	62619.94
383.841	62756.43
384.206	62918.85
384.571	63037.06
384.936	63174.68
385.301	63349.48
385.666	63479.12
386.031	63625.9
386.396	63791.03
386.76	63945.64
387.125	64137.08
387.49	64338.81
387.855	64524.9
388.219	64690.54
388.584	64854.7
388.948	65043
389.313	65210.73
389.677	65413.41
390.042	65646.19
390.406	65794.27
390.771	65976.65
391.135	66163.45
391.499	66388.99
391.863	66622.6
392.227	66869.05
392.592	67065.01
392.956	67258.94
393.32	67455.71
393.684	67678.02
394.048	67854.67
394.412	68034.93
394.775	68181.27
395.139	68327.92
395.503	68492.12
395.867	68649.84
396.231	68795.49
396.594	68904.18
396.958	69035.48
397.321	69194.26
397.685	69326.49
398.048	69465.77
398.412	69599.94
398.775	69725.64
399.139	69850.09
399.502	69952.89
399.865	70086.75
400.228	70284.67
400.592	70421.9
400.955	70629.51
401.318	70765.01
401.681	70924.12
402.044	71063.55
402.407	71224.89
402.77	71386.71
403.133	71576.21
403.496	71727.3
403.859	71883.71
404.221	72115.15
404.584	72358.01
404.947	72598.13
405.309	72804.65
405.672	73044.44
406.034	73269.63
406.397	73531.83
406.759	73760.52
407.122	73946.87
407.484	74128.33
407.847	74307.57
408.209	74556.89
408.571	74782.01
408.933	75039.05
409.296	75288.53
409.658	75529.88
410.02	75800.14
410.382	76100.84
410.744	76355.63
411.106	76639.19
411.468	76914.51
411.83	77153.2
412.191	77348.39
412.553	77519.28
412.915	77721.01
413.277	77920.75
413.638	78107.16
414	78267.83
414.361	78433.94
414.723	78650.68
415.084	78847.9
415.446	79007.95
415.807	79133.78
416.169	79227.28
416.53	79306.26
416.891	79401.4
417.252	79514.02
417.614	79585.77
417.975	79621.14
418.336	79659.23
418.697	79699.17
419.058	79733.96
419.419	79759.8
419.78	79789.54
420.141	79811.17
420.501	79832.12
420.862	79848.86
421.223	79862.45
421.584	79890.79
421.944	79906.23
422.305	79915.12
422.666	79922.2
423.026	79926.41
423.387	79936.07
423.747	79942.93
424.107	79949.72
424.468	79957.07
424.828	79963.5
425.188	79967.23
425.549	79972.84
425.909	79977.35
426.269	79977.27
426.629	79982.11
426.989	79985.81
427.349	79989.43
427.709	79993.42
428.069	79995.67
428.429	79999.51
428.789	80005.39
429.149	80008.83
429.508	80012.82
429.868	80016.59
430.228	80022.58
430.587	80024.25
430.947	80028.87
431.306	80035.56
431.666	80038.51
432.025	80040.73
432.385	80042.18
432.744	80043.43
433.103	80045.1
433.463	80046.84
433.822	80053.27
434.181	80056.41
434.54	80058.15
434.899	80061.55
435.258	80064.36
435.618	80065.95
435.976	80069.32
436.335	80067.84
436.694	80067.73
437.053	80067.51
437.412	80068.32
437.771	80068.36
438.129	80069.87
438.488	80070.21
438.847	80070.39
439.205	80073.09
439.564	80074.39
439.922	80075.31
440.281	80077.9
440.639	80080.35
440.997	80080.61
441.356	80082.16
441.714	80083.64
442.072	80084.53
442.431	80084.31
442.789	80085.34
443.147	80085.68
443.505	80085.08
443.863	80088.52
444.221	80090.97
444.579	80092.89
444.937	80093.52
445.294	80094.48
445.652	80095.74
446.01	80095.63
446.368	80093.52
446.725	80092.63
447.083	80091.15
447.441	80090.19
447.798	80088.93
448.156	80089.12
448.513	80091.23
448.87	80091.82
449.228	80090.56
449.585	80090.71
449.942	80091.63
450.3	80091.63
450.657	80092.74
451.014	80094.63
451.371	80094.78
451.728	80093.63
452.085	80093.15
452.442	80093.74
452.799	80094.41
453.156	80093.52
453.513	80095
453.869	80096.56
454.226	80096.08
454.583	80096.89
454.939	80098.7
455.296	80098.96
455.653	80098.67
456.009	80098.04
456.366	80097.63
456.722	80100.29
457.078	80101.81
457.435	80101.26
457.791	80100.33
458.147	80099.44
458.503	80098.18
458.86	80097.15
459.216	80098.48
459.572	80097.93
459.928	80096.89
460.284	80096.45
460.64	80096.19
460.996	80097.26
461.351	80097.7
461.707	80100.07
462.063	80101.29
462.419	80100.85
462.774	80101.92
463.13	80102.15
463.486	80104.07
463.841	80104.89
464.197	80105.48
464.552	80104.44
464.908	80104.66
465.263	80106.15
465.618	80106.63
465.974	80107.48
466.329	80108.92
466.684	80108.44
467.039	80109.03
467.394	80110.25
467.749	80110.25
468.104	80113.81
468.459	80113.59
468.814	80114.51
469.169	80114.14
469.524	80115.07
469.879	80115.22
470.233	80115.44
470.588	80116.29
470.943	80116.84
471.297	80116.99
471.652	80115.62
472.006	80115.77
472.361	80117.77
472.715	80117.47
473.07	80119.62
473.424	80123.21
473.778	80123.77
474.133	80125.29
474.487	80126.55
474.841	80128.21
475.195	80129.55
475.549	80129.21
475.903	80130.1
476.257	80129.99
476.611	80130.4
476.965	80130.62
477.319	80132.58
477.673	80133.51
478.026	80133.51
478.38	80133.29
478.734	80134.29
479.087	80135.55
479.441	80138.81
479.795	80138.92
480.148	80141.51
480.502	80141.4
480.855	80139.55
481.208	80141.36
481.562	80141.62
481.915	80143.29
482.268	80142.88
482.621	80142.58
482.974	80142.47
483.328	80142.51
483.681	80144.33
484.034	80144.73
484.387	80143.62
484.739	80142.81
485.092	80143.1
485.445	80144.81
485.798	80144.73
486.151	80142.92
486.503	80142.03
486.856	80140.62
487.209	80140.62
487.561	80141.14
487.914	80141.36
488.266	80141.03
488.618	80140.4
488.971	80139.55
489.323	80139.4
489.675	80139.36
490.028	80139.07
490.38	80138.14
490.732	80139.47
491.084	80140.29
491.436	80141.29
491.788	80143.88
492.14	80146.29
492.492	80145.29
492.844	80145.25
493.196	80146.36
493.548	80148.07
493.899	80149.36
494.251	80149.81
494.603	80150.62
494.954	80149.25
495.306	80149.1
495.657	80148.14
496.009	80148.85
496.36	80149.11
496.712	80148.1
497.063	80148.29
497.414	80149.4
497.765	80150.92
498.117	80149.1
498.468	80146.55
498.819	80147.81
499.17	80144.62
499.521	80144.7
499.872	80145.03
500.223	80145.1
500.574	80144.62
500.924	80144.36
501.275	80142.7
501.626	80142.77
501.977	80140.92
502.327	80139.81
502.678	80139.81
503.029	80142.25
503.379	80140.77
503.73	80141.07
504.08	80142.81
504.43	80143.07
504.781	80142.25
505.131	80141.55
505.481	80141.92
505.831	80143.18
506.182	80141.58
506.532	80143.47
506.882	80142.77
507.232	80142.88
507.582	80142.4
507.932	80140.03
508.281	80140.36
508.631	80141.18
508.981	80140.62
509.331	80142.66
509.681	80142.25
510.03	80141.32
510.38	80140.73
510.729	80141.03
511.079	80142.14
511.428	80139.69
511.778	80140.32
512.127	80141.03
512.476	80140.14
512.826	80139.18
513.175	80140.4
513.524	80139.66
513.873	80139.44
514.222	80139.25
514.571	80140.47
514.92	80140.25
515.269	80141.58
515.618	80141.47
515.967	80142.07
516.316	80141.95
516.665	80141.77
517.014	80143.84
517.362	80144.99
517.711	80144.7
518.059	80144.51
518.408	80144.18
518.757	80146.66
519.105	80146.14
519.453	80147.73
519.802	80149.99
520.15	80151.03
520.498	80149.66
520.847	80150.1
521.195	80150.1
521.543	80150.1
521.891	80148.99
522.239	80150.14
522.587	80150.07
522.935	80149.96
523.283	80151.07
523.631	80149.73
523.979	80148.22
524.326	80147.4
524.674	80146.59
525.022	80146.73
525.369	80147.29
525.717	80147.03
526.064	80145.47
526.412	80145.51
526.759	80143.92
527.107	80141.55
527.454	80142.14
527.801	80143.03
528.149	80143.62
528.496	80144.18
528.843	80144.4
529.19	80143.1
529.537	80142.88
529.884	80145.22
530.231	80145.44
530.578	80145.25
530.925	80146.99
531.272	80148.25
531.619	80147.88
531.966	80149.66
532.312	80149.66
532.659	80147.92
533.006	80147.59
533.352	80148.36
533.699	80150.59
534.045	80150.66
534.392	80152.37
534.738	80153.11
535.084	80152.85
535.431	80153.18
535.777	80154.51
536.123	80153.14
536.469	80153
536.815	80151.7
537.161	80148.85
537.507	80148.59
537.853	80147.81
538.199	80148.66
538.545	80148.14
538.891	80148.51
539.237	80146.48
539.582	80146.14
539.928	80148.14
540.274	80147.59
540.619	80146.29
540.965	80144.7
541.31	80145.4
541.656	80146.4
542.001	80145.47
542.347	80146.22
542.692	80144.84
543.037	80142.44
543.382	80142.66
543.728	80143.92
544.073	80144.92
544.418	80145.33
544.763	80143.92
545.108	80143.81
545.453	80141.95
545.798	80141.66
546.142	80142.21
546.487	80144.33
546.832	80143.88
547.177	80143.1
547.521	80143.99
547.866	80145.55
548.211	80145.55
548.555	80144.1
548.9	80141.44
549.244	80141.58
549.588	80141.36
549.933	80140.95
550.277	80141.77
550.621	80142.29
550.965	80141.55
551.31	80141.14
551.654	80140.03
551.998	80142.21
552.342	80141.55
552.686	80143.1
553.03	80143.81
553.373	80142.18
553.717	80140.55
554.061	80140.07
554.405	80139.03
554.748	80139.18
555.092	80137.95
555.436	80136.62
555.779	80138.29
556.123	80140.77
556.466	80141.51
556.81	80142.03
557.153	80143.77
557.496	80141.96
557.839	80142.1
558.183	80142.47
558.526	80142.88
558.869	80144.1
559.212	80142.92
559.555	80142.44
559.898	80142.1
560.241	80142.18
560.584	80143.59
560.927	80144.92
561.269	80145.07
561.612	80146.18
561.955	80145.73
562.297	80145.29
562.64	80145.81
562.983	80145.51
563.325	80143.84
563.668	80143.25
564.01	80140.51
564.352	80137.88
564.695	80139.29
565.037	80138.88
565.379	80138.07
565.721	80137.88
566.063	80136.92
566.406	80137.84
566.748	80138.14
567.09	80136.88
567.431	80135.4
567.773	80133.4
568.115	80132.77
568.457	80133.1
568.799	80133.47
569.14	80132.88
569.482	80133.1
569.824	80133.4
570.165	80130.81
570.507	80131.55
570.848	80129.73
571.19	80130.32
571.531	80132.03
571.872	80132.69
572.214	80132.18
572.555	80132.44
572.896	80131.66
573.237	80131.92
573.578	80130.25
573.919	80129.03
574.26	80128.77
574.601	80128.1
574.942	80128.29
575.283	80127.03
575.624	80126.1
575.964	80124.21
576.305	80124.14
576.646	80124.62
576.986	80124.29
577.327	80125.99
577.667	80124.58
578.008	80125.03
578.348	80126.1
578.689	80125.43
579.029	80124.92
579.369	80124.14
579.71	80124.06
580.05	80123.21
580.39	80122.58
580.73	80122.55
581.07	80123.51
581.41	80123.66
581.75	80124.25
582.09	80126.29
582.43	80126.73
582.769	80128.99
583.109	80129.99
583.449	80130.21
583.789	80129.77
584.128	80130.14
584.468	80128.29
584.807	80129.18
585.147	80128.92
585.486	80128.44
585.825	80129.95
586.165	80129.73
586.504	80130.4
586.843	80131.51
587.182	80132.84
587.522	80134.06
587.861	80134.66
588.2	80134.84
588.539	80134.21
588.878	80133.88
589.216	80132.06
589.555	80131.58
589.894	80129.88
590.233	80129.99
590.572	80129.69
590.91	80129.77
591.249	80130.4
591.587	80131.03
591.926	80131.03
592.264	80131.84
592.603	80130.99
592.941	80129.1
593.279	80128.99
593.618	80127.84
593.956	80127.29
594.294	80125.62
594.632	80126.14
594.97	80125.58
595.308	80125.21
595.646	80126.36
595.984	80127.4
596.322	80127.88
596.66	80128.4
596.998	80128.99
597.335	80128.14
597.673	80127.55
598.011	80126.62
598.348	80124.99
598.686	80125.58
599.023	80124.73
599.361	80124.43
599.698	80124.4
600.035	80123.36
600.373	80122.51
600.71	80124.32
601.047	80123.36
601.384	80124.55
601.722	80124.25
602.059	80126.06
602.396	80125.99
602.733	80125.21
603.069	80124.36
603.406	80122.77
603.743	80121.62
604.08	80122.25
604.417	80123.14
604.753	80123.95
605.09	80125.36
605.426	80125.4
605.763	80125.73
606.099	80126.03
606.436	80125.29
606.772	80125.44
607.109	80125.77
607.445	80126.84
607.781	80126.88
608.117	80128.51
608.453	80127.99
608.79	80126.25
609.126	80123.55
609.462	80122.03
609.798	80122.18
610.133	80121.7
610.469	80121.92
610.805	80122.1
611.141	80119.44
611.477	80118.47
611.812	80117.62
612.148	80115.59
612.483	80114.07
612.819	80113.96
613.154	80113.62
613.49	80112.44
613.825	80112.18
614.16	80112.73
614.496	80110.85
614.831	80109.85
615.166	80107.29
615.501	80106.29
615.836	80108.48
616.171	80109.44
616.506	80109.77
616.841	80108.99
617.176	80110.07
617.511	80109.25
617.846	80108.25
618.18	80109.48
618.515	80108.85
618.85	80109.22
619.184	80107.74
619.519	80108.96
619.853	80107.74
620.188	80106.85
620.522	80107.59
620.856	80106.88
621.191	80106.44
621.525	80105.85
621.859	80104.92
622.193	80106.48
622.527	80105.96
622.861	80103.96
623.195	80103.52
623.529	80102.52
623.863	80102.37
624.197	80101.11
624.531	80103.15
624.865	80104.07
625.198	80103.48
625.532	80102.66
625.866	80100.18
626.199	80101.85
626.533	80102.03
626.866	80101.29
627.2	80099.26
627.533	80098.96
627.866	80098.41
628.2	80096.85
628.533	80097.22
628.866	80096.85
629.199	80096.19
629.532	80096.78
629.865	80097.89
630.198	80096.08
630.531	80097.26
630.864	80094.63
631.197	80094.63
631.529	80092.78
631.862	80091.67
632.195	80090.75
632.527	80091.49
632.86	80093.89
633.193	80092.19
633.525	80089.49
633.857	80091.08
634.19	80092
634.522	80091.49
634.854	80092.93
635.187	80093.12
635.519	80093.23
635.851	80094.11
636.183	80094.67
636.515	80094.97
636.847	80094.08
637.179	80095.34
637.511	80093.3
637.843	80096.19
638.174	80095.56
638.506	80094.41
638.838	80094.19
639.17	80094
639.501	80094.63
639.833	80093.6
640.164	80094.08
640.496	80095.45
640.827	80093.71
641.158	80095.11
641.49	80095.89
641.821	80094.82
642.152	80095.41
642.483	80095.41
642.814	80094.48
643.145	80092.23
643.476	80093.71
643.807	80092.04
644.138	80090.63
644.469	80092.45
644.8	80091.6
645.131	80090.71
645.461	80091.19
645.792	80090.08
646.122	80088.9
646.453	80087.56
646.784	80087.04
647.114	80085.86
647.444	80085.27
647.775	80086.3
648.105	80086.05
648.435	80086.6
648.765	80086.75
649.096	80089.12
649.426	80088.38
649.756	80087.38
650.086	80088.79
650.416	80085.64
650.746	80086.23
651.075	80086.82
651.405	80087.67
651.735	80086.9
652.065	80088.53
652.394	80088.6
652.724	80090.01
653.054	80091.08
653.383	80091.15
653.712	80091.12
654.042	80092.6
654.371	80092.15
654.701	80091.56
655.03	80091.04
655.359	80089.15
655.688	80088.6
656.017	80088.15
656.346	80088.04
656.675	80089.63
657.004	80089.01
657.333	80088.19
657.662	80087.86
657.991	80088.34
658.32	80087.67
658.648	80087.23
658.977	80085.93
659.306	80086.6
659.634	80084.34
659.963	80083.64
660.291	80081.53
660.619	80080.86
660.948	80080.53
661.276	80081.83
661.604	80080.13
661.933	80078.53
662.261	80079.13
662.589	80078.87
662.917	80076.24
663.245	80076.02
663.573	80076.39
663.901	80077.05
664.229	80078.13
664.556	80078.02
664.884	80077.42
665.212	80075.57
665.539	80075.79
665.867	80075.09
666.195	80074.35
666.522	80075.39
666.85	80075.2
667.177	80077.57
667.504	80079.16
667.832	80078.83
668.159	80077.05
668.486	80078.24
668.813	80078.83
669.14	80077.57
669.467	80077.83
669.794	80077.64
670.121	80077.64
670.448	80074.61
670.775	80073.24
671.102	80071.8
671.429	80071.32
671.755	80070.54
672.082	80070.98
672.409	80070.13
672.735	80071.5
673.062	80071.76
673.388	80072.87
673.714	80071.39
674.041	80070.28
674.367	80068.43
674.693	80066.91
675.019	80066.03
675.346	80065.51
675.672	80066.43
675.998	80066.03
676.324	80064.55
676.65	80064.36
676.976	80063.73
677.301	80064.18
677.627	80064.44
677.953	80064.95
678.279	80065.29
678.604	80064.36
678.93	80063.4
679.255	80062.77
679.581	80061.37
679.906	80060.63
680.232	80059.63
680.557	80061.29
680.882	80061.48
681.208	80060.99
681.533	80062.47
681.858	80063.03
682.183	80061.33
682.508	80061.11
682.833	80063.1
683.158	80063.44
683.483	80062.77
683.808	80063.66
684.132	80062.92
684.457	80060.63
684.782	80059.74
685.106	80058.74
685.431	80058.78
685.755	80058.33
686.08	80058.26
686.404	80059.07
686.729	80058.15
687.053	80056.82
687.377	80055.63
687.701	80054.04
688.026	80052.97
688.35	80050.82
688.674	80049.97
688.998	80049.9
689.322	80048.09
689.646	80046.38
689.97	80044.5
690.293	80042.91
690.617	80040.17
690.941	80038.77
691.264	80038.8
691.588	80037.92
691.912	80036.51
692.235	80035.14
692.559	80033.7
692.882	80033.18
693.205	80031.37
693.529	80030.08
693.852	80029.67
694.175	80027.38
694.498	80025.6
694.821	80022.65
695.144	80020.39
695.467	80016.18
695.79	80013.89
696.113	80009.56
696.436	80002.65
696.759	79997.59
697.082	79993.2
697.404	79987.95
697.727	79979.83
698.049	79970.35
698.372	79957.88
698.694	79943.21
699.017	79926.11
699.339	79906.58
699.662	79883.06
699.984	79845.52
700.306	79803.34
700.628	79735.49
700.95	79645.92
701.272	79537.89
701.594	79417.29
701.916	79301.03
702.238	79171.96
702.56	78991.09
702.882	78813.41
703.204	78649.99
703.525	78462.4
703.847	78232.4
704.169	78018.05
704.49	77797.21
704.812	77553.73
705.133	77310.23
705.455	77067.75
705.776	76802.5
706.097	76552
706.419	76293.79
706.74	76021.69
707.061	75735.55
707.382	75441.1
707.703	75156.06
708.024	74895
708.345	74620.61
708.666	74320.4
708.987	74010.59
709.307	73757.9
709.628	73462.65
709.949	73144.13
710.27	72840.25
710.59	72584.66
710.911	72282
711.231	71963.48
711.552	71694.77
711.872	71373.71
712.192	71099.39
712.512	70841.53
712.833	70572.77
713.153	70292.13
713.473	70057.28
713.793	69829.54
714.113	69612.94
714.433	69402.3
714.753	69183.5
715.073	68990.28
715.393	68785.62
715.712	68619.67
716.032	68397.98
716.352	68218.46
716.671	68065.58
716.991	67887.64
717.31	67683.63
717.63	67529.51
717.949	67368.6
718.268	67157.63
718.588	66983.07
718.907	66749.94
719.226	66493.54
719.545	66235.59
719.864	65962.2
720.183	65684.05
720.502	65402.81
720.821	65124.93
721.14	64842.79
721.459	64529.42
721.778	64248.83
722.096	63935.73
722.415	63638.87
722.734	63380.7
723.052	63104.32
723.371	62816.41
723.689	62540.95
724.008	62265.67
724.326	61961.62
724.644	61691.51
724.963	61426.43
725.281	61201.51
725.599	60968.73
725.917	60774.75
726.235	60584.47
726.553	60425.97
726.871	60231.61
727.189	60030.04
727.507	59839.39
727.824	59685.71
728.142	59552.65
728.46	59359.51
728.777	59256.22
729.095	59119.83
729.413	58971.47
729.73	58834.3
730.047	58690.03
730.365	58579.07
730.682	58468.32
730.999	58385.46
731.317	58306.59
731.634	58224.41
731.951	58106.34
732.268	57983.51
732.585	57838.69
732.902	57672.23
733.219	57512.19
733.536	57340.48
733.852	57215.36
734.169	57088.58
734.486	56940.47
734.802	56787.64
735.119	56667.44
735.435	56491.36
735.752	56335.3
736.068	56163.09
736.385	55984.73
736.701	55793.64
737.017	55557.02
737.333	55313.05
737.65	55005.68
737.966	54627.22
738.282	54236.07
738.598	53823.68
738.914	53376.32
739.23	52889.34
739.545	52380.31
739.861	51833.99
740.177	51295.89
740.493	50693.76
740.808	50114.25
741.124	49506.93
741.439	48924.53
741.755	48355.29
742.07	47834.74
742.386	47271.53
742.701	46771.82
743.016	46277.46
743.331	45807.66
743.647	45387.23
743.962	44994.44
744.277	44648.96
744.592	44381.02
744.907	44163.97
745.222	44000.26
745.537	43905.74
745.851	43879.94
746.166	43890.21
746.481	43945.95
746.795	44055.44
747.11	44217.49
747.424	44383.08
747.739	44543.04
748.053	44719.35
748.368	44870.45
748.682	44987.38
748.996	45122.85
749.311	45220.29
749.625	45319.07
749.939	45419.17
750.253	45476.14
750.567	45548.23
750.881	45613.68
751.195	45676.21
751.509	45736.87
751.822	45781.1
752.136	45827.96
752.45	45877.38
752.763	45940.73
753.077	45989.35
753.39	46023.73
753.704	46047.52
754.017	46065.19
754.331	46102.29
754.644	46114.25
754.957	46124.56
755.27	46129.45
755.584	46137.93
755.897	46146.13
756.21	46143.82
756.523	46120.18
756.836	46095.17
757.149	46014.42
757.461	45947.42
757.774	45858.57
758.087	45747.03
758.4	45615.5
758.712	45464.42
759.025	45309.36
759.337	45161.74
759.65	45004.66
759.962	44849.57
760.275	44689.05
760.587	44546.46
760.899	44410.17
761.211	44310.62
761.523	44239.64
761.836	44232.16
762.148	44238.83
762.46	44263.84
762.772	44330.76
763.083	44461.44
763.395	44612.04
763.707	44830.82
764.019	45059.08
764.33	45285.4
764.642	45534.52
764.954	45796.54
765.265	46066.51
765.577	46326.74
765.888	46563.67
766.199	46815.28
766.511	47030.05
766.822	47250.67
767.133	47430.31
767.444	47597.27
767.755	47688.52
768.066	47744.97
768.377	47738.14
768.688	47671.46
768.999	47589.34
769.31	47460.8
769.621	47274.8
769.931	47050.6
770.242	46800.54
770.553	46496.62
770.863	46165.67
771.174	45812.23
771.484	45433.88
771.794	45037.95
772.105	44631.48
772.415	44205.02
772.725	43746.87
773.035	43308.98
773.345	42858.37
773.656	42391.77
773.966	41918.92
774.276	41490.83
774.585	41055.79
774.895	40626.14
775.205	40246.12
775.515	39848.44
775.824	39459.98
776.134	39073.05
776.444	38713.52
776.753	38347.38
777.063	38011
777.372	37687.63
777.681	37361.2
777.991	37054.86
778.3	36752.26
778.609	36457.34
778.918	36171.85
779.228	35917.94
779.537	35650.17
779.846	35384.57
780.154	35141.42
780.463	34910.64
780.772	34665.16
781.081	34443.07
781.39	34241.06
781.698	34025.22
782.007	33821.7
782.316	33610.1
782.624	33400.26
782.932	33199.38
783.241	33006.6
783.549	32814.78
783.858	32650.55
784.166	32487.08
784.474	32310.53
784.782	32148.45
785.09	31986.19
785.398	31846.09
785.706	31701.67
786.014	31569.05
786.322	31430.01
786.63	31296.41
786.937	31169.66
787.245	31046.37
787.553	30921.77
787.86	30805.32
788.168	30687.42
788.475	30579.31
788.783	30488.73
789.09	30394.55
789.398	30293.78
789.705	30193.52
790.012	30091.21
790.319	29991.87
790.626	29889.45
790.933	29803.12
791.24	29713.38
791.547	29621.24
791.854	29528.03
792.161	29434.73
792.468	29335.36
792.774	29239.65
793.081	29149.44
793.388	29064.59
793.694	28969.76
794.001	28879.43
794.307	28763.14
794.614	28652.01
794.92	28527.58
795.226	28401
795.533	28288.14
795.839	28200.4
796.145	28081.16
796.451	27968.49
796.757	27858.16
797.063	27750.25
797.369	27638.3
797.675	27532.67
797.98	27431.83
798.286	27312.44
798.592	27203.66
798.898	27093.71
799.203	26982.91
799.509	26868.42
799.814	26744
800.12	26644.28
800.425	26532.71
800.73	26416.87
801.035	26308.15
801.341	26206.33
801.646	26106.29
801.951	26005.15
802.256	25896.64
802.561	25805.04
802.866	25716.43
803.171	25623.4
803.476	25528.41
803.78	25440.14
804.085	25343.52
804.39	25234.33
804.694	25135.68
804.999	25039.69
805.303	24949.53
805.608	24864.87
805.912	24778.53
806.216	24706.63
806.521	24636.79
806.825	24557.09
807.129	24493.96
807.433	24415.87
807.737	24348.83
808.041	24292.08
808.345	24235.01
808.649	24177.13
808.953	24130.9
809.257	24075.22
809.561	24020.23
809.864	23972.47
810.168	23936.64
810.471	23905.78
810.775	23873.86
811.078	23851.83
811.382	23822.08
811.685	23810.53
811.988	23800.48
812.292	23791.74
812.595	23787.36
812.898	23779.07
813.201	23794.05
813.504	23815.07
813.807	23849.4
814.11	23879.73
814.413	23903.48
814.716	23928.32
815.018	23979.06
815.321	24036.72
815.624	24113.73
815.926	24212.99
816.229	24338.26
816.531	24475.03
816.834	24636.7
817.136	24838.33
817.438	25053.81
817.74	25329.53
818.043	25639.31
818.345	26016.01
818.647	26474
818.949	27017.29
819.251	27651.85
819.553	28393.84
819.855	29258.41
820.156	30224.71
820.458	31307.87
820.76	32459.75
821.062	33667.6
821.363	34929.99
821.665	36262.85
821.966	37693.3
822.268	39144.92
822.569	40588.51
822.87	42066.98
823.171	43549.29
823.473	45075.48
823.774	46649.68
824.075	48168.33
824.376	49664.53
824.677	51135.94
824.978	52513.97
825.279	53801.62
825.58	54974.53
825.88	56013.92
826.181	56899.19
826.482	57684.61
826.782	58303.58
827.083	58822.17
827.383	59208.95
827.684	59422.12
827.984	59504.45
828.284	59413.32
828.585	59179.23
828.885	58881.77
829.185	58426.35
829.485	57878.28
829.785	57211.91
830.085	56387.72
830.385	55517.13
830.685	54582.4
830.985	53535.38
831.285	52460.69
831.584	51342.47
831.884	50197.7
832.183	49025.72
832.483	47821.68
832.782	46548.91
833.082	45274.46
833.381	43992.31
833.681	42756.44
833.98	41591.51
834.279	40454.77
834.578	39351.57
834.877	38321.21
835.176	37307.38
835.475	36373.69
835.774	35484.9
836.073	34613.21
836.372	33790.87
836.671	32982.74
836.969	32189.07
837.268	31441.62
837.567	30736.44
837.865	30053.63
838.164	29372.91
838.462	28724.82
838.761	28110.86
839.059	27534.44
839.357	26993.13
839.655	26468.59
839.953	25934.76
840.252	25414.46
840.55	24892.91
840.848	24384.93
841.146	23890.28
841.443	23393.93
841.741	22892.92
842.039	22389.27
842.337	21888.95
842.634	21428.65
842.932	20987.2
843.229	20558.7
843.527	20145.53
843.824	19707.01
844.122	19262.28
844.419	18844.26
844.716	18416.64
845.013	18002.91
845.311	17613.43
845.608	17234.94
845.905	16869
846.202	16513.2
846.499	16142.51
846.796	15782.74
847.092	15417.74
847.389	15055.88
847.686	14724.48
847.982	14410.83
848.279	14101.07
848.576	13814.43
848.872	13521.58
849.168	13231.68
849.465	12950.93
849.761	12664.71
850.057	12392.2
850.354	12132.99
850.65	11882.53
850.946	11655.37
851.242	11440.05
851.538	11219.91
851.834	11001.5
852.13	10785.92
852.425	10590.51
852.721	10413.56
853.017	10247.85
853.312	10098.23
853.608	9956.57
853.903	9814.24
854.199	9669.1
854.494	9538.48
854.79	9410.64
855.085	9280.11
855.38	9152.87
855.675	9026.78
855.971	8907.98
856.266	8805.07
856.561	8708.16
856.856	8616.93
857.151	8524.18
857.445	8425.85
857.74	8331.07
858.035	8242.96
858.33	8152.55
858.624	8064.81
858.919	7987.91
859.213	7905.51
859.508	7825.29
859.802	7737.94
860.096	7656.74
860.391	7594.65
860.685	7535.54
860.979	7474.65
861.273	7422.26
861.567	7368.75
861.861	7304.26
862.155	7252.4
862.449	7184.95
862.743	7122.16
863.037	7063.17
863.33	7008.31
863.624	6955.13
863.918	6911.55
864.211	6869.87
864.505	6836.63
864.798	6797.22
865.092	6746.42
865.385	6698.4
865.678	6648.59
865.971	6614.44
866.264	6581.49
866.558	6552.65
866.851	6522.15
867.144	6489.96
867.437	6453.46
867.729	6421.37
868.022	6400.13
868.315	6380.46
868.608	6371.05
868.9	6363.65
869.193	6347.17
869.485	6320.17
869.778	6293.66
870.07	6264.74
870.363	6244.88
870.655	6229.07
870.947	6220.34
871.239	6217.93
871.532	6220.1
871.824	6221.61
872.116	6218.37
872.408	6215.55
872.699	6201.71
872.991	6193.26
873.283	6192.28
873.575	6195.65
873.867	6206.66
874.158	6212.25
874.45	6210.37
874.741	6204.02
875.033	6201.42
875.324	6214.05
875.615	6237
875.907	6262.66
876.198	6279.67
876.489	6288.42
876.78	6292.2
877.071	6292.64
877.362	6293.3
877.653	6295.33
877.944	6307.74
878.235	6318.79
878.526	6328.42
878.816	6345.11
