Data from 24HourExp_27052025_FLMS018081_03-18-22-219.txt Node
Date: Wed May 28 03:18:22 BST 2025
User: adleo
Spectrometer: FLMS01808
Trigger mode: 0
Integration Time (sec): 4.000000E-1
Scans to average: 10
Electric dark correction enabled: true
Nonlinearity correction enabled: true
Boxcar width: 10
XAxis mode: Wavelengths
Number of Pixels in Spectrum: 2048
>>>>>Begin Spectral Data<<<<<
178.471	-122.78
178.857	-116.92
179.244	-109.51
179.631	-101.94
180.017	-95.07
180.404	-87.24
180.79	-76.73
181.176	-67.86
181.563	-58.5
181.949	-47.65
182.335	-36.93
182.722	-22.19
183.108	-3.78
183.494	21.77
183.88	76.01
184.266	128.94
184.653	184.52
185.039	238.28
185.425	294.87
185.811	346.37
186.197	398.92
186.582	450.06
186.968	502.98
187.354	554.6
187.74	605.22
188.126	656.22
188.511	707.36
188.897	756.13
189.283	802.98
189.668	848.62
190.054	891.19
190.439	935.64
190.825	979.57
191.21	1020.44
191.596	1053.08
191.981	1060.63
192.366	1066.45
192.752	1068.35
193.137	1072.21
193.522	1073.88
193.908	1074.26
194.293	1077.71
194.678	1080.49
195.063	1081.06
195.448	1081.79
195.833	1083.78
196.218	1083.8
196.603	1081.68
196.988	1081.18
197.373	1082.48
197.757	1084.16
198.142	1087.05
198.527	1085.76
198.912	1085.36
199.296	1084.91
199.681	1084.33
200.066	1083.21
200.45	1082.04
200.835	1083.05
201.219	1082.45
201.604	1081.6
201.988	1084.28
202.372	1085.03
202.757	1087.08
203.141	1087.62
203.525	1087.96
203.91	1087.83
204.294	1088.67
204.678	1089.01
205.062	1087.9
205.446	1088.1
205.83	1087.71
206.214	1085.64
206.598	1086.76
206.982	1086.79
207.366	1086.31
207.75	1085.51
208.134	1086.86
208.517	1089.37
208.901	1089.84
209.285	1092.17
209.669	1092.55
210.052	1091.31
210.436	1091.07
210.819	1090.49
211.203	1091.57
211.586	1092.63
211.97	1090.62
212.353	1090.45
212.737	1092.66
213.12	1094.04
213.503	1093.72
213.886	1094.61
214.27	1097.73
214.653	1097.57
215.036	1098.82
215.419	1100.78
215.802	1104.24
216.185	1106.06
216.568	1108.93
216.951	1111.13
217.334	1111.32
217.717	1115.89
218.1	1118.48
218.482	1122.21
218.865	1125.52
219.248	1129.39
219.631	1134.09
220.013	1141.01
220.396	1148.09
220.778	1154
221.161	1159.16
221.544	1166.76
221.926	1174.18
222.308	1180.92
222.691	1189.07
223.073	1198.33
223.455	1207.23
223.838	1216.67
224.22	1225.4
224.602	1234.75
224.984	1246.04
225.366	1258.67
225.749	1272.02
226.131	1285.17
226.513	1297.33
226.895	1312.6
227.276	1327.34
227.658	1342.56
228.04	1358.37
228.422	1374.01
228.804	1390.19
229.186	1407.41
229.567	1424.6
229.949	1440.95
230.331	1458.76
230.712	1476
231.094	1492.15
231.475	1510.95
231.857	1530.17
232.238	1549.21
232.62	1567.79
233.001	1586.4
233.382	1606.69
233.763	1625.83
234.145	1647.35
234.526	1668.04
234.907	1686.85
235.288	1704.86
235.669	1724.3
236.05	1743.32
236.431	1761.6
236.812	1780.41
237.193	1800.66
237.574	1820.87
237.955	1843
238.336	1864.03
238.717	1887.94
239.097	1913.78
239.478	1933.87
239.859	1955.54
240.239	1980.53
240.62	2006.26
241.001	2028.92
241.381	2051.48
241.762	2074.49
242.142	2097.54
242.522	2121.46
242.903	2146.9
243.283	2175.31
243.663	2200.6
244.044	2229.48
244.424	2256.29
244.804	2285.53
245.184	2315.49
245.564	2345.18
245.944	2376.46
246.324	2407.94
246.704	2435.48
247.084	2462.67
247.464	2495.58
247.844	2527.64
248.224	2558.34
248.604	2588.01
248.983	2620.05
249.363	2652.74
249.743	2685.64
250.122	2718.22
250.502	2750.36
250.882	2780.24
251.261	2812.17
251.641	2846.13
252.02	2877.26
252.399	2913.74
252.779	2950.27
253.158	2983.41
253.537	3021.32
253.917	3062.27
254.296	3099.74
254.675	3142.17
255.054	3183.39
255.433	3226.54
255.812	3265.57
256.191	3305.5
256.57	3345.09
256.949	3388.6
257.328	3435.32
257.707	3479.94
258.086	3524.9
258.465	3571.78
258.843	3623.03
259.222	3671.41
259.601	3722.84
259.979	3779.34
260.358	3831.88
260.736	3885.37
261.115	3943.44
261.493	3997.67
261.872	4050.18
262.25	4105.74
262.629	4159.45
263.007	4218.31
263.385	4276.92
263.763	4341.19
264.142	4405.93
264.52	4472.13
264.898	4537.4
265.276	4602.37
265.654	4672.21
266.032	4743.07
266.41	4814.7
266.788	4886.96
267.166	4966.49
267.544	5041.81
267.921	5119.47
268.299	5199
268.677	5279.85
269.055	5362.19
269.432	5444.72
269.81	5528.59
270.188	5617.14
270.565	5708.29
270.943	5798.28
271.32	5886.14
271.697	5980.46
272.075	6075.45
272.452	6173.44
272.829	6271.87
273.207	6371.58
273.584	6471.99
273.961	6576.46
274.338	6686.98
274.715	6802.58
275.092	6916.66
275.469	7037.22
275.846	7155.49
276.223	7275.01
276.6	7393.27
276.977	7516.32
277.354	7641.77
277.731	7769.79
278.108	7900.89
278.484	8031.8
278.861	8165.37
279.238	8307.28
279.614	8443.39
279.991	8585.3
280.367	8727.59
280.744	8875.14
281.12	9021.28
281.497	9170.86
281.873	9323.82
282.249	9470.67
282.625	9617.21
283.002	9765.75
283.378	9914.2
283.754	10064.13
284.13	10219.9
284.506	10380.13
284.882	10536.15
285.258	10694.44
285.634	10848.83
286.01	11007.01
286.386	11166.08
286.762	11331.06
287.138	11495.14
287.513	11658.35
287.889	11822.52
288.265	11983.68
288.641	12142.81
289.016	12304.95
289.392	12468.94
289.767	12628.54
290.143	12794.77
290.518	12958.43
290.894	13120.03
291.269	13278.65
291.644	13435.89
292.02	13589.72
292.395	13738.14
292.77	13890.9
293.145	14045.27
293.52	14202.83
293.895	14354.03
294.27	14509.67
294.646	14661.52
295.02	14806.2
295.395	14960.59
295.77	15113.38
296.145	15268.9
296.52	15424.59
296.895	15577.52
297.269	15728.95
297.644	15885.2
298.019	16036.37
298.393	16183.04
298.768	16334.45
299.143	16487.94
299.517	16641.77
299.891	16797.8
300.266	16956.71
300.64	17117.34
301.015	17280.13
301.389	17448
301.763	17619.31
302.137	17789.9
302.512	17970.16
302.886	18146.13
303.26	18327.43
303.634	18505.93
304.008	18681.96
304.382	18868.49
304.756	19054.11
305.13	19241.51
305.504	19419.02
305.877	19612.57
306.251	19815.8
306.625	20022.67
306.999	20232.25
307.372	20444.75
307.746	20662.12
308.119	20879.03
308.493	21091.74
308.866	21304.55
309.24	21518.3
309.613	21725.85
309.987	21936.85
310.36	22130.67
310.733	22340.62
311.107	22556.71
311.48	22774.05
311.853	23002.89
312.226	23217.69
312.599	23444.54
312.972	23667.21
313.345	23897.79
313.718	24128.35
314.091	24352.8
314.464	24579.23
314.837	24804.18
315.21	25011.85
315.582	25230.17
315.955	25440.36
316.328	25661.14
316.7	25876.36
317.073	26095.58
317.446	26315.88
317.818	26535.85
318.191	26763.44
318.563	26984.53
318.936	27189.34
319.308	27395.19
319.68	27599.14
320.053	27799.85
320.425	27993.96
320.797	28178.09
321.169	28338.7
321.541	28480.83
321.913	28611.93
322.285	28724.72
322.657	28844.92
323.029	28990.87
323.401	29133.42
323.773	29300.32
324.145	29468.98
324.517	29657.63
324.889	29835.16
325.26	30041.63
325.632	30264.29
326.004	30498.54
326.375	30756.72
326.747	31033.29
327.118	31336.12
327.49	31625.66
327.861	31937.38
328.233	32240.29
328.604	32547.26
328.975	32868.43
329.346	33182.2
329.718	33497.68
330.089	33803.87
330.46	34101.8
330.831	34376.53
331.202	34630.67
331.573	34874.34
331.944	35102.1
332.315	35325.46
332.686	35541.54
333.057	35739.39
333.428	35912.61
333.799	36085.5
334.169	36238.25
334.54	36377.9
334.911	36488.3
335.281	36612.67
335.652	36731.65
336.022	36859.45
336.393	37004.98
336.763	37170.88
337.134	37348.72
337.504	37543.95
337.874	37752.76
338.245	37956.6
338.615	38176.28
338.985	38408.7
339.355	38633.74
339.726	38855.96
340.096	39077.11
340.466	39328.63
340.836	39563.9
341.206	39812.26
341.576	40058.44
341.945	40304.09
342.315	40535.03
342.685	40779.73
343.055	41028.89
343.425	41262.48
343.794	41499.4
344.164	41734.38
344.533	41968.94
344.903	42200.47
345.273	42432.56
345.642	42662.65
346.011	42893.48
346.381	43126.66
346.75	43358.03
347.12	43608.93
347.489	43857.65
347.858	44099.4
348.227	44305.37
348.596	44527.56
348.965	44763.54
349.334	44992.22
349.704	45228.85
350.072	45476.32
350.441	45712.51
350.81	45957.18
351.179	46189.4
351.548	46422.65
351.917	46640.32
352.285	46828.42
352.654	47033.4
353.023	47237.16
353.391	47431.9
353.76	47648.97
354.129	47833.85
354.497	48067.2
354.865	48276.77
355.234	48514.94
355.602	48741
355.971	48998.74
356.339	49217
356.707	49434.24
357.075	49655.07
357.443	49870.32
357.811	50083.99
358.18	50291.33
358.548	50496.7
358.916	50709.01
359.284	50925.5
359.651	51144
360.019	51364.36
360.387	51566.35
360.755	51774.39
361.123	52000.28
361.49	52219.86
361.858	52434.36
362.226	52623.72
362.593	52823.8
362.961	52997.98
363.328	53195.33
363.696	53357.69
364.063	53573.8
364.43	53778.9
364.798	53988.03
365.165	54170.27
365.532	54353.88
365.899	54544.59
366.267	54706.42
366.634	54860.69
367.001	55028.89
367.368	55162.34
367.735	55346.79
368.102	55518.27
368.469	55705.03
368.835	55880.76
369.202	56039.93
369.569	56233.77
369.936	56427.99
370.303	56618.78
370.669	56826.13
371.036	56988.43
371.402	57184.59
371.769	57371.28
372.135	57516.77
372.502	57643.72
372.868	57793.18
373.235	57932.44
373.601	58073.91
373.967	58243.05
374.333	58426.94
374.7	58606.24
375.066	58813.88
375.432	58997.42
375.798	59179.96
376.164	59347.77
376.53	59492.51
376.896	59658.4
377.262	59838.91
377.628	59966.56
377.993	60110.97
378.359	60249.66
378.725	60409.62
379.091	60563.44
379.456	60689.82
379.822	60822.34
380.187	60976.25
380.553	61156.77
380.918	61356.16
381.284	61526.47
381.649	61704.05
382.015	61844.99
382.38	61965
382.745	62129.42
383.11	62275.36
383.476	62421.82
383.841	62550.51
384.206	62711.51
384.571	62835.59
384.936	62963.84
385.301	63131.75
385.666	63261.4
386.031	63402.47
386.396	63561.81
386.76	63712.77
387.125	63902.51
387.49	64100.86
387.855	64291.05
388.219	64451.52
388.584	64618.39
388.948	64810.54
389.313	64972.9
389.677	65183.52
390.042	65416.65
390.406	65563.22
390.771	65755.76
391.135	65941.17
391.499	66170.97
391.863	66397.89
392.227	66638.72
392.592	66837.02
392.956	67033.16
393.32	67237.09
393.684	67469.17
394.048	67639.57
394.412	67820.6
394.775	67965.88
395.139	68117.18
395.503	68275.54
395.867	68432.92
396.231	68570.75
396.594	68665.63
396.958	68804.83
397.321	68960.71
397.685	69084.18
398.048	69232.33
398.412	69363.42
398.775	69491.75
399.139	69613.39
399.502	69724.73
399.865	69861.34
400.228	70051.45
400.592	70178.57
400.955	70367.76
401.318	70493.58
401.681	70655.74
402.044	70787.21
402.407	70952.56
402.77	71110.06
403.133	71290.55
403.496	71434.32
403.859	71587.85
404.221	71831.9
404.584	72055.64
404.947	72292.42
405.309	72497.39
405.672	72727.21
406.034	72950.77
406.397	73202.89
406.759	73419.52
407.122	73596.45
407.484	73771.12
407.847	73955.93
408.209	74209.11
408.571	74434.27
408.933	74693.32
409.296	74941.19
409.658	75186.46
410.02	75450.69
410.382	75759.25
410.744	76018.83
411.106	76304.75
411.468	76582.47
411.83	76817.59
412.191	77024.5
412.553	77195.92
412.915	77407.79
413.277	77618.32
413.638	77811.49
414	77978.07
414.361	78157.8
414.723	78391.19
415.084	78602.41
415.446	78769.8
415.807	78906.65
416.169	79018.13
416.53	79105.88
416.891	79211.88
417.252	79334.81
417.614	79413.92
417.975	79456.42
418.336	79504.77
418.697	79558.69
419.058	79605.4
419.419	79640.53
419.78	79681.6
420.141	79711.68
420.501	79739.71
420.862	79760.83
421.223	79778.29
421.584	79816.89
421.944	79837.77
422.305	79849.56
422.666	79860.17
423.026	79865.12
423.387	79875.5
423.747	79883.91
424.107	79895.55
424.468	79907.42
424.828	79915.02
425.188	79918.31
425.549	79924.07
425.909	79930.3
426.269	79932.04
426.629	79937.76
426.989	79943.59
427.349	79946.47
427.709	79951.27
428.069	79953.63
428.429	79958.43
428.789	79964.71
429.149	79968.74
429.508	79973.09
429.868	79976.75
430.228	79981.96
430.587	79984.88
430.947	79989.68
431.306	79994.71
431.666	79997.74
432.025	80000.77
432.385	80002.1
432.744	80004.24
433.103	80005.46
433.463	80007.75
433.822	80013.26
434.181	80016.21
434.54	80019.72
434.899	80021.98
435.258	80023.2
435.618	80025.45
435.976	80028.71
436.335	80027.67
436.694	80028.85
437.053	80030.67
437.412	80031.7
437.771	80031.66
438.129	80033.51
438.488	80034.51
438.847	80034.4
439.205	80035.33
439.564	80035.44
439.922	80036.18
440.281	80038.02
440.639	80039.87
440.997	80039.54
441.356	80040.13
441.714	80041.72
442.072	80041.09
442.431	80040.32
442.789	80041.2
443.147	80040.95
443.505	80040.35
443.863	80042.09
444.221	80043.16
444.579	80042.83
444.937	80043.61
445.294	80044.72
445.652	80045.94
446.01	80045.98
446.368	80046.31
446.725	80045.49
447.083	80045.97
447.441	80046.64
447.798	80046.97
448.156	80048.05
448.513	80049.93
448.87	80050.56
449.228	80050.27
449.585	80049.71
449.942	80051.93
450.3	80051.45
450.657	80051.78
451.014	80051.78
451.371	80052.71
451.728	80051.78
452.085	80051.71
452.442	80051.89
452.799	80052.34
453.156	80050.23
453.513	80049.93
453.869	80050.52
454.226	80052.56
454.583	80052.82
454.939	80053.48
455.296	80051.82
455.653	80052.89
456.009	80051.86
456.366	80051.23
456.722	80050.64
457.078	80050.6
457.435	80050.38
457.791	80050.41
458.147	80051.78
458.503	80053.41
458.86	80053.78
459.216	80053.71
459.572	80054.15
459.928	80054.08
460.284	80053.93
460.64	80055.74
460.996	80057.48
461.351	80059.29
461.707	80057
462.063	80058.11
462.419	80057.85
462.774	80058.88
463.13	80057.92
463.486	80058.88
463.841	80059.55
464.197	80061.77
464.552	80063.88
464.908	80065.54
465.263	80065.65
465.618	80065.4
465.974	80065.25
466.329	80066.28
466.684	80066.69
467.039	80067.99
467.394	80068.95
467.749	80069.1
468.104	80070.65
468.459	80071.43
468.814	80069.91
469.169	80072.39
469.524	80072.2
469.879	80073.94
470.233	80074.83
470.588	80075.5
470.943	80074.68
471.297	80075.46
471.652	80074.94
472.006	80076.5
472.361	80075.94
472.715	80078.64
473.07	80079.79
473.424	80081.05
473.778	80080.49
474.133	80081.86
474.487	80080.82
474.841	80079.75
475.195	80080.49
475.549	80079.71
475.903	80078.49
476.257	80079.64
476.611	80079.53
476.965	80079.94
477.319	80079.57
477.673	80080.31
478.026	80080.56
478.38	80080.97
478.734	80081.97
479.087	80082.97
479.441	80080.31
479.795	80081.05
480.148	80082.16
480.502	80082.34
480.855	80082.67
481.208	80083.01
481.562	80083.9
481.915	80086.63
482.268	80089.89
482.621	80091.15
482.974	80091.11
483.328	80093.59
483.681	80094.7
484.034	80095.93
484.387	80095.7
484.739	80097.18
485.092	80097.07
485.445	80097.11
485.798	80099.48
486.151	80098.55
486.503	80097.85
486.856	80100.37
487.209	80100.77
487.561	80100.07
487.914	80099.74
488.266	80099.48
488.618	80100.48
488.971	80099.7
489.323	80097.22
489.675	80096.07
490.028	80095.52
490.38	80096.92
490.732	80097.11
491.084	80095.74
491.436	80095.29
491.788	80095.74
492.14	80095.18
492.492	80093.78
492.844	80094
493.196	80091.52
493.548	80092.11
493.899	80091.3
494.251	80089.74
494.603	80088.34
494.954	80087.15
495.306	80088.41
495.657	80088.23
496.009	80088
496.36	80088.3
496.712	80089.56
497.063	80089.78
497.414	80088.6
497.765	80088.52
498.117	80085.6
498.468	80086.93
498.819	80086.71
499.17	80086.56
499.521	80086.89
499.872	80088.89
500.223	80089.34
500.574	80091.85
500.924	80093.41
501.275	80095.41
501.626	80096.22
501.977	80097.81
502.327	80097.81
502.678	80097.15
503.029	80097.22
503.379	80096.66
503.73	80095.85
504.08	80096.37
504.43	80096.18
504.781	80096.78
505.131	80097.22
505.481	80099.29
505.831	80098.22
506.182	80097.78
506.532	80098
506.882	80096.92
507.232	80096.96
507.582	80095.63
507.932	80094.59
508.281	80094.63
508.631	80093.74
508.981	80093.3
509.331	80092.48
509.681	80094.37
510.03	80094.74
510.38	80095.48
510.729	80095.59
511.079	80097.18
511.428	80095.85
511.778	80095.55
512.127	80094.37
512.476	80092.15
512.826	80093.26
513.175	80093.37
513.524	80093.93
513.873	80094.3
514.222	80094.89
514.571	80095.04
514.92	80095.96
515.269	80094.26
515.618	80092.15
515.967	80091.85
516.316	80092.45
516.665	80092.82
517.014	80091.67
517.362	80091.56
517.711	80090.52
518.059	80089.04
518.408	80088.6
518.757	80089.45
519.105	80089.67
519.453	80090.67
519.802	80092.19
520.15	80092.04
520.498	80092.26
520.847	80091.41
521.195	80089.52
521.543	80088.78
521.891	80088.3
522.239	80088.11
522.587	80089.56
522.935	80092.08
523.283	80093.45
523.631	80091.71
523.979	80092.37
524.326	80092.78
524.674	80092.37
525.022	80093.37
525.369	80097
525.717	80097.55
526.064	80094.85
526.412	80095.19
526.759	80095.63
527.107	80096.11
527.454	80096.63
527.801	80097.44
528.149	80098.22
528.496	80100.89
528.843	80103.52
529.19	80103.22
529.537	80103.15
529.884	80104.03
530.231	80103.63
530.578	80102.7
530.925	80105.44
531.272	80105.29
531.619	80106.25
531.966	80105.74
532.312	80104.03
532.659	80102.66
533.006	80101.37
533.352	80104.7
533.699	80105.22
534.045	80105.85
534.392	80104.92
534.738	80103.88
535.084	80105.18
535.431	80105.7
535.777	80103.55
536.123	80100.22
536.469	80101.29
536.815	80101.03
537.161	80100.89
537.507	80098.41
537.853	80096.44
538.199	80094.63
538.545	80093.15
538.891	80092.15
539.237	80093.82
539.582	80095.3
539.928	80094.7
540.274	80095.19
540.619	80095.67
540.965	80095.96
541.31	80095.56
541.656	80096.44
542.001	80096.63
542.347	80094.85
542.692	80093.3
543.037	80093.85
543.382	80095.78
543.728	80095.52
544.073	80097.41
544.418	80096.18
544.763	80099.66
545.108	80101.88
545.453	80102.92
545.798	80103.03
546.142	80102.77
546.487	80100.7
546.832	80101.22
547.177	80101.96
547.521	80102.81
547.866	80101.11
548.211	80097.96
548.555	80097.15
548.9	80097.3
549.244	80095.48
549.588	80095.44
549.933	80097.26
550.277	80098.74
550.621	80098.74
550.965	80097.63
551.31	80096.48
551.654	80097.22
551.998	80096.67
552.342	80095.52
552.686	80095.11
553.03	80095.89
553.373	80095.55
553.717	80095.37
554.061	80092.93
554.405	80092.37
554.748	80091.45
555.092	80091.85
555.436	80092.89
555.779	80091.96
556.123	80091.11
556.466	80093.48
556.81	80093.78
557.153	80093.59
557.496	80092.96
557.839	80093.96
558.183	80094.07
558.526	80092.85
558.869	80092.37
559.212	80090.45
559.555	80090.63
559.898	80090.56
560.241	80090
560.584	80091.11
560.927	80092.08
561.269	80094.15
561.612	80093.89
561.955	80093.81
562.297	80093.15
562.64	80094.52
562.983	80095.22
563.325	80095.37
563.668	80093.3
564.01	80092.41
564.352	80090.37
564.695	80088.37
565.037	80085.38
565.379	80085.63
565.721	80086.37
566.063	80085.34
566.406	80084.67
566.748	80084.86
567.09	80085.01
567.431	80085.12
567.773	80083.3
568.115	80083.27
568.457	80082.01
568.799	80083.01
569.14	80083.04
569.482	80083.78
569.824	80082.53
570.165	80082.08
570.507	80080.93
570.848	80081.9
571.19	80082.67
571.531	80084.27
571.872	80085.71
572.214	80086.15
572.555	80085.97
572.896	80085.82
573.237	80086.93
573.578	80084.6
573.919	80084.41
574.26	80084.16
574.601	80082.68
574.942	80082.42
575.283	80082.05
575.624	80082.6
575.964	80080.94
576.305	80079.97
576.646	80080.57
576.986	80081.01
577.327	80081.12
577.667	80080.05
578.008	80080.09
578.348	80079.2
578.689	80078.27
579.029	80076.94
579.369	80078.75
579.71	80078.12
580.05	80077.09
580.39	80075.05
580.73	80076.09
581.07	80076.38
581.41	80075.24
581.75	80077.57
582.09	80077.53
582.43	80078.57
582.769	80078.24
583.109	80079.46
583.449	80080.34
583.789	80078.2
584.128	80078.01
584.468	80078.2
584.807	80079.2
585.147	80076.87
585.486	80075.42
585.825	80075.46
586.165	80075.83
586.504	80074.02
586.843	80074.28
587.182	80076.27
587.522	80078.42
587.861	80080.64
588.2	80079.57
588.539	80080.08
588.878	80077.42
589.216	80077.9
589.555	80076.75
589.894	80075.31
590.233	80073.9
590.572	80073.98
590.91	80075.09
591.249	80076.24
591.587	80076.53
591.926	80076.79
592.264	80077.49
592.603	80079.34
592.941	80078.97
593.279	80079.05
593.618	80078.42
593.956	80079.31
594.294	80077.68
594.632	80075.31
594.97	80074.53
595.308	80073.09
595.646	80072.83
595.984	80073.5
596.322	80073.65
596.66	80073.94
596.998	80074.5
597.335	80074.16
597.673	80073.9
598.011	80073.87
598.348	80071.98
598.686	80072.68
599.023	80073.28
599.361	80073.9
599.698	80073.98
600.035	80073.24
600.373	80074.24
600.71	80076.05
601.047	80074.76
601.384	80075.94
601.722	80077.2
602.059	80076.27
602.396	80077.72
602.733	80076.27
603.069	80076.61
603.406	80076.2
603.743	80076.38
604.08	80077.83
604.417	80077.27
604.753	80076.13
605.09	80076.53
605.426	80077.12
605.763	80076.09
606.099	80074.98
606.436	80074.5
606.772	80073.16
607.109	80073.79
607.445	80072.83
607.781	80071.35
608.117	80070.5
608.453	80068.17
608.79	80066.87
609.126	80067.5
609.462	80067.13
609.798	80067.69
610.133	80066.84
610.469	80066.17
610.805	80065.43
611.141	80063.21
611.477	80062.99
611.812	80063.29
612.148	80062.69
612.483	80061.21
612.819	80060.73
613.154	80059.81
613.49	80059.48
613.825	80059.66
614.16	80059.66
614.496	80058.88
614.831	80058.92
615.166	80059.29
615.501	80060.55
615.836	80060.95
616.171	80059.51
616.506	80060.55
616.841	80059.85
617.176	80059.85
617.511	80059.77
617.846	80059.77
618.18	80061.14
618.515	80061.47
618.85	80061.4
619.184	80060.66
619.519	80060.36
619.853	80059.62
620.188	80059.81
620.522	80059.48
620.856	80059.36
621.191	80059.36
621.525	80059.77
621.859	80058.66
622.193	80058.59
622.527	80059.33
622.861	80057.74
623.195	80059.37
623.529	80058.74
623.863	80060.88
624.197	80060.81
624.531	80061.44
624.865	80059.73
625.198	80059.03
625.532	80058.48
625.866	80058.07
626.199	80057.55
626.533	80058.55
626.866	80058.59
627.2	80059.03
627.533	80058.11
627.866	80057.4
628.2	80056.63
628.533	80055.7
628.866	80056.59
629.199	80056.26
629.532	80053.96
629.865	80056.29
630.198	80055.66
630.531	80054.78
630.864	80052.59
631.197	80052.41
631.529	80052.78
631.862	80053.45
632.195	80052.48
632.527	80052.74
632.86	80053.04
633.193	80052.63
633.525	80051.85
633.857	80050.3
634.19	80051.04
634.522	80051.63
634.854	80051.26
635.187	80051.78
635.519	80051.89
635.851	80052.34
636.183	80053.48
636.515	80055.18
636.847	80053.67
637.179	80053.34
637.511	80053.19
637.843	80053.19
638.174	80053.48
638.506	80053.04
638.838	80054.3
639.17	80053.23
639.501	80052.45
639.833	80051.97
640.164	80052.78
640.496	80052.82
640.827	80054.3
641.158	80054.74
641.49	80054.7
641.821	80056.74
642.152	80055.63
642.483	80057.04
642.814	80056.04
643.145	80054.19
643.476	80051.93
643.807	80051.89
644.138	80050.9
644.469	80051.64
644.8	80051.93
645.131	80052.26
645.461	80052.08
645.792	80050.6
646.122	80052.3
646.453	80052.85
646.784	80053.34
647.114	80053.15
647.444	80052.89
647.775	80053.11
648.105	80050.86
648.435	80051.08
648.765	80049.23
649.096	80049.27
649.426	80047.34
649.756	80046.79
650.086	80045.16
650.416	80047.75
650.746	80047.05
651.075	80048.9
651.405	80047.45
651.735	80047.71
652.065	80045.9
652.394	80045.24
652.724	80044.83
653.054	80043.72
653.383	80044.2
653.712	80042.8
654.042	80043.42
654.371	80043.54
654.701	80042.28
655.03	80043.28
655.359	80041.87
655.688	80040.65
656.017	80039.76
656.346	80039.99
656.675	80039.62
657.004	80039.73
657.333	80037.17
657.662	80038.73
657.991	80037.84
658.32	80037.17
658.648	80037.88
658.977	80038.76
659.306	80039.32
659.634	80037.88
659.963	80038.39
660.291	80038.28
660.619	80038.39
660.948	80035.84
661.276	80035.44
661.604	80035.66
661.933	80034.55
662.261	80035.44
662.589	80036.06
662.917	80036.54
663.245	80035.55
663.573	80035.18
663.901	80036.77
664.229	80037.03
664.556	80037.43
664.884	80036.17
665.212	80035.62
665.539	80033.36
665.867	80032.88
666.195	80031.55
666.522	80032.85
666.85	80033.22
667.177	80033.73
667.504	80033.66
667.832	80034.84
668.159	80033.4
668.486	80033.18
668.813	80033.73
669.14	80032.88
669.467	80034.55
669.794	80034.73
670.121	80035.51
670.448	80035.32
670.775	80034.33
671.102	80035.21
671.429	80033.88
671.755	80033.11
672.082	80033.51
672.409	80032.63
672.735	80032.92
673.062	80031.55
673.388	80031.3
673.714	80031.44
674.041	80028.45
674.367	80028.3
674.693	80027.3
675.019	80028.26
675.346	80028.08
675.672	80025.79
675.998	80025.38
676.324	80022.79
676.65	80020.24
676.976	80019.06
677.301	80018.84
677.627	80018.32
677.953	80017.21
678.279	80017.54
678.604	80018.24
678.93	80017.58
679.255	80018.21
679.581	80016.95
679.906	80017.8
680.232	80015.8
680.557	80013.77
680.882	80015.69
681.208	80016.06
681.533	80014.55
681.858	80014.81
682.183	80014.99
682.508	80015.1
682.833	80015.29
683.158	80015.25
683.483	80016.91
683.808	80017.25
684.132	80015.8
684.457	80016.17
684.782	80014.58
685.106	80013.92
685.431	80012.92
685.755	80014.21
686.08	80013.55
686.404	80013.25
686.729	80013.51
687.053	80013.55
687.377	80013.07
687.701	80010.81
688.026	80009.67
688.35	80010.33
688.674	80008.12
688.998	80006.16
689.322	80005.9
689.646	80006.27
689.97	80006.27
690.293	80005.9
690.617	80004.42
690.941	80004.57
691.264	80003.68
691.588	80003.42
691.912	80001.57
692.235	79999.69
692.559	79996.62
692.882	79996.18
693.205	79994.04
693.529	79991.26
693.852	79989.49
694.175	79985.17
694.498	79983.66
694.821	79980.26
695.144	79977.23
695.467	79972.61
695.79	79968.89
696.113	79964.38
696.436	79957.18
696.759	79950.17
697.082	79941.94
697.404	79935.04
697.727	79925.3
698.049	79916.15
698.372	79902.66
698.694	79884.94
699.017	79867.49
699.339	79846.41
699.662	79820.23
699.984	79781.29
700.306	79736.05
700.628	79665.42
700.95	79571.39
701.272	79453.2
701.594	79322.08
701.916	79192.86
702.238	79048.83
702.56	78854.75
702.882	78670.98
703.204	78502.57
703.525	78302.53
703.847	78058.26
704.169	77834.78
704.49	77594.37
704.812	77342.52
705.133	77094.28
705.455	76843.6
705.776	76572.87
706.097	76312.67
706.419	76041.1
706.74	75769.08
707.061	75476.95
707.382	75183.06
707.703	74895.68
708.024	74639.28
708.345	74367.84
708.666	74070.59
708.987	73772.12
709.307	73532.83
709.628	73232.8
709.949	72915.78
710.27	72611.69
710.59	72363.41
710.911	72071
711.231	71776.11
711.552	71507.35
711.872	71186.13
712.192	70907.09
712.512	70650.13
712.833	70378.66
713.153	70107.15
713.473	69862.48
713.793	69641.13
714.113	69425.58
714.433	69211.82
714.753	68997.6
715.073	68805.74
715.393	68607.41
715.712	68446.68
716.032	68218.59
716.352	68049.97
716.671	67894.63
716.991	67728.09
717.31	67525.06
717.63	67368.44
717.949	67188.77
718.268	66980.64
718.588	66797.87
718.907	66574.03
719.226	66318.54
719.545	66071.46
719.864	65799.78
720.183	65534.13
720.502	65244.6
720.821	64971.51
721.14	64692.26
721.459	64380.82
721.778	64099.54
722.096	63785.74
722.415	63482.57
722.734	63232.24
723.052	62954.99
723.371	62664.52
723.689	62390.34
724.008	62112.6
724.326	61812.14
724.644	61556.48
724.963	61281.68
725.281	61062.83
725.599	60839.39
725.917	60649.14
726.235	60457.41
726.553	60299.77
726.871	60114.18
727.189	59916.13
727.507	59717.81
727.824	59572.41
728.142	59442.16
728.46	59247.02
728.777	59141.97
729.095	59005.74
729.413	58855.39
729.73	58712.13
730.047	58573.09
730.365	58461.08
730.682	58353.5
730.999	58263.55
731.317	58179.7
731.634	58106.72
731.951	57990.27
732.268	57863.5
732.585	57714.93
732.902	57552.64
733.219	57392.04
733.536	57210.26
733.852	57088.91
734.169	56959.39
734.486	56804.66
734.802	56646.47
735.119	56531.84
735.435	56358.3
735.752	56199.5
736.068	56019.36
736.385	55847.55
736.701	55655.83
737.017	55419.61
737.333	55176.52
737.65	54872.53
737.966	54494.29
738.282	54102.64
738.598	53692.84
738.914	53237.07
739.23	52757.04
739.545	52244.68
739.861	51700.45
740.177	51159.56
740.493	50566.29
740.808	49986.11
741.124	49376.94
741.439	48794.12
741.755	48221.13
742.07	47700.87
742.386	47136.88
742.701	46641.56
743.016	46153.4
743.331	45679.79
743.647	45255.3
743.962	44867.34
744.277	44528.8
744.592	44260.44
744.907	44047.16
745.222	43885.19
745.537	43799.6
745.851	43761.09
746.166	43774.06
746.481	43822
746.795	43934.44
747.11	44082.76
747.424	44254.75
747.739	44424.21
748.053	44601.78
748.368	44756.44
748.682	44871.38
748.996	45010.56
749.311	45113.23
749.625	45210.43
749.939	45308.01
750.253	45371.62
750.567	45436.95
750.881	45491.86
751.195	45559.34
751.509	45617.43
751.822	45659.37
752.136	45699.53
752.45	45759.93
752.763	45823.22
753.077	45886.77
753.39	45913.92
753.704	45937.82
754.017	45960.8
754.331	45995.34
754.644	46003.57
754.957	46015.41
755.27	46021.17
755.584	46030.69
755.897	46040.06
756.21	46032.65
756.523	46010.83
756.836	45990.6
757.149	45911.83
757.461	45843.86
757.774	45753.81
758.087	45637.09
758.4	45498.1
758.712	45352.74
759.025	45191.48
759.337	45033.55
759.65	44873.44
759.962	44720.49
760.275	44565.36
760.587	44410.75
760.899	44268.53
761.211	44173.05
761.523	44100.28
761.836	44093.72
762.148	44101.37
762.46	44123.96
762.772	44185.48
763.083	44317.79
763.395	44462.99
763.707	44689.67
764.019	44913.21
764.33	45144.68
764.642	45407.02
764.954	45682.44
765.265	45960.47
765.577	46222.46
765.888	46473.02
766.199	46710.62
766.511	46933.86
766.822	47148.7
767.133	47334.5
767.444	47501.78
767.755	47593.65
768.066	47651.74
768.377	47649.83
768.688	47583.92
768.999	47503.12
769.31	47383.12
769.621	47199.94
769.931	46979.9
770.242	46717.42
770.553	46422.88
770.863	46087.53
771.174	45726.47
771.484	45342.24
771.794	44938.82
772.105	44536.11
772.415	44112.08
772.725	43670.36
773.035	43231.64
773.345	42779.39
773.656	42320.56
773.966	41851.48
774.276	41420.16
774.585	40990.04
774.895	40554.93
775.205	40175.59
775.515	39779.27
775.824	39387.2
776.134	38998.97
776.444	38630.44
776.753	38272.27
777.063	37928.05
777.372	37604.16
777.681	37280.71
777.991	36974.79
778.3	36669.22
778.609	36368.32
778.918	36078.29
779.228	35812.27
779.537	35552.15
779.846	35293.24
780.154	35039.05
780.463	34810.02
780.772	34566.47
781.081	34335.53
781.39	34138.04
781.698	33925.27
782.007	33717.17
782.316	33507.65
782.624	33298.87
782.932	33103.8
783.241	32914.12
783.549	32726.3
783.858	32559.2
784.166	32389.18
784.474	32213.95
784.782	32052.48
785.09	31900.59
785.398	31761.04
785.706	31623.72
786.014	31479.14
786.322	31344.94
786.63	31217.34
786.937	31087.9
787.245	30963.25
787.553	30839.53
787.86	30727.37
788.168	30602.72
788.475	30498.9
788.783	30405.83
789.09	30310.79
789.398	30212.38
789.705	30114.54
790.012	30015.98
790.319	29913.65
790.626	29812.95
790.933	29728.28
791.24	29643.84
791.547	29546
791.854	29449.69
792.161	29353.19
792.468	29257.58
792.774	29162.06
793.081	29074.43
793.388	28994.61
793.694	28903.42
794.001	28816.25
794.307	28692.51
794.614	28594.4
794.92	28463.84
795.226	28340.77
795.533	28226.2
795.839	28126.3
796.145	28007.74
796.451	27896.85
796.757	27791.45
797.063	27682.54
797.369	27569.65
797.675	27462.68
797.98	27364.52
798.286	27246.66
798.592	27144.24
798.898	27030.51
799.203	26915.37
799.509	26800.01
799.814	26672.52
800.12	26564.11
800.425	26457.04
800.73	26349.58
801.035	26229.22
801.341	26134.1
801.646	26037.25
801.951	25942.72
802.256	25842.6
802.561	25746.21
802.866	25651.08
803.171	25559.41
803.476	25471.24
803.78	25383.18
804.085	25285.76
804.39	25173.9
804.694	25076.4
804.999	24973.79
805.303	24883.84
805.608	24805.89
805.912	24722.83
806.216	24655.13
806.521	24586.62
806.825	24502.37
807.129	24430.18
807.433	24358.68
807.737	24290.71
808.041	24231.39
808.345	24169.08
808.649	24111.83
808.953	24061.99
809.257	24010.4
809.561	23949.49
809.864	23898.99
810.168	23859.3
810.471	23825.81
810.775	23799.12
811.078	23778.32
811.382	23755.43
811.685	23748.36
811.988	23734.8
812.292	23723.7
812.595	23717.6
812.898	23717.97
813.201	23734.11
813.504	23758.2
813.807	23790.44
814.11	23818.04
814.413	23841.92
814.716	23875.46
815.018	23922.21
815.321	23986.68
815.624	24064.9
815.926	24172.15
816.229	24296.53
816.531	24439.02
816.834	24602.06
817.136	24793.35
817.438	25009.18
817.74	25278.29
818.043	25585.65
818.345	25968.3
818.647	26424.16
818.949	26970.29
819.251	27599.68
819.553	28346.4
819.855	29210.58
820.156	30176.46
820.458	31256.57
820.76	32405.06
821.062	33607.82
821.363	34865.94
821.665	36199.02
821.966	37630.4
822.268	39069.27
822.569	40516.21
822.87	41995.51
823.171	43480.29
823.473	45013.57
823.774	46591.17
824.075	48111.57
824.376	49605.89
824.677	51068.02
824.978	52438.31
825.279	53720.21
825.58	54893.42
825.88	55922.49
826.181	56811.06
826.482	57591.55
826.782	58210.04
827.083	58725.79
827.383	59109.1
827.684	59325.35
827.984	59405.19
828.284	59312.83
828.585	59090.52
828.885	58784.51
829.185	58322.87
829.485	57768.65
829.785	57091.3
830.085	56256.2
830.385	55384.67
830.685	54453.31
830.985	53408.94
831.285	52342.65
831.584	51229.11
831.884	50082.03
832.183	48909.82
832.483	47692.74
832.782	46417.04
833.082	45147.1
833.381	43865.69
833.681	42630.62
833.98	41468.07
834.279	40334.47
834.578	39236.72
834.877	38202.08
835.176	37193.43
835.475	36265.6
835.774	35376.29
836.073	34512.83
836.372	33690.48
836.671	32887.79
836.969	32084.55
837.268	31337.92
837.567	30624.46
837.865	29937.1
838.164	29262.45
838.462	28620.42
838.761	28022.29
839.059	27450.02
839.357	26905.66
839.655	26385.5
839.953	25854.21
840.252	25332.07
840.55	24808.74
840.848	24301.77
841.146	23814.83
841.443	23328.58
841.741	22828.66
842.039	22330.8
842.337	21833.48
842.634	21379.16
842.932	20934.36
843.229	20517.64
843.527	20107.4
843.824	19674.79
844.122	19234.29
844.419	18816.52
844.716	18392.93
845.013	17978.33
845.311	17594.18
845.608	17218.49
845.905	16851.54
846.202	16493.63
846.499	16124.82
846.796	15763.24
847.092	15395.64
847.389	15033.45
847.686	14692.65
847.982	14376.1
848.279	14065.03
848.576	13779.14
848.872	13485.98
849.168	13201.02
849.465	12920.38
849.761	12628.49
850.057	12356.83
850.354	12095.12
850.65	11847.78
850.946	11616.72
851.242	11395.55
851.538	11176.68
851.834	10955.88
852.13	10743.05
852.425	10551.66
852.721	10377.04
853.017	10212.24
853.312	10065.23
853.608	9921.92
853.903	9783.32
854.199	9639.79
854.494	9512.19
854.79	9379
855.085	9248.15
855.38	9120.15
855.675	8991.08
855.971	8876.8
856.266	8777.53
856.561	8685.22
856.856	8588.69
857.151	8497.27
857.445	8399.67
857.74	8304.99
858.035	8221.02
858.33	8129.97
858.624	8044.83
858.919	7967.26
859.213	7882.96
859.508	7796.4
859.802	7708.79
860.096	7629.41
860.391	7567.01
860.685	7507.04
860.979	7451.22
861.273	7397.91
861.567	7341.61
861.861	7277.8
862.155	7223.91
862.449	7153.91
862.743	7089.12
863.037	7029.23
863.33	6977.52
863.624	6925.17
863.918	6877.07
864.211	6834.45
864.505	6799.26
864.798	6755.94
865.092	6707.15
865.385	6661.6
865.678	6614.9
865.971	6581.42
866.264	6549.87
866.558	6521.43
866.851	6492.56
867.144	6461.74
867.437	6432.61
867.729	6404.47
868.022	6381.46
868.315	6364.43
868.608	6355.08
868.9	6348.09
869.193	6333.06
869.485	6302.29
869.778	6278.51
870.07	6251.58
870.363	6231.5
870.655	6216.01
870.947	6209.33
871.239	6202.78
871.532	6205.98
871.824	6210.1
872.116	6206.94
872.408	6203.81
872.699	6189.02
872.991	6180.94
873.283	6174.36
873.575	6173.22
873.867	6180.47
874.158	6189.38
874.45	6186.48
874.741	6184.38
875.033	6181.01
875.324	6193.58
875.615	6215.72
875.907	6238.27
876.198	6255.54
876.489	6266.19
876.78	6270.91
877.071	6271.34
877.362	6276.25
877.653	6278.25
877.944	6286.99
878.235	6297.45
878.526	6303.21
878.816	6321.44
