Data from 24HourExp_27052025_FLMS018081_02-18-20-540.txt Node
Date: Wed May 28 02:18:20 BST 2025
User: adleo
Spectrometer: FLMS01808
Trigger mode: 0
Integration Time (sec): 4.000000E-1
Scans to average: 10
Electric dark correction enabled: true
Nonlinearity correction enabled: true
Boxcar width: 10
XAxis mode: Wavelengths
Number of Pixels in Spectrum: 2048
>>>>>Begin Spectral Data<<<<<
178.471	-127.62
178.857	-119.21
179.244	-113.18
179.631	-103.39
180.017	-95.85
180.404	-88.31
180.79	-76.4
181.176	-67.65
181.563	-59.63
181.949	-49.06
182.335	-39.26
182.722	-23.93
183.108	-5.06
183.494	21.38
183.88	75.99
184.266	128.79
184.653	185.36
185.039	239.96
185.425	295.47
185.811	348.65
186.197	401.67
186.582	453.03
186.968	503.23
187.354	555.7
187.74	604.53
188.126	654.7
188.511	704.15
188.897	751.55
189.283	799.4
189.668	846.54
190.054	890.07
190.439	936.25
190.825	979.39
191.21	1020.47
191.596	1052.98
191.981	1060.69
192.366	1065.64
192.752	1067.82
193.137	1071.46
193.522	1074.49
193.908	1075.93
194.293	1078.22
194.678	1080.61
195.063	1085.2
195.448	1085.61
195.833	1087.52
196.218	1087.35
196.603	1087.31
196.988	1086.63
197.373	1087.63
197.757	1087.63
198.142	1089.11
198.527	1086.43
198.912	1085.16
199.296	1083.44
199.681	1082.64
200.066	1081.26
200.45	1080.89
200.835	1080.27
201.219	1079.2
201.604	1077.25
201.988	1077.92
202.372	1078.22
202.757	1078.65
203.141	1079.28
203.525	1081.16
203.91	1080
204.294	1080.78
204.678	1082.69
205.062	1082.6
205.446	1082.46
205.83	1083.56
206.214	1082.58
206.598	1083.19
206.982	1085.34
207.366	1084.67
207.75	1085.83
208.134	1086.92
208.517	1088.62
208.901	1087.88
209.285	1088.21
209.669	1090.03
210.052	1090.7
210.436	1090.38
210.819	1091.37
211.203	1090.13
211.586	1089.34
211.97	1090.25
212.353	1091.3
212.737	1091.33
213.12	1092.36
213.503	1092.75
213.886	1093.46
214.27	1096.31
214.653	1098.88
215.036	1100.56
215.419	1103.71
215.802	1106.11
216.185	1107.52
216.568	1108.73
216.951	1111.71
217.334	1114.68
217.717	1118.39
218.1	1120.89
218.482	1125.53
218.865	1128.57
219.248	1133.12
219.631	1139.16
220.013	1143.86
220.396	1150.05
220.778	1153.34
221.161	1159.52
221.544	1165.93
221.926	1173.67
222.308	1180.54
222.691	1188.14
223.073	1196.88
223.455	1204.82
223.838	1214.54
224.22	1224.19
224.602	1234.95
224.984	1247
225.366	1259.05
225.749	1273.32
226.131	1285.9
226.513	1299.52
226.895	1313.87
227.276	1326.02
227.658	1340.11
228.04	1356.43
228.422	1370.53
228.804	1390.66
229.186	1406.36
229.567	1425.36
229.949	1442.75
230.331	1460.34
230.712	1477.47
231.094	1495.12
231.475	1514.86
231.857	1533.35
232.238	1555.25
232.62	1575.05
233.001	1594.13
233.382	1615.73
233.763	1633.94
234.145	1655.82
234.526	1677.06
234.907	1695.97
235.288	1715.92
235.669	1736.3
236.05	1756.06
236.431	1777.47
236.812	1797.97
237.193	1819.72
237.574	1839.46
237.955	1860.13
238.336	1881.9
238.717	1905.42
239.097	1927.35
239.478	1949.15
239.859	1972.36
240.239	1994.22
240.62	2018.25
241.001	2041.07
241.381	2064.55
241.762	2088.23
242.142	2109.9
242.522	2131.82
242.903	2157.36
243.283	2184.98
243.663	2210.42
244.044	2239.1
244.424	2268.57
244.804	2295.72
245.184	2325.95
245.564	2353.89
245.944	2383.58
246.324	2414.52
246.704	2443.64
247.084	2472.82
247.464	2505.46
247.844	2538.63
248.224	2568.18
248.604	2598.24
248.983	2629.72
249.363	2663.5
249.743	2694.78
250.122	2727.6
250.502	2760.14
250.882	2792.74
251.261	2824.09
251.641	2857.85
252.02	2891.07
252.399	2926.02
252.779	2960.64
253.158	2995
253.537	3035.6
253.917	3079.81
254.296	3117.43
254.675	3157.71
255.054	3199.87
255.433	3242.58
255.812	3280.72
256.191	3325.87
256.57	3367.6
256.949	3414.97
257.328	3455.91
257.707	3501.95
258.086	3548.61
258.465	3596.62
258.843	3649.37
259.222	3702.96
259.601	3756.9
259.979	3809.55
260.358	3863.38
260.736	3918.64
261.115	3976.63
261.493	4029.21
261.872	4079.57
262.25	4136.56
262.629	4192.45
263.007	4252.14
263.385	4311.64
263.763	4374.99
264.142	4436.44
264.52	4503.26
264.898	4565.01
265.276	4631.75
265.654	4700.36
266.032	4769.09
266.41	4840.55
266.788	4910.47
267.166	4986.89
267.544	5060.16
267.921	5139.49
268.299	5216.19
268.677	5295.48
269.055	5376.53
269.432	5462.88
269.81	5551.3
270.188	5638.71
270.565	5728.46
270.943	5817.67
271.32	5907.32
271.697	6001.3
272.075	6097.82
272.452	6194.57
272.829	6295.35
273.207	6397.63
273.584	6501.77
273.961	6607.68
274.338	6720.18
274.715	6835.87
275.092	6953.74
275.469	7074.77
275.846	7194.6
276.223	7319.61
276.6	7443.31
276.977	7570.11
277.354	7695.01
277.731	7819.03
278.108	7950.4
278.484	8083.01
278.861	8220.14
279.238	8362.22
279.614	8499.9
279.991	8639.66
280.367	8782.47
280.744	8930.77
281.12	9080.59
281.497	9229.06
281.873	9380.75
282.249	9529.4
282.625	9677.14
283.002	9822.02
283.378	9968.68
283.754	10119.11
284.13	10272.16
284.506	10431.7
284.882	10588.86
285.258	10743.78
285.634	10903.57
286.01	11065.07
286.386	11225.54
286.762	11387.89
287.138	11548.81
287.513	11716.02
287.889	11878.48
288.265	12037.71
288.641	12194.05
289.016	12353.95
289.392	12519.41
289.767	12682.14
290.143	12848.85
290.518	13007.99
290.894	13170.52
291.269	13330.21
291.644	13490.76
292.02	13641.96
292.395	13793.36
292.77	13946.04
293.145	14104.58
293.52	14261.43
293.895	14409.54
294.27	14566.64
294.646	14721.15
295.02	14865.68
295.395	15015.95
295.77	15174.05
296.145	15335.13
296.52	15497.98
296.895	15653.95
297.269	15804.82
297.644	15959.05
298.019	16112.04
298.393	16268.6
298.768	16418.57
299.143	16570.8
299.517	16722.89
299.891	16880.82
300.266	17043.04
300.64	17204.88
301.015	17363.24
301.389	17534.63
301.763	17712.65
302.137	17880.43
302.512	18054.05
302.886	18232.45
303.26	18409.83
303.634	18587.43
304.008	18762.55
304.382	18940.1
304.756	19124.02
305.13	19312.15
305.504	19491.85
305.877	19682.78
306.251	19889.53
306.625	20092.03
306.999	20307.38
307.372	20517.6
307.746	20732.64
308.119	20940.59
308.493	21153.14
308.866	21365.68
309.24	21573
309.613	21772.54
309.987	21980.74
310.36	22179.67
310.733	22388.6
311.107	22609.01
311.48	22821.26
311.853	23052.14
312.226	23278.3
312.599	23506.33
312.972	23732.79
313.345	23964.62
313.718	24188.38
314.091	24402.71
314.464	24631.03
314.837	24854.94
315.21	25068.77
315.582	25288.95
315.955	25503.23
316.328	25718.42
316.7	25935.3
317.073	26154.66
317.446	26381
317.818	26604.54
318.191	26834.95
318.563	27062.23
318.936	27273.36
319.308	27489.06
319.68	27684.26
320.053	27879.8
320.425	28067.33
320.797	28249.24
321.169	28412.91
321.541	28561.62
321.913	28697.95
322.285	28818.32
322.657	28946.43
323.029	29095.65
323.401	29242.76
323.773	29413.01
324.145	29590.61
324.517	29788.03
324.889	29967.38
325.26	30169.57
325.632	30391.61
326.004	30626.25
326.375	30883.86
326.747	31163.21
327.118	31460.88
327.49	31757.96
327.861	32071.53
328.233	32378.31
328.604	32687.29
328.975	33004.65
329.346	33316.13
329.718	33629.21
330.089	33940.23
330.46	34230.12
330.831	34502.28
331.202	34757.85
331.573	35000.16
331.944	35225.81
332.315	35448.26
332.686	35670.18
333.057	35871.63
333.428	36043.49
333.799	36216.27
334.169	36366.45
334.54	36500.47
334.911	36618.7
335.281	36748.38
335.652	36866.66
336.022	37003.21
336.393	37147.16
336.763	37313.08
337.134	37500.79
337.504	37695.91
337.874	37897.49
338.245	38106.14
338.615	38321.42
338.985	38554.39
339.355	38781.11
339.726	39003.21
340.096	39221.39
340.466	39471.02
340.836	39712.37
341.206	39960.87
341.576	40209.9
341.945	40458.54
342.315	40689.35
342.685	40938.73
343.055	41181.14
343.425	41424.77
343.794	41654.97
344.164	41883.79
344.533	42121.03
344.903	42353.61
345.273	42585.53
345.642	42815.76
346.011	43042.95
346.381	43283.75
346.75	43516.54
347.12	43754.79
347.489	44004.75
347.858	44248.95
348.227	44460.97
348.596	44683.6
348.965	44928.92
349.334	45151.52
349.704	45384.72
350.072	45631.21
350.441	45861.67
350.81	46103.63
351.179	46334.98
351.548	46573.69
351.917	46804.17
352.285	46991.92
352.654	47199.65
353.023	47413.61
353.391	47614.74
353.76	47828
354.129	48010.37
354.497	48241.47
354.865	48467.34
355.234	48699.59
355.602	48920
355.971	49163.91
356.339	49376.2
356.707	49587.3
357.075	49810.34
357.443	50031.49
357.811	50249.25
358.18	50458.9
358.548	50667.99
358.916	50878.91
359.284	51097.82
359.651	51318.98
360.019	51539.22
360.387	51740.09
360.755	51936.19
361.123	52157.95
361.49	52385.48
361.858	52602.77
362.226	52789.84
362.593	52991.33
362.961	53172.98
363.328	53371.1
363.696	53538.37
364.063	53759.23
364.43	53964.56
364.798	54175.38
365.165	54361.14
365.532	54538.78
365.899	54727.83
366.267	54896.72
366.634	55045.02
367.001	55206.59
367.368	55339.27
367.735	55521.18
368.102	55691.2
368.469	55882.58
368.835	56061.35
369.202	56220.18
369.569	56415.31
369.936	56613.05
370.303	56798.29
370.669	56999.07
371.036	57168.82
371.402	57380.12
371.769	57559.32
372.135	57710.55
372.502	57839.7
372.868	57982.17
373.235	58128.77
373.601	58255.72
373.967	58423.48
374.333	58610.94
374.7	58787.95
375.066	58992.16
375.432	59179.25
375.798	59361.83
376.164	59527.67
376.53	59673.34
376.896	59846.35
377.262	60015.82
377.628	60137.09
377.993	60278.85
378.359	60419.03
378.725	60571.43
379.091	60717.41
379.456	60849.89
379.822	60984.7
380.187	61129.17
380.553	61311.17
380.918	61507.66
381.284	61688.28
381.649	61862.59
382.015	61997.21
382.38	62120.52
382.745	62285.56
383.11	62437.23
383.476	62581.17
383.841	62714.99
384.206	62874.25
384.571	62985.2
384.936	63115.38
385.301	63292.8
385.666	63423.63
386.031	63572.78
386.396	63741.56
386.76	63889.16
387.125	64078.41
387.49	64278.31
387.855	64473.15
388.219	64645.89
388.584	64808.56
388.948	65007.52
389.313	65168.51
389.677	65381.22
390.042	65615.08
390.406	65769.91
390.771	65949.99
391.135	66136.14
391.499	66372.22
391.863	66603.56
392.227	66847.33
392.592	67056.24
392.956	67249.05
393.32	67453.97
393.684	67674.85
394.048	67839.84
394.412	68019.99
394.775	68171.5
395.139	68314.92
395.503	68473.14
395.867	68624.89
396.231	68771.53
396.594	68872.91
396.958	69013.7
397.321	69170.09
397.685	69297.08
398.048	69436.4
398.412	69575.33
398.775	69700.77
399.139	69819.06
399.502	69931.61
399.865	70070.28
400.228	70259.57
400.592	70392.6
400.955	70582.11
401.318	70712.56
401.681	70879.63
402.044	71016.86
402.407	71171.92
402.77	71328.19
403.133	71525.75
403.496	71671.21
403.859	71832.38
404.221	72073.44
404.584	72313.16
404.947	72549.78
405.309	72757.57
405.672	72998.17
406.034	73218.91
406.397	73475.14
406.759	73693
407.122	73873.24
407.484	74047.75
407.847	74230.27
408.209	74479
408.571	74711.47
408.933	74979.12
409.296	75235.18
409.658	75485.24
410.02	75759.34
410.382	76071.13
410.744	76320.76
411.106	76607.84
411.468	76879.06
411.83	77107.56
412.191	77300.92
412.553	77472.48
412.915	77678.68
413.277	77873.55
413.638	78066.94
414	78231.55
414.361	78402.7
414.723	78622.38
415.084	78829.31
415.446	78985.46
415.807	79111.88
416.169	79207.58
416.53	79280.76
416.891	79367.58
417.252	79473.51
417.614	79537.89
417.975	79570.89
418.336	79609.12
418.697	79646.65
419.058	79681.9
419.419	79709.73
419.78	79741.1
420.141	79763.43
420.501	79780.91
420.862	79795.98
421.223	79808.02
421.584	79835.12
421.944	79851.24
422.305	79857.84
422.666	79864.51
423.026	79868.83
423.387	79879.84
423.747	79887.87
424.107	79897.31
424.468	79906.75
424.828	79911.91
425.188	79914.54
425.549	79921.92
425.909	79926.46
426.269	79926.23
426.629	79929.41
426.989	79932.33
427.349	79936.24
427.709	79940.41
428.069	79943.81
428.429	79948.12
428.789	79953.04
429.149	79958.17
429.508	79962.05
429.868	79967.22
430.228	79970.17
430.587	79973.68
430.947	79977.26
431.306	79982.43
431.666	79986.24
432.025	79988.49
432.385	79991.78
432.744	79994.89
433.103	79995.07
433.463	79996.92
433.822	80003.01
434.181	80007.19
434.54	80010
434.899	80011.92
435.258	80013.47
435.618	80015.73
435.976	80018.13
436.335	80018.83
436.694	80020.68
437.053	80020.2
437.412	80020.64
437.771	80023.41
438.129	80024.56
438.488	80025.15
438.847	80024.97
439.205	80023.56
439.564	80025.19
439.922	80025.49
440.281	80026.48
440.639	80028.81
440.997	80028.74
441.356	80028.41
441.714	80027.33
442.072	80027.11
442.431	80026.82
442.789	80029.15
443.147	80029.4
443.505	80029.37
443.863	80031.25
444.221	80030.77
444.579	80031.25
444.937	80032.21
445.294	80031.81
445.652	80032.36
446.01	80034.58
446.368	80035.39
446.725	80036.28
447.083	80035.95
447.441	80037.87
447.798	80038.5
448.156	80038.61
448.513	80038.43
448.87	80039.17
449.228	80039.17
449.585	80039.17
449.942	80039.98
450.3	80039.42
450.657	80038.98
451.014	80040.65
451.371	80040.68
451.728	80040.76
452.085	80041.13
452.442	80041.35
452.799	80041.61
453.156	80041.46
453.513	80039.54
453.869	80038.94
454.226	80039.42
454.583	80039.39
454.939	80038.24
455.296	80036.76
455.653	80037.09
456.009	80037.83
456.366	80038.91
456.722	80040.05
457.078	80041.64
457.435	80041.01
457.791	80040.57
458.147	80041.2
458.503	80041.05
458.86	80041.01
459.216	80041.38
459.572	80041.53
459.928	80041.72
460.284	80041.9
460.64	80042.75
460.996	80044.53
461.351	80045.64
461.707	80047.6
462.063	80049.04
462.419	80049.52
462.774	80049.85
463.13	80050.33
463.486	80051.22
463.841	80051.11
464.197	80050.56
464.552	80051.44
464.908	80052.22
465.263	80052.74
465.618	80052.18
465.974	80053.07
466.329	80052.59
466.684	80053
467.039	80054.37
467.394	80055.33
467.749	80056.36
468.104	80057.29
468.459	80058.73
468.814	80059.88
469.169	80058.44
469.524	80058.95
469.879	80058.03
470.233	80059.32
470.588	80059.62
470.943	80059.47
471.297	80059.58
471.652	80060.1
472.006	80059.95
472.361	80062.39
472.715	80063.21
473.07	80064.87
473.424	80065.13
473.778	80066.57
474.133	80066.54
474.487	80066.54
474.841	80066.8
475.195	80067.42
475.549	80067.91
475.903	80066.65
476.257	80065.5
476.611	80066.5
476.965	80067.02
477.319	80069.2
477.673	80069.35
478.026	80069.42
478.38	80071.64
478.734	80070.94
479.087	80072.42
479.441	80073.38
479.795	80072.94
480.148	80074.23
480.502	80075.05
480.855	80075.97
481.208	80076.31
481.562	80077.08
481.915	80078.27
482.268	80078.6
482.621	80078.08
482.974	80076.9
483.328	80078.34
483.681	80079.19
484.034	80080.08
484.387	80080.67
484.739	80082.3
485.092	80084.3
485.445	80083.74
485.798	80083.45
486.151	80085.48
486.503	80086.33
486.856	80087.96
487.209	80088.93
487.561	80088.67
487.914	80088.41
488.266	80088.7
488.618	80089.04
488.971	80089.18
489.323	80089.44
489.675	80089.48
490.028	80091.03
490.38	80092.4
490.732	80091.74
491.084	80092.4
491.436	80092.66
491.788	80092.88
492.14	80092.11
492.492	80090.96
492.844	80092.07
493.196	80092.85
493.548	80093
493.899	80092.88
494.251	80090.37
494.603	80088.74
494.954	80087.44
495.306	80088.04
495.657	80088.29
496.009	80089.41
496.36	80089.48
496.712	80089.81
497.063	80091.7
497.414	80091.85
497.765	80091.63
498.117	80092.22
498.468	80093.81
498.819	80093.29
499.17	80092.63
499.521	80091.74
499.872	80092.07
500.223	80092.66
500.574	80092.37
500.924	80092.22
501.275	80093
501.626	80094.51
501.977	80096.03
502.327	80096.18
502.678	80095.73
503.029	80095.22
503.379	80093.77
503.73	80093.66
504.08	80092.33
504.43	80089.59
504.781	80088.52
505.131	80089.48
505.481	80089.74
505.831	80088.07
506.182	80088.18
506.532	80087.74
506.882	80088.85
507.232	80087.26
507.582	80087.3
507.932	80087.15
508.281	80087
508.631	80085.93
508.981	80085.15
509.331	80084.82
509.681	80085.59
510.03	80084.52
510.38	80085.15
510.729	80086.3
511.079	80087.07
511.428	80087.56
511.778	80088.81
512.127	80088.63
512.476	80087
512.826	80085.37
513.175	80086.74
513.524	80087.48
513.873	80087.89
514.222	80087.04
514.571	80088.55
514.92	80086.78
515.269	80086.44
515.618	80086
515.967	80086.33
516.316	80086.7
516.665	80085.11
517.014	80085.15
517.362	80086.7
517.711	80086.11
518.059	80085.96
518.408	80084.63
518.757	80085
519.105	80084.78
519.453	80085.41
519.802	80086.15
520.15	80087.44
520.498	80086.78
520.847	80084.93
521.195	80085
521.543	80083.71
521.891	80084.15
522.239	80084.63
522.587	80084.96
522.935	80086.74
523.283	80086.56
523.631	80086.3
523.979	80086.85
524.326	80087.92
524.674	80087.33
525.022	80087.26
525.369	80086.7
525.717	80087.63
526.064	80086.67
526.412	80086.74
526.759	80087.11
527.107	80086.56
527.454	80086.11
527.801	80086.15
528.149	80087
528.496	80088.04
528.843	80088.74
529.19	80089.29
529.537	80091.29
529.884	80091.4
530.231	80090.74
530.578	80091.77
530.925	80092.88
531.272	80094.29
531.619	80094.11
531.966	80093.96
532.312	80092.96
532.659	80093.37
533.006	80092.48
533.352	80092
533.699	80092.44
534.045	80092.26
534.392	80091.11
534.738	80091.81
535.084	80092.26
535.431	80092.74
535.777	80091.4
536.123	80091.63
536.469	80089.78
536.815	80088.67
537.161	80087.93
537.507	80088.52
537.853	80087.3
538.199	80085.45
538.545	80083.63
538.891	80083.56
539.237	80084.34
539.582	80085.15
539.928	80085.48
540.274	80086.89
540.619	80088.81
540.965	80088.96
541.31	80088.48
541.656	80090.07
542.001	80088.44
542.347	80087.81
542.692	80088.15
543.037	80087.48
543.382	80088.33
543.728	80089.81
544.073	80089.41
544.418	80090.74
544.763	80089.63
545.108	80090.37
545.453	80090.48
545.798	80091.07
546.142	80091.11
546.487	80090.33
546.832	80091.55
547.177	80091.29
547.521	80090.37
547.866	80089.66
548.211	80088.11
548.555	80087.26
548.9	80085.82
549.244	80086.07
549.588	80085.85
549.933	80086.22
550.277	80088.15
550.621	80087.63
550.965	80086.07
551.31	80086.33
551.654	80084.89
551.998	80084.85
552.342	80084.19
552.686	80084.22
553.03	80084.48
553.373	80084.04
553.717	80084.37
554.061	80083.19
554.405	80082.93
554.748	80082.26
555.092	80082.41
555.436	80084.11
555.779	80086.3
556.123	80088
556.466	80088.52
556.81	80088.11
557.153	80088.37
557.496	80088.26
557.839	80088
558.183	80088.74
558.526	80089.11
558.869	80090.03
559.212	80090.81
559.555	80091.88
559.898	80092.96
560.241	80092.88
560.584	80094.44
560.927	80093.92
561.269	80094.51
561.612	80094.7
561.955	80095.7
562.297	80094.92
562.64	80094.03
562.983	80093.55
563.325	80092.03
563.668	80092.7
564.01	80092.63
564.352	80090.78
564.695	80088.3
565.037	80088.26
565.379	80088.48
565.721	80086.52
566.063	80085.37
566.406	80085.74
566.748	80085.71
567.09	80084.63
567.431	80084.78
567.773	80082.52
568.115	80082.26
568.457	80081.49
568.799	80082.08
569.14	80082.56
569.482	80083.11
569.824	80082.41
570.165	80080.6
570.507	80081.19
570.848	80082.08
571.19	80082.67
571.531	80083.37
571.872	80084.08
572.214	80085.74
572.555	80085.71
572.896	80087.26
573.237	80087.41
573.578	80084.15
573.919	80081.49
574.26	80080.15
574.601	80079.78
574.942	80078.6
575.283	80079.42
575.624	80077.49
575.964	80076.34
576.305	80075.71
576.646	80075.34
576.986	80074.9
577.327	80075.09
577.667	80075.97
578.008	80074.46
578.348	80074.57
578.689	80074.83
579.029	80073.9
579.369	80072.38
579.71	80070.79
580.05	80069.02
580.39	80068.91
580.73	80070.87
581.07	80071.79
581.41	80072.38
581.75	80071.72
582.09	80072.01
582.43	80071.05
582.769	80072.75
583.109	80074.16
583.449	80073.01
583.789	80072.31
584.128	80073.57
584.468	80073.31
584.807	80072.49
585.147	80071.98
585.486	80070.83
585.825	80070.61
586.165	80070.64
586.504	80070.2
586.843	80071.53
587.182	80072.79
587.522	80073.34
587.861	80073.12
588.2	80073.2
588.539	80073.01
588.878	80072.9
589.216	80073.31
589.555	80072.9
589.894	80072.9
590.233	80069.64
590.572	80069.27
590.91	80070.35
591.249	80070.83
591.587	80072.23
591.926	80072.38
592.264	80071.61
592.603	80072.35
592.941	80069.46
593.279	80069.16
593.618	80068.98
593.956	80068.05
594.294	80066.35
594.632	80065.43
594.97	80065.09
595.308	80065.46
595.646	80066.95
595.984	80065.98
596.322	80065.35
596.66	80064.8
596.998	80063.69
597.335	80065.5
597.673	80066.87
598.011	80067.43
598.348	80066.87
598.686	80066.98
599.023	80066.61
599.361	80066.21
599.698	80065.24
600.035	80067.76
600.373	80066.95
600.71	80065.87
601.047	80064.87
601.384	80065.72
601.722	80066.54
602.059	80065.65
602.396	80064.69
602.733	80064.32
603.069	80065.1
603.406	80064.84
603.743	80064.8
604.08	80064.54
604.417	80064.76
604.753	80063.21
605.09	80061.58
605.426	80060.8
605.763	80059.25
606.099	80058.88
606.436	80059.43
606.772	80059.21
607.109	80059.1
607.445	80060.95
607.781	80061.95
608.117	80063.39
608.453	80063.65
608.79	80061.99
609.126	80062.32
609.462	80060.95
609.798	80060.62
610.133	80060.1
610.469	80061.25
610.805	80061.58
611.141	80063.17
611.477	80060.21
611.812	80059.14
612.148	80058.21
612.483	80056.48
612.819	80056.96
613.154	80056.36
613.49	80056.14
613.825	80056.59
614.16	80054.81
614.496	80053.22
614.831	80051.78
615.166	80050.48
615.501	80049.89
615.836	80050.45
616.171	80050.22
616.506	80052.22
616.841	80051.93
617.176	80052.59
617.511	80051.96
617.846	80051.89
618.18	80052.11
618.515	80052.81
618.85	80053.66
619.184	80052.85
619.519	80053.29
619.853	80051.41
620.188	80051.56
620.522	80051.07
620.856	80049.26
621.191	80048.86
621.525	80050.41
621.859	80050.89
622.193	80050.41
622.527	80051.63
622.861	80049.23
623.195	80047.82
623.529	80046.67
623.863	80046.3
624.197	80047.01
624.531	80045.82
624.865	80045.05
625.198	80043.86
625.532	80043.86
625.866	80043.57
626.199	80044.49
626.533	80046.05
626.866	80047.27
627.2	80045.12
627.533	80045.49
627.866	80047.67
628.2	80049.45
628.533	80047.34
628.866	80047.08
629.199	80047.3
629.532	80044.64
629.865	80046.67
630.198	80049.34
630.531	80048.26
630.864	80047.01
631.197	80044.16
631.529	80044.94
631.862	80044.97
632.195	80042.5
632.527	80042.9
632.86	80041.5
633.193	80039.76
633.525	80037.87
633.857	80037.28
634.19	80039.76
634.522	80039.87
634.854	80037.06
635.187	80035.8
635.519	80036.76
635.851	80037.54
636.183	80038.5
636.515	80039.61
636.847	80039.57
637.179	80036.98
637.511	80036.76
637.843	80037.17
638.174	80039.13
638.506	80038.28
638.838	80037.17
639.17	80037.8
639.501	80038.32
639.833	80040.09
640.164	80041.61
640.496	80042.57
640.827	80042.94
641.158	80043.53
641.49	80042.27
641.821	80043.16
642.152	80043.23
642.483	80043.2
642.814	80040.79
643.145	80039.13
643.476	80038.76
643.807	80038.17
644.138	80037.8
644.469	80038.76
644.8	80037.8
645.131	80037.13
645.461	80037.39
645.792	80039.72
646.122	80039.31
646.453	80037.54
646.784	80037.28
647.114	80035.51
647.444	80034.32
647.775	80033.36
648.105	80031.81
648.435	80031.7
648.765	80031.62
649.096	80032.14
649.426	80031.47
649.756	80031.22
650.086	80031.47
650.416	80031.59
650.746	80033.32
651.075	80033.58
651.405	80032.73
651.735	80033.25
652.065	80033.99
652.394	80033.92
652.724	80033.29
653.054	80033.62
653.383	80034.54
653.712	80034.28
654.042	80034.88
654.371	80034.99
654.701	80035.73
655.03	80034.73
655.359	80035.91
655.688	80035.87
656.017	80034.77
656.346	80035.28
656.675	80035.69
657.004	80034.77
657.333	80035.02
657.662	80032.84
657.991	80032.69
658.32	80031.22
658.648	80030.92
658.977	80029.26
659.306	80028.55
659.634	80027.78
659.963	80027.74
660.291	80027.33
660.619	80026.33
660.948	80026.56
661.276	80027.04
661.604	80025.71
661.933	80026.63
662.261	80025.19
662.589	80024.19
662.917	80023.41
663.245	80022.12
663.573	80021.38
663.901	80023.53
664.229	80022.08
664.556	80022.56
664.884	80021.9
665.212	80022.45
665.539	80022.42
665.867	80021.71
666.195	80022.19
666.522	80021.05
666.85	80021.01
667.177	80020.79
667.504	80021.38
667.832	80020.05
668.159	80018.53
668.486	80017.28
668.813	80015.69
669.14	80015.43
669.467	80015.87
669.794	80015.47
670.121	80014.95
670.448	80016.58
670.775	80014.99
671.102	80015.69
671.429	80015.61
671.755	80015.43
672.082	80015.43
672.409	80013.8
672.735	80015.36
673.062	80015.98
673.388	80015.61
673.714	80014.8
674.041	80014.51
674.367	80013.88
674.693	80016.06
675.019	80017.94
675.346	80019.76
675.672	80020.35
675.998	80021.57
676.324	80021.57
676.65	80021.49
676.976	80022.23
677.301	80021.31
677.627	80022.05
677.953	80019.9
678.279	80019.05
678.604	80019.94
678.93	80020.24
679.255	80020.2
679.581	80017.24
679.906	80015.87
680.232	80015.25
680.557	80015.32
680.882	80014.43
681.208	80013.88
681.533	80011.11
681.858	80007.96
682.183	80006.67
682.508	80007.11
682.833	80005.23
683.158	80004.42
683.483	80004.67
683.808	80004.45
684.132	80003.23
684.457	80001.35
684.782	80002.97
685.106	80002.09
685.431	80000.46
685.755	79999.79
686.08	79999.94
686.404	80001.72
686.729	80000.24
687.053	80000.28
687.377	79998.95
687.701	79998.87
688.026	79996.91
688.35	79997.06
688.674	79998.06
688.998	79997.13
689.322	79996.84
689.646	79996.95
689.97	79996.8
690.293	79995.07
690.617	79993.99
690.941	79993.88
691.264	79993.11
691.588	79991.92
691.912	79989.71
692.235	79989.08
692.559	79986.09
692.882	79984.46
693.205	79981.65
693.529	79979.66
693.852	79977.67
694.175	79974.82
694.498	79971.79
694.821	79970.1
695.144	79967.44
695.467	79962.93
695.79	79959.79
696.113	79954.55
696.436	79949.6
696.759	79942.52
697.082	79937.98
697.404	79931.44
697.727	79923.18
698.049	79914.66
698.372	79901.46
698.694	79887.5
699.017	79872.43
699.339	79856.31
699.662	79835.3
699.984	79801.32
700.306	79762.21
700.628	79705.18
700.95	79626.78
701.272	79526.12
701.594	79412.55
701.916	79302.66
702.238	79181.56
702.56	79001.87
702.882	78830.71
703.204	78669.89
703.525	78486.96
703.847	78265.76
704.169	78055.64
704.49	77829.59
704.812	77591.62
705.133	77352.8
705.455	77121.37
705.776	76868.29
706.097	76625.48
706.419	76372
706.74	76108.76
707.061	75827.68
707.382	75527.34
707.703	75236.96
708.024	74964.71
708.345	74694.29
708.666	74395.38
708.987	74081.28
709.307	73836.85
709.628	73544.16
709.949	73227.6
710.27	72916.03
710.59	72646.62
710.911	72343.14
711.231	72045.25
711.552	71780.55
711.872	71462.5
712.192	71179.25
712.512	70912.89
712.833	70632.86
713.153	70347.49
713.473	70112.05
713.793	69887.31
714.113	69673.45
714.433	69463.36
714.753	69255.7
715.073	69051.33
715.393	68851.49
715.712	68688.27
716.032	68464.19
716.352	68292.49
716.671	68136.03
716.991	67968.42
717.31	67779.2
717.63	67627.41
717.949	67446.59
718.268	67229.61
718.588	67051.78
718.907	66822.88
719.226	66561.86
719.545	66321.27
719.864	66055.43
720.183	65773.71
720.502	65484.94
720.821	65212.53
721.14	64932.38
721.459	64626.77
721.778	64354.06
722.096	64037.95
722.415	63730.17
722.734	63468.12
723.052	63179.02
723.371	62886.94
723.689	62613.43
724.008	62332.92
724.326	62034.29
724.644	61766.9
724.963	61494.33
725.281	61267.29
725.599	61040.59
725.917	60850.18
726.235	60647.92
726.553	60484.65
726.871	60293.75
727.189	60086.73
727.507	59888.56
727.824	59733.93
728.142	59597.01
728.46	59395.47
728.777	59288.22
729.095	59151.08
729.413	59005.14
729.73	58858.56
730.047	58725.72
730.365	58612.29
730.682	58498.53
730.999	58413.04
731.317	58334.78
731.634	58257.97
731.951	58140.89
732.268	58016.62
732.585	57871.21
732.902	57711.52
733.219	57555.17
733.536	57379.21
733.852	57268.12
734.169	57135.31
734.486	56984.42
734.802	56825.4
735.119	56710.41
735.435	56536.82
735.752	56381.13
736.068	56207.49
736.385	56049
736.701	55855.35
737.017	55621.78
737.333	55385.62
737.65	55075.95
737.966	54706
738.282	54319.98
738.598	53906.36
738.914	53454.47
739.23	52968.56
739.545	52447.14
739.861	51897.3
740.177	51352.58
740.493	50748.09
740.808	50169.82
741.124	49561.13
741.439	48980.13
741.755	48407.74
742.07	47882.09
742.386	47326.92
742.701	46829.68
743.016	46326.58
743.331	45851.1
743.647	45420.31
743.962	45027.72
744.277	44683.95
744.592	44403.81
744.907	44182.83
745.222	44019.1
745.537	43925.77
745.851	43894.6
746.166	43915.55
746.481	43975.34
746.795	44092.69
747.11	44251.92
747.424	44428.16
747.739	44593.8
748.053	44771.92
748.368	44926.88
748.682	45043.05
748.996	45176.75
749.311	45270.35
749.625	45374.25
749.939	45476.41
750.253	45542.91
750.567	45607.14
750.881	45672.33
751.195	45742.23
751.509	45808.7
751.822	45860
752.136	45901.84
752.45	45958.41
752.763	46019.96
753.077	46071.45
753.39	46101.15
753.704	46122.39
754.017	46140.99
754.331	46172.54
754.644	46175.86
754.957	46183.73
755.27	46189.63
755.584	46207.51
755.897	46213.25
756.21	46205.16
756.523	46182.27
756.836	46159.15
757.149	46083.73
757.461	46011.7
757.774	45928.24
758.087	45807.79
758.4	45668.75
758.712	45516.35
759.025	45350.79
759.337	45196.44
759.65	45037.58
759.962	44885.81
760.275	44724.32
760.587	44576.03
760.899	44442.27
761.211	44352.34
761.523	44277.29
761.836	44277.39
762.148	44279.66
762.46	44316.28
762.772	44378.1
763.083	44514.53
763.395	44665.64
763.707	44883.03
764.019	45110.51
764.33	45340.84
764.642	45600.16
764.954	45869.22
765.265	46151.17
765.577	46421.77
765.888	46669.32
766.199	46905.79
766.511	47112.99
766.822	47337.09
767.133	47518.31
767.444	47683.32
767.755	47776.13
768.066	47837.03
768.377	47828.67
768.688	47756.41
768.999	47665.69
769.31	47539.47
769.621	47342.27
769.931	47119.84
770.242	46865.05
770.553	46569.57
770.863	46229.39
771.174	45866.77
771.484	45482.89
771.794	45075.81
772.105	44664.6
772.415	44233
772.725	43791.91
773.035	43361.48
773.345	42907.94
773.656	42437.48
773.966	41966.08
774.276	41529.2
774.585	41099.06
774.895	40666.47
775.205	40291.65
775.515	39902.86
775.824	39518.05
776.134	39137.68
776.444	38776.44
776.753	38409.76
777.063	38065.55
777.372	37745.37
777.681	37419.05
777.991	37115.13
778.3	36823.48
778.609	36524.22
778.918	36243.64
779.228	35983.85
779.537	35724.65
779.846	35459.59
780.154	35216.79
780.463	34980.61
780.772	34735.05
781.081	34509.82
781.39	34302.06
781.698	34084.34
782.007	33877.25
782.316	33667.58
782.624	33450.05
782.932	33246.25
783.241	33053.96
783.549	32862.32
783.858	32693.03
784.166	32532.86
784.474	32363.45
784.782	32186.85
785.09	32034.9
785.398	31889.87
785.706	31743.36
786.014	31602.91
786.322	31465.53
786.63	31330.64
786.937	31209.65
787.245	31093.25
787.553	30969.24
787.86	30864.09
788.168	30742.14
788.475	30633.68
788.783	30542.49
789.09	30449.76
789.398	30353.3
789.705	30261.33
790.012	30159.61
790.319	30055.51
790.626	29948.93
790.933	29849.12
791.24	29769.09
791.547	29674.59
791.854	29577.23
792.161	29480.99
792.468	29377.38
792.774	29285.03
793.081	29200.54
793.388	29116.12
793.694	29013.6
794.001	28924.86
794.307	28798.15
794.614	28691.44
794.92	28561.46
795.226	28428.05
795.533	28318.39
795.839	28220.11
796.145	28102.47
796.451	27990.87
796.757	27885.39
797.063	27773.76
797.369	27668.51
797.675	27557.82
797.98	27456.79
798.286	27336.93
798.592	27229.63
798.898	27120.06
799.203	26996.16
799.509	26875.43
799.814	26748.68
800.12	26650.03
800.425	26526.99
800.73	26420.27
801.035	26308.39
801.341	26207.71
801.646	26112.48
801.951	26013.31
802.256	25906.68
802.561	25809.65
802.866	25719.36
803.171	25630.32
803.476	25543.84
803.78	25451.75
804.085	25360.68
804.39	25246.17
804.694	25151.86
804.999	25052.7
805.303	24959.74
805.608	24887.31
805.912	24803.37
806.216	24732.88
806.521	24664.14
806.825	24592.71
807.129	24521.06
807.433	24447.93
807.737	24382.67
808.041	24323.95
808.345	24263.59
808.649	24210.63
808.953	24158.98
809.257	24103.32
809.561	24041.46
809.864	23992.2
810.168	23958.64
810.471	23923.86
810.775	23902.1
811.078	23881.67
811.382	23858.67
811.685	23849.26
811.988	23836.55
812.292	23829.53
812.595	23829.54
812.898	23824.66
813.201	23841.14
813.504	23865.01
813.807	23898.79
814.11	23927.22
814.413	23954.75
814.716	23985.6
815.018	24028.22
815.321	24088.57
815.624	24165.29
815.926	24263.86
816.229	24389.78
816.531	24524.48
816.834	24680.84
817.136	24872.01
817.438	25081.86
817.74	25353.58
818.043	25665.73
818.345	26047.62
818.647	26512.07
818.949	27055.94
819.251	27688.29
819.553	28434.07
819.855	29300.25
820.156	30264.23
820.458	31351.54
820.76	32505.65
821.062	33714.85
821.363	34983.65
821.665	36326.02
821.966	37757.8
822.268	39211.52
822.569	40655.1
822.87	42143.15
823.171	43636.08
823.473	45170.25
823.774	46752.35
824.075	48271.75
824.376	49774.01
824.677	51240.62
824.978	52610.21
825.279	53898.82
825.58	55073.22
825.88	56107.89
826.181	56990.73
826.482	57772.68
826.782	58390.53
827.083	58897.42
827.383	59282.91
827.684	59498.81
827.984	59574.19
828.284	59490.24
828.585	59259.95
828.885	58960.3
829.185	58493.48
829.485	57937.13
829.785	57263.79
830.085	56425.44
830.385	55554.2
830.685	54611.5
830.985	53564.61
831.285	52496
831.584	51371.34
831.884	50223.84
832.183	49048.46
832.483	47836.68
832.782	46566.7
833.082	45286.71
833.381	44016.85
833.681	42774.74
833.98	41605.51
834.279	40468.91
834.578	39356.46
834.877	38324.8
835.176	37310.56
835.475	36379.09
835.774	35489.91
836.073	34620.03
836.372	33810.02
836.671	33010.47
836.969	32213.93
837.268	31472.68
837.567	30755.25
837.865	30078.4
838.164	29398.94
838.462	28753.97
838.761	28147.65
839.059	27572.76
839.357	27029.8
839.655	26497.37
839.953	25965.64
840.252	25442.81
840.55	24916.08
840.848	24411.3
841.146	23924.41
841.443	23436.1
841.741	22940.27
842.039	22436.56
842.337	21934.28
842.634	21469.36
842.932	21024.47
843.229	20600.38
843.527	20182.89
843.824	19743.13
844.122	19291.63
844.419	18871.36
844.716	18446.2
845.013	18033.07
845.311	17641.08
845.608	17270.28
845.905	16905.45
846.202	16543.19
846.499	16173.77
846.796	15817.81
847.092	15452.16
847.389	15082.67
847.686	14743.91
847.982	14428.55
848.279	14123.68
848.576	13840.84
848.872	13548.7
849.168	13256.24
849.465	12974.84
849.761	12684.72
850.057	12416.62
850.354	12156.69
850.65	11909.38
850.946	11678.64
851.242	11459.3
851.538	11242.93
851.834	11020.18
852.13	10806.95
852.425	10617.69
852.721	10440.02
853.017	10273.2
853.312	10121.46
853.608	9976.92
853.903	9835.84
854.199	9687.09
854.494	9559.01
854.79	9424.48
855.085	9292.5
855.38	9165.51
855.675	9037.94
855.971	8920.79
856.266	8817.78
856.561	8721.83
856.856	8628.17
857.151	8536.23
857.445	8437.66
857.74	8339.09
858.035	8249.83
858.33	8158.22
858.624	8070.58
858.919	7991.36
859.213	7905.8
859.508	7827.88
859.802	7743.9
860.096	7661.35
860.391	7600.19
860.685	7535.11
860.979	7476.19
861.273	7424.31
861.567	7368.57
861.861	7305.98
862.155	7251.51
862.449	7185.45
862.743	7122.28
863.037	7063.37
863.33	7006.94
863.624	6956.44
863.918	6912.5
864.211	6871.36
864.505	6839.11
864.798	6797.68
865.092	6750.9
865.385	6704.34
865.678	6650
865.971	6613.45
866.264	6582.49
866.558	6554.87
866.851	6520.99
867.144	6490.14
867.437	6458.76
867.729	6427.64
868.022	6407.89
868.315	6386.17
868.608	6375.23
868.9	6368.01
869.193	6350.44
869.485	6323.72
869.778	6300
870.07	6270.18
870.363	6249.36
870.655	6230.85
870.947	6223.13
871.239	6217.21
871.532	6218.83
871.824	6224.63
872.116	6223.87
872.408	6219.45
872.699	6203.24
872.991	6197.91
873.283	6196.01
873.575	6194.17
873.867	6203.44
874.158	6208.43
874.45	6208.53
874.741	6206.98
875.033	6201.5
875.324	6214.35
875.615	6235.58
875.907	6256.88
876.198	6275.15
876.489	6285.56
876.78	6288.79
877.071	6289.41
877.362	6291.81
877.653	6296.22
877.944	6306.21
878.235	6314.59
878.526	6322.93
878.816	6339.25
