Data from 24HourExp_27052025_FLMS018081_17-28-19-541.txt Node
Date: Tue May 27 17:28:19 BST 2025
User: adleo
Spectrometer: FLMS01808
Trigger mode: 0
Integration Time (sec): 4.000000E-1
Scans to average: 10
Electric dark correction enabled: true
Nonlinearity correction enabled: true
Boxcar width: 10
XAxis mode: Wavelengths
Number of Pixels in Spectrum: 2048
>>>>>Begin Spectral Data<<<<<
178.471	-124.09
178.857	-118.15
179.244	-112.77
179.631	-104.65
180.017	-98.45
180.404	-90.59
180.79	-79.45
181.176	-70.46
181.563	-60.46
181.949	-49.57
182.335	-39.11
182.722	-25.12
183.108	-5.97
183.494	19.59
183.88	72.82
184.266	127.31
184.653	182.98
185.039	236.95
185.425	292.65
185.811	345.39
186.197	398.59
186.582	449.4
186.968	501.64
187.354	555.51
187.74	606.91
188.126	659.5
188.511	709.56
188.897	757.34
189.283	805.03
189.668	850.61
190.054	893.67
190.439	938.37
190.825	983.46
191.21	1024.28
191.596	1058.25
191.981	1067.02
192.366	1071.78
192.752	1074.96
193.137	1079.08
193.522	1079.33
193.908	1080.4
194.293	1083.65
194.678	1086.2
195.063	1089.32
195.448	1089.75
195.833	1089.13
196.218	1087.63
196.603	1089.01
196.988	1089.07
197.373	1090.53
197.757	1090.79
198.142	1092.29
198.527	1091.05
198.912	1090.67
199.296	1090.06
199.681	1088.13
200.066	1085.75
200.45	1086.92
200.835	1086.02
201.219	1084.45
201.604	1085.61
201.988	1087.28
202.372	1087.45
202.757	1087.06
203.141	1086.18
203.525	1086.77
203.91	1088.66
204.294	1091.05
204.678	1089.41
205.062	1087.48
205.446	1087.91
205.83	1090.01
206.214	1089.83
206.598	1090.96
206.982	1092.87
207.366	1092.33
207.75	1094.08
208.134	1096.3
208.517	1096.04
208.901	1096.41
209.285	1097.34
209.669	1099.15
210.052	1099.39
210.436	1098.07
210.819	1098.71
211.203	1099.95
211.586	1099.93
211.97	1099.98
212.353	1099.82
212.737	1101.07
213.12	1105.35
213.503	1105.74
213.886	1104.47
214.27	1106.25
214.653	1106.4
215.036	1107.65
215.419	1110.15
215.802	1112.56
216.185	1114.63
216.568	1116.99
216.951	1121.15
217.334	1123.39
217.717	1126.53
218.1	1128.34
218.482	1133.15
218.865	1137.16
219.248	1142.01
219.631	1147.55
220.013	1152.99
220.396	1160.27
220.778	1166.97
221.161	1171.47
221.544	1176.31
221.926	1185.65
222.308	1192.42
222.691	1201.31
223.073	1207.86
223.455	1216.39
223.838	1224.75
224.22	1234
224.602	1245.72
224.984	1257.32
225.366	1269.43
225.749	1285.26
226.131	1299.11
226.513	1311.26
226.895	1326.96
227.276	1339.35
227.658	1353.77
228.04	1368.25
228.422	1383.84
228.804	1398.87
229.186	1415.93
229.567	1433.53
229.949	1448.53
230.331	1467.84
230.712	1485.57
231.094	1504.74
231.475	1523.72
231.857	1542.88
232.238	1562.36
232.62	1580.7
233.001	1599.56
233.382	1620.56
233.763	1636.61
234.145	1656.79
234.526	1677.7
234.907	1696.35
235.288	1718.32
235.669	1738.39
236.05	1760.23
236.431	1779.2
236.812	1802.06
237.193	1823.86
237.574	1846.74
237.955	1869.18
238.336	1891.04
238.717	1912.97
239.097	1936.08
239.478	1958.71
239.859	1981.35
240.239	2006.15
240.62	2031.16
241.001	2054.6
241.381	2078.58
241.762	2103.14
242.142	2128.66
242.522	2155.26
242.903	2181.71
243.283	2206.46
243.663	2232.01
244.044	2258.87
244.424	2287.77
244.804	2314.66
245.184	2343.7
245.564	2371.03
245.944	2403.52
246.324	2433.39
246.704	2462.88
247.084	2492.5
247.464	2524.11
247.844	2557.47
248.224	2588.8
248.604	2620.14
248.983	2652.37
249.363	2684.71
249.743	2716.02
250.122	2746.83
250.502	2777.61
250.882	2809.59
251.261	2841.85
251.641	2875.8
252.02	2908.69
252.399	2942.58
252.779	2980.38
253.158	3016.77
253.537	3057.96
253.917	3100.21
254.296	3138.7
254.675	3182.43
255.054	3225.59
255.433	3266.98
255.812	3306.5
256.191	3348.26
256.57	3390.9
256.949	3433.96
257.328	3480.69
257.707	3526.32
258.086	3574.92
258.465	3625.17
258.843	3677.59
259.222	3731.78
259.601	3785.71
259.979	3841.24
260.358	3895.26
260.736	3949.3
261.115	4007.44
261.493	4060.2
261.872	4113.77
262.25	4173.22
262.629	4230.74
263.007	4288.87
263.385	4349.93
263.763	4414.73
264.142	4479.11
264.52	4544.47
264.898	4611.93
265.276	4676.46
265.654	4749.05
266.032	4820.32
266.41	4888.49
266.788	4960.95
267.166	5037.1
267.544	5111.93
267.921	5193.19
268.299	5275.72
268.677	5356.28
269.055	5439.68
269.432	5526.93
269.81	5612.38
270.188	5699.88
270.565	5786.83
270.943	5879.47
271.32	5972.42
271.697	6069.94
272.075	6165.08
272.452	6261
272.829	6358.29
273.207	6459.13
273.584	6561.53
273.961	6665.96
274.338	6778.99
274.715	6898.1
275.092	7014.13
275.469	7137.44
275.846	7257.47
276.223	7379.18
276.6	7504.71
276.977	7627.93
277.354	7756.32
277.731	7881.2
278.108	8012.21
278.484	8146.42
278.861	8277.52
279.238	8415.53
279.614	8550.61
279.991	8694.03
280.367	8838.82
280.744	8987.75
281.12	9138.84
281.497	9288.99
281.873	9438.16
282.249	9588.12
282.625	9733.42
283.002	9879.91
283.378	10027.81
283.754	10179.26
284.13	10329.77
284.506	10486.63
284.882	10644.56
285.258	10799.33
285.634	10962.13
286.01	11119.13
286.386	11274.55
286.762	11439.79
287.138	11603.94
287.513	11767.54
287.889	11932.16
288.265	12093.37
288.641	12254.38
289.016	12414.59
289.392	12572.95
289.767	12739.58
290.143	12905.92
290.518	13064.97
290.894	13229.92
291.269	13387.25
291.644	13540.94
292.02	13694.93
292.395	13848.73
292.77	14002.59
293.145	14158.83
293.52	14311.36
293.895	14458.64
294.27	14617.89
294.646	14769.78
295.02	14913.28
295.395	15066.27
295.77	15220.76
296.145	15378.24
296.52	15531.83
296.895	15689.08
297.269	15845.51
297.644	15998.71
298.019	16148.81
298.393	16303.59
298.768	16457.93
299.143	16617.55
299.517	16772.49
299.891	16934.29
300.266	17092.89
300.64	17250.06
301.015	17411.56
301.389	17581.57
301.763	17761.96
302.137	17937.41
302.512	18118.84
302.886	18296.37
303.26	18478.46
303.634	18658.36
304.008	18835.98
304.382	19016.36
304.756	19202.94
305.13	19391.62
305.504	19574.97
305.877	19771.36
306.251	19975.98
306.625	20174.54
306.999	20382.58
307.372	20596.71
307.746	20816.14
308.119	21028.18
308.493	21241.94
308.866	21452.7
309.24	21666.5
309.613	21875.57
309.987	22081.23
310.36	22277.59
310.733	22492.23
311.107	22709.97
311.48	22922.9
311.853	23155.54
312.226	23385.53
312.599	23610.54
312.972	23831.95
313.345	24064.55
313.718	24287.67
314.091	24507.35
314.464	24740.88
314.837	24964.07
315.21	25178.35
315.582	25398.56
315.955	25615
316.328	25834.99
316.7	26054.49
317.073	26271.74
317.446	26494.47
317.818	26722.79
318.191	26957.76
318.563	27184.69
318.936	27388.02
319.308	27598.52
319.68	27795.91
320.053	27998.18
320.425	28185.25
320.797	28363.65
321.169	28524.26
321.541	28670.48
321.913	28812.03
322.285	28926.17
322.657	29052.98
323.029	29205.86
323.401	29347.1
323.773	29508.51
324.145	29683.95
324.517	29873.06
324.889	30058.19
325.26	30257.11
325.632	30478.66
326.004	30710.05
326.375	30963.87
326.747	31242.45
327.118	31544.2
327.49	31838.59
327.861	32146.79
328.233	32454.71
328.604	32775.97
328.975	33091.42
329.346	33401.17
329.718	33704.34
330.089	34011.56
330.46	34299.85
330.831	34564.33
331.202	34821.61
331.573	35075.8
331.944	35303.54
332.315	35532.57
332.686	35745.22
333.057	35952.26
333.428	36125.8
333.799	36300.16
334.169	36451.36
334.54	36592.5
334.911	36705.58
335.281	36832.91
335.652	36953.67
336.022	37090.82
336.393	37237.81
336.763	37402.45
337.134	37598.83
337.504	37802.99
337.874	38009.37
338.245	38218.63
338.615	38437.32
338.985	38672.52
339.355	38890.26
339.726	39116.97
340.096	39337.15
340.466	39591.61
340.836	39830.05
341.206	40081.85
341.576	40327.01
341.945	40575.69
342.315	40814.63
342.685	41063.74
343.055	41318.18
343.425	41562.69
343.794	41798.02
344.164	42024.84
344.533	42260.4
344.903	42485.61
345.273	42717.53
345.642	42945.59
346.011	43180.83
346.381	43415.71
346.75	43641.84
347.12	43893.52
347.489	44143.06
347.858	44388.86
348.227	44599.47
348.596	44829.76
348.965	45060.8
349.334	45291.84
349.704	45522
350.072	45763.76
350.441	46000.29
350.81	46236.65
351.179	46463.52
351.548	46701.93
351.917	46928.35
352.285	47124.42
352.654	47331.11
353.023	47537.16
353.391	47736.66
353.76	47950.2
354.129	48143.15
354.497	48374.7
354.865	48584.38
355.234	48818.83
355.602	49038.54
355.971	49281.58
356.339	49491.42
356.707	49711.57
357.075	49928.5
357.443	50150.62
357.811	50364.11
358.18	50578.52
358.548	50786.28
358.916	50999.62
359.284	51216.42
359.651	51432.46
360.019	51654.8
360.387	51861.79
360.755	52063.26
361.123	52295.67
361.49	52518.07
361.858	52729.51
362.226	52922.91
362.593	53128.25
362.961	53302.99
363.328	53505.63
363.696	53677.52
364.063	53894.74
364.43	54098.5
364.798	54313.01
365.165	54494.04
365.532	54682.11
365.899	54863.3
366.267	55028.54
366.634	55178.24
367.001	55331.69
367.368	55471.35
367.735	55651.95
368.102	55825.32
368.469	56018.15
368.835	56193.67
369.202	56353.57
369.569	56555.14
369.936	56748.12
370.303	56933.47
370.669	57135.31
371.036	57303.44
371.402	57508.1
371.769	57691.09
372.135	57841.6
372.502	57963.84
372.868	58118.6
373.235	58254.48
373.601	58397.3
373.967	58575.92
374.333	58765.77
374.7	58957.96
375.066	59158.34
375.432	59342.97
375.798	59523.92
376.164	59692.11
376.53	59848.53
376.896	60023.26
377.262	60191.11
377.628	60323.93
377.993	60470.92
378.359	60615.79
378.725	60767.25
379.091	60912.54
379.456	61036.82
379.822	61173.54
380.187	61325.39
380.553	61517.14
380.918	61720.28
381.284	61896.85
381.649	62068.98
382.015	62207.16
382.38	62325.56
382.745	62502.46
383.11	62663.26
383.476	62808.85
383.841	62932.7
384.206	63084.76
384.571	63205.41
384.936	63339.32
385.301	63501.45
385.666	63630.8
386.031	63782.35
386.396	63943.57
386.76	64109.87
387.125	64312.15
387.49	64516.62
387.855	64712.45
388.219	64876.97
388.584	65051.47
388.948	65249.43
389.313	65411.57
389.677	65614.94
390.042	65851.15
390.406	66007.25
390.771	66191.34
391.135	66380.93
391.499	66618.97
391.863	66854.29
392.227	67095.43
392.592	67297.68
392.956	67500.02
393.32	67696.68
393.684	67915.8
394.048	68091.23
394.412	68260.21
394.775	68403.78
395.139	68546.85
395.503	68705.09
395.867	68864.11
396.231	69000.36
396.594	69104.51
396.958	69239.4
397.321	69398.42
397.685	69517.56
398.048	69653.63
398.412	69785.05
398.775	69906.2
399.139	70022.32
399.502	70132.16
399.865	70275.27
400.228	70470.72
400.592	70608.51
400.955	70818.6
401.318	70961.6
401.681	71125.58
402.044	71266.89
402.407	71425.31
402.77	71589.43
403.133	71781.64
403.496	71921.03
403.859	72080.74
404.221	72314.68
404.584	72559.09
404.947	72803.53
405.309	73014.92
405.672	73250.39
406.034	73470.85
406.397	73729.27
406.759	73963.55
407.122	74148.65
407.484	74328.11
407.847	74515.85
408.209	74765.55
408.571	74993.15
408.933	75246.3
409.296	75505.63
409.658	75762.27
410.02	76038.03
410.382	76338.36
410.744	76592.99
411.106	76875.41
411.468	77146.78
411.83	77373.86
412.191	77562.13
412.553	77727.64
412.915	77930.77
413.277	78122.33
413.638	78306.09
414	78465.96
414.361	78624.14
414.723	78828.98
415.084	79016.28
415.446	79157.62
415.807	79272.17
416.169	79357.21
416.53	79424.62
416.891	79501.59
417.252	79591.19
417.614	79645.53
417.975	79672.33
418.336	79701.99
418.697	79732.71
419.058	79759.65
419.419	79781.5
419.78	79806.71
420.141	79822.39
420.501	79836.49
420.862	79850.04
421.223	79861.86
421.584	79885.1
421.944	79897.93
422.305	79905.23
422.666	79910.25
423.026	79912.39
423.387	79920.91
423.747	79928.1
424.107	79937.03
424.468	79944.11
424.828	79948.62
425.188	79950.98
425.549	79956.12
425.909	79960.14
426.269	79959.33
426.629	79963.58
426.989	79966.53
427.349	79968.75
427.709	79973.22
428.069	79976.39
428.429	79980.34
428.789	79984.56
429.149	79988.07
429.508	79989.73
429.868	79992.61
430.228	79995.45
430.587	79999.45
430.947	80003.51
431.306	80007.32
431.666	80008.02
432.025	80009.57
432.385	80012.57
432.744	80013.71
433.103	80014.45
433.463	80016.19
433.822	80023.02
434.181	80026.65
434.54	80027.02
434.899	80029.86
435.258	80032.3
435.618	80033.93
435.976	80036
436.335	80035.52
436.694	80036.22
437.053	80037
437.412	80037.37
437.771	80039.29
438.129	80037.89
438.488	80037.63
438.847	80038.44
439.205	80041.18
439.564	80042.55
439.922	80041.44
440.281	80042.55
440.639	80044.25
440.997	80044.62
441.356	80045.28
441.714	80044.99
442.072	80047.58
442.431	80045.62
442.789	80045.91
443.147	80046.13
443.505	80046.21
443.863	80047.28
444.221	80047.98
444.579	80048.32
444.937	80049.24
445.294	80048.68
445.652	80050.35
446.01	80051.05
446.368	80050.72
446.725	80049.53
447.083	80050.94
447.441	80053.38
447.798	80053.16
448.156	80052.49
448.513	80052.31
448.87	80053.27
449.228	80053.12
449.585	80053.64
449.942	80054.6
450.3	80055.16
450.657	80056.19
451.014	80056.27
451.371	80056.3
451.728	80056.34
452.085	80056.9
452.442	80057.3
452.799	80058.26
453.156	80058.41
453.513	80060.71
453.869	80061.89
454.226	80061.89
454.583	80062.22
454.939	80059.01
455.296	80058.75
455.653	80059.19
456.009	80060.08
456.366	80059.6
456.722	80061.37
457.078	80060.34
457.435	80061.56
457.791	80059.93
458.147	80060.11
458.503	80060.85
458.86	80060.78
459.216	80060.85
459.572	80061.56
459.928	80062.56
460.284	80063
460.64	80064.96
460.996	80064.26
461.351	80064.15
461.707	80065.33
462.063	80064.44
462.419	80067.14
462.774	80069.03
463.13	80069.21
463.486	80069.55
463.841	80070.55
464.197	80070.03
464.552	80071.21
464.908	80070.69
465.263	80072.84
465.618	80072.17
465.974	80073.4
466.329	80075.43
466.684	80076.69
467.039	80078.21
467.394	80078.32
467.749	80080.06
468.104	80080.8
468.459	80080.2
468.814	80080.5
469.169	80080.61
469.524	80081.98
469.879	80082.39
470.233	80081.57
470.588	80082.87
470.943	80082.98
471.297	80082.31
471.652	80083.13
472.006	80083.39
472.361	80086.38
472.715	80086.42
473.07	80088.05
473.424	80089.75
473.778	80090.9
474.133	80092.27
474.487	80092.64
474.841	80092.71
475.195	80092.86
475.549	80092.53
475.903	80094.79
476.257	80094.6
476.611	80095.3
476.965	80095.27
477.319	80095.3
477.673	80097.12
478.026	80097.45
478.38	80096.71
478.734	80095.6
479.087	80095.68
479.441	80096.45
479.795	80094.31
480.148	80095.53
480.502	80095.93
480.855	80095.68
481.208	80094.9
481.562	80093.64
481.915	80093.23
482.268	80093.75
482.621	80094.31
482.974	80094.34
483.328	80095.27
483.681	80094.86
484.034	80094.9
484.387	80094.53
484.739	80095.71
485.092	80095.71
485.445	80095.93
485.798	80097.19
486.151	80099.75
486.503	80100.97
486.856	80101.23
487.209	80102.89
487.561	80102.45
487.914	80102.56
488.266	80101.75
488.618	80101.49
488.971	80100.6
489.323	80101.3
489.675	80102.41
490.028	80101.63
490.38	80102.19
490.732	80101.67
491.084	80102.97
491.436	80103.11
491.788	80104.37
492.14	80103.97
492.492	80102.82
492.844	80102.19
493.196	80102.93
493.548	80102.19
493.899	80101.63
494.251	80101.45
494.603	80102.08
494.954	80102
495.306	80101.08
495.657	80100.86
496.009	80101.78
496.36	80104.48
496.712	80104.6
497.063	80103.97
497.414	80103.71
497.765	80104.34
498.117	80104.04
498.468	80103.45
498.819	80104.34
499.17	80104.15
499.521	80105.04
499.872	80105.71
500.223	80106.63
500.574	80107.78
500.924	80109
501.275	80108.74
501.626	80109.11
501.977	80108.63
502.327	80109.26
502.678	80109
503.029	80109.22
503.379	80109.78
503.73	80109.74
504.08	80108.48
504.43	80109.04
504.781	80110.3
505.131	80110.15
505.481	80109.41
505.831	80110.78
506.182	80110.96
506.532	80109.37
506.882	80108.82
507.232	80109.04
507.582	80107.41
507.932	80106.97
508.281	80106.56
508.631	80107.19
508.981	80107.85
509.331	80109.37
509.681	80108.71
510.03	80109.45
510.38	80109.41
510.729	80109.08
511.079	80107.59
511.428	80107.89
511.778	80106.56
512.127	80106.85
512.476	80105.71
512.826	80107.41
513.175	80106.71
513.524	80106.74
513.873	80107.52
514.222	80107.11
514.571	80106.52
514.92	80107.15
515.269	80105.85
515.618	80106.11
515.967	80104.89
516.316	80103.15
516.665	80101.52
517.014	80100.78
517.362	80100.82
517.711	80100.01
518.059	80100.08
518.408	80100.34
518.757	80100.93
519.105	80101.04
519.453	80101
519.802	80101.37
520.15	80099.86
520.498	80100.45
520.847	80099.01
521.195	80098.49
521.543	80097.19
521.891	80096.38
522.239	80097.53
522.587	80099.08
522.935	80098.19
523.283	80098.15
523.631	80100.15
523.979	80100.45
524.326	80101.15
524.674	80101.71
525.022	80102.67
525.369	80102.82
525.717	80102.75
526.064	80104.15
526.412	80106
526.759	80103.89
527.107	80102.12
527.454	80101.6
527.801	80101.97
528.149	80103.12
528.496	80103.89
528.843	80105.93
529.19	80106.19
529.537	80106
529.884	80105.3
530.231	80104.89
530.578	80106.67
530.925	80106.45
531.272	80105.49
531.619	80104.89
531.966	80105.71
532.312	80105.08
532.659	80105.45
533.006	80104.82
533.352	80102.86
533.699	80102.63
534.045	80103.89
534.392	80106.45
534.738	80107.04
535.084	80107.71
535.431	80108.63
535.777	80108.08
536.123	80107.52
536.469	80107.78
536.815	80107.56
537.161	80107.11
537.507	80107.85
537.853	80105.41
538.199	80103.82
538.545	80104.82
538.891	80105.3
539.237	80104.34
539.582	80105.82
539.928	80104.23
540.274	80106.08
540.619	80107.08
540.965	80106.11
541.31	80107.22
541.656	80106.3
542.001	80106.52
542.347	80106.08
542.692	80103.49
543.037	80104.6
543.382	80105.08
543.728	80105.34
544.073	80105.71
544.418	80106.71
544.763	80107.63
545.108	80109.96
545.453	80110.56
545.798	80110.3
546.142	80111.37
546.487	80110.67
546.832	80109.15
547.177	80110.52
547.521	80110
547.866	80110.74
548.211	80109.89
548.555	80109.11
548.9	80109.41
549.244	80107.93
549.588	80107.85
549.933	80108.52
550.277	80109.37
550.621	80109.08
550.965	80110
551.31	80109.22
551.654	80108.78
551.998	80108.04
552.342	80107.08
552.686	80107.26
553.03	80107.67
553.373	80106.11
553.717	80106.04
554.061	80107.48
554.405	80107.19
554.748	80104.74
555.092	80103.37
555.436	80103.26
555.779	80102.6
556.123	80103.15
556.466	80103.45
556.81	80103.78
557.153	80104.56
557.496	80103.82
557.839	80103.86
558.183	80103.93
558.526	80104.85
558.869	80104.19
559.212	80104.26
559.555	80103.49
559.898	80103.37
560.241	80101.86
560.584	80101.82
560.927	80102.56
561.269	80102.67
561.612	80102.6
561.955	80103.26
562.297	80103.63
562.64	80105.34
562.983	80105.22
563.325	80104.93
563.668	80106.19
564.01	80105.63
564.352	80106.34
564.695	80106.48
565.037	80106.04
565.379	80104.78
565.721	80105.04
566.063	80105.22
566.406	80104.15
566.748	80103.71
567.09	80101.86
567.431	80103.6
567.773	80104.6
568.115	80104.97
568.457	80103.45
568.799	80102.63
569.14	80102.45
569.482	80101.41
569.824	80100.64
570.165	80100.27
570.507	80099.86
570.848	80099.04
571.19	80097.49
571.531	80096.23
571.872	80097.16
572.214	80097.45
572.555	80098.38
572.896	80097.53
573.237	80095.86
573.578	80097.08
573.919	80096.82
574.26	80098.34
574.601	80097.19
574.942	80096.53
575.283	80095.01
575.624	80093.9
575.964	80094.86
576.305	80095.34
576.646	80095.75
576.986	80094.9
577.327	80093.68
577.667	80093.12
578.008	80093.68
578.348	80093.79
578.689	80094.01
579.029	80090.79
579.369	80089.57
579.71	80089.79
580.05	80088.79
580.39	80089.38
580.73	80087.79
581.07	80088.6
581.41	80088.23
581.75	80087.57
582.09	80086.9
582.43	80087.01
582.769	80088.27
583.109	80087.27
583.449	80087.64
583.789	80087.49
584.128	80088.2
584.468	80090.31
584.807	80090.01
585.147	80088.6
585.486	80087.79
585.825	80087.05
586.165	80089.16
586.504	80089.6
586.843	80087.46
587.182	80088.27
587.522	80087.46
587.861	80086.9
588.2	80085.53
588.539	80086.24
588.878	80086.24
589.216	80086.05
589.555	80086.35
589.894	80085.5
590.233	80084.98
590.572	80084.57
590.91	80084.39
591.249	80083.79
591.587	80081.72
591.926	80080.94
592.264	80081.61
592.603	80082.02
592.941	80081.31
593.279	80080.65
593.618	80081.43
593.956	80082.17
594.294	80082.39
594.632	80083.46
594.97	80084.72
595.308	80085.79
595.646	80084.42
595.984	80083.87
596.322	80083.31
596.66	80081.98
596.998	80082.17
597.335	80082.35
597.673	80082.24
598.011	80081.17
598.348	80081.98
598.686	80083.09
599.023	80083.35
599.361	80082.46
599.698	80081.94
600.035	80083.02
600.373	80083.68
600.71	80083.61
601.047	80082.65
601.384	80081.57
601.722	80080.83
602.059	80079.65
602.396	80079.58
602.733	80079.98
603.069	80080.8
603.406	80079.43
603.743	80080.98
604.08	80081.24
604.417	80081.54
604.753	80083.02
605.09	80084.83
605.426	80083.5
605.763	80083.46
606.099	80084.16
606.436	80084.68
606.772	80085.05
607.109	80084.68
607.445	80082.91
607.781	80080.91
608.117	80081.13
608.453	80080.87
608.79	80080.39
609.126	80079.21
609.462	80077.21
609.798	80076.58
610.133	80076.1
610.469	80078.61
610.805	80078.06
611.141	80077.8
611.477	80077.47
611.812	80074.99
612.148	80073.73
612.483	80073.73
612.819	80073.8
613.154	80073.03
613.49	80071.18
613.825	80071.03
614.16	80070.25
614.496	80069.55
614.831	80070.95
615.166	80071.62
615.501	80070.21
615.836	80070.18
616.171	80071.55
616.506	80073.1
616.841	80073.88
617.176	80074.62
617.511	80072.51
617.846	80073.84
618.18	80073.4
618.515	80071.69
618.85	80071.14
619.184	80070.99
619.519	80071.25
619.853	80071.51
620.188	80070.95
620.522	80071.58
620.856	80071.29
621.191	80071.88
621.525	80072.62
621.859	80071.18
622.193	80071.55
622.527	80072.4
622.861	80071.4
623.195	80070.47
623.529	80071.03
623.863	80068.74
624.197	80067.85
624.531	80068.25
624.865	80067.33
625.198	80067.14
625.532	80068.85
625.866	80067.85
626.199	80068.18
626.533	80068.03
626.866	80066.22
627.2	80065.7
627.533	80066.63
627.866	80065.07
628.2	80063.48
628.533	80063.37
628.866	80063.78
629.199	80061.82
629.532	80061.96
629.865	80062.89
630.198	80063.26
630.531	80060.71
630.864	80062.41
631.197	80062.08
631.529	80061.74
631.862	80061.37
632.195	80061.34
632.527	80060.41
632.86	80062
633.193	80061.19
633.525	80061.26
633.857	80061.85
634.19	80061.56
634.522	80060.85
634.854	80062
635.187	80061.59
635.519	80062.22
635.851	80061.48
636.183	80061.82
636.515	80062.41
636.847	80062.89
637.179	80063.78
637.511	80064.11
637.843	80062.81
638.174	80062.19
638.506	80062.15
638.838	80060.59
639.17	80061.04
639.501	80059.78
639.833	80060.08
640.164	80059.97
640.496	80058.52
640.827	80058.56
641.158	80059.19
641.49	80059.78
641.821	80060.48
642.152	80060.45
642.483	80059.67
642.814	80060.56
643.145	80059.41
643.476	80058.15
643.807	80057.75
644.138	80058.23
644.469	80059.82
644.8	80061.26
645.131	80061.41
645.461	80062.26
645.792	80062.56
646.122	80061.63
646.453	80061.89
646.784	80061.19
647.114	80060.37
647.444	80059.23
647.775	80057.93
648.105	80059.6
648.435	80058.56
648.765	80057.78
649.096	80059.19
649.426	80057.86
649.756	80057.23
650.086	80057.49
650.416	80057.34
650.746	80057.23
651.075	80054.75
651.405	80055.34
651.735	80055.31
652.065	80055.82
652.394	80055.34
652.724	80053.79
653.054	80052.72
653.383	80051.94
653.712	80051.57
654.042	80050.72
654.371	80052.16
654.701	80053.05
655.03	80051.27
655.359	80051.24
655.688	80051.87
656.017	80050.68
656.346	80050.79
656.675	80051.39
657.004	80051.75
657.333	80050.83
657.662	80050.46
657.991	80051.94
658.32	80050.31
658.648	80050.09
658.977	80050.39
659.306	80049.61
659.634	80050.61
659.963	80052.57
660.291	80053.94
660.619	80054.45
660.948	80055.64
661.276	80053.2
661.604	80052.16
661.933	80050.61
662.261	80051.31
662.589	80050.35
662.917	80049.65
663.245	80048.83
663.573	80048.91
663.901	80048.43
664.229	80049.39
664.556	80048.57
664.884	80048.94
665.212	80048.13
665.539	80045.87
665.867	80045.5
666.195	80045.8
666.522	80046.21
666.85	80043.51
667.177	80041.18
667.504	80039.85
667.832	80039.07
668.159	80039.7
668.486	80040.55
668.813	80042.69
669.14	80040.92
669.467	80039.18
669.794	80039.26
670.121	80040.03
670.448	80037.63
670.775	80039.11
671.102	80039.11
671.429	80038.44
671.755	80036.81
672.082	80037.07
672.409	80036.78
672.735	80035.04
673.062	80034
673.388	80031.71
673.714	80033.04
674.041	80034.11
674.367	80034.82
674.693	80035
675.019	80035.45
675.346	80033.3
675.672	80032.3
675.998	80032.71
676.324	80031.86
676.65	80031.34
676.976	80030.01
677.301	80029.97
677.627	80027.98
677.953	80027.01
678.279	80027.2
678.604	80027.38
678.93	80026.64
679.255	80027.05
679.581	80026.46
679.906	80026.79
680.232	80026.24
680.557	80025.94
680.882	80025.91
681.208	80024.54
681.533	80023.39
681.858	80022.54
682.183	80022.58
682.508	80021.06
682.833	80020.69
683.158	80021.99
683.483	80022.32
683.808	80023.61
684.132	80023.28
684.457	80023.65
684.782	80023.13
685.106	80022.91
685.431	80022.39
685.755	80021.76
686.08	80020.95
686.404	80021.39
686.729	80021.36
687.053	80021.02
687.377	80020.29
687.701	80019.62
688.026	80018.14
688.35	80017.25
688.674	80017.96
688.998	80019.73
689.322	80020.32
689.646	80018.7
689.97	80017.63
690.293	80016.81
690.617	80015.48
690.941	80013.37
691.264	80010.05
691.588	80008.46
691.912	80007.39
692.235	80005.21
692.559	80003.14
692.882	80000.15
693.205	79997.93
693.529	79995.42
693.852	79994.23
694.175	79992.13
694.498	79989.25
694.821	79988.1
695.144	79986.22
695.467	79982.96
695.79	79976.28
696.113	79971.18
696.436	79967.34
696.759	79962.65
697.082	79955.89
697.404	79949.18
697.727	79944.45
698.049	79938.55
698.372	79927.63
698.694	79915.06
699.017	79901.72
699.339	79888.05
699.662	79873.58
699.984	79847.69
700.306	79816.65
700.628	79768.69
700.95	79707.15
701.272	79631.53
701.594	79542.05
701.916	79451.9
702.238	79348.47
702.56	79204.97
702.882	79052.15
703.204	78913.01
703.525	78745.14
703.847	78538.92
704.169	78350.6
704.49	78135.86
704.812	77915.5
705.133	77696.07
705.455	77469.88
705.776	77217.81
706.097	76985.18
706.419	76740.94
706.74	76477.62
707.061	76206.43
707.382	75914.22
707.703	75615.11
708.024	75339.67
708.345	75047.22
708.666	74727.81
708.987	74408.85
709.307	74138.02
709.628	73837.32
709.949	73514.39
710.27	73197.98
710.59	72935.51
710.911	72629.03
711.231	72331.98
711.552	72054.86
711.872	71720.49
712.192	71445.39
712.512	71178.43
712.833	70896.27
713.153	70606.46
713.473	70380.85
713.793	70137.35
714.113	69924.11
714.433	69710.72
714.753	69499.34
715.073	69299.93
715.393	69115.02
715.712	68949.78
716.032	68729.05
716.352	68555.94
716.671	68393.68
716.991	68223.88
717.31	68020.88
717.63	67862.81
717.949	67682.66
718.268	67472.02
718.588	67293.93
718.907	67051.58
719.226	66798.89
719.545	66551.4
719.864	66279.27
720.183	65987.47
720.502	65702.18
720.821	65423.1
721.14	65148.63
721.459	64831.65
721.778	64556.55
722.096	64226.3
722.415	63923.65
722.734	63657.38
723.052	63374.52
723.371	63079.18
723.689	62805.81
724.008	62521.77
724.326	62211.67
724.644	61941.32
724.963	61673.14
725.281	61449.29
725.599	61222.72
725.917	61034.26
726.235	60832.18
726.553	60683.42
726.871	60494.42
727.189	60304.6
727.507	60107.18
727.824	59950.66
728.142	59816.96
728.46	59615.83
728.777	59518.97
729.095	59383.67
729.413	59237.81
729.73	59087.69
730.047	58961.05
730.365	58843.24
730.682	58738.11
730.999	58659.66
731.317	58583.38
731.634	58504.88
731.951	58389.16
732.268	58271.14
732.585	58119.66
732.902	57961.06
733.219	57798.82
733.536	57623.43
733.852	57496.57
734.169	57365.02
734.486	57206.47
734.802	57045.5
735.119	56934.05
735.435	56755.6
735.752	56596.78
736.068	56420.49
736.385	56259.02
736.701	56061.11
737.017	55827.21
737.333	55585.67
737.65	55274.15
737.966	54900.54
738.282	54498.62
738.598	54093
738.914	53639.44
739.23	53154.88
739.545	52642.82
739.861	52087.45
740.177	51541.1
740.493	50943.37
740.808	50364.75
741.124	49766.04
741.439	49181.64
741.755	48608.13
742.07	48089.34
742.386	47533.34
742.701	47032.65
743.016	46535.48
743.331	46063.67
743.647	45641.96
743.962	45248.21
744.277	44908.1
744.592	44634.99
744.907	44419.54
745.222	44246.2
745.537	44154.17
745.851	44123.25
746.166	44137.74
746.481	44194.8
746.795	44313.67
747.11	44465.58
747.424	44631.51
747.739	44790.82
748.053	44973.01
748.368	45112.03
748.682	45224.52
748.996	45355.72
749.311	45457.16
749.625	45553.69
749.939	45654.04
750.253	45715.76
750.567	45783.31
750.881	45847.47
751.195	45904.19
751.509	45971.47
751.822	46016.56
752.136	46053.19
752.45	46108.73
752.763	46176.29
753.077	46230.67
753.39	46254.8
753.704	46282.95
754.017	46303.06
754.331	46337.58
754.644	46342.73
754.957	46370.84
755.27	46381.53
755.584	46391.99
755.897	46398.37
756.21	46393.72
756.523	46372.21
756.836	46356.53
757.149	46277.61
757.461	46203.63
757.774	46123.78
758.087	46004.5
758.4	45868.62
758.712	45725.2
759.025	45567.4
759.337	45407.22
759.65	45248.87
759.962	45099.71
760.275	44937.54
760.587	44801.39
760.899	44660.82
761.211	44569.51
761.523	44493.36
761.836	44488.1
762.148	44492.51
762.46	44525.37
762.772	44587.59
763.083	44715.71
763.395	44859.11
763.707	45080.85
764.019	45312.93
764.33	45540.19
764.642	45796.58
764.954	46069.91
765.265	46348.35
765.577	46613.93
765.888	46858.62
766.199	47104.57
766.511	47317.97
766.822	47543.26
767.133	47714.81
767.444	47885.19
767.755	47973.83
768.066	48036.47
768.377	48023.26
768.688	47958.81
768.999	47875.27
769.31	47749.36
769.621	47562.23
769.931	47338.03
770.242	47083.1
770.553	46782.06
770.863	46446.76
771.174	46092.34
771.484	45706.09
771.794	45302.5
772.105	44897.13
772.415	44472.45
772.725	44021.57
773.035	43585.15
773.345	43116.25
773.656	42648.85
773.966	42179.51
774.276	41747.57
774.585	41311.11
774.895	40881.82
775.205	40500.67
775.515	40102.19
775.824	39709.64
776.134	39318.53
776.444	38960.42
776.753	38592.38
777.063	38249.82
777.372	37927.67
777.681	37605.1
777.991	37298.75
778.3	36996.44
778.609	36686.43
778.918	36398.49
779.228	36132.68
779.537	35870.33
779.846	35615.93
780.154	35374.62
780.463	35134.31
780.772	34888.91
781.081	34659.63
781.39	34459.01
781.698	34234.25
782.007	34027.63
782.316	33827.05
782.624	33614.48
782.932	33405.18
783.241	33219
783.549	33023.47
783.858	32852.48
784.166	32680.85
784.474	32502.25
784.782	32337.14
785.09	32181.06
785.398	32032.7
785.706	31892.05
786.014	31742.99
786.322	31602.65
786.63	31463.73
786.937	31339.52
787.245	31212.69
787.553	31082.79
787.86	30965.56
788.168	30850.7
788.475	30745.28
788.783	30643.28
789.09	30550.94
789.398	30451.42
789.705	30343.51
790.012	30242.34
790.319	30139.7
790.626	30032.23
790.933	29948.77
791.24	29861.42
791.547	29767.64
791.854	29672.16
792.161	29572.99
792.468	29475.34
792.774	29388.33
793.081	29297.88
793.388	29211.45
793.694	29115.64
794.001	29027.63
794.307	28905.42
794.614	28797
794.92	28667.24
795.226	28539.87
795.533	28432.71
795.839	28337.81
796.145	28227.37
796.451	28115.96
796.757	28007.64
797.063	27901.95
797.369	27792.04
797.675	27688.88
797.98	27594.68
798.286	27477.78
798.592	27379.78
798.898	27273.9
799.203	27157.79
799.509	27047.5
799.814	26926.61
800.12	26828.96
800.425	26715.12
800.73	26607.07
801.035	26496.63
801.341	26399.53
801.646	26299.73
801.951	26193.01
802.256	26088.23
802.561	25986.22
802.866	25894.32
803.171	25798.79
803.476	25711.47
803.78	25615.45
804.085	25513.07
804.39	25396.73
804.694	25301.59
804.999	25195.63
805.303	25100.69
805.608	25014.69
805.912	24927.17
806.216	24849.96
806.521	24774.98
806.825	24703.66
807.129	24630.14
807.433	24555.47
807.737	24480.57
808.041	24421.22
808.345	24365.74
808.649	24306.08
808.953	24256.35
809.257	24199.57
809.561	24143.41
809.864	24094.31
810.168	24057.74
810.471	24021.02
810.775	23993.99
811.078	23975.1
811.382	23949.92
811.685	23946.4
811.988	23937.14
812.292	23924.62
812.595	23925.84
812.898	23924.16
813.201	23932.96
813.504	23958.02
813.807	23987.43
814.11	24023.2
814.413	24049.49
814.716	24074.54
815.018	24121.67
815.321	24187.89
815.624	24274.78
815.926	24379.59
816.229	24499.4
816.531	24642.32
816.834	24802.43
817.136	24996.85
817.438	25207.78
817.74	25474.64
818.043	25789.28
818.345	26167.5
818.647	26624.75
818.949	27169.47
819.251	27801.09
819.553	28548.15
819.855	29413.49
820.156	30386.07
820.458	31466.49
820.76	32623.21
821.062	33842.05
821.363	35104.45
821.665	36436.99
821.966	37867.79
822.268	39317
822.569	40769.18
822.87	42245.14
823.171	43733.58
823.473	45272.38
823.774	46853.55
824.075	48387.13
824.376	49878.18
824.677	51341.15
824.978	52722.07
825.279	54017.7
825.58	55195.12
825.88	56234.18
826.181	57119.11
826.482	57894.01
826.782	58516.72
827.083	59030.36
827.383	59411.09
827.684	59628.59
827.984	59707.15
828.284	59611.41
828.585	59383.26
828.885	59075.64
829.185	58621.07
829.485	58073.81
829.785	57402.42
830.085	56564.84
830.385	55692.75
830.685	54756.51
830.985	53712.37
831.285	52638.28
831.584	51509.07
831.884	50356.71
832.183	49183.15
832.483	47977.1
832.782	46710.47
833.082	45431.08
833.381	44151.29
833.681	42904.99
833.98	41736.79
834.279	40605.53
834.578	39499.83
834.877	38467.29
835.176	37458.85
835.475	36525.36
835.774	35640.09
836.073	34761.32
836.372	33943.85
836.671	33129.3
836.969	32327.3
837.268	31583.06
837.567	30875.41
837.865	30188.97
838.164	29511.94
838.462	28859.67
838.761	28245.91
839.059	27664.33
839.357	27114.7
839.655	26584.88
839.953	26053.36
840.252	25529.94
840.55	25006.42
840.848	24503.74
841.146	24010.05
841.443	23513.32
841.741	23015.09
842.039	22505.69
842.337	22009.14
842.634	21546.48
842.932	21101.78
843.229	20678.38
843.527	20262.25
843.824	19820.72
844.122	19380.93
844.419	18956.27
844.716	18529.68
845.013	18114.81
845.311	17724.01
845.608	17351
845.905	16986.66
846.202	16632.29
846.499	16263.68
846.796	15895.04
847.092	15525.76
847.389	15163.14
847.686	14826.83
847.982	14508.77
848.279	14197.62
848.576	13906.19
848.872	13609.92
849.168	13323.58
849.465	13043.85
849.761	12755.72
850.057	12479.61
850.354	12213.85
850.65	11967.28
850.946	11737.94
851.242	11518.73
851.538	11302.28
851.834	11084.48
852.13	10868.68
852.425	10670.8
852.721	10491.51
853.017	10327.01
853.312	10171.78
853.608	10024.76
853.903	9882.66
854.199	9734.87
854.494	9604.39
854.79	9472.42
855.085	9342.04
855.38	9211.39
855.675	9082.64
855.971	8964.25
856.266	8864.34
856.561	8767.27
856.856	8671.58
857.151	8582.23
857.445	8484.37
857.74	8385.45
858.035	8292.28
858.33	8198.75
858.624	8112.48
858.919	8034.54
859.213	7951.21
859.508	7872.43
859.802	7786.67
860.096	7704.12
860.391	7641.4
860.685	7579.17
860.979	7518.78
861.273	7469.5
861.567	7413.69
861.861	7348.89
862.155	7293.07
862.449	7224.07
862.743	7162.45
863.037	7104.65
863.33	7046.69
863.624	6991.44
863.918	6944.77
864.211	6903.58
864.505	6872.98
864.798	6829.2
865.092	6783.04
865.385	6737.63
865.678	6684.12
865.971	6646.74
866.264	6614.5
866.558	6586.28
866.851	6550.39
867.144	6521.55
867.437	6483.51
867.729	6454.48
868.022	6433.08
868.315	6414.1
868.608	6404.01
868.9	6395.75
869.193	6378.81
869.485	6349.68
869.778	6326.61
870.07	6298.82
870.363	6279.17
870.655	6260.23
870.947	6253.39
871.239	6245.56
871.532	6244.56
871.824	6251.07
872.116	6249.24
872.408	6245.2
872.699	6229.1
872.991	6222.89
873.283	6216.23
873.575	6217.93
873.867	6224.44
874.158	6230.1
874.45	6227.18
874.741	6222.35
875.033	6217.58
875.324	6231.06
875.615	6255.19
875.907	6278.33
876.198	6295.63
876.489	6305.23
876.78	6308.28
877.071	6306.75
877.362	6309.13
877.653	6312.7
877.944	6320.19
878.235	6327.97
878.526	6334.49
878.816	6351.37
