Data from 24HourExp_27052025_FLMS018081_02-38-20-500.txt Node
Date: Wed May 28 02:38:20 BST 2025
User: adleo
Spectrometer: FLMS01808
Trigger mode: 0
Integration Time (sec): 4.000000E-1
Scans to average: 10
Electric dark correction enabled: true
Nonlinearity correction enabled: true
Boxcar width: 10
XAxis mode: Wavelengths
Number of Pixels in Spectrum: 2048
>>>>>Begin Spectral Data<<<<<
178.471	-121.55
178.857	-113.89
179.244	-108.35
179.631	-101.15
180.017	-92.7
180.404	-85.92
180.79	-75.75
181.176	-67.48
181.563	-58.75
181.949	-47.9
182.335	-38.72
182.722	-24.19
183.108	-5.84
183.494	19.59
183.88	73.65
184.266	126.04
184.653	180.29
185.039	235.63
185.425	290.89
185.811	345.49
186.197	399.7
186.582	450.97
186.968	503.51
187.354	556.73
187.74	608.22
188.126	658.61
188.511	710.94
188.897	759.96
189.283	808.31
189.668	853.15
190.054	896.64
190.439	943.19
190.825	987.64
191.21	1027.64
191.596	1062.02
191.981	1069.61
192.366	1074.76
192.752	1077.5
193.137	1080.38
193.522	1082.13
193.908	1081.99
194.293	1084.58
194.678	1086.73
195.063	1086.62
195.448	1087.79
195.833	1087.28
196.218	1086.96
196.603	1085.35
196.988	1083.48
197.373	1083.36
197.757	1085.07
198.142	1086.47
198.527	1083.95
198.912	1083.07
199.296	1085.07
199.681	1082.74
200.066	1082.2
200.45	1079.95
200.835	1079.9
201.219	1079.74
201.604	1077.99
201.988	1079.63
202.372	1079.3
202.757	1079.34
203.141	1082.3
203.525	1082.25
203.91	1084.29
204.294	1086.15
204.678	1086.12
205.062	1086.31
205.446	1085.3
205.83	1087.11
206.214	1087.27
206.598	1089.19
206.982	1090.88
207.366	1091.14
207.75	1093.13
208.134	1095.42
208.517	1097.86
208.901	1099.51
209.285	1099.77
209.669	1101.24
210.052	1102.04
210.436	1100.63
210.819	1100.54
211.203	1098.27
211.586	1099.16
211.97	1099.75
212.353	1099.14
212.737	1100.82
213.12	1104.55
213.503	1107.52
213.886	1108.01
214.27	1108.81
214.653	1109.97
215.036	1111.69
215.419	1111.59
215.802	1113.02
216.185	1113.95
216.568	1117.65
216.951	1120.07
217.334	1121.66
217.717	1126.87
218.1	1130
218.482	1134.74
218.865	1138.84
219.248	1144.49
219.631	1148.38
220.013	1153.31
220.396	1160.57
220.778	1165.91
221.161	1170.19
221.544	1176.29
221.926	1183.58
222.308	1190.21
222.691	1196.17
223.073	1205.57
223.455	1214.33
223.838	1224.35
224.22	1233.38
224.602	1244.74
224.984	1255
225.366	1267.38
225.749	1280.52
226.131	1291.75
226.513	1305.56
226.895	1318.79
227.276	1332.66
227.658	1349.12
228.04	1364.03
228.422	1379.76
228.804	1396.31
229.186	1411.21
229.567	1428.85
229.949	1446.6
230.331	1464.23
230.712	1485.21
231.094	1502.62
231.475	1521.93
231.857	1540.6
232.238	1560.54
232.62	1579.34
233.001	1599.93
233.382	1622.27
233.763	1639.81
234.145	1661.43
234.526	1681.54
234.907	1702.18
235.288	1719.51
235.669	1738.45
236.05	1758.3
236.431	1776.96
236.812	1796.69
237.193	1820.53
237.574	1841.12
237.955	1862.88
238.336	1885.44
238.717	1906.3
239.097	1929.09
239.478	1951.09
239.859	1973.68
240.239	1997.29
240.62	2021.12
241.001	2042.21
241.381	2065.23
241.762	2088.22
242.142	2111.25
242.522	2135.63
242.903	2159.49
243.283	2189.04
243.663	2215.5
244.044	2243.66
244.424	2270.93
244.804	2297.28
245.184	2324.39
245.564	2351.65
245.944	2381.19
246.324	2411.72
246.704	2442.32
247.084	2471.37
247.464	2503.94
247.844	2535.83
248.224	2566.69
248.604	2597.2
248.983	2630.84
249.363	2664.13
249.743	2697.2
250.122	2727.77
250.502	2758.12
250.882	2792.84
251.261	2825.37
251.641	2857.25
252.02	2887.55
252.399	2922.79
252.779	2960.73
253.158	2997.63
253.537	3037.71
253.917	3080.27
254.296	3118.78
254.675	3159.64
255.054	3199.65
255.433	3241.58
255.812	3280.58
256.191	3321.01
256.57	3363.6
256.949	3406.32
257.328	3450.27
257.707	3493.73
258.086	3541.68
258.465	3592.43
258.843	3642.31
259.222	3693.2
259.601	3747.61
259.979	3804.86
260.358	3858.93
260.736	3912.86
261.115	3968.74
261.493	4022.82
261.872	4073.76
262.25	4129.65
262.629	4184.16
263.007	4243.57
263.385	4301.15
263.763	4364.78
264.142	4429.78
264.52	4495.65
264.898	4561.46
265.276	4626.06
265.654	4693.85
266.032	4763.03
266.41	4831.78
266.788	4904.99
267.166	4978.98
267.544	5051.8
267.921	5127.88
268.299	5205.8
268.677	5286.97
269.055	5368.1
269.432	5451.7
269.81	5538.21
270.188	5625.83
270.565	5714.08
270.943	5805.62
271.32	5898.15
271.697	5994.15
272.075	6090.51
272.452	6187
272.829	6282.8
273.207	6383.56
273.584	6488.89
273.961	6595.2
274.338	6709.6
274.715	6824.68
275.092	6945.83
275.469	7070.38
275.846	7193.56
276.223	7316.41
276.6	7435.42
276.977	7562.52
277.354	7689.05
277.731	7817.27
278.108	7950.9
278.484	8084.02
278.861	8217.51
279.238	8357.7
279.614	8493.36
279.991	8633.86
280.367	8775.83
280.744	8928.38
281.12	9081.42
281.497	9229.44
281.873	9382.58
282.249	9531.68
282.625	9679.15
283.002	9824.26
283.378	9970.71
283.754	10118.22
284.13	10271.41
284.506	10430.5
284.882	10584.5
285.258	10742.41
285.634	10899.48
286.01	11060.16
286.386	11220.75
286.762	11384
287.138	11545.81
287.513	11714.34
287.889	11877.72
288.265	12044.38
288.641	12202.78
289.016	12361.87
289.392	12526.68
289.767	12687.96
290.143	12849.36
290.518	13006.07
290.894	13171.78
291.269	13329.48
291.644	13485.78
292.02	13642.22
292.395	13796.02
292.77	13955.71
293.145	14111.53
293.52	14267.9
293.895	14416.5
294.27	14572.98
294.646	14724.14
295.02	14870.23
295.395	15017.73
295.77	15172.93
296.145	15327.07
296.52	15485.14
296.895	15634.1
297.269	15791.13
297.644	15945.56
298.019	16098.82
298.393	16258.5
298.768	16409.41
299.143	16565.85
299.517	16720.6
299.891	16874.78
300.266	17038.08
300.64	17191.91
301.015	17353.51
301.389	17522.17
301.763	17693.65
302.137	17863.59
302.512	18045.03
302.886	18228.13
303.26	18411.36
303.634	18593.42
304.008	18767.24
304.382	18946.2
304.756	19134.89
305.13	19324.95
305.504	19506.28
305.877	19693.84
306.251	19896.63
306.625	20101.8
306.999	20314.03
307.372	20528.49
307.746	20750.61
308.119	20962.87
308.493	21180.38
308.866	21394.24
309.24	21606.65
309.613	21815.7
309.987	22024.27
310.36	22218.77
310.733	22422.19
311.107	22643.7
311.48	22861.5
311.853	23092.54
312.226	23317.97
312.599	23546.54
312.972	23767.78
313.345	24001.67
313.718	24234.12
314.091	24454.47
314.464	24682.34
314.837	24902.11
315.21	25118.51
315.582	25333.59
315.955	25541.45
316.328	25758.03
316.7	25974.69
317.073	26188.31
317.446	26413.15
317.818	26644.99
318.191	26882.19
318.563	27110.49
318.936	27316.19
319.308	27519.77
319.68	27726.58
320.053	27929.18
320.425	28117.04
320.797	28298.5
321.169	28456.62
321.541	28604.12
321.913	28738.34
322.285	28858.61
322.657	28986.25
323.029	29129.33
323.401	29270.5
323.773	29442.7
324.145	29616.74
324.517	29803.04
324.889	29988.29
325.26	30186.9
325.632	30400.73
326.004	30629.45
326.375	30885.56
326.747	31158.18
327.118	31456.71
327.49	31743.52
327.861	32051.59
328.233	32356.3
328.604	32671.49
328.975	32992.58
329.346	33303.84
329.718	33613.4
330.089	33914.35
330.46	34208.99
330.831	34480.6
331.202	34744.19
331.573	34989.55
331.944	35219.7
332.315	35450.7
332.686	35677.58
333.057	35879.54
333.428	36061.36
333.799	36239.98
334.169	36394.77
334.54	36539.14
334.911	36665.97
335.281	36797.11
335.652	36917.11
336.022	37057.01
336.393	37193.52
336.763	37359.16
337.134	37546.04
337.504	37747.29
337.874	37958.51
338.245	38166.33
338.615	38392.9
338.985	38624.66
339.355	38847.88
339.726	39071.76
340.096	39295.93
340.466	39539.68
340.836	39782.48
341.206	40023.95
341.576	40270.91
341.945	40511.07
342.315	40742.45
342.685	40981.26
343.055	41224.32
343.425	41460.89
343.794	41692.28
344.164	41928.95
344.533	42158.81
344.903	42389.86
345.273	42624.45
345.642	42845.15
346.011	43074.53
346.381	43301.75
346.75	43531.08
347.12	43773.32
347.489	44022.92
347.858	44264.27
348.227	44476.99
348.596	44697.41
348.965	44935.18
349.334	45157.3
349.704	45396.93
350.072	45643.42
350.441	45878.29
350.81	46118.95
351.179	46355.37
351.548	46591.68
351.917	46816.35
352.285	47012.81
352.654	47217.22
353.023	47423.76
353.391	47626.02
353.76	47833.66
354.129	48024.15
354.497	48255.76
354.865	48475.75
355.234	48707.36
355.602	48923.16
355.971	49169.69
356.339	49385.13
356.707	49598.92
357.075	49822.42
357.443	50044.03
357.811	50256.46
358.18	50464.77
358.548	50673.87
358.916	50880.79
359.284	51100.34
359.651	51319.61
360.019	51541.51
360.387	51743.01
360.755	51941.8
361.123	52172.71
361.49	52403.64
361.858	52616.14
362.226	52814.35
362.593	53018.76
362.961	53199.62
363.328	53399.16
363.696	53569.42
364.063	53791.65
364.43	53999.37
364.798	54206.99
365.165	54386.81
365.532	54572.02
365.899	54764.37
366.267	54932.01
366.634	55084.82
367.001	55250.72
367.368	55386.12
367.735	55570.92
368.102	55747.56
368.469	55933.97
368.835	56114.77
369.202	56267.57
369.569	56466.79
369.936	56652.46
370.303	56837.93
370.669	57036.68
371.036	57205.96
371.402	57407.96
371.769	57588.42
372.135	57740.11
372.502	57868.15
372.868	58009.52
373.235	58146.18
373.601	58279.8
373.967	58448.5
374.333	58635.59
374.7	58816.2
375.066	59021.57
375.432	59205.33
375.798	59386.72
376.164	59557.75
376.53	59697.14
376.896	59874.36
377.262	60044.72
377.628	60172.26
377.993	60321.25
378.359	60469.3
378.725	60619.06
379.091	60772.98
379.456	60897.71
379.822	61031.19
380.187	61182.44
380.553	61377.63
380.918	61581.09
381.284	61756.11
381.649	61930.7
382.015	62070.79
382.38	62190.39
382.745	62355.91
383.11	62500.64
383.476	62638.89
383.841	62772.46
384.206	62932.09
384.571	63049.39
384.936	63181.14
385.301	63355.36
385.666	63484.54
386.031	63623.66
386.396	63790.63
386.76	63933.14
387.125	64129.24
387.49	64326.42
387.855	64520.12
388.219	64687.23
388.584	64856.84
388.948	65047.31
389.313	65212.62
389.677	65423.45
390.042	65653.05
390.406	65805.93
390.771	65993.01
391.135	66181.69
391.499	66410.39
391.863	66644.78
392.227	66887.34
392.592	67091.02
392.956	67288.22
393.32	67480.49
393.684	67707.84
394.048	67876.67
394.412	68058.26
394.775	68211.4
395.139	68364.36
395.503	68518.12
395.867	68656.47
396.231	68801.75
396.594	68912.99
396.958	69047.02
397.321	69197.32
397.685	69323.06
398.048	69469.55
398.412	69604.56
398.775	69739.61
399.139	69866.84
399.502	69973.46
399.865	70115.52
400.228	70307.19
400.592	70437.12
400.955	70637.58
401.318	70762.54
401.681	70933.06
402.044	71065.61
402.407	71218.52
402.77	71372.89
403.133	71566.3
403.496	71721.05
403.859	71868.4
404.221	72097.95
404.584	72347.84
404.947	72599.5
405.309	72809
405.672	73039.38
406.034	73268.13
406.397	73520.42
406.759	73737.19
407.122	73925.23
407.484	74095.9
407.847	74282.58
408.209	74533.85
408.571	74765.21
408.933	75035.03
409.296	75287.3
409.658	75542.29
410.02	75814.07
410.382	76120.79
410.744	76376.53
411.106	76660.52
411.468	76936.56
411.83	77173.05
412.191	77359.05
412.553	77519.39
412.915	77725.79
413.277	77924.83
413.638	78111.31
414	78273.08
414.361	78443.59
414.723	78655.39
415.084	78861.61
415.446	79013.08
415.807	79137.88
416.169	79232
416.53	79304.67
416.891	79393.54
417.252	79497.06
417.614	79560.55
417.975	79594.48
418.336	79631.05
418.697	79672.79
419.058	79707.86
419.419	79734.37
419.78	79763.13
420.141	79783.38
420.501	79800.19
420.862	79814.47
421.223	79825.18
421.584	79853.14
421.944	79868.42
422.305	79876.42
422.666	79879.37
423.026	79883.1
423.387	79891.36
423.747	79899.4
424.107	79908.76
424.468	79917.73
424.828	79924.33
425.188	79928.14
425.549	79932.93
425.909	79936.48
426.269	79934.71
426.629	79940.43
426.989	79942.68
427.349	79947.85
427.709	79953.16
428.069	79955.45
428.429	79960.07
428.789	79966.49
429.149	79970.85
429.508	79974.33
429.868	79978.95
430.228	79984.04
430.587	79986.44
430.947	79990.29
431.306	79993.2
431.666	79995.35
432.025	79997.38
432.385	79998.97
432.744	79999.89
433.103	80002.22
433.463	80005.36
433.822	80012.56
434.181	80015.34
434.54	80020.1
434.899	80022.51
435.258	80027.16
435.618	80030.38
435.976	80032.56
436.335	80032.45
436.694	80032.82
437.053	80032.67
437.412	80034.19
437.771	80034.6
438.129	80035.56
438.488	80035.15
438.847	80037.85
439.205	80037.74
439.564	80038.59
439.922	80038.11
440.281	80039.37
440.639	80041.47
440.997	80040.51
441.356	80041.62
441.714	80041.47
442.072	80042.14
442.431	80041.77
442.789	80040.66
443.147	80040.47
443.505	80040.1
443.863	80039.81
444.221	80040.22
444.579	80040.77
444.937	80040.44
445.294	80042.14
445.652	80042.47
446.01	80044.02
446.368	80042.47
446.725	80044.39
447.083	80044.87
447.441	80046.13
447.798	80046.72
448.156	80045.36
448.513	80046.83
448.87	80047.31
449.228	80046.8
449.585	80046.17
449.942	80046.32
450.3	80044.62
450.657	80045.36
451.014	80046.58
451.371	80046.95
451.728	80047.24
452.085	80046.43
452.442	80046.24
452.799	80046.95
453.156	80048.09
453.513	80047.8
453.869	80050.13
454.226	80049.53
454.583	80050.53
454.939	80051.46
455.296	80052.42
455.653	80053.09
456.009	80052.27
456.366	80050.42
456.722	80051.87
457.078	80052.49
457.435	80053.27
457.791	80055.16
458.147	80055.6
458.503	80055.42
458.86	80056.64
459.216	80056.27
459.572	80056.27
459.928	80055.93
460.284	80055.53
460.64	80054.9
460.996	80056.34
461.351	80056.3
461.707	80056.23
462.063	80055.23
462.419	80054.82
462.774	80054.08
463.13	80054.68
463.486	80055.9
463.841	80059.04
464.197	80058
464.552	80058.34
464.908	80058.74
465.263	80059
465.618	80059.23
465.974	80060.67
466.329	80060.96
466.684	80061.04
467.039	80062.59
467.394	80062.92
467.749	80062.85
468.104	80063.78
468.459	80063.81
468.814	80063.52
469.169	80067.66
469.524	80068.44
469.879	80068.66
470.233	80069.99
470.588	80069.77
470.943	80069.81
471.297	80068.48
471.652	80070.88
472.006	80069.1
472.361	80070.51
472.715	80071.47
473.07	80072.03
473.424	80071.55
473.778	80071.84
474.133	80073.51
474.487	80072.32
474.841	80074.58
475.195	80075.95
475.549	80075.88
475.903	80075.47
476.257	80076.06
476.611	80074.21
476.965	80074.54
477.319	80075.95
477.673	80077.13
478.026	80078.84
478.38	80080.43
478.734	80081.94
479.087	80080.76
479.441	80083.02
479.795	80082.24
480.148	80082.83
480.502	80084.72
480.855	80085.05
481.208	80084.57
481.562	80084.87
481.915	80087.53
482.268	80086.61
482.621	80087.09
482.974	80088.86
483.328	80089.9
483.681	80091.01
484.034	80091.05
484.387	80091.64
484.739	80092.01
485.092	80091.49
485.445	80090.75
485.798	80090.05
486.151	80090.83
486.503	80092.86
486.856	80092.94
487.209	80093.75
487.561	80094.34
487.914	80091.38
488.266	80091.23
488.618	80091.53
488.971	80091.42
489.323	80091.31
489.675	80092.31
490.028	80091.86
490.38	80091.31
490.732	80091.31
491.084	80090.9
491.436	80090.79
491.788	80090.53
492.14	80090.68
492.492	80089.42
492.844	80092.34
493.196	80093.16
493.548	80091.57
493.899	80089.9
494.251	80091.34
494.603	80092.79
494.954	80092.09
495.306	80093.38
495.657	80094.71
496.009	80096.27
496.36	80096.79
496.712	80096.38
497.063	80097.08
497.414	80097.19
497.765	80097.23
498.117	80097.38
498.468	80098.23
498.819	80097.9
499.17	80097.9
499.521	80099.27
499.872	80101.01
500.223	80098.9
500.574	80098.6
500.924	80100.3
501.275	80101.52
501.626	80100.34
501.977	80098.23
502.327	80097.78
502.678	80098.82
503.029	80098.97
503.379	80098.78
503.73	80098.3
504.08	80097.9
504.43	80096.97
504.781	80097.38
505.131	80098.01
505.481	80098.15
505.831	80096.56
506.182	80096.19
506.532	80094.64
506.882	80094.12
507.232	80093.38
507.582	80094.49
507.932	80094.23
508.281	80093.6
508.631	80093.71
508.981	80094.38
509.331	80095.12
509.681	80095.01
510.03	80094.23
510.38	80094.82
510.729	80094.79
511.079	80094.53
511.428	80096.27
511.778	80096.3
512.127	80095.05
512.476	80095.93
512.826	80095.71
513.175	80098.56
513.524	80100.78
513.873	80102.75
514.222	80101.19
514.571	80102.63
514.92	80101.52
515.269	80101.01
515.618	80101.41
515.967	80101.75
516.316	80101.56
516.665	80101.01
517.014	80101.41
517.362	80100.75
517.711	80099.82
518.059	80100.27
518.408	80101.75
518.757	80101.52
519.105	80101.26
519.453	80104.37
519.802	80105.08
520.15	80106.74
520.498	80104.78
520.847	80103.41
521.195	80103.19
521.543	80103.89
521.891	80105.12
522.239	80105.37
522.587	80105.93
522.935	80106.45
523.283	80105.93
523.631	80106.85
523.979	80108.6
524.326	80110.37
524.674	80112.52
525.022	80112.7
525.369	80111.59
525.717	80110.67
526.064	80109.71
526.412	80109.52
526.759	80107.56
527.107	80105.34
527.454	80104.34
527.801	80104.63
528.149	80104
528.496	80104.23
528.843	80104.56
529.19	80103.37
529.537	80103
529.884	80104.15
530.231	80104.6
530.578	80104.11
530.925	80103.63
531.272	80102.89
531.619	80101
531.966	80100.93
532.312	80102
532.659	80101.71
533.006	80102.23
533.352	80100.78
533.699	80101.12
534.045	80100.71
534.392	80100.41
534.738	80098.27
535.084	80098.71
535.431	80099.34
535.777	80098.27
536.123	80097.93
536.469	80095.82
536.815	80096.6
537.161	80095.71
537.507	80094.6
537.853	80095.49
538.199	80095.38
538.545	80094.34
538.891	80094.79
539.237	80093.68
539.582	80092.45
539.928	80093.45
540.274	80093.86
540.619	80096.01
540.965	80095.79
541.31	80096.12
541.656	80097.49
542.001	80099.6
542.347	80099.04
542.692	80099.38
543.037	80100.67
543.382	80100.04
543.728	80102.74
544.073	80102.6
544.418	80101.71
544.763	80102.49
545.108	80101.34
545.453	80101.3
545.798	80101.19
546.142	80100.45
546.487	80101.04
546.832	80100.34
547.177	80099.71
547.521	80099.75
547.866	80100.52
548.211	80099.97
548.555	80099.41
548.9	80096.9
549.244	80093.97
549.588	80092.75
549.933	80093.64
550.277	80094.09
550.621	80094.53
550.965	80092.01
551.31	80092.9
551.654	80093.31
551.998	80092.83
552.342	80092.53
552.686	80091.23
553.03	80091.64
553.373	80091.49
553.717	80090.79
554.061	80089.27
554.405	80089.13
554.748	80088.57
555.092	80088.38
555.436	80089.5
555.779	80089.5
556.123	80092.68
556.466	80095.08
556.81	80097.16
557.153	80096.71
557.496	80095.82
557.839	80096.16
558.183	80097.01
558.526	80096.42
558.869	80097.23
559.212	80096.9
559.555	80098.64
559.898	80099.89
560.241	80100.86
560.584	80102.41
560.927	80102.19
561.269	80104.78
561.612	80106.56
561.955	80106.85
562.297	80106.85
562.64	80106.11
562.983	80107.08
563.325	80105.48
563.668	80106.33
564.01	80104.97
564.352	80102.37
564.695	80101.93
565.037	80101.08
565.379	80101.93
565.721	80100.93
566.063	80101.01
566.406	80100.52
566.748	80098.45
567.09	80096.12
567.431	80094.42
567.773	80092.01
568.115	80091.53
568.457	80091.83
568.799	80091.01
569.14	80089.53
569.482	80089.46
569.824	80089.9
570.165	80088.27
570.507	80087.01
570.848	80085.94
571.19	80084.94
571.531	80086.02
571.872	80086.64
572.214	80086.68
572.555	80086.31
572.896	80087.09
573.237	80084.68
573.578	80083.83
573.919	80083.31
574.26	80084.39
574.601	80084.13
574.942	80084.98
575.283	80083.98
575.624	80082.35
575.964	80081.24
576.305	80081.2
576.646	80079.61
576.986	80080.2
577.327	80081.83
577.667	80084.2
578.008	80081.69
578.348	80082.09
578.689	80082.5
579.029	80081.87
579.369	80082.39
579.71	80080.39
580.05	80079.02
580.39	80079.54
580.73	80079.83
581.07	80080.69
581.41	80081.83
581.75	80082.06
582.09	80081.83
582.43	80081.5
582.769	80082.31
583.109	80080.95
583.449	80082.02
583.789	80082.09
584.128	80082.06
584.468	80079.76
584.807	80079.13
585.147	80080.65
585.486	80079.17
585.825	80079.28
586.165	80078.65
586.504	80076.99
586.843	80078.72
587.182	80078.84
587.522	80079.8
587.861	80080.32
588.2	80080.54
588.539	80079.72
588.878	80079.02
589.216	80078.95
589.555	80081.5
589.894	80080.39
590.233	80082.09
590.572	80080.72
590.91	80080.43
591.249	80077.84
591.587	80078.06
591.926	80076.47
592.264	80075.39
592.603	80077.32
592.941	80075.62
593.279	80077.17
593.618	80077.1
593.956	80076.91
594.294	80076.62
594.632	80077.13
594.97	80075.84
595.308	80074.91
595.646	80075.17
595.984	80075.91
596.322	80075.58
596.66	80073.88
596.998	80073.99
597.335	80074.4
597.673	80074.84
598.011	80076.32
598.348	80076.62
598.686	80077.87
599.023	80078.35
599.361	80079.95
599.698	80079.09
600.035	80080.13
600.373	80078.09
600.71	80079.61
601.047	80077.76
601.384	80078.17
601.722	80077.43
602.059	80077.87
602.396	80078.39
602.733	80078.06
603.069	80078.09
603.406	80077.1
603.743	80076.65
604.08	80077.87
604.417	80077.02
604.753	80075.47
605.09	80073.1
605.426	80072.4
605.763	80071.1
606.099	80068.73
606.436	80067.22
606.772	80066.59
607.109	80067.14
607.445	80066.96
607.781	80065.92
608.117	80066.37
608.453	80066.66
608.79	80065.4
609.126	80065.59
609.462	80064.41
609.798	80064.52
610.133	80062.11
610.469	80062.67
610.805	80062.41
611.141	80061.56
611.477	80060.37
611.812	80059.63
612.148	80058.08
612.483	80058.27
612.819	80057.67
613.154	80060.08
613.49	80061.41
613.825	80062.37
614.16	80062.15
614.496	80063.3
614.831	80063.67
615.166	80063.19
615.501	80061.89
615.836	80060.74
616.171	80060.67
616.506	80063.15
616.841	80062.04
617.176	80062.82
617.511	80063.93
617.846	80064.85
618.18	80063
618.515	80063.15
618.85	80064.07
619.184	80066.77
619.519	80067.77
619.853	80067.59
620.188	80067
620.522	80066.29
620.856	80065.89
621.191	80064.55
621.525	80065.41
621.859	80064.92
622.193	80064.55
622.527	80064.52
622.861	80066.74
623.195	80067.74
623.529	80065.48
623.863	80066.14
624.197	80067.07
624.531	80067.11
624.865	80065.15
625.198	80065.03
625.532	80064.78
625.866	80064.55
626.199	80062.85
626.533	80063.26
626.866	80064.33
627.2	80063.96
627.533	80064
627.866	80062.37
628.2	80061.71
628.533	80058.3
628.866	80057.64
629.199	80057.71
629.532	80056.75
629.865	80056.01
630.198	80054.05
630.531	80053.94
630.864	80052.97
631.197	80051.86
631.529	80051.35
631.862	80052.83
632.195	80051.75
632.527	80051.9
632.86	80051.38
633.193	80050.61
633.525	80048.94
633.857	80046.95
634.19	80047.13
634.522	80045.58
634.854	80045.87
635.187	80046.28
635.519	80046.87
635.851	80045.28
636.183	80046.61
636.515	80048.46
636.847	80047.43
637.179	80047.06
637.511	80047.91
637.843	80046.76
638.174	80047.58
638.506	80047.24
638.838	80046.98
639.17	80049.2
639.501	80048.35
639.833	80049.09
640.164	80049.17
640.496	80049.31
640.827	80048.91
641.158	80048.46
641.49	80049.72
641.821	80048.8
642.152	80048.43
642.483	80050.65
642.814	80052.35
643.145	80051.2
643.476	80050.42
643.807	80049.39
644.138	80049.28
644.469	80049.5
644.8	80050.05
645.131	80048.54
645.461	80047.35
645.792	80046.69
646.122	80046.17
646.453	80046.84
646.784	80045.87
647.114	80046.58
647.444	80047.09
647.775	80047.95
648.105	80047.32
648.435	80046.87
648.765	80048.5
649.096	80049.02
649.426	80048.43
649.756	80047.98
650.086	80047.28
650.416	80045.69
650.746	80046.98
651.075	80046.83
651.405	80045.43
651.735	80045.61
652.065	80046.54
652.394	80046.83
652.724	80045.43
653.054	80043.25
653.383	80042.25
653.712	80042.62
654.042	80043.58
654.371	80042.8
654.701	80041.84
655.03	80040.1
655.359	80039.74
655.688	80038.92
656.017	80038.74
656.346	80038.92
656.675	80037.59
657.004	80036.63
657.333	80036.59
657.662	80036.63
657.991	80035.85
658.32	80036.26
658.648	80035.04
658.977	80034
659.306	80032.86
659.634	80033.3
659.963	80034.08
660.291	80033.04
660.619	80032.34
660.948	80031.01
661.276	80030.31
661.604	80030.75
661.933	80031.49
662.261	80032.64
662.589	80031.71
662.917	80031.34
663.245	80029.2
663.573	80029.53
663.901	80031.38
664.229	80032.08
664.556	80031.19
664.884	80032.78
665.212	80030.6
665.539	80030.01
665.867	80029.57
666.195	80028.57
666.522	80028.27
666.85	80028.24
667.177	80029.23
667.504	80028.16
667.832	80027.09
668.159	80027.72
668.486	80028.94
668.813	80029.79
669.14	80027.57
669.467	80029.71
669.794	80029.53
670.121	80030.12
670.448	80030.23
670.775	80027.57
671.102	80027.72
671.429	80027.39
671.755	80025.35
672.082	80025.61
672.409	80026.65
672.735	80027.9
673.062	80029.71
673.388	80029.64
673.714	80030.01
674.041	80030.49
674.367	80031.01
674.693	80031.34
675.019	80031.49
675.346	80031.12
675.672	80031.41
675.998	80031.56
676.324	80030.27
676.65	80028.83
676.976	80027.94
677.301	80027.42
677.627	80028.27
677.953	80027.27
678.279	80029.27
678.604	80029.71
678.93	80031.45
679.255	80030.9
679.581	80028.2
679.906	80026.61
680.232	80026.31
680.557	80025.72
680.882	80025.06
681.208	80026.16
681.533	80025.43
681.858	80022.28
682.183	80020.4
682.508	80018.92
682.833	80019.77
683.158	80018.07
683.483	80018.85
683.808	80018.22
684.132	80018.07
684.457	80017.37
684.782	80016.7
685.106	80014.96
685.431	80014.15
685.755	80012.56
686.08	80013.6
686.404	80014.3
686.729	80014.11
687.053	80013.96
687.377	80012.82
687.701	80011.82
688.026	80011.04
688.35	80011.71
688.674	80012.45
688.998	80011.6
689.322	80011.19
689.646	80009.27
689.97	80008.97
690.293	80008.05
690.617	80006.61
690.941	80004.76
691.264	80002.91
691.588	80002.47
691.912	80000.59
692.235	79998.85
692.559	79996.89
692.882	79994.86
693.205	79992.6
693.529	79990.65
693.852	79987.4
694.175	79983.19
694.498	79981.56
694.821	79977.5
695.144	79974.5
695.467	79971.07
695.79	79968.52
696.113	79964.68
696.436	79958.74
696.759	79953.05
697.082	79947.33
697.404	79943.2
697.727	79934.82
698.049	79927.3
698.372	79912.22
698.694	79898.04
699.017	79883.56
699.339	79864.01
699.662	79842.26
699.984	79808.93
700.306	79768.9
700.628	79713.5
700.95	79644.18
701.272	79551.37
701.594	79440.86
701.916	79330.9
702.238	79211.75
702.56	79036.52
702.882	78865.17
703.204	78710.91
703.525	78534.73
703.847	78312.71
704.169	78104.58
704.49	77879.28
704.812	77649.45
705.133	77418.24
705.455	77181.52
705.776	76927.9
706.097	76686.75
706.419	76427.39
706.74	76161.83
707.061	75885.81
707.382	75589.56
707.703	75285.47
708.024	75011.16
708.345	74730.64
708.666	74430.68
708.987	74122.93
709.307	73868.83
709.628	73570.81
709.949	73254.34
710.27	72933.06
710.59	72672.56
710.911	72375.7
711.231	72072.64
711.552	71795.45
711.872	71469.72
712.192	71184.81
712.512	70916.25
712.833	70636.11
713.153	70361.64
713.473	70126.64
713.793	69897.2
714.113	69682.92
714.433	69485.14
714.753	69273.16
715.073	69079.32
715.393	68878.33
715.712	68708.13
716.032	68493.68
716.352	68325.73
716.671	68165.15
716.991	68005.61
717.31	67801.71
717.63	67638.81
717.949	67457.45
718.268	67245.14
718.588	67074.84
718.907	66850.37
719.226	66600.18
719.545	66357.14
719.864	66082.03
720.183	65801.7
720.502	65515.51
720.821	65237.46
721.14	64947.82
721.459	64638.43
721.778	64363.94
722.096	64044.44
722.415	63748.93
722.734	63489.11
723.052	63205.54
723.371	62911.06
723.689	62623.01
724.008	62346.8
724.326	62043.71
724.644	61787.29
724.963	61522.31
725.281	61289.04
725.599	61067.43
725.917	60872.96
726.235	60672.51
726.553	60512.72
726.871	60323.99
727.189	60119.7
727.507	59924.05
727.824	59771.29
728.142	59636.43
728.46	59440.17
728.777	59337.73
729.095	59200.72
729.413	59044.6
729.73	58892.94
730.047	58765.63
730.365	58662.29
730.682	58556.85
730.999	58478.1
731.317	58398.84
731.634	58322.9
731.951	58203.97
732.268	58075.37
732.585	57922.93
732.902	57764.85
733.219	57610.23
733.536	57440.2
733.852	57321.59
734.169	57192.32
734.486	57043.19
734.802	56888.49
735.119	56772.53
735.435	56599.3
735.752	56431.94
736.068	56260.45
736.385	56105.61
736.701	55909.52
737.017	55673.7
737.333	55423.83
737.65	55115.67
737.966	54736.06
738.282	54335.82
738.598	53920.49
738.914	53468.8
739.23	52996.48
739.545	52478.92
739.861	51926.13
740.177	51376.46
740.493	50774.34
740.808	50192.54
741.124	49583.31
741.439	49002.33
741.755	48431.45
742.07	47905.12
742.386	47350.46
742.701	46854.73
743.016	46354.75
743.331	45880.97
743.647	45457.8
743.962	45073.55
744.277	44732.16
744.592	44461.97
744.907	44246.59
745.222	44095
745.537	43998.08
745.851	43961.49
746.166	43979.75
746.481	44035.56
746.795	44147.99
747.11	44308.18
747.424	44485.44
747.739	44651.88
748.053	44823.42
748.368	44971.51
748.682	45089.63
748.996	45223.28
749.311	45318.6
749.625	45414.8
749.939	45511.88
750.253	45572.06
750.567	45637.14
750.881	45692.84
751.195	45758.92
751.509	45823.56
751.822	45862.4
752.136	45905.63
752.45	45955.41
752.763	46025.2
753.077	46083.07
753.39	46118.95
753.704	46140.36
754.017	46154.46
754.331	46185.12
754.644	46185.17
754.957	46188.86
755.27	46194.99
755.584	46207.05
755.897	46218.82
756.21	46216.03
756.523	46195.27
756.836	46172.13
757.149	46094.77
757.461	46025.71
757.774	45940.67
758.087	45819.29
758.4	45681.79
758.712	45538.05
759.025	45373.51
759.337	45211.87
759.65	45051.89
759.962	44895.94
760.275	44731.67
760.587	44586.6
760.899	44451.1
761.211	44358.81
761.523	44293.53
761.836	44288.93
762.148	44291.08
762.46	44315.12
762.772	44381.58
763.083	44516.62
763.395	44662.25
763.707	44880.96
764.019	45101.84
764.33	45332.25
764.642	45588.64
764.954	45863.09
765.265	46138.95
765.577	46412.07
765.888	46660.84
766.199	46905.18
766.511	47120.55
766.822	47345.6
767.133	47519.5
767.444	47687.2
767.755	47781.84
768.066	47838.36
768.377	47834.85
768.688	47771.51
768.999	47680.83
769.31	47548.06
769.621	47356.94
769.931	47141.94
770.242	46890.59
770.553	46597.87
770.863	46263.42
771.174	45909.96
771.484	45528.41
771.794	45125.19
772.105	44710.28
772.415	44282.99
772.725	43836.74
773.035	43402.06
773.345	42955.62
773.656	42493.13
773.966	42027.97
774.276	41599.42
774.585	41166.45
774.895	40734.19
775.205	40354.5
775.515	39969.39
775.824	39578.82
776.134	39196.72
776.444	38831.76
776.753	38468.92
777.063	38131.35
777.372	37805.41
777.681	37481.87
777.991	37175.5
778.3	36876.98
778.609	36585.22
778.918	36296.99
779.228	36028.16
779.537	35763.82
779.846	35496
780.154	35252.59
780.463	35015
780.772	34771.54
781.081	34546.07
781.39	34346.4
781.698	34126.86
782.007	33918.24
782.316	33721.57
782.624	33504.57
782.932	33304.24
783.241	33110.63
783.549	32918.19
783.858	32754.49
784.166	32582.4
784.474	32403.07
784.782	32239.76
785.09	32075.9
785.398	31933.83
785.706	31795.97
786.014	31654.76
786.322	31515.89
786.63	31380.74
786.937	31257.59
787.245	31132.28
787.553	31006.04
787.86	30885.37
788.168	30760.54
788.475	30660.09
788.783	30560.38
789.09	30466.27
789.398	30367.93
789.705	30265.27
790.012	30161.23
790.319	30054.88
790.626	29956.11
790.933	29872.28
791.24	29780.09
791.547	29690.95
791.854	29588.7
792.161	29493.13
792.468	29392.81
792.774	29299.59
793.081	29208.35
793.388	29119.9
793.694	29022.31
794.001	28932.75
794.307	28811.27
794.614	28709.22
794.92	28576.58
795.226	28447.4
795.533	28334.72
795.839	28231.93
796.145	28118.82
796.451	28009.46
796.757	27902.27
797.063	27792.13
797.369	27676.33
797.675	27572.13
797.98	27475.7
798.286	27356.37
798.592	27247.27
798.898	27134.08
799.203	27021.06
799.509	26904.43
799.814	26781.08
800.12	26681.67
800.425	26571.49
800.73	26465.82
801.035	26353.84
801.341	26251.89
801.646	26153.46
801.951	26050.3
802.256	25943.24
802.561	25842.75
802.866	25755.52
803.171	25661.89
803.476	25570.28
803.78	25480.41
804.085	25384.7
804.39	25268.06
804.694	25174.82
804.999	25078.64
805.303	24987.28
805.608	24900.44
805.912	24821.33
806.216	24747.93
806.521	24673.73
806.825	24596.18
807.129	24520.47
807.433	24447.93
807.737	24383.61
808.041	24322.2
808.345	24269.98
808.649	24219.91
808.953	24171.36
809.257	24105.26
809.561	24048.42
809.864	23999.11
810.168	23962.78
810.471	23926.32
810.775	23898.55
811.078	23883.14
811.382	23857.26
811.685	23851.08
811.988	23838.46
812.292	23825.81
812.595	23825.23
812.898	23828.61
813.201	23840.37
813.504	23867.35
813.807	23895.57
814.11	23927.29
814.413	23952.28
814.716	23976.91
815.018	24021.79
815.321	24082.25
815.624	24170.59
815.926	24273.2
816.229	24400.41
816.531	24543.12
816.834	24705.83
817.136	24907.05
817.438	25113.13
817.74	25381.33
818.043	25697.55
818.345	26078.96
818.647	26544.03
818.949	27085.25
819.251	27713.25
819.553	28465.33
819.855	29330.27
820.156	30301.57
820.458	31378.81
820.76	32534.54
821.062	33743.69
821.363	35004.62
821.665	36344.19
821.966	37775.87
822.268	39226.21
822.569	40676.21
822.87	42158.69
823.171	43644.82
823.473	45172.72
823.774	46746.98
824.075	48273.25
824.376	49766.8
824.677	51233.16
824.978	52613.62
825.279	53909.57
825.58	55092.32
825.88	56121.52
826.181	57012.4
826.482	57797.7
826.782	58417.27
827.083	58937.45
827.383	59323.36
827.684	59543.17
827.984	59622.06
828.284	59530.07
828.585	59302.35
828.885	58995.34
829.185	58528.67
829.485	57979.05
829.785	57310.09
830.085	56483.66
830.385	55612.35
830.685	54676.13
830.985	53634.78
831.285	52549.56
831.584	51416.43
831.884	50259
832.183	49086.35
832.483	47872.74
832.782	46600.46
833.082	45323.93
833.381	44042.78
833.681	42804.7
833.98	41639.04
834.279	40500.95
834.578	39388.65
834.877	38353.02
835.176	37341.45
835.475	36416.23
835.774	35526.94
836.073	34645.67
836.372	33831.37
836.671	33019.15
836.969	32215.42
837.268	31472.23
837.567	30765.22
837.865	30089.32
838.164	29411.58
838.462	28765.73
838.761	28156.71
839.059	27570.07
839.357	27023.66
839.655	26489.27
839.953	25952.52
840.252	25427.22
840.55	24906.65
840.848	24406.23
841.146	23918.43
841.443	23427.42
841.741	22925.5
842.039	22419.43
842.337	21922.98
842.634	21460.53
842.932	21021.55
843.229	20600.16
843.527	20180.25
843.824	19743.85
844.122	19296.1
844.419	18877.47
844.716	18447.14
845.013	18032.48
845.311	17648.77
845.608	17277.87
845.905	16915.18
846.202	16562.08
846.499	16196.35
846.796	15833.06
847.092	15467.69
847.389	15101.65
847.686	14761.47
847.982	14443.85
848.279	14134.31
848.576	13851.11
848.872	13555.29
849.168	13267.97
849.465	12989.36
849.761	12700.36
850.057	12423.08
850.354	12160.23
850.65	11913.96
850.946	11691.31
851.242	11470.81
851.538	11253.56
851.834	11033.15
852.13	10819.28
852.425	10621.34
852.721	10441.52
853.017	10275.36
853.312	10123.37
853.608	9980.51
853.903	9840.44
854.199	9694.97
854.494	9568.33
854.79	9438.31
855.085	9308.87
855.38	9179.83
855.675	9048.75
855.971	8932.26
856.266	8833.38
856.561	8740.48
856.856	8645.69
857.151	8549.58
857.445	8450.66
857.74	8354.94
858.035	8266.42
858.33	8174.51
858.624	8089.73
858.919	8011.71
859.213	7927.08
859.508	7844.43
859.802	7755.11
860.096	7673.4
860.391	7612.72
860.685	7548.23
860.979	7488.64
861.273	7435.89
861.567	7378.6
861.861	7314.27
862.155	7260.46
862.449	7192.68
862.743	7131.75
863.037	7070.88
863.33	7011.8
863.624	6960.64
863.918	6912.46
864.211	6870.71
864.505	6840.78
864.798	6800.99
865.092	6755.44
865.385	6710.73
865.678	6662.03
865.971	6627.65
866.264	6598.36
866.558	6565.49
866.851	6531.59
867.144	6503.02
867.437	6465.61
867.729	6435.61
868.022	6415.14
868.315	6394.68
868.608	6381.71
868.9	6371.15
869.193	6352.42
869.485	6327.69
869.778	6302.08
870.07	6276.05
870.363	6258.05
870.655	6238.61
870.947	6230.34
871.239	6220.92
871.532	6220.39
871.824	6224.61
872.116	6221.54
872.408	6215.32
872.699	6200.39
872.991	6195.85
873.283	6188.53
873.575	6192.65
873.867	6199.76
874.158	6205.67
874.45	6203.45
874.741	6204.71
875.033	6200.57
875.324	6213.74
875.615	6234.42
875.907	6256.46
876.198	6272.18
876.489	6278.76
876.78	6280.96
877.071	6279.24
877.362	6282.55
877.653	6286.42
877.944	6294.08
878.235	6302.87
878.526	6311.1
878.816	6329.93
