Data from 24HourExp_27052025_FLMS018081_11-48-20-135.txt Node
Date: Tue May 27 11:48:20 BST 2025
User: adleo
Spectrometer: FLMS01808
Trigger mode: 0
Integration Time (sec): 4.000000E-1
Scans to average: 10
Electric dark correction enabled: true
Nonlinearity correction enabled: true
Boxcar width: 10
XAxis mode: Wavelengths
Number of Pixels in Spectrum: 2048
>>>>>Begin Spectral Data<<<<<
178.471	-121.95
178.857	-114.42
179.244	-107.88
179.631	-102
180.017	-94.64
180.404	-87.02
180.79	-76.5
181.176	-68.36
181.563	-60.38
181.949	-49.27
182.335	-38.87
182.722	-23.49
183.108	-5.56
183.494	20.31
183.88	71.84
184.266	126.39
184.653	181.03
185.039	233.95
185.425	289.08
185.811	342.33
186.197	394.14
186.582	442.37
186.968	493.87
187.354	546.6
187.74	597.99
188.126	647.74
188.511	697.51
188.897	744.95
189.283	792.42
189.668	839.48
190.054	881.91
190.439	927.65
190.825	970.98
191.21	1011.37
191.596	1045.59
191.981	1054.89
192.366	1057.84
192.752	1059.39
193.137	1063.58
193.522	1064.56
193.908	1065.42
194.293	1068.99
194.678	1073.4
195.063	1074.58
195.448	1075.48
195.833	1074.34
196.218	1074.27
196.603	1073.56
196.988	1073
197.373	1073.64
197.757	1073.4
198.142	1075.45
198.527	1071.9
198.912	1071.74
199.296	1071.28
199.681	1069.08
200.066	1065.7
200.45	1066.12
200.835	1067.4
201.219	1065.41
201.604	1064.57
201.988	1064.68
202.372	1064.98
202.757	1065.39
203.141	1066.4
203.525	1065.42
203.91	1067.37
204.294	1069.53
204.678	1070.25
205.062	1069.03
205.446	1068.3
205.83	1070.54
206.214	1068.78
206.598	1070.14
206.982	1070.4
207.366	1070.67
207.75	1071.34
208.134	1074.73
208.517	1076.51
208.901	1076.94
209.285	1078.7
209.669	1079.74
210.052	1081.77
210.436	1081.31
210.819	1081.11
211.203	1079.97
211.586	1080.43
211.97	1079.68
212.353	1077.63
212.737	1078.15
213.12	1082.19
213.503	1084.61
213.886	1083.72
214.27	1085.38
214.653	1086.85
215.036	1087.48
215.419	1089.89
215.802	1093.34
216.185	1095.32
216.568	1096.68
216.951	1098.37
217.334	1100.47
217.717	1103.76
218.1	1104.77
218.482	1108.64
218.865	1113.12
219.248	1118.67
219.631	1124.87
220.013	1130.35
220.396	1138.96
220.778	1144.47
221.161	1147.73
221.544	1152.81
221.926	1162.55
222.308	1169.87
222.691	1178.27
223.073	1186.91
223.455	1195.85
223.838	1201.95
224.22	1210.12
224.602	1221.95
224.984	1231.96
225.366	1244.44
225.749	1259.25
226.131	1272.01
226.513	1285.06
226.895	1296.95
227.276	1310.14
227.658	1322.4
228.04	1340.12
228.422	1354.51
228.804	1371.08
229.186	1387.82
229.567	1405.34
229.949	1419.11
230.331	1435.94
230.712	1450.23
231.094	1467.6
231.475	1484.24
231.857	1503.65
232.238	1523.38
232.62	1540.16
233.001	1560.82
233.382	1578.73
233.763	1595.46
234.145	1614.73
234.526	1634.84
234.907	1655.7
235.288	1675.07
235.669	1694.76
236.05	1711.12
236.431	1729.56
236.812	1749.73
237.193	1770.11
237.574	1789.77
237.955	1810.82
238.336	1831.91
238.717	1856.43
239.097	1879.46
239.478	1901.64
239.859	1923.34
240.239	1946.84
240.62	1969.83
241.001	1990.05
241.381	2012.44
241.762	2036.16
242.142	2058.88
242.522	2080.41
242.903	2104.45
243.283	2128.92
243.663	2155.24
244.044	2182.84
244.424	2210.6
244.804	2236.22
245.184	2263.74
245.564	2290.07
245.944	2320.19
246.324	2350.41
246.704	2378.58
247.084	2406.66
247.464	2437.42
247.844	2466.5
248.224	2493.79
248.604	2523.59
248.983	2554.97
249.363	2587.94
249.743	2616.56
250.122	2645.44
250.502	2677.08
250.882	2706.3
251.261	2739.02
251.641	2768.84
252.02	2798.02
252.399	2831.37
252.779	2865.32
253.158	2899.2
253.537	2936.85
253.917	2976.16
254.296	3011.3
254.675	3047.72
255.054	3087.21
255.433	3127.8
255.812	3169.18
256.191	3210.61
256.57	3250.9
256.949	3294.16
257.328	3334.19
257.707	3378.59
258.086	3424.33
258.465	3471.58
258.843	3522.9
259.222	3571.44
259.601	3623.82
259.979	3677.56
260.358	3728.65
260.736	3779.71
261.115	3834.7
261.493	3885.27
261.872	3931.96
262.25	3986.24
262.629	4039.31
263.007	4097.2
263.385	4153.71
263.763	4212.07
264.142	4271.15
264.52	4334.72
264.898	4395.67
265.276	4460.65
265.654	4527.31
266.032	4596.9
266.41	4663.09
266.788	4731.51
267.166	4804.16
267.544	4874.9
267.921	4947.97
268.299	5022.66
268.677	5099.56
269.055	5178.99
269.432	5261.34
269.81	5345.83
270.188	5431.62
270.565	5521.7
270.943	5609.85
271.32	5697.57
271.697	5792.54
272.075	5886.46
272.452	5979.88
272.829	6077.45
273.207	6176.87
273.584	6280.14
273.961	6381.56
274.338	6494.67
274.715	6607.05
275.092	6721.68
275.469	6843.36
275.846	6967.51
276.223	7090.15
276.6	7215.1
276.977	7337.53
277.354	7463.29
277.731	7589.08
278.108	7719.12
278.484	7847.12
278.861	7977.04
279.238	8114.93
279.614	8249.68
279.991	8389.4
280.367	8531.81
280.744	8679.96
281.12	8826.4
281.497	8969.81
281.873	9119.24
282.249	9263.24
282.625	9408.6
283.002	9554.66
283.378	9697.67
283.754	9842.73
284.13	9994.34
284.506	10148.71
284.882	10304.66
285.258	10459.69
285.634	10620.49
286.01	10776.53
286.386	10936.53
286.762	11099.1
287.138	11261.9
287.513	11427.66
287.889	11589.73
288.265	11752.16
288.641	11910.12
289.016	12071.45
289.392	12236.54
289.767	12401.61
290.143	12567.12
290.518	12727.07
290.894	12891.4
291.269	13054.42
291.644	13215.59
292.02	13368
292.395	13521.39
292.77	13676.52
293.145	13830.29
293.52	13984.81
293.895	14137.2
294.27	14292.14
294.646	14441.05
295.02	14585.51
295.395	14734.67
295.77	14891.94
296.145	15044.12
296.52	15199.63
296.895	15354.95
297.269	15510.76
297.644	15661.83
298.019	15813.3
298.393	15969.81
298.768	16123.62
299.143	16280.92
299.517	16426.34
299.891	16585.41
300.266	16743.54
300.64	16904.31
301.015	17065.49
301.389	17235.43
301.763	17408.19
302.137	17576.12
302.512	17757.61
302.886	17941.02
303.26	18125.76
303.634	18298.35
304.008	18473.53
304.382	18654.12
304.756	18837.89
305.13	19017.77
305.504	19196.83
305.877	19386.69
306.251	19589.79
306.625	19791.77
306.999	19992.42
307.372	20209.69
307.746	20426.42
308.119	20642.97
308.493	20849.66
308.866	21059.5
309.24	21267.75
309.613	21473.58
309.987	21681.76
310.36	21877.94
310.733	22078.34
311.107	22286.14
311.48	22507.48
311.853	22741.3
312.226	22959.67
312.599	23184.69
312.972	23404.77
313.345	23632.91
313.718	23856.53
314.091	24073.35
314.464	24299.53
314.837	24527.19
315.21	24734.98
315.582	24944.96
315.955	25152.37
316.328	25367.96
316.7	25582.83
317.073	25799.91
317.446	26016.78
317.818	26246.61
318.191	26472.72
318.563	26695.72
318.936	26900.13
319.308	27102.23
319.68	27301.22
320.053	27496.35
320.425	27677.72
320.797	27866.76
321.169	28028.04
321.541	28170.61
321.913	28297.37
322.285	28414.09
322.657	28530.36
323.029	28680.62
323.401	28822.02
323.773	28986.98
324.145	29160.28
324.517	29347.04
324.889	29520.91
325.26	29723.65
325.632	29929.4
326.004	30161.17
326.375	30417.16
326.747	30691.01
327.118	30990.91
327.49	31277.68
327.861	31585.6
328.233	31888.57
328.604	32191.67
328.975	32505
329.346	32818.09
329.718	33132.05
330.089	33438.32
330.46	33731.41
330.831	33996.98
331.202	34255.06
331.573	34493.21
331.944	34723.51
332.315	34946.68
332.686	35160.23
333.057	35360.63
333.428	35544.75
333.799	35712.15
334.169	35860.87
334.54	36004.2
334.911	36121.9
335.281	36250.33
335.652	36377.08
336.022	36515.12
336.393	36658.81
336.763	36827.24
337.134	37012.64
337.504	37212.45
337.874	37411.55
338.245	37618.75
338.615	37830.14
338.985	38059.18
339.355	38282.08
339.726	38504.7
340.096	38729.84
340.466	38980.55
340.836	39218.84
341.206	39460.24
341.576	39708.46
341.945	39950.39
342.315	40182.52
342.685	40424.88
343.055	40668.44
343.425	40900.29
343.794	41132.38
344.164	41362.45
344.533	41587.17
344.903	41811.15
345.273	42036.85
345.642	42256.09
346.011	42478.97
346.381	42712.05
346.75	42941.66
347.12	43184.45
347.489	43433.16
347.858	43676.11
348.227	43885.82
348.596	44108.12
348.965	44342.04
349.334	44565.58
349.704	44801.18
350.072	45043.08
350.441	45275.32
350.81	45510.84
351.179	45745.22
351.548	45984.94
351.917	46210.91
352.285	46408.43
352.654	46616.4
353.023	46822.04
353.391	47022.82
353.76	47240.07
354.129	47430.29
354.497	47656.45
354.865	47869.03
355.234	48096.07
355.602	48309.88
355.971	48555.87
356.339	48771.46
356.707	48986.3
357.075	49210.41
357.443	49429.55
357.811	49642.83
358.18	49850.6
358.548	50057.94
358.916	50269.66
359.284	50478.45
359.651	50688.26
360.019	50906.49
360.387	51105.55
360.755	51303.48
361.123	51532.74
361.49	51752.44
361.858	51972.32
362.226	52172.63
362.593	52383.24
362.961	52558.03
363.328	52755.43
363.696	52920.63
364.063	53137.73
364.43	53342.73
364.798	53552.02
365.165	53735.23
365.532	53914.23
365.899	54098.16
366.267	54263.94
366.634	54411.71
367.001	54581.14
367.368	54720
367.735	54905.11
368.102	55082.54
368.469	55272.13
368.835	55446.67
369.202	55607.39
369.569	55795.29
369.936	55980.2
370.303	56161.41
370.669	56363.97
371.036	56529.94
371.402	56735.4
371.769	56909.54
372.135	57062.33
372.502	57188.51
372.868	57328.27
373.235	57473.88
373.601	57605.47
373.967	57774.91
374.333	57948.89
374.7	58121.65
375.066	58327.85
375.432	58507.8
375.798	58685
376.164	58851.86
376.53	58999.2
376.896	59168.6
377.262	59340.42
377.628	59466.03
377.993	59609.74
378.359	59752.46
378.725	59904.49
379.091	60049.54
379.456	60178.45
379.822	60307.18
380.187	60451.63
380.553	60633.8
380.918	60824.19
381.284	61004.95
381.649	61172.14
382.015	61315.83
382.38	61437.81
382.745	61599.22
383.11	61739.46
383.476	61878.96
383.841	62007.45
384.206	62160.64
384.571	62276.3
384.936	62404.32
385.301	62573.74
385.666	62708.4
386.031	62851.08
386.396	63013.76
386.76	63158.7
387.125	63351.53
387.49	63545.88
387.855	63737.33
388.219	63904.25
388.584	64072.63
388.948	64259.43
389.313	64425.38
389.677	64631.75
390.042	64863.57
390.406	65015.52
390.771	65205.96
391.135	65389.79
391.499	65616.69
391.863	65846.27
392.227	66088.81
392.592	66290.35
392.956	66482.07
393.32	66673.63
393.684	66892.13
394.048	67066.11
394.412	67248.63
394.775	67391.65
395.139	67538.24
395.503	67689
395.867	67844.79
396.231	67982.48
396.594	68087
396.958	68223.73
397.321	68383.63
397.685	68502.19
398.048	68644.04
398.412	68786.17
398.775	68914.95
399.139	69036.44
399.502	69139.87
399.865	69281.66
400.228	69465.13
400.592	69594.5
400.955	69781.76
401.318	69909.98
401.681	70068.47
402.044	70204.15
402.407	70355.21
402.77	70512.62
403.133	70705.88
403.496	70844.92
403.859	71004.64
404.221	71238.4
404.584	71466.3
404.947	71701.78
405.309	71897.43
405.672	72122.18
406.034	72333.17
406.397	72585.68
406.759	72808.62
407.122	72992.51
407.484	73165.55
407.847	73358.83
408.209	73610.65
408.571	73840.64
408.933	74098.22
409.296	74342.3
409.658	74574.22
410.02	74849.44
410.382	75166.05
410.744	75421.91
411.106	75704.1
411.468	75972.18
411.83	76210.8
412.191	76417.77
412.553	76598.37
412.915	76832.41
413.277	77054.89
413.638	77267.48
414	77442.5
414.361	77633.18
414.723	77878.12
415.084	78106.25
415.446	78291.31
415.807	78451.78
416.169	78586.06
416.53	78700.81
416.891	78833.59
417.252	78993.7
417.614	79096.56
417.975	79156.24
418.336	79230.37
418.697	79314.37
419.058	79387.86
419.419	79447.01
419.78	79510.54
420.141	79557.4
420.501	79598.41
420.862	79634.69
421.223	79663.94
421.584	79719.05
421.944	79751.14
422.305	79771.75
422.666	79785.58
423.026	79792.84
423.387	79805.78
423.747	79818.4
424.107	79834.26
424.468	79849.03
424.828	79857.14
425.188	79862.56
425.549	79871.7
425.909	79879.04
426.269	79875.57
426.629	79881.99
426.989	79887.15
427.349	79891.65
427.709	79897.59
428.069	79901.39
428.429	79906.3
428.789	79914.01
429.149	79918.85
429.508	79925.49
429.868	79931.99
430.228	79937.42
430.587	79944.43
430.947	79951.29
431.306	79958.86
431.666	79961.49
432.025	79964.66
432.385	79968.17
432.744	79972.49
433.103	79974.19
433.463	79977.56
433.822	79987.03
434.181	79991.43
434.54	79993.87
434.899	79997.6
435.258	80001.44
435.618	80003.55
435.976	80006.69
436.335	80007.17
436.694	80010.64
437.053	80008.2
437.412	80008.98
437.771	80009.31
438.129	80009.61
438.488	80012.42
438.847	80011.38
439.205	80012.93
439.564	80014.45
439.922	80014.74
440.281	80015.48
440.639	80016.81
440.997	80016.52
441.356	80018.81
441.714	80020.44
442.072	80022.17
442.431	80021.92
442.789	80022.51
443.147	80022.1
443.505	80022.58
443.863	80023.84
444.221	80023.21
444.579	80026.13
444.937	80025.13
445.294	80026.02
445.652	80025.61
446.01	80024.95
446.368	80025.8
446.725	80026.13
447.083	80025.32
447.441	80025.35
447.798	80024.39
448.156	80025.2
448.513	80025.83
448.87	80025.09
449.228	80025.76
449.585	80025.98
449.942	80027.2
450.3	80028.35
450.657	80029.83
451.014	80029.24
451.371	80030.2
451.728	80029.31
452.085	80027.02
452.442	80028.2
452.799	80029.64
453.156	80030.49
453.513	80030.57
453.869	80031.34
454.226	80031.16
454.583	80032.27
454.939	80032.64
455.296	80032.27
455.653	80032.45
456.009	80032.23
456.366	80032.9
456.722	80031.93
457.078	80031.34
457.435	80031.38
457.791	80031.05
458.147	80031.6
458.503	80033.97
458.86	80033.78
459.216	80034.86
459.572	80038.41
459.928	80038.77
460.284	80037.74
460.64	80039.85
460.996	80041.51
461.351	80041.59
461.707	80042.03
462.063	80042.55
462.419	80043.95
462.774	80046.87
463.13	80047.95
463.486	80049.91
463.841	80050.2
464.197	80050.5
464.552	80051.42
464.908	80051.05
465.263	80050.57
465.618	80051.57
465.974	80053.01
466.329	80053.72
466.684	80054.38
467.039	80054.31
467.394	80055.05
467.749	80055.83
468.104	80054.16
468.459	80054.94
468.814	80056.38
469.169	80058.08
469.524	80058.41
469.879	80059.27
470.233	80057.71
470.588	80058.19
470.943	80058.08
471.297	80059.75
471.652	80061.63
472.006	80062.78
472.361	80063.52
472.715	80065.3
473.07	80065.33
473.424	80063.63
473.778	80063.74
474.133	80063.82
474.487	80063.78
474.841	80064.48
475.195	80065.7
475.549	80068.18
475.903	80066.96
476.257	80067.07
476.611	80067
476.965	80067.48
477.319	80066.29
477.673	80066.37
478.026	80066.81
478.38	80066.66
478.734	80068
479.087	80067
479.441	80066.85
479.795	80068.92
480.148	80069.18
480.502	80069.81
480.855	80069.88
481.208	80069.96
481.562	80071.25
481.915	80072.4
482.268	80073.1
482.621	80073.47
482.974	80073.66
483.328	80075.06
483.681	80075.58
484.034	80076.62
484.387	80077.1
484.739	80079.69
485.092	80081.8
485.445	80081.65
485.798	80082.35
486.151	80082.57
486.503	80084.2
486.856	80084.83
487.209	80083.2
487.561	80082.39
487.914	80082.76
488.266	80085.09
488.618	80085.39
488.971	80084.76
489.323	80083.57
489.675	80084.35
490.028	80084.91
490.38	80083.68
490.732	80084.8
491.084	80086.31
491.436	80086.76
491.788	80086.65
492.14	80086.09
492.492	80086.02
492.844	80086.94
493.196	80088.31
493.548	80088.2
493.899	80087.79
494.251	80088.16
494.603	80089.72
494.954	80089.94
495.306	80088.46
495.657	80086.87
496.009	80087.13
496.36	80087.87
496.712	80088.57
497.063	80088.16
497.414	80088.27
497.765	80090.05
498.117	80088.39
498.468	80087.09
498.819	80086.2
499.17	80087.27
499.521	80086.65
499.872	80087.02
500.223	80086.79
500.574	80086.13
500.924	80085.68
501.275	80086.24
501.626	80086.02
501.977	80085.02
502.327	80084.61
502.678	80085.24
503.029	80086.2
503.379	80084.83
503.73	80085.68
504.08	80086.5
504.43	80085.39
504.781	80084.72
505.131	80084.17
505.481	80085.02
505.831	80084.2
506.182	80084.5
506.532	80084.43
506.882	80085.09
507.232	80084.05
507.582	80084.05
507.932	80081.95
508.281	80080.95
508.631	80081.17
508.981	80079.8
509.331	80079.73
509.681	80079.54
510.03	80078.8
510.38	80076.54
510.729	80077.62
511.079	80075.62
511.428	80075.1
511.778	80075.47
512.127	80075.06
512.476	80074.88
512.826	80072.7
513.175	80074.07
513.524	80073.7
513.873	80073.29
514.222	80073.1
514.571	80073.4
514.92	80073.4
515.269	80074.29
515.618	80075.51
515.967	80074.21
516.316	80076.95
516.665	80078.95
517.014	80078.4
517.362	80079.25
517.711	80081.95
518.059	80083.39
518.408	80085.09
518.757	80084.5
519.105	80084.76
519.453	80085.17
519.802	80085.8
520.15	80087.76
520.498	80087.5
520.847	80086.76
521.195	80085.61
521.543	80085.31
521.891	80085.24
522.239	80085.98
522.587	80085.87
522.935	80087.02
523.283	80088.68
523.631	80087.76
523.979	80086.94
524.326	80088.68
524.674	80088.76
525.022	80087.39
525.369	80088.16
525.717	80088.02
526.064	80087.16
526.412	80088.61
526.759	80088.46
527.107	80087.46
527.454	80086.76
527.801	80086.46
528.149	80086.98
528.496	80087.09
528.843	80087.24
529.19	80087.72
529.537	80086.76
529.884	80088.42
530.231	80086.68
530.578	80086.05
530.925	80087.35
531.272	80086.98
531.619	80086.35
531.966	80086.05
532.312	80086.98
532.659	80084.94
533.006	80084.06
533.352	80085.91
533.699	80084.65
534.045	80086.42
534.392	80085.24
534.738	80085.68
535.084	80084.94
535.431	80085.09
535.777	80085.42
536.123	80084.98
536.469	80084.68
536.815	80084.87
537.161	80085.65
537.507	80086.35
537.853	80086.42
538.199	80084.98
538.545	80085.42
538.891	80085.46
539.237	80085.83
539.582	80085.28
539.928	80085.76
540.274	80086.28
540.619	80086.28
540.965	80086.09
541.31	80084.87
541.656	80087.68
542.001	80089.46
542.347	80089.31
542.692	80088.42
543.037	80086.79
543.382	80088.39
543.728	80088.24
544.073	80086.98
544.418	80086.17
544.763	80085.91
545.108	80085.06
545.453	80083.98
545.798	80082.95
546.142	80083.28
546.487	80084.2
546.832	80083.72
547.177	80084.13
547.521	80084.5
547.866	80085.17
548.211	80084.17
548.555	80083.65
548.9	80081.69
549.244	80079.69
549.588	80079.28
549.933	80078.36
550.277	80080.73
550.621	80080.36
550.965	80079.8
551.31	80080.24
551.654	80079.28
551.998	80079.32
552.342	80078.54
552.686	80078.36
553.03	80078.99
553.373	80079.69
553.717	80078.36
554.061	80079.84
554.405	80079.43
554.748	80079.13
555.092	80077.91
555.436	80077.21
555.779	80078.47
556.123	80078.32
556.466	80078.58
556.81	80078.84
557.153	80079.98
557.496	80079.54
557.839	80080.21
558.183	80080.39
558.526	80081.28
558.869	80079.87
559.212	80079.13
559.555	80079.13
559.898	80080.21
560.241	80078.91
560.584	80080.24
560.927	80081.06
561.269	80081.17
561.612	80080.02
561.955	80079.06
562.297	80077.65
562.64	80078.88
562.983	80077.32
563.325	80077.62
563.668	80077.58
564.01	80076.69
564.352	80077.4
564.695	80075.95
565.037	80073.25
565.379	80073.21
565.721	80071.59
566.063	80072.47
566.406	80073.21
566.748	80073.4
567.09	80072.58
567.431	80071.88
567.773	80069.55
568.115	80068.14
568.457	80066.26
568.799	80066.85
569.14	80067.48
569.482	80069.4
569.824	80068.99
570.165	80068.85
570.507	80069.88
570.848	80071.36
571.19	80071.14
571.531	80071.07
571.872	80071.7
572.214	80073.69
572.555	80074.47
572.896	80075.88
573.237	80075.25
573.578	80074.03
573.919	80073.84
574.26	80073.51
574.601	80075.29
574.942	80074.95
575.283	80075.03
575.624	80075.25
575.964	80073.69
576.305	80073.58
576.646	80072.14
576.986	80073.36
577.327	80075.18
577.667	80073.88
578.008	80069.44
578.348	80071.85
578.689	80070.51
579.029	80070.37
579.369	80068.55
579.71	80067.74
580.05	80067.33
580.39	80069.66
580.73	80068.89
581.07	80070.66
581.41	80070.4
581.75	80069.59
582.09	80068.81
582.43	80069.55
582.769	80070.26
583.109	80071.81
583.449	80069.85
583.789	80070.4
584.128	80069.4
584.468	80066.55
584.807	80067
585.147	80068.03
585.486	80066.3
585.825	80067.33
586.165	80067.66
586.504	80067.37
586.843	80067.66
587.182	80067.89
587.522	80065.26
587.861	80066.07
588.2	80064.93
588.539	80065.33
588.878	80065.92
589.216	80066.7
589.555	80064.44
589.894	80065.52
590.233	80065.7
590.572	80067.07
590.91	80065.78
591.249	80065.63
591.587	80066.26
591.926	80065.52
592.264	80066.37
592.603	80067.81
592.941	80066.7
593.279	80066.55
593.618	80067.55
593.956	80066.63
594.294	80065.59
594.632	80065.26
594.97	80066.04
595.308	80066.18
595.646	80066.22
595.984	80065.11
596.322	80064.3
596.66	80066.66
596.998	80063.93
597.335	80062.71
597.673	80062.78
598.011	80062.34
598.348	80062.34
598.686	80062.45
599.023	80062.59
599.361	80061.97
599.698	80060.08
600.035	80060.37
600.373	80060.82
600.71	80060.93
601.047	80061.89
601.384	80061.41
601.722	80062.22
602.059	80062.15
602.396	80061.19
602.733	80060
603.069	80059.86
603.406	80059.52
603.743	80058.34
604.08	80058.67
604.417	80058.45
604.753	80059.45
605.09	80059.89
605.426	80059.67
605.763	80058.6
606.099	80058.86
606.436	80058.41
606.772	80059.49
607.109	80057.42
607.445	80056.38
607.781	80054.94
608.117	80055.38
608.453	80056.42
608.79	80055.72
609.126	80053.61
609.462	80053.24
609.798	80053.79
610.133	80052.98
610.469	80052.9
610.805	80053.68
611.141	80055.38
611.477	80056.31
611.812	80054.72
612.148	80055.12
612.483	80055.46
612.819	80057.08
613.154	80057.82
613.49	80058.23
613.825	80056.68
614.16	80058.6
614.496	80058.41
614.831	80059.15
615.166	80057.23
615.501	80055.38
615.836	80054.57
616.171	80055.6
616.506	80055.42
616.841	80054.9
617.176	80055.71
617.511	80056.49
617.846	80053.68
618.18	80051.76
618.515	80051.53
618.85	80050.83
619.184	80050.24
619.519	80049.39
619.853	80049.02
620.188	80046.61
620.522	80046.73
620.856	80045.99
621.191	80045.62
621.525	80044.95
621.859	80044.51
622.193	80044.06
622.527	80045.25
622.861	80046.84
623.195	80045.88
623.529	80045.14
623.863	80044.95
624.197	80045.17
624.531	80043.47
624.865	80045.39
625.198	80044.95
625.532	80042.88
625.866	80043.66
626.199	80043.77
626.533	80043.62
626.866	80040.4
627.2	80040.66
627.533	80038.92
627.866	80039
628.2	80038.48
628.533	80038.22
628.866	80037.67
629.199	80037
629.532	80035.52
629.865	80033.97
630.198	80034.23
630.531	80033.64
630.864	80033.56
631.197	80033.41
631.529	80035.56
631.862	80036.22
632.195	80035.89
632.527	80036.04
632.86	80036.19
633.193	80035.71
633.525	80036.11
633.857	80038.11
634.19	80036.7
634.522	80037.44
634.854	80038.44
635.187	80039.22
635.519	80038.81
635.851	80039.85
636.183	80039.81
636.515	80041.36
636.847	80042.07
637.179	80041.81
637.511	80042.29
637.843	80043.18
638.174	80041.7
638.506	80040.25
638.838	80038.18
639.17	80038.18
639.501	80038.37
639.833	80037.78
640.164	80038
640.496	80038.66
640.827	80039.37
641.158	80040.77
641.49	80041.77
641.821	80042.84
642.152	80042.21
642.483	80042.4
642.814	80041.7
643.145	80043.88
643.476	80043.8
643.807	80042.81
644.138	80040.55
644.469	80041
644.8	80040.29
645.131	80040.85
645.461	80040.51
645.792	80040.74
646.122	80040
646.453	80040.22
646.784	80038.22
647.114	80037.19
647.444	80036.45
647.775	80034.71
648.105	80034.82
648.435	80033.64
648.765	80030.42
649.096	80031.75
649.426	80030.38
649.756	80030.09
650.086	80028.53
650.416	80026.09
650.746	80026.35
651.075	80028.05
651.405	80028.5
651.735	80028.64
652.065	80028.94
652.394	80028.94
652.724	80027.72
653.054	80028.87
653.383	80027.65
653.712	80029.24
654.042	80029.46
654.371	80028.57
654.701	80029.09
655.03	80026.69
655.359	80026.13
655.688	80028.2
656.017	80025.61
656.346	80025.5
656.675	80024.43
657.004	80023.73
657.333	80024.54
657.662	80025.46
657.991	80025.8
658.32	80026.91
658.648	80026.91
658.977	80025.24
659.306	80024.95
659.634	80026.94
659.963	80024.62
660.291	80026.13
660.619	80026.54
660.948	80026.83
661.276	80025.98
661.604	80026.17
661.933	80027.39
662.261	80026.61
662.589	80026.5
662.917	80028.13
663.245	80028.39
663.573	80027.2
663.901	80026.87
664.229	80025.95
664.556	80023.32
664.884	80022.43
665.212	80020.07
665.539	80017.18
665.867	80016.48
666.195	80015.3
666.522	80013.67
666.85	80014.04
667.177	80014.04
667.504	80011.71
667.832	80011.16
668.159	80010.75
668.486	80010.38
668.813	80009.79
669.14	80010.27
669.467	80008.64
669.794	80007.91
670.121	80007.42
670.448	80007.65
670.775	80007.91
671.102	80008.46
671.429	80009.57
671.755	80009.16
672.082	80010.01
672.409	80010.71
672.735	80010.9
673.062	80011.08
673.388	80011.31
673.714	80011.08
674.041	80009.94
674.367	80009.86
674.693	80007.83
675.019	80007.87
675.346	80006.87
675.672	80007.05
675.998	80007.17
676.324	80006.72
676.65	80006.06
676.976	80007.24
677.301	80007.83
677.627	80007.09
677.953	80006.02
678.279	80005.35
678.604	80005.35
678.93	80003.06
679.255	80003.14
679.581	80003.91
679.906	80003.03
680.232	80001.77
680.557	80002.77
680.882	80002.88
681.208	80002.73
681.533	80003.25
681.858	80002.62
682.183	80002.69
682.508	80002.51
682.833	80002.43
683.158	80001.62
683.483	80000.25
683.808	79999.7
684.132	79998.55
684.457	79998.48
684.782	79999.66
685.106	79999.48
685.431	79997.48
685.755	79997.48
686.08	79997.15
686.404	79994.34
686.729	79995.64
687.053	79994.38
687.377	79993.12
687.701	79992.24
688.026	79991.24
688.35	79990.06
688.674	79990.17
688.998	79990.24
689.322	79989.72
689.646	79988.36
689.97	79988.17
690.293	79985.81
690.617	79984.11
690.941	79983.41
691.264	79980.56
691.588	79977.94
691.912	79975.91
692.235	79975.83
692.559	79974.95
692.882	79972.21
693.205	79971.33
693.529	79967.34
693.852	79966.2
694.175	79960.84
694.498	79957.74
694.821	79955.19
695.144	79952.42
695.467	79946.3
695.79	79939.76
696.113	79933.67
696.436	79926.74
696.759	79917.74
697.082	79912.09
697.404	79903.54
697.727	79892.74
698.049	79882.64
698.372	79865.81
698.694	79847.59
699.017	79825.45
699.339	79797.99
699.662	79767.86
699.984	79717.42
700.306	79654.09
700.628	79559.66
700.95	79442.36
701.272	79305.13
701.594	79157.17
701.916	79016.27
702.238	78854.37
702.56	78643.48
702.882	78442.95
703.204	78249.7
703.525	78041.89
703.847	77787.16
704.169	77550.91
704.49	77293.99
704.812	77034.1
705.133	76777.9
705.455	76516.91
705.776	76238.56
706.097	75978.01
706.419	75703.54
706.74	75422.59
707.061	75140.13
707.382	74851.34
707.703	74573.78
708.024	74319.66
708.345	74052.3
708.666	73763.86
708.987	73470.57
709.307	73230.83
709.628	72939.41
709.949	72640.23
710.27	72334.23
710.59	72076.09
710.911	71786.28
711.231	71495.73
711.552	71218.67
711.872	70899.27
712.192	70623.51
712.512	70360.95
712.833	70082.27
713.153	69800.8
713.473	69575.45
713.793	69342.6
714.113	69127.25
714.433	68924.24
714.753	68713.92
715.073	68521.97
715.393	68324.74
715.712	68165.76
716.032	67952.21
716.352	67786.42
716.671	67620.92
716.991	67448.94
717.31	67260.22
717.63	67105.89
717.949	66923.57
718.268	66720.03
718.588	66545.48
718.907	66319.6
719.226	66071.19
719.545	65830.36
719.864	65568.06
720.183	65292.9
720.502	65012.97
720.821	64745.77
721.14	64464.48
721.459	64157.52
721.778	63884.37
722.096	63557.93
722.415	63253.56
722.734	62990.57
723.052	62706.21
723.371	62419.35
723.689	62153.48
724.008	61873.86
724.326	61570.03
724.644	61317.41
724.963	61059.35
725.281	60836.69
725.599	60607
725.917	60413.27
726.235	60216.92
726.553	60064.69
726.871	59877.45
727.189	59686.77
727.507	59492.99
727.824	59335.82
728.142	59203.59
728.46	59005.84
728.777	58911.57
729.095	58777.62
729.413	58631.96
729.73	58486.39
730.047	58363.23
730.365	58249.96
730.682	58145.4
730.999	58061.71
731.317	57985.2
731.634	57903.33
731.951	57785.87
732.268	57671.72
732.585	57530.83
732.902	57375.81
733.219	57210.23
733.536	57035.14
733.852	56912.59
734.169	56778.37
734.486	56635.97
734.802	56474.17
735.119	56359.82
735.435	56184.13
735.752	56025.53
736.068	55851.02
736.385	55690.87
736.701	55491.27
737.017	55257.07
737.333	55008.73
737.65	54707.59
737.966	54329.96
738.282	53933.25
738.598	53513.54
738.914	53061.69
739.23	52572.93
739.545	52052.6
739.861	51512.11
740.177	50971.9
740.493	50374.7
740.808	49809.32
741.124	49208.24
741.439	48632.78
741.755	48060.49
742.07	47539.63
742.386	46989.93
742.701	46491.31
743.016	45996.35
743.331	45521.8
743.647	45097.68
743.962	44708.63
744.277	44359.69
744.592	44087.29
744.907	43878.09
745.222	43726.11
745.537	43629.93
745.851	43596.73
746.166	43614.2
746.481	43659.85
746.795	43767.41
747.11	43925.24
747.424	44091.58
747.739	44247.58
748.053	44423.17
748.368	44568.92
748.682	44684.52
748.996	44816.56
749.311	44920.25
749.625	45018.2
749.939	45121.26
750.253	45186.63
750.567	45261.98
750.881	45326.82
751.195	45391.11
751.509	45446.39
751.822	45487.11
752.136	45529.43
752.45	45588.73
752.763	45657.06
753.077	45715.02
753.39	45747.79
753.704	45767.46
754.017	45785.37
754.331	45816.73
754.644	45818.51
754.957	45831.59
755.27	45838.6
755.584	45847.25
755.897	45853.18
756.21	45847.65
756.523	45828.49
756.836	45806.17
757.149	45731.5
757.461	45662.86
757.774	45579.7
758.087	45465.96
758.4	45328.29
758.712	45184.05
759.025	45024.18
759.337	44870.92
759.65	44713.96
759.962	44558.98
760.275	44401.53
760.587	44256.01
760.899	44121.87
761.211	44037.05
761.523	43965.71
761.836	43964.02
762.148	43970.12
762.46	44001.62
762.772	44060.68
763.083	44186.92
763.395	44331.12
763.707	44542.75
764.019	44768
764.33	44988.37
764.642	45244.98
764.954	45515.8
765.265	45790.36
765.577	46055.66
765.888	46295.97
766.199	46542.73
766.511	46764.41
766.822	46979.95
767.133	47150.64
767.444	47316.66
767.755	47403.97
768.066	47459.95
768.377	47448.47
768.688	47384.18
768.999	47293.92
769.31	47176.01
769.621	46991.27
769.931	46776.19
770.242	46519.03
770.553	46220.65
770.863	45893.05
771.174	45536.99
771.484	45161.38
771.794	44758.06
772.105	44355.21
772.415	43928.46
772.725	43479.55
773.035	43036.54
773.345	42586.89
773.656	42128.81
773.966	41661.11
774.276	41226.85
774.585	40802.15
774.895	40368.13
775.205	39981.58
775.515	39591.51
775.824	39199.26
776.134	38814.91
776.444	38442.82
776.753	38079.79
777.063	37738.72
777.372	37419.24
777.681	37093.93
777.991	36783.64
778.3	36490.22
778.609	36191.16
778.918	35906.57
779.228	35645.95
779.537	35388.26
779.846	35126.1
780.154	34878.95
780.463	34646.53
780.772	34409.39
781.081	34189.8
781.39	33994.57
781.698	33783.75
782.007	33579.16
782.316	33374.61
782.624	33166.42
782.932	32969.02
783.241	32784.22
783.549	32598.4
783.858	32431.08
784.166	32269.78
784.474	32096.78
784.782	31931.61
785.09	31770.68
785.398	31628.66
785.706	31490.9
786.014	31354.49
786.322	31222.33
786.63	31095.68
786.937	30971.3
787.245	30849.76
787.553	30722.17
787.86	30608.46
788.168	30489.42
788.475	30382.64
788.783	30286.93
789.09	30189.04
789.398	30094.83
789.705	29991.45
790.012	29893.21
790.319	29784.82
790.626	29680.37
790.933	29590.42
791.24	29503.51
791.547	29413.54
791.854	29317.86
792.161	29220.51
792.468	29117.68
792.774	29020.25
793.081	28931.65
793.388	28846.65
793.694	28748.91
794.001	28655.94
794.307	28533.16
794.614	28427.37
794.92	28303.04
795.226	28176.8
795.533	28068.62
795.839	27972.8
796.145	27863.4
796.451	27747.2
796.757	27648.79
797.063	27540.47
797.369	27441.72
797.675	27334.71
797.98	27237.13
798.286	27120.43
798.592	27018.44
798.898	26906.76
799.203	26796.19
799.509	26681.45
799.814	26559.16
800.12	26458.69
800.425	26351.99
800.73	26242.64
801.035	26130.59
801.341	26029.26
801.646	25937.83
801.951	25838.15
802.256	25732.76
802.561	25633.35
802.866	25542.58
803.171	25451.55
803.476	25368.52
803.78	25273.03
804.085	25174.92
804.39	25062.39
804.694	24967.09
804.999	24864.88
805.303	24776.97
805.608	24698.33
805.912	24615.37
806.216	24546.92
806.521	24476.64
806.825	24402.22
807.129	24340.39
807.433	24264.43
807.737	24198.17
808.041	24135.91
808.345	24081.61
808.649	24029.03
808.953	23983.39
809.257	23928.88
809.561	23871.23
809.864	23815.45
810.168	23776.88
810.471	23744.34
810.775	23717.91
811.078	23696.2
811.382	23668.03
811.685	23662.71
811.988	23649.14
812.292	23639.79
812.595	23636.2
812.898	23636.51
813.201	23650.93
813.504	23667.91
813.807	23708.19
814.11	23736.42
814.413	23767.57
814.716	23789.74
815.018	23830.02
815.321	23890.57
815.624	23975.02
815.926	24073.95
816.229	24197.66
816.531	24338.94
816.834	24500.41
817.136	24696.38
817.438	24912.33
817.74	25185.52
818.043	25491.86
818.345	25862.9
818.647	26321.94
818.949	26866.41
819.251	27495.01
819.553	28228.68
819.855	29087.57
820.156	30046.28
820.458	31118.27
820.76	32262.88
821.062	33475.64
821.363	34739.52
821.665	36063.76
821.966	37487.69
822.268	38925.63
822.569	40368.42
822.87	41845.59
823.171	43327.47
823.473	44850.39
823.774	46424.11
824.075	47941.19
824.376	49429.1
824.677	50891.53
824.978	52259.21
825.279	53541.2
825.58	54710.27
825.88	55746.25
826.181	56632.31
826.482	57407.36
826.782	58034.39
827.083	58545.94
827.383	58933.18
827.684	59147.24
827.984	59232.7
828.284	59148.92
828.585	58928.96
828.885	58632.27
829.185	58173.36
829.485	57622.11
829.785	56953.63
830.085	56119.48
830.385	55250.29
830.685	54325.46
830.985	53290.09
831.285	52223.41
831.584	51112.15
831.884	49966.6
832.183	48799.57
832.483	47598.78
832.782	46335.67
833.082	45061.36
833.381	43793.91
833.681	42549.36
833.98	41391.54
834.279	40259.93
834.578	39152.15
834.877	38123.91
835.176	37113.7
835.475	36185.27
835.774	35298.5
836.073	34435.14
836.372	33629.12
836.671	32824.45
836.969	32024.18
837.268	31281.53
837.567	30575.3
837.865	29890.78
838.164	29217.49
838.462	28572.04
838.761	27961.43
839.059	27384.91
839.357	26841.92
839.655	26312.3
839.953	25779.51
840.252	25252.29
840.55	24733.29
840.848	24229.31
841.146	23736.04
841.443	23246.47
841.741	22748.34
842.039	22250.7
842.337	21754.2
842.634	21288.53
842.932	20850.29
843.229	20428.05
843.527	20013.96
843.824	19578.15
844.122	19132.66
844.419	18715.91
844.716	18292.11
845.013	17882.62
845.311	17498.71
845.608	17126.51
845.905	16758.89
846.202	16405.71
846.499	16043.56
846.796	15684.77
847.092	15320.8
847.389	14962.06
847.686	14632.04
847.982	14318.89
848.279	14011.11
848.576	13726.23
848.872	13437.35
849.168	13151.21
849.465	12877.17
849.761	12594.53
850.057	12319.38
850.354	12063.46
850.65	11817.13
850.946	11589.42
851.242	11372.02
851.538	11154.84
851.834	10940.67
852.13	10729.96
852.425	10536.35
852.721	10361.82
853.017	10196.14
853.312	10045.4
853.608	9906.42
853.903	9762.6
854.199	9614.48
854.494	9490.67
854.79	9359.52
855.085	9227.08
855.38	9100.1
855.675	8971.96
855.971	8854.05
856.266	8756.2
856.561	8659.02
856.856	8565.94
857.151	8476.34
857.445	8377.82
857.74	8280.68
858.035	8190.82
858.33	8100.2
858.624	8013.24
858.919	7932.75
859.213	7849.5
859.508	7770.61
859.802	7682.06
860.096	7602.59
860.391	7543.92
860.685	7478.29
860.979	7416.9
861.273	7366.1
861.567	7311.14
861.861	7248.26
862.155	7194.11
862.449	7125.74
862.743	7059.37
863.037	7001.01
863.33	6941.64
863.624	6892.34
863.918	6851
864.211	6811.73
864.505	6779.06
864.798	6741.27
865.092	6696.34
865.385	6650.92
865.678	6600.27
865.971	6563.88
866.264	6530.64
866.558	6500.58
866.851	6467.33
867.144	6438.4
867.437	6402.51
867.729	6371.7
868.022	6346.71
868.315	6328.42
868.608	6318.75
868.9	6313.25
869.193	6296.32
869.485	6273.81
869.778	6245.66
870.07	6215.78
870.363	6192.63
870.655	6175.04
870.947	6167.09
871.239	6161.98
871.532	6164.58
871.824	6169.09
872.116	6168.1
872.408	6161.95
872.699	6148.55
872.991	6145.75
873.283	6142.24
873.575	6146.44
873.867	6155.7
874.158	6167.45
874.45	6163.75
874.741	6161.75
875.033	6160.29
875.324	6170.6
875.615	6188.42
875.907	6211.57
876.198	6228.5
876.489	6239.97
876.78	6245.21
877.071	6245.04
877.362	6245.54
877.653	6247.05
877.944	6256.6
878.235	6266.24
878.526	6278.14
878.816	6293.66
