Data from 24HourExp_27052025_FLMS018081_15-38-21-824.txt Node
Date: Tue May 27 15:38:21 BST 2025
User: adleo
Spectrometer: FLMS01808
Trigger mode: 0
Integration Time (sec): 4.000000E-1
Scans to average: 10
Electric dark correction enabled: true
Nonlinearity correction enabled: true
Boxcar width: 10
XAxis mode: Wavelengths
Number of Pixels in Spectrum: 2048
>>>>>Begin Spectral Data<<<<<
178.471	-121.68
178.857	-114.85
179.244	-108.24
179.631	-99.87
180.017	-92.17
180.404	-84.48
180.79	-74.79
181.176	-66.86
181.563	-58.05
181.949	-46.13
182.335	-36.43
182.722	-21.83
183.108	-3.75
183.494	22.64
183.88	75.29
184.266	127.51
184.653	184.14
185.039	236.18
185.425	291.19
185.811	346.1
186.197	398.32
186.582	449.07
186.968	500.2
187.354	550.43
187.74	599.79
188.126	650.31
188.511	699.4
188.897	747.88
189.283	796.19
189.668	841.78
190.054	883.52
190.439	927.62
190.825	970.78
191.21	1010.76
191.596	1042.34
191.981	1050.34
192.366	1055.46
192.752	1055.98
193.137	1060.33
193.522	1060.35
193.908	1060.41
194.293	1064.21
194.678	1067.53
195.063	1069.62
195.448	1073.03
195.833	1073.25
196.218	1069.85
196.603	1069.5
196.988	1066.58
197.373	1066.08
197.757	1065.9
198.142	1066.73
198.527	1065.68
198.912	1066.02
199.296	1066.75
199.681	1065.71
200.066	1065.29
200.45	1062.69
200.835	1062.51
201.219	1062.77
201.604	1061.86
201.988	1063.57
202.372	1064.65
202.757	1063.51
203.141	1065.25
203.525	1064.33
203.91	1064.76
204.294	1068.16
204.678	1068.92
205.062	1070.01
205.446	1069.81
205.83	1072.62
206.214	1073.3
206.598	1075.78
206.982	1077.57
207.366	1077.29
207.75	1079.92
208.134	1080.43
208.517	1082.57
208.901	1084.16
209.285	1085.66
209.669	1088.98
210.052	1088.38
210.436	1087.68
210.819	1087.99
211.203	1084.77
211.586	1085.11
211.97	1085.29
212.353	1084.68
212.737	1085.85
213.12	1089.72
213.503	1091.01
213.886	1090.94
214.27	1092.85
214.653	1092.86
215.036	1093.4
215.419	1095.24
215.802	1095.76
216.185	1096.77
216.568	1101.44
216.951	1102.31
217.334	1104.02
217.717	1106.79
218.1	1109.1
218.482	1113.53
218.865	1117.79
219.248	1123.55
219.631	1129.23
220.013	1136.22
220.396	1145.06
220.778	1151.16
221.161	1154.92
221.544	1161.1
221.926	1168.42
222.308	1173.36
222.691	1179.75
223.073	1187.48
223.455	1195.81
223.838	1205.14
224.22	1216.25
224.602	1226.39
224.984	1237.82
225.366	1248.21
225.749	1260.9
226.131	1274.03
226.513	1286.09
226.895	1299.75
227.276	1314.05
227.658	1328.2
228.04	1340.32
228.422	1353.03
228.804	1369.9
229.186	1385.03
229.567	1401.72
229.949	1417.57
230.331	1435.18
230.712	1453.36
231.094	1471.05
231.475	1490.07
231.857	1510.67
232.238	1528.5
232.62	1545.25
233.001	1564.66
233.382	1586.12
233.763	1605.63
234.145	1625.04
234.526	1643.26
234.907	1662.26
235.288	1680.94
235.669	1701.45
236.05	1723.24
236.431	1743.67
236.812	1762.06
237.193	1785.23
237.574	1806.66
237.955	1827.34
238.336	1848.95
238.717	1869.72
239.097	1894.7
239.478	1916.29
239.859	1936.12
240.239	1960.78
240.62	1984.57
241.001	2007.55
241.381	2031.35
241.762	2051.91
242.142	2074.66
242.522	2098.62
242.903	2123.36
243.283	2147.03
243.663	2172.41
244.044	2198.99
244.424	2226.26
244.804	2254.71
245.184	2280.59
245.564	2308.05
245.944	2338.39
246.324	2369.2
246.704	2401.2
247.084	2426.3
247.464	2457.06
247.844	2487.42
248.224	2517.61
248.604	2548.98
248.983	2579.04
249.363	2610.3
249.743	2641.49
250.122	2671.62
250.502	2703.29
250.882	2732.15
251.261	2766.85
251.641	2797.78
252.02	2828.87
252.399	2863.28
252.779	2898.01
253.158	2934.28
253.537	2971.81
253.917	3013.12
254.296	3050.29
254.675	3087.02
255.054	3127.86
255.433	3169.55
255.812	3209.32
256.191	3248.24
256.57	3287.4
256.949	3334.16
257.328	3376.8
257.707	3421.74
258.086	3469.01
258.465	3515.98
258.843	3568.04
259.222	3616.53
259.601	3667.02
259.979	3720.5
260.358	3769.93
260.736	3823.86
261.115	3878.69
261.493	3930.81
261.872	3981.86
262.25	4037.43
262.629	4092.29
263.007	4151.4
263.385	4207.93
263.763	4269.63
264.142	4332.56
264.52	4393.83
264.898	4455.06
265.276	4519.47
265.654	4590.54
266.032	4659.98
266.41	4727.16
266.788	4795.57
267.166	4872.19
267.544	4947.65
267.921	5024.63
268.299	5104.3
268.677	5179.42
269.055	5260.82
269.432	5345.3
269.81	5427.57
270.188	5511.79
270.565	5600.86
270.943	5688.17
271.32	5777.74
271.697	5871.04
272.075	5964.52
272.452	6063.29
272.829	6161.31
273.207	6260.95
273.584	6360.06
273.961	6462
274.338	6570.57
274.715	6686.16
275.092	6800.17
275.469	6920.94
275.846	7040.84
276.223	7158.26
276.6	7277.37
276.977	7402.16
277.354	7525.22
277.731	7647.81
278.108	7778.32
278.484	7907.22
278.861	8033.84
279.238	8170.74
279.614	8304.45
279.991	8446.14
280.367	8586.79
280.744	8731.44
281.12	8877.25
281.497	9019.97
281.873	9171.73
282.249	9321.86
282.625	9463.1
283.002	9607.53
283.378	9751.04
283.754	9897.38
284.13	10050.57
284.506	10210.61
284.882	10362.8
285.258	10514.36
285.634	10671.86
286.01	10834.15
286.386	10992.27
286.762	11163.88
287.138	11324.03
287.513	11487.62
287.889	11646.88
288.265	11808.95
288.641	11965.36
289.016	12124.38
289.392	12288.07
289.767	12447.87
290.143	12611.83
290.518	12774.47
290.894	12937.64
291.269	13097.92
291.644	13253.56
292.02	13405.19
292.395	13559.55
292.77	13712.57
293.145	13868.81
293.52	14027.62
293.895	14170.38
294.27	14324.47
294.646	14470.98
295.02	14620.52
295.395	14773.23
295.77	14923.93
296.145	15076.9
296.52	15231.41
296.895	15385.18
297.269	15538.97
297.644	15686.57
298.019	15836.01
298.393	15988.17
298.768	16138.15
299.143	16290.9
299.517	16442.99
299.891	16602.95
300.266	16756.75
300.64	16915.03
301.015	17078.88
301.389	17240.76
301.763	17415.21
302.137	17583.68
302.512	17761.94
302.886	17938.18
303.26	18119.8
303.634	18303.28
304.008	18473.36
304.382	18653.85
304.756	18835.83
305.13	19020.83
305.504	19204.41
305.877	19392.16
306.251	19591.3
306.625	19790.2
306.999	19996.35
307.372	20205.58
307.746	20421.15
308.119	20633.55
308.493	20839.28
308.866	21050.24
309.24	21257.83
309.613	21463.75
309.987	21672.22
310.36	21859.64
310.733	22062.31
311.107	22267.43
311.48	22478.76
311.853	22709.6
312.226	22930.55
312.599	23153.15
312.972	23378.01
313.345	23599.62
313.718	23830.4
314.091	24053.81
314.464	24279.04
314.837	24493.98
315.21	24708.36
315.582	24922.24
315.955	25128.65
316.328	25348.69
316.7	25562.75
317.073	25786.72
317.446	26004.56
317.818	26227.25
318.191	26462.88
318.563	26683.23
318.936	26892.53
319.308	27092.92
319.68	27295.78
320.053	27487.55
320.425	27674.44
320.797	27847
321.169	28010.26
321.541	28151.9
321.913	28285.24
322.285	28404.55
322.657	28531.7
323.029	28674.93
323.401	28811.74
323.773	28975.41
324.145	29143.73
324.517	29321.39
324.889	29494.99
325.26	29698.65
325.632	29911.92
326.004	30143.5
326.375	30395
326.747	30668.19
327.118	30970.36
327.49	31250.47
327.861	31562.29
328.233	31866.87
328.604	32176.43
328.975	32491.82
329.346	32793.56
329.718	33093.75
330.089	33392.31
330.46	33682.74
330.831	33954.37
331.202	34211.66
331.573	34457.21
331.944	34682.72
332.315	34908.4
332.686	35120.23
333.057	35312.19
333.428	35488.48
333.799	35658.63
334.169	35813.15
334.54	35953.77
334.911	36065.47
335.281	36193.17
335.652	36314.33
336.022	36442.63
336.393	36585.13
336.763	36745.63
337.134	36931.17
337.504	37134.37
337.874	37337.28
338.245	37543.91
338.615	37758.46
338.985	37985.6
339.355	38203.01
339.726	38424.43
340.096	38648.71
340.466	38898.85
340.836	39134.1
341.206	39377.82
341.576	39619.36
341.945	39863.31
342.315	40093.52
342.685	40340.94
343.055	40587.06
343.425	40820.53
343.794	41058.03
344.164	41284.94
344.533	41518.83
344.903	41744.71
345.273	41970.26
345.642	42197.51
346.011	42422.07
346.381	42646.71
346.75	42875.35
347.12	43125.1
347.489	43376
347.858	43617.33
348.227	43826.46
348.596	44053.51
348.965	44287.23
349.334	44509.96
349.704	44743.52
350.072	44982.55
350.441	45209.16
350.81	45453.61
351.179	45682.14
351.548	45912.32
351.917	46136.45
352.285	46329.83
352.654	46539.36
353.023	46745.46
353.391	46944.98
353.76	47162.43
354.129	47350.79
354.497	47578.74
354.865	47791.25
355.234	48018.36
355.602	48232.47
355.971	48478.73
356.339	48691.23
356.707	48907.74
357.075	49129.93
357.443	49352.1
357.811	49566.02
358.18	49781.55
358.548	49987.41
358.916	50196.87
359.284	50414.73
359.651	50631.37
360.019	50855.82
360.387	51053.89
360.755	51251.84
361.123	51471.34
361.49	51691.82
361.858	51912.83
362.226	52109.56
362.593	52307.16
362.961	52488.74
363.328	52688.22
363.696	52855.92
364.063	53067.97
364.43	53267.16
364.798	53480.22
365.165	53660.28
365.532	53846.34
365.899	54028.3
366.267	54191.34
366.634	54350.23
367.001	54512.63
367.368	54652.97
367.735	54827.13
368.102	55003.69
368.469	55194.4
368.835	55377.77
369.202	55535.45
369.569	55722.5
369.936	55910.11
370.303	56093.61
370.669	56287.74
371.036	56455.99
371.402	56657.77
371.769	56839.33
372.135	56990.38
372.502	57112.09
372.868	57255.81
373.235	57396.63
373.601	57532.58
373.967	57704.77
374.333	57884.36
374.7	58063.81
375.066	58262.02
375.432	58445.08
375.798	58624.73
376.164	58793.55
376.53	58935.12
376.896	59108.67
377.262	59285.12
377.628	59409.3
377.993	59551.34
378.359	59697.26
378.725	59851.11
379.091	59992.36
379.456	60121.69
379.822	60256.97
380.187	60403.03
380.553	60585.18
380.918	60777.83
381.284	60958.35
381.649	61123.43
382.015	61259.14
382.38	61378.71
382.745	61545.17
383.11	61696.64
383.476	61837.23
383.841	61962.25
384.206	62120.25
384.571	62229.67
384.936	62362.86
385.301	62533.27
385.666	62667.78
386.031	62813.2
386.396	62974.31
386.76	63127.45
387.125	63312.77
387.49	63512.88
387.855	63701.89
388.219	63866.5
388.584	64025.21
388.948	64207.31
389.313	64366.92
389.677	64568.55
390.042	64798.14
390.406	64951.14
390.771	65129.04
391.135	65316.62
391.499	65538.09
391.863	65767.43
392.227	66013.06
392.592	66207.21
392.956	66393.32
393.32	66584.57
393.684	66798.94
394.048	66965.73
394.412	67140.71
394.775	67290.96
395.139	67434.41
395.503	67591.6
395.867	67736.87
396.231	67884.07
396.594	67987.05
396.958	68118.51
397.321	68272.06
397.685	68384.2
398.048	68520.29
398.412	68655.73
398.775	68779.81
399.139	68901.58
399.502	69005.58
399.865	69138.53
400.228	69322.17
400.592	69461.59
400.955	69659.35
401.318	69792.36
401.681	69952.98
402.044	70090.41
402.407	70240.6
402.77	70395.57
403.133	70577.56
403.496	70723.65
403.859	70872.14
404.221	71104.68
404.584	71350.2
404.947	71584.08
405.309	71792.21
405.672	72020.08
406.034	72238.1
406.397	72493.77
406.759	72716.99
407.122	72894.57
407.484	73061.51
407.847	73254.13
408.209	73502.35
408.571	73726.3
408.933	73986.61
409.296	74232.9
409.658	74472.4
410.02	74754.58
410.382	75074.27
410.744	75337.6
411.106	75620.63
411.468	75899.57
411.83	76142.41
412.191	76336.67
412.553	76524.3
412.915	76757.52
413.277	76981.55
413.638	77196.73
414	77366.49
414.361	77558.17
414.723	77810.32
415.084	78052.41
415.446	78242.12
415.807	78403.98
416.169	78543.66
416.53	78659.55
416.891	78793.29
417.252	78950.81
417.614	79051.81
417.975	79111.51
418.336	79188.2
418.697	79273.45
419.058	79349.58
419.419	79411.64
419.78	79481.18
420.141	79538.07
420.501	79583.46
420.862	79622.72
421.223	79656.4
421.584	79718.07
421.944	79759.47
422.305	79784.05
422.666	79800.52
423.026	79808.52
423.387	79826.32
423.747	79840.23
424.107	79854.15
424.468	79872.12
424.828	79882.74
425.188	79890.83
425.549	79900.82
425.909	79909.97
426.269	79908.53
426.629	79915.39
426.989	79920.52
427.349	79928.93
427.709	79934.17
428.069	79938.16
428.429	79945.65
428.789	79953.37
429.149	79960.91
429.508	79965.3
429.868	79970.36
430.228	79976.49
430.587	79980.74
430.947	79986.02
431.306	79991.38
431.666	79995.22
432.025	79997.03
432.385	79999.1
432.744	80001.24
433.103	80003.13
433.463	80007.16
433.822	80018.82
434.181	80024.22
434.54	80028.84
434.899	80032.5
435.258	80036.31
435.618	80038.9
435.976	80040.71
436.335	80041.78
436.694	80043.23
437.053	80043.6
437.412	80044.48
437.771	80047.22
438.129	80048.99
438.488	80051.88
438.847	80053.06
439.205	80054.58
439.564	80056.17
439.922	80057.94
440.281	80058.79
440.639	80062.35
440.997	80062.05
441.356	80062.9
441.714	80062.16
442.072	80062.27
442.431	80060.79
442.789	80059.13
443.147	80057.32
443.505	80057.2
443.863	80058.61
444.221	80055.43
444.579	80057.61
444.937	80058.91
445.294	80059.54
445.652	80061.2
446.01	80059.94
446.368	80061.94
446.725	80063.79
447.083	80065.75
447.441	80065.42
447.798	80066.6
448.156	80066.16
448.513	80067.38
448.87	80065.53
449.228	80067.53
449.585	80068.04
449.942	80068.82
450.3	80071.23
450.657	80073.63
451.014	80076.15
451.371	80076.11
451.728	80077.92
452.085	80077.66
452.442	80079.29
452.799	80077.4
453.156	80077.81
453.513	80078.03
453.869	80078.44
454.226	80078.33
454.583	80076.22
454.939	80075.89
455.296	80074
455.653	80073.56
456.009	80073.52
456.366	80074.04
456.722	80073.89
457.078	80074.63
457.435	80074.44
457.791	80073.67
458.147	80072.67
458.503	80072.19
458.86	80072.67
459.216	80074.89
459.572	80074.67
459.928	80073.74
460.284	80075.63
460.64	80075.7
460.996	80076.66
461.351	80076
461.707	80076.96
462.063	80078.29
462.419	80079.07
462.774	80080.84
463.13	80081.66
463.486	80080.51
463.841	80079.92
464.197	80079.88
464.552	80080.25
464.908	80080.96
465.263	80081.07
465.618	80083.69
465.974	80083.95
466.329	80084.47
466.684	80083.73
467.039	80084.58
467.394	80087.21
467.749	80087.06
468.104	80087.69
468.459	80089.32
468.814	80090.32
469.169	80089.77
469.524	80091.17
469.879	80093.84
470.233	80093.65
470.588	80095.21
470.943	80096.69
471.297	80099.35
471.652	80100.68
472.006	80100.87
472.361	80103.2
472.715	80105.46
473.07	80104.5
473.424	80105.42
473.778	80105.94
474.133	80106.5
474.487	80105.87
474.841	80105.27
475.195	80106.42
475.549	80107.83
475.903	80106.35
476.257	80106.01
476.611	80105.46
476.965	80104.87
477.319	80102.72
477.673	80104.16
478.026	80102.98
478.38	80103.87
478.734	80104.09
479.087	80103.02
479.441	80102.94
479.795	80102.76
480.148	80102.87
480.502	80103.05
480.855	80104.05
481.208	80104.64
481.562	80105.13
481.915	80105.83
482.268	80105.53
482.621	80106.05
482.974	80105.01
483.328	80105.87
483.681	80105.42
484.034	80106.98
484.387	80107.16
484.739	80108.57
485.092	80108.53
485.445	80109.35
485.798	80110.01
486.151	80109.94
486.503	80110.64
486.856	80110.6
487.209	80111.86
487.561	80110.27
487.914	80111.31
488.266	80112.01
488.618	80110.83
488.971	80110.57
489.323	80110.27
489.675	80111.75
490.028	80111.75
490.38	80111.49
490.732	80111.83
491.084	80113.57
491.436	80113.79
491.788	80114.6
492.14	80114.9
492.492	80115.86
492.844	80116.57
493.196	80116.38
493.548	80118.16
493.899	80120.71
494.251	80122.68
494.603	80120.2
494.954	80122.2
495.306	80123.08
495.657	80122.08
496.009	80123.53
496.36	80124.01
496.712	80125.01
497.063	80123.56
497.414	80124.9
497.765	80126.34
498.117	80126.23
498.468	80126.42
498.819	80126.16
499.17	80125.97
499.521	80126.08
499.872	80124.94
500.223	80124.86
500.574	80125.86
500.924	80126.71
501.275	80127.01
501.626	80125.08
501.977	80126.71
502.327	80127.19
502.678	80127.23
503.029	80126.68
503.379	80125.79
503.73	80126.64
504.08	80126.16
504.43	80126.08
504.781	80125.49
505.131	80124.71
505.481	80126.12
505.831	80126.05
506.182	80126.08
506.532	80126.53
506.882	80126.53
507.232	80126.97
507.582	80126.01
507.932	80123.97
508.281	80122.05
508.631	80120.27
508.981	80120.49
509.331	80120.97
509.681	80118.86
510.03	80118.38
510.38	80118.42
510.729	80118.82
511.079	80117.38
511.428	80119.16
511.778	80118.27
512.127	80117.38
512.476	80116.75
512.826	80116.23
513.175	80115.49
513.524	80114.53
513.873	80114.16
514.222	80113.79
514.571	80115.05
514.92	80116.12
515.269	80116.86
515.618	80115.64
515.967	80115.71
516.316	80116.46
516.665	80116.2
517.014	80116.23
517.362	80114.79
517.711	80113.27
518.059	80113.27
518.408	80113.94
518.757	80111.42
519.105	80112.27
519.453	80113.12
519.802	80112.94
520.15	80112.38
520.498	80112.83
520.847	80113.27
521.195	80113.75
521.543	80114.79
521.891	80113.98
522.239	80113.23
522.587	80113.49
522.935	80115.27
523.283	80113.75
523.631	80114.53
523.979	80112.9
524.326	80113.57
524.674	80114.05
525.022	80116.53
525.369	80116.97
525.717	80116.42
526.064	80118.75
526.412	80119.08
526.759	80117.57
527.107	80117.23
527.454	80118.53
527.801	80118.16
528.149	80119.31
528.496	80120.08
528.843	80119.42
529.19	80118.83
529.537	80119.86
529.884	80121.23
530.231	80121.27
530.578	80122.38
530.925	80121.75
531.272	80122.42
531.619	80123.9
531.966	80123.79
532.312	80123.94
532.659	80124.42
533.006	80125.31
533.352	80125.01
533.699	80124.86
534.045	80126.6
534.392	80126.45
534.738	80126.75
535.084	80126.38
535.431	80126.42
535.777	80124.05
536.123	80123.53
536.469	80125.23
536.815	80123.57
537.161	80121.6
537.507	80121.49
537.853	80122.79
538.199	80121.38
538.545	80121.38
538.891	80119.49
539.237	80120.31
539.582	80121.49
539.928	80120.38
540.274	80120.72
540.619	80121.12
540.965	80120.75
541.31	80119.23
541.656	80120.31
542.001	80119.2
542.347	80122.16
542.692	80122.42
543.037	80123.12
543.382	80124.16
543.728	80123.94
544.073	80124.71
544.418	80124.9
544.763	80125.01
545.108	80124.16
545.453	80124.82
545.798	80123.38
546.142	80122.75
546.487	80123.71
546.832	80123.34
547.177	80123.49
547.521	80122.86
547.866	80122.75
548.211	80122.05
548.555	80124.2
548.9	80125.16
549.244	80123.75
549.588	80121.09
549.933	80118.97
550.277	80118.6
550.621	80117.9
550.965	80115.98
551.31	80115.94
551.654	80116.01
551.998	80114.35
552.342	80114.46
552.686	80115.64
553.03	80117.75
553.373	80120.49
553.717	80119.08
554.061	80116.64
554.405	80115.94
554.748	80116.64
555.092	80116.68
555.436	80118.12
555.779	80116.6
556.123	80116.94
556.466	80118.97
556.81	80120.49
557.153	80121.68
557.496	80122.9
557.839	80124.45
558.183	80125.31
558.526	80125.64
558.869	80127.16
559.212	80129.86
559.555	80130.27
559.898	80129.08
560.241	80129.82
560.584	80129.45
560.927	80129.27
561.269	80130.38
561.612	80132.93
561.955	80131.49
562.297	80130.64
562.64	80130.31
562.983	80129.27
563.325	80130.31
563.668	80129.79
564.01	80129.49
564.352	80128.9
564.695	80128.12
565.037	80126.86
565.379	80127.49
565.721	80127.08
566.063	80126.86
566.406	80126.38
566.748	80125.42
567.09	80125.57
567.431	80124.27
567.773	80124.23
568.115	80124.71
568.457	80124.01
568.799	80122.16
569.14	80121.82
569.482	80122.05
569.824	80121.49
570.165	80121.49
570.507	80118.42
570.848	80118.01
571.19	80116.27
571.531	80116.12
571.872	80116.86
572.214	80116.23
572.555	80115.57
572.896	80116.34
573.237	80114.86
573.578	80112.05
573.919	80112.35
574.26	80113.27
574.601	80113.34
574.942	80110.31
575.283	80109.98
575.624	80110.24
575.964	80110.38
576.305	80110.79
576.646	80109.09
576.986	80107.94
577.327	80107.38
577.667	80107.64
578.008	80108.79
578.348	80109.61
578.689	80109.35
579.029	80108.2
579.369	80108.68
579.71	80108.53
580.05	80106.53
580.39	80106.35
580.73	80104.83
581.07	80103.42
581.41	80102.42
581.75	80101.42
582.09	80102.91
582.43	80102.24
582.769	80102.54
583.109	80100.5
583.449	80099.54
583.789	80100.87
584.128	80101.94
584.468	80103.09
584.807	80102.5
585.147	80101.05
585.486	80099.94
585.825	80100.94
586.165	80099.39
586.504	80098.87
586.843	80099.57
587.182	80100.35
587.522	80099.94
587.861	80102.31
588.2	80103.24
588.539	80102.65
588.878	80101.39
589.216	80100.35
589.555	80100.05
589.894	80098.31
590.233	80099.46
590.572	80099.28
590.91	80099.65
591.249	80098.61
591.587	80099.13
591.926	80100.05
592.264	80100.8
592.603	80098.87
592.941	80098.83
593.279	80100.13
593.618	80098.54
593.956	80097.95
594.294	80098.02
594.632	80098.95
594.97	80098.98
595.308	80097.32
595.646	80097.17
595.984	80099.13
596.322	80099.35
596.66	80099.69
596.998	80100.87
597.335	80100.91
597.673	80101.98
598.011	80100.09
598.348	80100.5
598.686	80099.57
599.023	80099.91
599.361	80098.98
599.698	80100.46
600.035	80097.72
600.373	80097.2
600.71	80097.76
601.047	80095.06
601.384	80094.58
601.722	80094.02
602.059	80093.35
602.396	80093.39
602.733	80092.1
603.069	80090.43
603.406	80090.06
603.743	80091.5
604.08	80091.02
604.417	80090.17
604.753	80089.91
605.09	80091.69
605.426	80091.73
605.763	80090.39
606.099	80088.84
606.436	80088.62
606.772	80088.4
607.109	80089.02
607.445	80089.28
607.781	80089.39
608.117	80091.06
608.453	80091.76
608.79	80091.65
609.126	80090.39
609.462	80091.62
609.798	80092.13
610.133	80093.17
610.469	80094.69
610.805	80092.58
611.141	80092.87
611.477	80093.61
611.812	80093.5
612.148	80091.87
612.483	80091.61
612.819	80092.13
613.154	80091.58
613.49	80090.69
613.825	80091.32
614.16	80091.32
614.496	80090.84
614.831	80091.17
615.166	80089.5
615.501	80087.43
615.836	80087.58
616.171	80088.1
616.506	80087.47
616.841	80087.39
617.176	80087.28
617.511	80085.14
617.846	80083.51
618.18	80082.73
618.515	80080.88
618.85	80079.59
619.184	80079.22
619.519	80077.37
619.853	80076.96
620.188	80076.48
620.522	80076.81
620.856	80076.48
621.191	80076
621.525	80074.33
621.859	80073.63
622.193	80073.85
622.527	80073.96
622.861	80072.89
623.195	80072.33
623.529	80072.15
623.863	80071.08
624.197	80070.04
624.531	80070.3
624.865	80070.93
625.198	80070.34
625.532	80070.56
625.866	80069.52
626.199	80070.37
626.533	80071.45
626.866	80069.89
627.2	80071.3
627.533	80070.23
627.866	80071
628.2	80069.67
628.533	80071.52
628.866	80071.52
629.199	80073
629.532	80072
629.865	80071.78
630.198	80071.85
630.531	80071.37
630.864	80071.67
631.197	80071.67
631.529	80073.04
631.862	80074.52
632.195	80075.63
632.527	80075.7
632.86	80077.44
633.193	80077.48
633.525	80076.85
633.857	80077.55
634.19	80076
634.522	80074.48
634.854	80072.63
635.187	80074.37
635.519	80073.63
635.851	80072.11
636.183	80070.89
636.515	80071.71
636.847	80071.15
637.179	80072.56
637.511	80074.26
637.843	80074.26
638.174	80074.78
638.506	80073.45
638.838	80073.08
639.17	80072.26
639.501	80073.37
639.833	80073.26
640.164	80071.37
640.496	80071.78
640.827	80073.07
641.158	80074.41
641.49	80076.15
641.821	80077.33
642.152	80077.07
642.483	80077.85
642.814	80079.14
643.145	80076.52
643.476	80075.63
643.807	80075.18
644.138	80072.74
644.469	80070.11
644.8	80069.67
645.131	80069.19
645.461	80068.38
645.792	80068.01
646.122	80067.12
646.453	80066.6
646.784	80064.75
647.114	80064.2
647.444	80063.34
647.775	80061.38
648.105	80061.16
648.435	80060.61
648.765	80060.61
649.096	80059.68
649.426	80058.46
649.756	80057.35
650.086	80061.38
650.416	80062.05
650.746	80061.79
651.075	80062.49
651.405	80063.12
651.735	80064.94
652.065	80064.27
652.394	80064.08
652.724	80063.46
653.054	80063.09
653.383	80062.83
653.712	80062.83
654.042	80063.94
654.371	80063.6
654.701	80064.97
655.03	80064.42
655.359	80062.46
655.688	80059.05
656.017	80059.46
656.346	80058.61
656.675	80058.24
657.004	80056.02
657.333	80056.09
657.662	80056.65
657.991	80056.83
658.32	80054.91
658.648	80053.17
658.977	80052.06
659.306	80052.03
659.634	80050.4
659.963	80052.54
660.291	80051.95
660.619	80051.8
660.948	80051.1
661.276	80051.91
661.604	80051.69
661.933	80051.58
662.261	80053.76
662.589	80056.87
662.917	80057.87
663.245	80058.39
663.573	80058.83
663.901	80058.68
664.229	80058.05
664.556	80057.13
664.884	80056.13
665.212	80056.24
665.539	80055.72
665.867	80055.21
666.195	80055.32
666.522	80055.21
666.85	80053.47
667.177	80052.51
667.504	80052.25
667.832	80051.06
668.159	80049.99
668.486	80047.18
668.813	80047.85
669.14	80046.44
669.467	80045.81
669.794	80043.37
670.121	80042.04
670.448	80040.15
670.775	80038.16
671.102	80037.68
671.429	80037.12
671.755	80037.31
672.082	80037.86
672.409	80037.19
672.735	80037.23
673.062	80036.97
673.388	80037.27
673.714	80036.12
674.041	80037.71
674.367	80037.9
674.693	80039.6
675.019	80040.45
675.346	80042.11
675.672	80041.41
675.998	80044.22
676.324	80042.71
676.65	80043.33
676.976	80044.74
677.301	80045.92
677.627	80046.81
677.953	80047.33
678.279	80048.92
678.604	80048.25
678.93	80048.73
679.255	80048.14
679.581	80047.74
679.906	80047.59
680.232	80047.81
680.557	80049.14
680.882	80046.55
681.208	80046.4
681.533	80044.89
681.858	80043.67
682.183	80043
682.508	80041.74
682.833	80038.23
683.158	80036.86
683.483	80035.38
683.808	80033.46
684.132	80032.87
684.457	80032.24
684.782	80030.28
685.106	80029.47
685.431	80028.91
685.755	80026.84
686.08	80028.14
686.404	80028.62
686.729	80027.32
687.053	80026.32
687.377	80025.88
687.701	80025.69
688.026	80025.03
688.35	80024.81
688.674	80024.11
688.998	80023.85
689.322	80023.7
689.646	80023
689.97	80022.92
690.293	80022.37
690.617	80022.07
690.941	80021.15
691.264	80018.08
691.588	80018.19
691.912	80015.27
692.235	80013.72
692.559	80012.98
692.882	80010.28
693.205	80007.95
693.529	80006.33
693.852	80004
694.175	79999.27
694.498	79996.79
694.821	79992.95
695.144	79989.44
695.467	79983.09
695.79	79977.48
696.113	79970.87
696.436	79963.41
696.759	79954.19
697.082	79943.97
697.404	79934.78
697.727	79923.09
698.049	79911.77
698.372	79894.45
698.694	79873.51
699.017	79848.13
699.339	79815.48
699.662	79780.42
699.984	79722.02
700.306	79650.02
700.628	79538.84
700.95	79398.72
701.272	79239.62
701.594	79070.63
701.916	78909.34
702.238	78733.52
702.56	78505.68
702.882	78291.44
703.204	78089.42
703.525	77863.85
703.847	77601.5
704.169	77354.1
704.49	77078.31
704.812	76811.05
705.133	76535.42
705.455	76264.25
705.776	75975.82
706.097	75703.73
706.419	75419.39
706.74	75133.07
707.061	74842.57
707.382	74566.2
707.703	74296.2
708.024	74053.26
708.345	73791.15
708.666	73495.84
708.987	73204.19
709.307	72968.37
709.628	72675.94
709.949	72363.2
710.27	72055.58
710.59	71805.35
710.911	71512.45
711.231	71228.32
711.552	70961.97
711.872	70649.11
712.192	70378.11
712.512	70124.63
712.833	69853.28
713.153	69582.95
713.473	69352.73
713.793	69119.57
714.113	68894.99
714.433	68690.11
714.753	68478.39
715.073	68291.64
715.393	68109.96
715.712	67950.36
716.032	67732.29
716.352	67570.31
716.671	67417.29
716.991	67252.36
717.31	67055.76
717.63	66895.63
717.949	66723.85
718.268	66510.87
718.588	66337.77
718.907	66107.19
719.226	65851.87
719.545	65609.61
719.864	65336.44
720.183	65072.43
720.502	64806.96
720.821	64543.85
721.14	64265.69
721.459	63960.62
721.778	63683.98
722.096	63365.56
722.415	63065.06
722.734	62815.04
723.052	62531.54
723.371	62246.72
723.689	61976.55
724.008	61699.24
724.326	61413.58
724.644	61151.67
724.963	60890.69
725.281	60667.38
725.599	60442.57
725.917	60251.56
726.235	60060.92
726.553	59912.93
726.871	59717.5
727.189	59518.55
727.507	59323.59
727.824	59169.71
728.142	59039.51
728.46	58844.15
728.777	58741.39
729.095	58610.6
729.413	58460.98
729.73	58322.46
730.047	58194.23
730.365	58077.36
730.682	57971.96
730.999	57883.48
731.317	57806.22
731.634	57724.62
731.951	57606.88
732.268	57491.28
732.585	57351.77
732.902	57188.91
733.219	57033.02
733.536	56861.16
733.852	56738.06
734.169	56604.54
734.486	56451.77
734.802	56290.42
735.119	56182.91
735.435	56014.61
735.752	55852.91
736.068	55679.88
736.385	55513.09
736.701	55317.35
737.017	55101.18
737.333	54862.94
737.65	54556.7
737.966	54187.27
738.282	53798.81
738.598	53389.12
738.914	52932.22
739.23	52443.98
739.545	51932.21
739.861	51379.77
740.177	50836.28
740.493	50241.33
740.808	49665.58
741.124	49065.41
741.439	48493.15
741.755	47917.97
742.07	47392.8
742.386	46844.01
742.701	46343.11
743.016	45846.56
743.331	45370.22
743.647	44942.53
743.962	44549.12
744.277	44210.53
744.592	43937.06
744.907	43719.14
745.222	43548.6
745.537	43455.42
745.851	43417.93
746.166	43431.29
746.481	43483.13
746.795	43598.5
747.11	43754.04
747.424	43931.49
747.739	44102.94
748.053	44276.89
748.368	44427.85
748.682	44542.85
748.996	44671.94
749.311	44773.25
749.625	44869.85
749.939	44975.26
750.253	45036.98
750.567	45104.05
750.881	45167.83
751.195	45229.36
751.509	45288.89
751.822	45339.69
752.136	45386.23
752.45	45447.55
752.763	45511.33
753.077	45563.77
753.39	45596.74
753.704	45620.68
754.017	45634.52
754.331	45664.69
754.644	45670.62
754.957	45682.42
755.27	45689.46
755.584	45697.81
755.897	45703.2
756.21	45702.59
756.523	45680.05
756.836	45654.91
757.149	45580.47
757.461	45509.78
757.774	45422.83
758.087	45309.16
758.4	45174.77
758.712	45025.1
759.025	44864.29
759.337	44718.65
759.65	44569.06
759.962	44410.24
760.275	44249.06
760.587	44101.27
760.899	43956.27
761.211	43863.51
761.523	43795.78
761.836	43792.89
762.148	43795.97
762.46	43830.73
762.772	43888.49
763.083	44018.57
763.395	44165.4
763.707	44383.21
764.019	44604.52
764.33	44828.49
764.642	45082.83
764.954	45345.67
765.265	45622.88
765.577	45885.07
765.888	46122.08
766.199	46359.3
766.511	46574.29
766.822	46791.38
767.133	46979.35
767.444	47151.52
767.755	47238.61
768.066	47293
768.377	47282.05
768.688	47226.3
768.999	47137.12
769.31	47020.23
769.621	46836.94
769.931	46620.93
770.242	46362.32
770.553	46062.18
770.863	45740.26
771.174	45383.65
771.484	45010.82
771.794	44611.26
772.105	44204.99
772.415	43777.33
772.725	43332.89
773.035	42900.92
773.345	42450.88
773.656	41984.43
773.966	41523.78
774.276	41096.98
774.585	40667.23
774.895	40237.82
775.205	39852.31
775.515	39460.35
775.824	39074.74
776.134	38688.81
776.444	38325.5
776.753	37967.21
777.063	37631.24
777.372	37311.67
777.681	36996.71
777.991	36697.21
778.3	36401.47
778.609	36108.71
778.918	35827.11
779.228	35565.94
779.537	35308.56
779.846	35049
780.154	34803.62
780.463	34571.26
780.772	34327.41
781.081	34105.28
781.39	33905.23
781.698	33689.42
782.007	33493.98
782.316	33284.86
782.624	33075.48
782.932	32878.11
783.241	32689.97
783.549	32504.99
783.858	32329.66
784.166	32156.15
784.474	31988.83
784.782	31823.13
785.09	31667.18
785.398	31524.69
785.706	31388.34
786.014	31248.36
786.322	31114.52
786.63	30979.49
786.937	30845.58
787.245	30719.48
787.553	30590.52
787.86	30477.47
788.168	30364.63
788.475	30254.03
788.783	30157.27
789.09	30059.24
789.398	29966.17
789.705	29866.03
790.012	29761.78
790.319	29662.41
790.626	29561.62
790.933	29463.5
791.24	29372.66
791.547	29281.27
791.854	29188.04
792.161	29091.11
792.468	28986.64
792.774	28894.87
793.081	28814.26
793.388	28737.43
793.694	28645.96
794.001	28555.16
794.307	28437.29
794.614	28329.42
794.92	28204.1
795.226	28078.69
795.533	27971.46
795.839	27869.08
796.145	27751.17
796.451	27639.45
796.757	27533.8
797.063	27431.05
797.369	27323.65
797.675	27220.32
797.98	27120.98
798.286	27006.39
798.592	26901.04
798.898	26795.88
799.203	26682.5
799.509	26562.83
799.814	26433.37
800.12	26338.59
800.425	26231.38
800.73	26124.07
801.035	26009.89
801.341	25908.83
801.646	25812.15
801.951	25712.9
802.256	25611.7
802.561	25520.23
802.866	25432.92
803.171	25339.72
803.476	25250.06
803.78	25158.52
804.085	25064.02
804.39	24961.32
804.694	24861.25
804.999	24759.94
805.303	24666.83
805.608	24585.55
805.912	24503.06
806.216	24431.97
806.521	24361.13
806.825	24288
807.129	24216.21
807.433	24147.95
807.737	24077.91
808.041	24021.68
808.345	23965.61
808.649	23907.13
808.953	23858.29
809.257	23798.41
809.561	23744.84
809.864	23693.74
810.168	23660.15
810.471	23631.24
810.775	23595.53
811.078	23577.95
811.382	23560.27
811.685	23558.2
811.988	23543.68
812.292	23540.14
812.595	23545.54
812.898	23535.43
813.201	23545.32
813.504	23572.55
813.807	23597.14
814.11	23622.51
814.413	23644.45
814.716	23672.56
815.018	23720.38
815.321	23778.86
815.624	23861.99
815.926	23967.47
816.229	24087.28
816.531	24227.27
816.834	24381.88
817.136	24580.92
817.438	24788.8
817.74	25052.97
818.043	25356.43
818.345	25729.68
818.647	26177.14
818.949	26710.25
819.251	27343.16
819.553	28089.52
819.855	28945.96
820.156	29908.02
820.458	30988.26
820.76	32136.43
821.062	33341.37
821.363	34600.08
821.665	35932.58
821.966	37352.31
822.268	38791.32
822.569	40237.55
822.87	41706.55
823.171	43192.11
823.473	44708.06
823.774	46284.06
824.075	47799.1
824.376	49291.06
824.677	50750.47
824.978	52124.06
825.279	53412.19
825.58	54581.78
825.88	55610.24
826.181	56487.79
826.482	57270.93
826.782	57896.82
827.083	58415.13
827.383	58800.27
827.684	59015.59
827.984	59095.33
828.284	59008.15
828.585	58785.37
828.885	58486.34
829.185	58032.43
829.485	57478.5
829.785	56814.79
830.085	55981.05
830.385	55114.68
830.685	54185.94
830.985	53145.06
831.285	52078.53
831.584	50964.9
831.884	49819.47
832.183	48649.99
832.483	47447.01
832.782	46185.19
833.082	44911.38
833.381	43638.59
833.681	42400.8
833.98	41238.4
834.279	40101.52
834.578	39005.26
834.877	37970.65
835.176	36966.3
835.475	36039.84
835.774	35158.99
836.073	34295.59
836.372	33485.81
836.671	32683.98
836.969	31887.07
837.268	31155.63
837.567	30454.94
837.865	29773.1
838.164	29103.17
838.462	28457.93
838.761	27856.57
839.059	27275.94
839.357	26729.98
839.655	26204.47
839.953	25675
840.252	25156.68
840.55	24646.64
840.848	24143.68
841.146	23662.14
841.443	23167.27
841.741	22667.8
842.039	22168.16
842.337	21669.98
842.634	21214.91
842.932	20776.29
843.229	20359.35
843.527	19950.56
843.824	19511.83
844.122	19073.67
844.419	18655.91
844.716	18236.29
845.013	17833.57
845.311	17451.62
845.608	17082.17
845.905	16719.56
846.202	16367.88
846.499	16004.77
846.796	15642.2
847.092	15279.17
847.389	14916.23
847.686	14583.1
847.982	14270.91
848.279	13964.43
848.576	13681.99
848.872	13392.12
849.168	13109.97
849.465	12829.36
849.761	12540.97
850.057	12270.44
850.354	12012.21
850.65	11768.53
850.946	11546.56
851.242	11329.05
851.538	11115.26
851.834	10899.63
852.13	10685.52
852.425	10490.01
852.721	10312.26
853.017	10149.82
853.312	10000.97
853.608	9858.78
853.903	9720.82
854.199	9575.85
854.494	9449.79
854.79	9321.35
855.085	9186.17
855.38	9059.16
855.675	8934.85
855.971	8816.21
856.266	8719.08
856.561	8624.25
856.856	8531.2
857.151	8436.05
857.445	8335.35
857.74	8242.52
858.035	8156
858.33	8068.99
858.624	7985.33
858.919	7909.32
859.213	7825.52
859.508	7743.98
859.802	7656.23
860.096	7575.33
860.391	7517.21
860.685	7457.08
860.979	7398.32
861.273	7352.32
861.567	7293.8
861.861	7229.73
862.155	7177.29
862.449	7110.67
862.743	7044.25
863.037	6986.16
863.33	6934.47
863.624	6882.76
863.918	6834.42
864.211	6793.47
864.505	6756.72
864.798	6716.54
865.092	6671.75
865.385	6626.27
865.678	6578.62
865.971	6543.58
866.264	6514.86
866.558	6484.06
866.851	6449.7
867.144	6421.11
867.437	6384.81
867.729	6357.46
868.022	6336.26
868.315	6316.2
868.608	6303.46
868.9	6299.53
869.193	6284.62
869.485	6256.78
869.778	6230.73
870.07	6202.43
870.363	6180.68
870.655	6167.66
870.947	6164.88
871.239	6156.37
871.532	6159.58
871.824	6163.28
872.116	6162.03
872.408	6157.32
872.699	6144.6
872.991	6138.65
873.283	6132.32
873.575	6134.68
873.867	6141.1
874.158	6147.39
874.45	6147.69
874.741	6143.9
875.033	6139.71
875.324	6150.45
875.615	6170.92
875.907	6195.52
876.198	6213.9
876.489	6225.9
876.78	6228.46
877.071	6223.79
877.362	6227.08
877.653	6228.81
877.944	6237.76
878.235	6247.74
878.526	6254.07
878.816	6269.92
