Data from 24HourExp_27052025_FLMS018081_00-48-20-748.txt Node
Date: Wed May 28 00:48:20 BST 2025
User: adleo
Spectrometer: FLMS01808
Trigger mode: 0
Integration Time (sec): 4.000000E-1
Scans to average: 10
Electric dark correction enabled: true
Nonlinearity correction enabled: true
Boxcar width: 10
XAxis mode: Wavelengths
Number of Pixels in Spectrum: 2048
>>>>>Begin Spectral Data<<<<<
178.471	-133.42
178.857	-127.15
179.244	-118.66
179.631	-110.45
180.017	-100.95
180.404	-92.66
180.79	-81.62
181.176	-72.42
181.563	-62.74
181.949	-51.94
182.335	-40.77
182.722	-24.83
183.108	-6.05
183.494	20.38
183.88	74.42
184.266	127.26
184.653	183.26
185.039	237.85
185.425	295.25
185.811	348.6
186.197	402.8
186.582	455.72
186.968	509.43
187.354	560.61
187.74	612.2
188.126	661.9
188.511	712.89
188.897	759.98
189.283	807.91
189.668	853.18
190.054	897.18
190.439	941.57
190.825	984.9
191.21	1026.92
191.596	1061.54
191.981	1070.95
192.366	1075.54
192.752	1077.8
193.137	1081.15
193.522	1082.51
193.908	1084.96
194.293	1089.31
194.678	1092.39
195.063	1094.05
195.448	1095.95
195.833	1094.93
196.218	1095.29
196.603	1093.81
196.988	1095.22
197.373	1095.55
197.757	1095.54
198.142	1097.12
198.527	1095.59
198.912	1095.83
199.296	1093.56
199.681	1092.07
200.066	1089.92
200.45	1090.01
200.835	1088.8
201.219	1087.2
201.604	1085.03
201.988	1085.42
202.372	1083.58
202.757	1082.69
203.141	1084.32
203.525	1083.91
203.91	1085.59
204.294	1086.97
204.678	1086.95
205.062	1084.94
205.446	1084.6
205.83	1087.06
206.214	1084.79
206.598	1085.52
206.982	1087.74
207.366	1089.43
207.75	1090.06
208.134	1090.75
208.517	1091.85
208.901	1092.85
209.285	1094.85
209.669	1095.82
210.052	1095.35
210.436	1096.42
210.819	1096.35
211.203	1094.87
211.586	1096.56
211.97	1096.36
212.353	1094.85
212.737	1097.96
213.12	1100.74
213.503	1101.6
213.886	1102.08
214.27	1105.73
214.653	1107.27
215.036	1107.01
215.419	1110.48
215.802	1113.54
216.185	1116.29
216.568	1118.25
216.951	1120.32
217.334	1121.99
217.717	1125.12
218.1	1126.66
218.482	1131.26
218.865	1135.1
219.248	1139.11
219.631	1144.26
220.013	1149.23
220.396	1158.45
220.778	1163.57
221.161	1168.71
221.544	1175.03
221.926	1183.71
222.308	1190.38
222.691	1197.81
223.073	1207.1
223.455	1213.01
223.838	1222.46
224.22	1231.26
224.602	1242.12
224.984	1252.55
225.366	1266.82
225.749	1282.92
226.131	1297.7
226.513	1309.53
226.895	1325.34
227.276	1339.18
227.658	1352.65
228.04	1369.43
228.422	1382.6
228.804	1398.66
229.186	1416.27
229.567	1435.48
229.949	1451.04
230.331	1469.13
230.712	1488.2
231.094	1505.94
231.475	1526.9
231.857	1545.09
232.238	1563.4
232.62	1581.8
233.001	1602.61
233.382	1623.09
233.763	1640.93
234.145	1660.96
234.526	1680.38
234.907	1699.08
235.288	1718.78
235.669	1740.48
236.05	1758.71
236.431	1779.51
236.812	1802.16
237.193	1820.51
237.574	1839.59
237.955	1859.89
238.336	1881.57
238.717	1903.86
239.097	1926.76
239.478	1947.66
239.859	1968.31
240.239	1994.02
240.62	2019.01
241.001	2043.9
241.381	2067.94
241.762	2091
242.142	2114.4
242.522	2139.74
242.903	2166.05
243.283	2194.21
243.663	2218.73
244.044	2249.66
244.424	2279.79
244.804	2306.44
245.184	2339.08
245.564	2369.73
245.944	2402.08
246.324	2432.87
246.704	2463.48
247.084	2493.98
247.464	2527.57
247.844	2561.99
248.224	2593.8
248.604	2625.02
248.983	2654.38
249.363	2685.2
249.743	2717.88
250.122	2750.06
250.502	2781.84
250.882	2812.33
251.261	2844.98
251.641	2877.98
252.02	2910.22
252.399	2941.03
252.779	2977.28
253.158	3015.48
253.537	3052.65
253.917	3095.63
254.296	3135.48
254.675	3176.58
255.054	3216.54
255.433	3256.21
255.812	3295.33
256.191	3336.86
256.57	3378.98
256.949	3426.36
257.328	3470.32
257.707	3515.52
258.086	3563.06
258.465	3611.59
258.843	3664.67
259.222	3715.75
259.601	3772.55
259.979	3827.71
260.358	3883.32
260.736	3936.36
261.115	3991.2
261.493	4049.84
261.872	4104.36
262.25	4161.95
262.629	4218.21
263.007	4279.33
263.385	4340.9
263.763	4406.74
264.142	4470.43
264.52	4537.33
264.898	4602.72
265.276	4668.94
265.654	4737.96
266.032	4809.98
266.41	4883.48
266.788	4955.85
267.166	5033.01
267.544	5105.76
267.921	5182.6
268.299	5263.82
268.677	5348.12
269.055	5432.63
269.432	5518.24
269.81	5606.6
270.188	5695.65
270.565	5785.75
270.943	5879.78
271.32	5969.43
271.697	6064.36
272.075	6160.38
272.452	6259.41
272.829	6358.79
273.207	6462.59
273.584	6565.36
273.961	6671.37
274.338	6780.51
274.715	6898.88
275.092	7015.39
275.469	7139.49
275.846	7260.48
276.223	7384.66
276.6	7505.02
276.977	7630.91
277.354	7754.06
277.731	7876.5
278.108	8005.29
278.484	8137.19
278.861	8268.74
279.238	8413.43
279.614	8550.16
279.991	8695.66
280.367	8843.82
280.744	8991.52
281.12	9140.65
281.497	9289.71
281.873	9444.93
282.249	9595.9
282.625	9742.21
283.002	9890.41
283.378	10037.13
283.754	10188.49
284.13	10346.03
284.506	10503.71
284.882	10661.37
285.258	10821.3
285.634	10980.19
286.01	11141.64
286.386	11305.2
286.762	11469.63
287.138	11627.35
287.513	11793.22
287.889	11953.65
288.265	12110.76
288.641	12272.18
289.016	12432.62
289.392	12600.2
289.767	12759.79
290.143	12928.2
290.518	13089.55
290.894	13253.83
291.269	13412.09
291.644	13570.6
292.02	13722.54
292.395	13880.25
292.77	14034.11
293.145	14186.03
293.52	14341.84
293.895	14491.39
294.27	14643.24
294.646	14797.17
295.02	14948.66
295.395	15098.14
295.77	15253.15
296.145	15407.38
296.52	15563.39
296.895	15717.47
297.269	15872.67
297.644	16029.76
298.019	16180.85
298.393	16334.09
298.768	16486.87
299.143	16643.77
299.517	16802.1
299.891	16953.44
300.266	17114.13
300.64	17272.74
301.015	17440.27
301.389	17609.53
301.763	17786.09
302.137	17960.35
302.512	18138.32
302.886	18315.65
303.26	18503.24
303.634	18684.11
304.008	18861.77
304.382	19042.65
304.756	19231.97
305.13	19416.99
305.504	19595.14
305.877	19785.74
306.251	19992.27
306.625	20195.42
306.999	20404.74
307.372	20614.24
307.746	20835.28
308.119	21045.72
308.493	21256.92
308.866	21466.11
309.24	21679.2
309.613	21888.8
309.987	22096.31
310.36	22290.73
310.733	22503.01
311.107	22716.85
311.48	22932.77
311.853	23162.42
312.226	23386.15
312.599	23615.95
312.972	23842.06
313.345	24077.18
313.718	24302.16
314.091	24523.52
314.464	24756.23
314.837	24981.31
315.21	25198.02
315.582	25422.37
315.955	25641.25
316.328	25863.74
316.7	26081.96
317.073	26309.87
317.446	26526.71
317.818	26760.22
318.191	26996.07
318.563	27225.77
318.936	27435.16
319.308	27643.57
319.68	27849.74
320.053	28053.03
320.425	28240.54
320.797	28424.07
321.169	28590.53
321.541	28740.63
321.913	28872.53
322.285	28992.61
322.657	29118.65
323.029	29269.91
323.401	29407.6
323.773	29572.45
324.145	29746.51
324.517	29934.2
324.889	30113.55
325.26	30325.44
325.632	30536.62
326.004	30772.21
326.375	31026.62
326.747	31305.95
327.118	31608.99
327.49	31897.79
327.861	32209.35
328.233	32516.35
328.604	32827.31
328.975	33141.16
329.346	33458.56
329.718	33769.33
330.089	34075.55
330.46	34373.36
330.831	34638.44
331.202	34895.15
331.573	35139.77
331.944	35367.92
332.315	35602.67
332.686	35820.93
333.057	36017.44
333.428	36194.91
333.799	36363.34
334.169	36522.22
334.54	36661.55
334.911	36780.96
335.281	36916.48
335.652	37040.26
336.022	37172.91
336.393	37316.27
336.763	37481.98
337.134	37665.13
337.504	37867.07
337.874	38066.84
338.245	38269.43
338.615	38489.54
338.985	38721.53
339.355	38946.51
339.726	39173.63
340.096	39395.73
340.466	39648.64
340.836	39894.33
341.206	40150.32
341.576	40404.03
341.945	40645
342.315	40875.21
342.685	41121.59
343.055	41365.68
343.425	41603.9
343.794	41841.4
344.164	42080.98
344.533	42316.93
344.903	42544.17
345.273	42780.27
345.642	43010.81
346.011	43246.24
346.381	43483.97
346.75	43711.57
347.12	43958.03
347.489	44204.44
347.858	44442.07
348.227	44651.47
348.596	44878.86
348.965	45110.91
349.334	45338.02
349.704	45577.54
350.072	45824.78
350.441	46059.95
350.81	46296.17
351.179	46533.22
351.548	46769.81
351.917	46990.11
352.285	47177.63
352.654	47389.82
353.023	47594.52
353.391	47797.62
353.76	48008.34
354.129	48199.81
354.497	48435.26
354.865	48653.13
355.234	48887.94
355.602	49110.02
355.971	49354.83
356.339	49558.81
356.707	49773.19
357.075	49988.83
357.443	50202.34
357.811	50420.29
358.18	50629.08
358.548	50843.69
358.916	51051.54
359.284	51264.5
359.651	51482.07
360.019	51710.58
360.387	51910.57
360.755	52111.45
361.123	52337.68
361.49	52564.25
361.858	52780.83
362.226	52977.04
362.593	53178.99
362.961	53360.02
363.328	53561.96
363.696	53731.98
364.063	53958.87
364.43	54165.68
364.798	54385.37
365.165	54564.66
365.532	54748.91
365.899	54940.7
366.267	55102.07
366.634	55251.29
367.001	55416.31
367.368	55548.46
367.735	55728.35
368.102	55902.35
368.469	56096.71
368.835	56271.68
369.202	56437.91
369.569	56626.27
369.936	56811.82
370.303	57001.27
370.669	57199.16
371.036	57363.22
371.402	57559.27
371.769	57738.15
372.135	57890.01
372.502	58010.1
372.868	58153.99
373.235	58298.81
373.601	58432.83
373.967	58612.16
374.333	58800.69
374.7	58986.28
375.066	59202.42
375.432	59386.96
375.798	59574.42
376.164	59744.05
376.53	59895.09
376.896	60063.35
377.262	60247.43
377.628	60385.6
377.993	60527.36
378.359	60673.76
378.725	60835.76
379.091	60990.11
379.456	61123.77
379.822	61254.77
380.187	61413.64
380.553	61610.91
380.918	61801.26
381.284	61983.45
381.649	62151.65
382.015	62288.24
382.38	62408.28
382.745	62571.94
383.11	62721.54
383.476	62865.56
383.841	62989.44
384.206	63146.57
384.571	63265.71
384.936	63384.11
385.301	63546.88
385.666	63682.9
386.031	63831.08
386.396	63993.41
386.76	64144.4
387.125	64336.44
387.49	64545.01
387.855	64735.02
388.219	64900.88
388.584	65074.19
388.948	65259.38
389.313	65425.38
389.677	65635.28
390.042	65875.72
390.406	66025.59
390.771	66218.03
391.135	66400.28
391.499	66638.69
391.863	66874.17
392.227	67115.48
392.592	67324.27
392.956	67526.73
393.32	67724.96
393.684	67943.67
394.048	68114.93
394.412	68297.68
394.775	68447.58
395.139	68587.04
395.503	68741.58
395.867	68896.56
396.231	69046.15
396.594	69154.35
396.958	69291.71
397.321	69449.72
397.685	69572.45
398.048	69715.67
398.412	69852.34
398.775	69991.12
399.139	70110.57
399.502	70210.49
399.865	70352.29
400.228	70549.28
400.592	70684.12
400.955	70884.57
401.318	71025.18
401.681	71180.33
402.044	71317.2
402.407	71470.1
402.77	71633.27
403.133	71824.53
403.496	71961.02
403.859	72113.85
404.221	72357.21
404.584	72595.54
404.947	72836.59
405.309	73038.79
405.672	73282.48
406.034	73500.12
406.397	73750.82
406.759	73975.55
407.122	74164.97
407.484	74340.46
407.847	74520.6
408.209	74774.3
408.571	74995.63
408.933	75254.6
409.296	75521.57
409.658	75776.86
410.02	76047.82
410.382	76349.88
410.744	76604.66
411.106	76893.79
411.468	77164.86
411.83	77388.03
412.191	77580.44
412.553	77743.06
412.915	77944.14
413.277	78129.3
413.638	78310.03
414	78464.44
414.361	78624.23
414.723	78831.44
415.084	79020.12
415.446	79164.25
415.807	79278.26
416.169	79367.78
416.53	79430.79
416.891	79506.1
417.252	79596.42
417.614	79652.16
417.975	79678.58
418.336	79705.92
418.697	79736.08
419.058	79760.55
419.419	79777.35
419.78	79799.96
420.141	79815.85
420.501	79830.73
420.862	79841.51
421.223	79852.05
421.584	79875.29
421.944	79886.64
422.305	79895.93
422.666	79903.05
423.026	79904.9
423.387	79912.13
423.747	79917.22
424.107	79925.29
424.468	79931.9
424.828	79935.45
425.188	79936.81
425.549	79941.31
425.909	79947.52
426.269	79946.37
426.629	79949.59
426.989	79955.57
427.349	79959.41
427.709	79963.21
428.069	79966.68
428.429	79969.53
428.789	79973.74
429.149	79977.88
429.508	79980.98
429.868	79984.27
430.228	79986.56
430.587	79990.07
430.947	79992.95
431.306	79996.5
431.666	79999.49
432.025	80001.38
432.385	80004
432.744	80006.66
433.103	80008.95
433.463	80009.43
433.822	80016.38
434.181	80019.48
434.54	80019.89
434.899	80021.37
435.258	80023.92
435.618	80025.02
435.976	80030.49
436.335	80032.68
436.694	80032.64
437.053	80033.16
437.412	80034.08
437.771	80034.19
438.129	80036.78
438.488	80038.22
438.847	80039.37
439.205	80040.11
439.564	80041
439.922	80039.92
440.281	80040.48
440.639	80042.44
440.997	80044.62
441.356	80045.73
441.714	80046.62
442.072	80048.32
442.431	80048.91
442.789	80049.58
443.147	80050.28
443.505	80049.06
443.863	80048.84
444.221	80049.35
444.579	80049.69
444.937	80048.73
445.294	80051.09
445.652	80050.43
446.01	80050.43
446.368	80051.39
446.725	80050.72
447.083	80050.35
447.441	80053.57
447.798	80053.42
448.156	80054.57
448.513	80054.16
448.87	80053.94
449.228	80055.31
449.585	80055.42
449.942	80056.27
450.3	80056.27
450.657	80056.12
451.014	80057.49
451.371	80058.86
451.728	80058.57
452.085	80058.97
452.442	80059.34
452.799	80059.05
453.156	80058.53
453.513	80059.6
453.869	80058.86
454.226	80059.6
454.583	80061.08
454.939	80060.56
455.296	80059.56
455.653	80059.34
456.009	80057.97
456.366	80058.27
456.722	80058.49
457.078	80058.71
457.435	80058.12
457.791	80057.94
458.147	80059.75
458.503	80059.71
458.86	80058.75
459.216	80058.79
459.572	80060.64
459.928	80062.49
460.284	80063.19
460.64	80063.12
460.996	80062.41
461.351	80063.04
461.707	80062.97
462.063	80060.75
462.419	80061.16
462.774	80062.19
463.13	80061.27
463.486	80062.08
463.841	80063.89
464.197	80062.82
464.552	80063.86
464.908	80064.85
465.263	80066.04
465.618	80065.63
465.974	80067.44
466.329	80070.22
466.684	80070.77
467.039	80069.81
467.394	80070.44
467.749	80070.81
468.104	80072.22
468.459	80073.55
468.814	80075.29
469.169	80076.77
469.524	80078.54
469.879	80077.99
470.233	80078.73
470.588	80078.36
470.943	80079.65
471.297	80078.58
471.652	80078.1
472.006	80076.84
472.361	80077.51
472.715	80077.8
473.07	80078.95
473.424	80077.43
473.778	80075.36
474.133	80075.92
474.487	80077.1
474.841	80076.92
475.195	80076.03
475.549	80076.14
475.903	80076.95
476.257	80076.1
476.611	80075.55
476.965	80075.69
477.319	80076.58
477.673	80077.77
478.026	80079.62
478.38	80081.39
478.734	80083.02
479.087	80084.54
479.441	80085.32
479.795	80086.09
480.148	80087.54
480.502	80089.2
480.855	80091.02
481.208	80092.24
481.562	80092.76
481.915	80091.79
482.268	80092.35
482.621	80093.2
482.974	80092.94
483.328	80093.05
483.681	80093.31
484.034	80093.5
484.387	80095.79
484.739	80095.49
485.092	80096.72
485.445	80096.01
485.798	80095.2
486.151	80094.53
486.503	80094.31
486.856	80096.57
487.209	80096.01
487.561	80095.61
487.914	80093.24
488.266	80091.98
488.618	80092.35
488.971	80093.01
489.323	80094.24
489.675	80095.83
490.028	80097.01
490.38	80097.27
490.732	80097.97
491.084	80097.23
491.436	80097.75
491.788	80096.79
492.14	80098.6
492.492	80098.2
492.844	80101.01
493.196	80102.16
493.548	80102.38
493.899	80102.57
494.251	80102.23
494.603	80102.05
494.954	80102.08
495.306	80101.6
495.657	80101.57
496.009	80101.97
496.36	80101.71
496.712	80101.94
497.063	80100.94
497.414	80099.34
497.765	80100.83
498.117	80099.42
498.468	80101.19
498.819	80101.71
499.17	80100.42
499.521	80099.49
499.872	80100.05
500.223	80098.6
500.574	80097.86
500.924	80098.01
501.275	80098.86
501.626	80098.68
501.977	80098.6
502.327	80098.64
502.678	80099.53
503.029	80100.79
503.379	80100.56
503.73	80099.75
504.08	80100.12
504.43	80100.16
504.781	80101.05
505.131	80099.94
505.481	80101.19
505.831	80100.71
506.182	80099.94
506.532	80101.19
506.882	80101.38
507.232	80100.38
507.582	80098.71
507.932	80099.6
508.281	80100.16
508.631	80100.34
508.981	80099.75
509.331	80099.86
509.681	80098.97
510.03	80099.27
510.38	80100.05
510.729	80100.05
511.079	80100.31
511.428	80099.94
511.778	80100.23
512.127	80099.31
512.476	80098.94
512.826	80097.97
513.175	80099.79
513.524	80100.64
513.873	80100.75
514.222	80100.75
514.571	80100.23
514.92	80101.05
515.269	80099.16
515.618	80098.6
515.967	80097.71
516.316	80097.42
516.665	80097.79
517.014	80098.38
517.362	80097.83
517.711	80097.01
518.059	80098.27
518.408	80099.08
518.757	80099.2
519.105	80098.49
519.453	80099.08
519.802	80100.71
520.15	80100.86
520.498	80099.38
520.847	80099.6
521.195	80100.16
521.543	80099.23
521.891	80101.42
522.239	80101.82
522.587	80102.9
522.935	80104.79
523.283	80104.67
523.631	80104.38
523.979	80105.45
524.326	80105.27
524.674	80105.86
525.022	80104.79
525.369	80102.86
525.717	80102.27
526.064	80100.97
526.412	80101.16
526.759	80100.01
527.107	80099.2
527.454	80099.01
527.801	80098.75
528.149	80097.27
528.496	80096.9
528.843	80098.34
529.19	80096.83
529.537	80096.57
529.884	80096.72
530.231	80094.79
530.578	80094.27
530.925	80095.16
531.272	80093.49
531.619	80092.53
531.966	80093.12
532.312	80093.72
532.659	80093.79
533.006	80094.79
533.352	80095.53
533.699	80095.53
534.045	80095.94
534.392	80095.23
534.738	80096.09
535.084	80097.05
535.431	80098.45
535.777	80097.71
536.123	80097.68
536.469	80097.09
536.815	80097.71
537.161	80097.31
537.507	80096.09
537.853	80096.34
538.199	80096.23
538.545	80095.72
538.891	80096.79
539.237	80096.94
539.582	80096.49
539.928	80097.05
540.274	80095.2
540.619	80095.16
540.965	80095.31
541.31	80095.6
541.656	80095.09
542.001	80095.12
542.347	80094.57
542.692	80095.42
543.037	80096.12
543.382	80096.38
543.728	80097.46
544.073	80097.23
544.418	80097.86
544.763	80099.2
545.108	80099.16
545.453	80098.27
545.798	80099.68
546.142	80098.9
546.487	80097.79
546.832	80098.57
547.177	80097.46
547.521	80097.68
547.866	80098.42
548.211	80098.38
548.555	80097.68
548.9	80097.01
549.244	80096.01
549.588	80095.53
549.933	80092.76
550.277	80092.2
550.621	80090.35
550.965	80089.46
551.31	80088.94
551.654	80086.46
551.998	80085.43
552.342	80087.17
552.686	80088.91
553.03	80088.43
553.373	80089.61
553.717	80090.13
554.061	80089.68
554.405	80090.54
554.748	80091.02
555.092	80090.42
555.436	80089.5
555.779	80090.65
556.123	80090.9
556.466	80092.24
556.81	80091.87
557.153	80093.35
557.496	80092.79
557.839	80094.79
558.183	80095.12
558.526	80095.01
558.869	80098.68
559.212	80098.2
559.555	80096.42
559.898	80095.64
560.241	80094.75
560.584	80093.46
560.927	80092.68
561.269	80094.79
561.612	80095.42
561.955	80095.46
562.297	80094.16
562.64	80094.76
562.983	80094.9
563.325	80096.98
563.668	80094.42
564.01	80094.09
564.352	80092.87
564.695	80092.91
565.037	80092.05
565.379	80092.2
565.721	80091.28
566.063	80088.61
566.406	80090.35
566.748	80089.61
567.09	80088.54
567.431	80088.31
567.773	80088.5
568.115	80088.61
568.457	80087.43
568.799	80085.46
569.14	80085.98
569.482	80086.43
569.824	80085.98
570.165	80084.54
570.507	80083.1
570.848	80083.58
571.19	80083.69
571.531	80084.69
571.872	80085.02
572.214	80086.06
572.555	80085.32
572.896	80084.76
573.237	80084.39
573.578	80081.39
573.919	80083.58
574.26	80083.91
574.601	80084.98
574.942	80083.76
575.283	80083.36
575.624	80081.88
575.964	80081.8
576.305	80080.99
576.646	80082.58
576.986	80082.28
577.327	80082.99
577.667	80083.24
578.008	80083.95
578.348	80085.1
578.689	80084.06
579.029	80083.76
579.369	80081.62
579.71	80081.28
580.05	80083.32
580.39	80083.84
580.73	80085.17
581.07	80082.84
581.41	80082.76
581.75	80081.84
582.09	80083.54
582.43	80082.5
582.769	80083.24
583.109	80083.21
583.449	80082.5
583.789	80081.5
584.128	80081.76
584.468	80080.8
584.807	80080.39
585.147	80080.02
585.486	80078.88
585.825	80079.99
586.165	80079.88
586.504	80080.5
586.843	80082.1
587.182	80081.61
587.522	80081.28
587.861	80081.58
588.2	80080.95
588.539	80079.54
588.878	80081.39
589.216	80079.88
589.555	80080.43
589.894	80078.73
590.233	80079.28
590.572	80079.91
590.91	80078.99
591.249	80079.02
591.587	80079.02
591.926	80078.62
592.264	80079.06
592.603	80078.73
592.941	80077.29
593.279	80077.32
593.618	80074.84
593.956	80073.66
594.294	80074.29
594.632	80074.88
594.97	80075.1
595.308	80075.81
595.646	80077.88
595.984	80075.84
596.322	80076.43
596.66	80074.81
596.998	80075.07
597.335	80074.92
597.673	80073.88
598.011	80074.47
598.348	80074.07
598.686	80073.92
599.023	80074.47
599.361	80074.03
599.698	80073.92
600.035	80075.95
600.373	80075.14
600.71	80076.66
601.047	80076.51
601.384	80074.99
601.722	80073.36
602.059	80072.66
602.396	80073.55
602.733	80071.25
603.069	80071.55
603.406	80070.7
603.743	80071.18
604.08	80072.88
604.417	80073.1
604.753	80072.88
605.09	80070.59
605.426	80070.4
605.763	80071.18
606.099	80070.74
606.436	80070.48
606.772	80070.74
607.109	80069
607.445	80068.63
607.781	80067.89
608.117	80067.22
608.453	80066.89
608.79	80068.41
609.126	80067.85
609.462	80066.48
609.798	80066.22
610.133	80065.33
610.469	80066.48
610.805	80067.41
611.141	80066.93
611.477	80065.82
611.812	80067.26
612.148	80068.18
612.483	80067.59
612.819	80067.55
613.154	80066.33
613.49	80066.11
613.825	80065.74
614.16	80064.56
614.496	80066.67
614.831	80067.96
615.166	80068.52
615.501	80068.63
615.836	80067.7
616.171	80066.63
616.506	80066.96
616.841	80068.07
617.176	80068.59
617.511	80067.37
617.846	80068.26
618.18	80065.15
618.515	80064.23
618.85	80061.23
619.184	80062.49
619.519	80062.49
619.853	80061.6
620.188	80062.56
620.522	80061.01
620.856	80060.64
621.191	80060.75
621.525	80059.38
621.859	80057.05
622.193	80055.98
622.527	80056.61
622.861	80056.16
623.195	80058.08
623.529	80057.49
623.863	80055.72
624.197	80055.09
624.531	80054.76
624.865	80052.68
625.198	80052.61
625.532	80054.09
625.866	80055.2
626.199	80054.27
626.533	80053.09
626.866	80052.09
627.2	80050.5
627.533	80052.79
627.866	80052.2
628.2	80053.02
628.533	80051.2
628.866	80052.05
629.199	80051.43
629.532	80048.84
629.865	80049.43
630.198	80048.13
630.531	80048.91
630.864	80050.06
631.197	80049.91
631.529	80049.06
631.862	80050.21
632.195	80051.39
632.527	80050.02
632.86	80051.09
633.193	80051.32
633.525	80051.8
633.857	80053.87
634.19	80055.24
634.522	80053.98
634.854	80054.57
635.187	80056.01
635.519	80057.53
635.851	80058.23
636.183	80059.08
636.515	80060.01
636.847	80057.9
637.179	80057.64
637.511	80056.97
637.843	80056.42
638.174	80055.05
638.506	80055.68
638.838	80054.5
639.17	80055.24
639.501	80055.46
639.833	80053.39
640.164	80052.42
640.496	80053.24
640.827	80051.76
641.158	80050.24
641.49	80050.8
641.821	80050.39
642.152	80048.98
642.483	80048.76
642.814	80046.58
643.145	80046.4
643.476	80046.69
643.807	80046.84
644.138	80046.25
644.469	80045.51
644.8	80044.88
645.131	80045.25
645.461	80044.81
645.792	80045.36
646.122	80043.55
646.453	80044.77
646.784	80043.84
647.114	80043.77
647.444	80041.48
647.775	80040.96
648.105	80042
648.435	80041.22
648.765	80041.85
649.096	80041.81
649.426	80042.66
649.756	80042.99
650.086	80041.14
650.416	80038.96
650.746	80039.11
651.075	80038.11
651.405	80038.52
651.735	80039.11
652.065	80039.08
652.394	80040.48
652.724	80040.04
653.054	80039.67
653.383	80038.59
653.712	80039.44
654.042	80038.41
654.371	80039.11
654.701	80038.48
655.03	80037.19
655.359	80035.78
655.688	80036.12
656.017	80034.97
656.346	80033.45
656.675	80034.64
657.004	80036.26
657.333	80038.52
657.662	80038.37
657.991	80039.59
658.32	80039.78
658.648	80039.7
658.977	80040.59
659.306	80039.41
659.634	80038.56
659.963	80038.48
660.291	80037.34
660.619	80036.63
660.948	80036.52
661.276	80035.19
661.604	80036.15
661.933	80036.23
662.261	80036.71
662.589	80034.3
662.917	80034.67
663.245	80033.56
663.573	80033.67
663.901	80034.38
664.229	80034.12
664.556	80034.78
664.884	80035.08
665.212	80034.9
665.539	80033.64
665.867	80033.42
666.195	80033.97
666.522	80033.86
666.85	80033.82
667.177	80033.31
667.504	80035.27
667.832	80036.82
668.159	80038.11
668.486	80037.71
668.813	80037.74
669.14	80037.19
669.467	80038.33
669.794	80038.37
670.121	80039.04
670.448	80038.7
670.775	80036.85
671.102	80036.37
671.429	80033.82
671.755	80031.64
672.082	80029.46
672.409	80029.39
672.735	80028.43
673.062	80025.99
673.388	80026.8
673.714	80026.84
674.041	80027.17
674.367	80024.4
674.693	80022.99
675.019	80021.84
675.346	80019.81
675.672	80018.26
675.998	80018.3
676.324	80015.93
676.65	80014.52
676.976	80014.08
677.301	80011.9
677.627	80010.64
677.953	80009.94
678.279	80010.2
678.604	80010.64
678.93	80011.42
679.255	80011.57
679.581	80011.9
679.906	80012.6
680.232	80010.86
680.557	80010.35
680.882	80010.61
681.208	80011.6
681.533	80011.71
681.858	80011.97
682.183	80011.38
682.508	80011.68
682.833	80010.27
683.158	80011.97
683.483	80012.01
683.808	80011.2
684.132	80010.49
684.457	80009.5
684.782	80007.65
685.106	80008.06
685.431	80007.61
685.755	80007.02
686.08	80005.39
686.404	80002.99
686.729	80002.22
687.053	80002.51
687.377	80000.55
687.701	79999.56
688.026	79998.15
688.35	79997.12
688.674	79997.08
688.998	79996.78
689.322	79996.01
689.646	79995.82
689.97	79993.35
690.293	79991.87
690.617	79989.32
690.941	79989.91
691.264	79989.87
691.588	79991.5
691.912	79990.32
692.235	79990.02
692.559	79987.99
692.882	79987.62
693.205	79987.81
693.529	79985.77
693.852	79982.12
694.175	79979.24
694.498	79977.17
694.821	79974.58
695.144	79971.92
695.467	79966.42
695.79	79962.51
696.113	79957.86
696.436	79953.76
696.759	79949.33
697.082	79944.35
697.404	79939.73
697.727	79931.69
698.049	79923.76
698.372	79910.81
698.694	79897.44
699.017	79882.92
699.339	79867.19
699.662	79846.54
699.984	79815.32
700.306	79784.22
700.628	79739.11
700.95	79678.3
701.272	79600.44
701.594	79508.97
701.916	79415.26
702.238	79306.72
702.56	79143.32
702.882	78987.86
703.204	78842.94
703.525	78676.51
703.847	78467.13
704.169	78270.41
704.49	78061.5
704.812	77839.66
705.133	77612.36
705.455	77380.98
705.776	77139.88
706.097	76902.52
706.419	76650.87
706.74	76391.66
707.061	76113.38
707.382	75813.25
707.703	75520.25
708.024	75245.74
708.345	74958.86
708.666	74654.3
708.987	74345.56
709.307	74090.07
709.628	73787.55
709.949	73471.41
710.27	73156.93
710.59	72893.72
710.911	72593.76
711.231	72279.29
711.552	72010.27
711.872	71687.86
712.192	71408.83
712.512	71135.17
712.833	70864.23
713.153	70590.75
713.473	70356.8
713.793	70121.9
714.113	69911.3
714.433	69699.22
714.753	69486.36
715.073	69290.31
715.393	69081.97
715.712	68919.46
716.032	68709.81
716.352	68546.71
716.671	68387.66
716.991	68220.53
717.31	68021.11
717.63	67866.13
717.949	67696.56
718.268	67485.43
718.588	67310.67
718.907	67081.68
719.226	66823.65
719.545	66567.13
719.864	66293.45
720.183	66013.87
720.502	65728.12
720.821	65448.21
721.14	65160.73
721.459	64852.84
721.778	64573.86
722.096	64258.7
722.415	63948.21
722.734	63676.38
723.052	63383.38
723.371	63086.66
723.689	62806.05
724.008	62532.58
724.326	62231.33
724.644	61963.59
724.963	61686.19
725.281	61454.2
725.599	61222.71
725.917	61038.42
726.235	60844.62
726.553	60687.41
726.871	60494.19
727.189	60297.87
727.507	60097.58
727.824	59944.6
728.142	59800.64
728.46	59603.67
728.777	59500.82
729.095	59365.82
729.413	59219.81
729.73	59074.02
730.047	58936.49
730.365	58819.86
730.682	58703.32
730.999	58615.43
731.317	58542.83
731.634	58460.98
731.951	58353.26
732.268	58233.73
732.585	58085.32
732.902	57920.94
733.219	57757.53
733.536	57584.34
733.852	57461.84
734.169	57331.78
734.486	57185.46
734.802	57024.6
735.119	56908.86
735.435	56737.59
735.752	56578.08
736.068	56407.84
736.385	56247.22
736.701	56058.04
737.017	55823.08
737.333	55578.75
737.65	55273.6
737.966	54890.91
738.282	54496.79
738.598	54078.62
738.914	53627.53
739.23	53130.25
739.545	52617.64
739.861	52071.46
740.177	51522.68
740.493	50923.51
740.808	50348.43
741.124	49732.52
741.439	49154.58
741.755	48579.79
742.07	48059.13
742.386	47504.12
742.701	46998.8
743.016	46494.5
743.331	46016.54
743.647	45593.05
743.962	45202.29
744.277	44857.54
744.592	44585.34
744.907	44372.38
745.222	44206.81
745.537	44115.55
745.851	44092.9
746.166	44111.54
746.481	44168.44
746.795	44283.99
747.11	44441.91
747.424	44612.08
747.739	44781
748.053	44957.83
748.368	45111.09
748.682	45218.05
748.996	45351.66
749.311	45456.5
749.625	45564.92
749.939	45664.1
750.253	45722.34
750.567	45791.99
750.881	45849.04
751.195	45912.59
751.509	45977.08
751.822	46022.74
752.136	46065.06
752.45	46118.66
752.763	46185.34
753.077	46234.41
753.39	46264.86
753.704	46287.06
754.017	46305.55
754.331	46341.78
754.644	46350.28
754.957	46357.69
755.27	46364.36
755.584	46376.32
755.897	46376.07
756.21	46357.1
756.523	46334.29
756.836	46323.67
757.149	46247.71
757.461	46179.57
757.774	46091.24
758.087	45966.05
758.4	45828.8
758.712	45677.02
759.025	45515.2
759.337	45356.76
759.65	45198.87
759.962	45052.58
760.275	44890.35
760.587	44750.44
760.899	44605.4
761.211	44502.43
761.523	44431.83
761.836	44435.69
762.148	44434.89
762.46	44464.72
762.772	44535
763.083	44675.08
763.395	44817.33
763.707	45034.03
764.019	45258.34
764.33	45488.8
764.642	45752.42
764.954	46024.14
765.265	46305.06
765.577	46572.12
765.888	46815.97
766.199	47063.12
766.511	47273.29
766.822	47490.28
767.133	47659.54
767.444	47837.63
767.755	47934.61
768.066	47989.26
768.377	47983.05
768.688	47916.82
768.999	47833.15
769.31	47706.49
769.621	47520.94
769.931	47294.48
770.242	47030.95
770.553	46735.18
770.863	46405.5
771.174	46045.19
771.484	45663.11
771.794	45254.45
772.105	44851.17
772.415	44422.79
772.725	43975.76
773.035	43533.56
773.345	43087.32
773.656	42630.01
773.966	42156.21
774.276	41722.63
774.585	41295.05
774.895	40851.53
775.205	40472.59
775.515	40079.14
775.824	39691.95
776.134	39298.2
776.444	38936.71
776.753	38580.45
777.063	38239.16
777.372	37913.61
777.681	37590.01
777.991	37281.07
778.3	36981.09
778.609	36676.73
778.918	36391.95
779.228	36125.06
779.537	35864.82
779.846	35605.63
780.154	35354.36
780.463	35115.14
780.772	34868.31
781.081	34642.85
781.39	34440.32
781.698	34219.04
782.007	34008.73
782.316	33799.35
782.624	33587.42
782.932	33387.6
783.241	33191.95
783.549	32997.92
783.858	32827.09
784.166	32657.17
784.474	32487.06
784.782	32323.7
785.09	32165.75
785.398	32018.01
785.706	31874.51
786.014	31736.96
786.322	31591.35
786.63	31453.72
786.937	31327.1
787.245	31200.89
787.553	31074.35
787.86	30961.96
788.168	30841.36
788.475	30734.73
788.783	30643.76
789.09	30551.95
789.398	30451
789.705	30347.5
790.012	30254.26
790.319	30145.84
790.626	30045.17
790.933	29947.16
791.24	29859.94
791.547	29769.07
791.854	29675.39
792.161	29582.93
792.468	29479.62
792.774	29390.94
793.081	29308.33
793.388	29227.19
793.694	29136.96
794.001	29043.83
794.307	28926.07
794.614	28823.53
794.92	28695.16
795.226	28562.44
795.533	28446.43
795.839	28349.46
796.145	28238.7
796.451	28118.66
796.757	28015.32
797.063	27902.66
797.369	27791.01
797.675	27681.12
797.98	27576.82
798.286	27453.12
798.592	27345.12
798.898	27231.67
799.203	27113.02
799.509	26999.16
799.814	26871.67
800.12	26770.44
800.425	26657.04
800.73	26543.91
801.035	26427.48
801.341	26330.36
801.646	26231.68
801.951	26128.48
802.256	26022.68
802.561	25923.82
802.866	25829.85
803.171	25738.94
803.476	25653.65
803.78	25568.64
804.085	25470.24
804.39	25361.09
804.694	25273.39
804.999	25173.56
805.303	25078.15
805.608	24998.53
805.912	24913.1
806.216	24839.81
806.521	24767.38
806.825	24689.43
807.129	24622.3
807.433	24554.42
807.737	24482.37
808.041	24420.46
808.345	24367.84
808.649	24310.68
808.953	24263.67
809.257	24209.36
809.561	24152.53
809.864	24101.82
810.168	24063.4
810.471	24032.33
810.775	24006.92
811.078	23981.14
811.382	23954.2
811.685	23953.9
811.988	23943.15
812.292	23931.83
812.595	23928.93
812.898	23928.84
813.201	23942.48
813.504	23961.69
813.807	23988.54
814.11	24017.58
814.413	24048.32
814.716	24073.92
815.018	24119.21
815.321	24177.37
815.624	24264.23
815.926	24365.49
816.229	24482.81
816.531	24626.47
816.834	24787.82
817.136	24985.01
817.438	25200.95
817.74	25473.35
818.043	25783.3
818.345	26159.36
818.647	26620.23
818.949	27168.35
819.251	27807.21
819.553	28561.59
819.855	29439.11
820.156	30409.7
820.458	31489.39
820.76	32641.08
821.062	33850.17
821.363	35119.85
821.665	36457.89
821.966	37883.43
822.268	39333.67
822.569	40792.35
822.87	42267.46
823.171	43758.38
823.473	45288.32
823.774	46867.97
824.075	48384.48
824.376	49882.39
824.677	51345.08
824.978	52723.92
825.279	54015.86
825.58	55185.56
825.88	56220.53
826.181	57093.11
826.482	57873.57
826.782	58502.19
827.083	59017.58
827.383	59401.64
827.684	59619.45
827.984	59700.58
828.284	59608.22
828.585	59384.54
828.885	59078.41
829.185	58620.93
829.485	58064.29
829.785	57389.47
830.085	56552.02
830.385	55689.88
830.685	54754.99
830.985	53708.32
831.285	52627.95
831.584	51499.15
831.884	50344.88
832.183	49162.44
832.483	47955.42
832.782	46680.08
833.082	45401.37
833.381	44123.57
833.681	42888.98
833.98	41718.78
834.279	40584.7
834.578	39483.4
834.877	38444.36
835.176	37433.34
835.475	36497.35
835.774	35606.27
836.073	34740.32
836.372	33923.01
836.671	33113.4
836.969	32311.5
837.268	31574.69
837.567	30864.94
837.865	30182.63
838.164	29503.8
838.462	28856.92
838.761	28250.35
839.059	27671.17
839.357	27123.03
839.655	26590.78
839.953	26048.85
840.252	25523.05
840.55	25001.49
840.848	24496.18
841.146	24006.86
841.443	23510.16
841.741	23011.78
842.039	22513.51
842.337	22007.39
842.634	21543.88
842.932	21099.2
843.229	20672.79
843.527	20251.76
843.824	19813.38
844.122	19368.42
844.419	18948.94
844.716	18519.19
845.013	18102.82
845.311	17716.44
845.608	17342.58
845.905	16976.77
846.202	16622.55
846.499	16254.63
846.796	15884.63
847.092	15515.98
847.389	15150.48
847.686	14810.69
847.982	14497.59
848.279	14185.6
848.576	13896.33
848.872	13601.69
849.168	13313.46
849.465	13035.04
849.761	12747.89
850.057	12473.84
850.354	12212.76
850.65	11964.61
850.946	11738.34
851.242	11517.75
851.538	11301.82
851.834	11083.46
852.13	10870.21
852.425	10675.41
852.721	10498.58
853.017	10332.25
853.312	10178.62
853.608	10031.03
853.903	9892.63
854.199	9743.87
854.494	9612.8
854.79	9480.87
855.085	9351.43
855.38	9220.93
855.675	9088
855.971	8966.97
856.266	8863.71
856.561	8763.3
856.856	8668.49
857.151	8576.9
857.445	8475.74
857.74	8376.5
858.035	8286.49
858.33	8195.01
858.624	8107.76
858.919	8028.53
859.213	7944.97
859.508	7864.13
859.802	7775.54
860.096	7692.44
860.391	7631.2
860.685	7567.82
860.979	7508.21
861.273	7452.64
861.567	7394.61
861.861	7331.32
862.155	7277.55
862.449	7211.11
862.743	7149.11
863.037	7092.35
863.33	7035.15
863.624	6982.28
863.918	6935.78
864.211	6891.62
864.505	6857.02
864.798	6816.03
865.092	6766.23
865.385	6722.25
865.678	6668.86
865.971	6636.28
866.264	6606.31
866.558	6572.99
866.851	6541.73
867.144	6513.31
867.437	6481.25
867.729	6453.25
868.022	6433.11
868.315	6413.19
868.608	6401.4
868.9	6396.7
869.193	6378.14
869.485	6351.52
869.778	6328.14
870.07	6300.99
870.363	6280.29
870.655	6262.85
870.947	6254.12
871.239	6250.6
871.532	6250.28
871.824	6255.55
872.116	6250.34
872.408	6245.18
872.699	6231.38
872.991	6223.2
873.283	6219.32
873.575	6218.12
873.867	6224.15
874.158	6229.87
874.45	6230.23
874.741	6228.32
875.033	6227.5
875.324	6241.34
875.615	6265.01
875.907	6290.39
876.198	6307.03
876.489	6319.79
876.78	6324.46
877.071	6324.53
877.362	6324.84
877.653	6327.94
877.944	6337.62
878.235	6351.13
878.526	6359.18
878.816	6379.79
