Data from 24HourExp_27052025_FLMS018081_16-58-19-552.txt Node
Date: Tue May 27 16:58:19 BST 2025
User: adleo
Spectrometer: FLMS01808
Trigger mode: 0
Integration Time (sec): 4.000000E-1
Scans to average: 10
Electric dark correction enabled: true
Nonlinearity correction enabled: true
Boxcar width: 10
XAxis mode: Wavelengths
Number of Pixels in Spectrum: 2048
>>>>>Begin Spectral Data<<<<<
178.471	-125.21
178.857	-117.53
179.244	-111.07
179.631	-104.15
180.017	-97.41
180.404	-89.66
180.79	-76.09
181.176	-67.09
181.563	-58.63
181.949	-48.68
182.335	-38.64
182.722	-22.25
183.108	-2.71
183.494	24.72
183.88	77.28
184.266	130.65
184.653	187.42
185.039	241.31
185.425	295.58
185.811	349.85
186.197	403.61
186.582	454.89
186.968	506.08
187.354	556.2
187.74	608.79
188.126	659.93
188.511	711.38
188.897	756.2
189.283	802.33
189.668	848.39
190.054	893.53
190.439	939.11
190.825	983.17
191.21	1023.35
191.596	1055.62
191.981	1064.42
192.366	1068.78
192.752	1069.96
193.137	1073.66
193.522	1073.29
193.908	1074.34
194.293	1077.47
194.678	1079.61
195.063	1082.39
195.448	1085.86
195.833	1087.44
196.218	1087.58
196.603	1086.86
196.988	1087.09
197.373	1087.98
197.757	1088.94
198.142	1089.53
198.527	1087.22
198.912	1086.44
199.296	1086.31
199.681	1085.73
200.066	1084.04
200.45	1085.61
200.835	1086.29
201.219	1085.64
201.604	1086.91
201.988	1088.52
202.372	1088.84
202.757	1090.39
203.141	1092.5
203.525	1091.89
203.91	1091.12
204.294	1092.46
204.678	1092.97
205.062	1091.99
205.446	1092.01
205.83	1092.6
206.214	1092.62
206.598	1095.05
206.982	1095.42
207.366	1094.99
207.75	1095.87
208.134	1097.02
208.517	1095.57
208.901	1096.29
209.285	1098.74
209.669	1098.71
210.052	1097.81
210.436	1097.76
210.819	1096.23
211.203	1093.59
211.586	1094.2
211.97	1094.81
212.353	1095.15
212.737	1096.48
213.12	1100.12
213.503	1103.11
213.886	1103.39
214.27	1105.25
214.653	1105.47
215.036	1107.41
215.419	1108.98
215.802	1111.68
216.185	1113.54
216.568	1116.27
216.951	1118.47
217.334	1120.74
217.717	1124.78
218.1	1128.29
218.482	1132.41
218.865	1136.11
219.248	1140.89
219.631	1145.8
220.013	1150.05
220.396	1156.33
220.778	1159.8
221.161	1165.56
221.544	1171.23
221.926	1179.89
222.308	1187.74
222.691	1194.67
223.073	1202.81
223.455	1210.83
223.838	1217.86
224.22	1227.07
224.602	1238.98
224.984	1250.38
225.366	1261.35
225.749	1275.07
226.131	1286.52
226.513	1298.64
226.895	1312.92
227.276	1327.04
227.658	1342.55
228.04	1359.21
228.422	1374.62
228.804	1391.98
229.186	1406.76
229.567	1424.07
229.949	1439.54
230.331	1455.95
230.712	1474.83
231.094	1492.17
231.475	1512.75
231.857	1534.4
232.238	1553.2
232.62	1572.43
233.001	1592.7
233.382	1613.55
233.763	1632.97
234.145	1655.02
234.526	1676.09
234.907	1695.78
235.288	1715.28
235.669	1735.88
236.05	1755.85
236.431	1775.23
236.812	1795.82
237.193	1816.21
237.574	1836.62
237.955	1858.88
238.336	1879.76
238.717	1901.88
239.097	1925.91
239.478	1948.33
239.859	1969.64
240.239	1994.31
240.62	2016.71
241.001	2039.83
241.381	2063.69
241.762	2087.01
242.142	2108.68
242.522	2133.39
242.903	2158.2
243.283	2184.66
243.663	2209.75
244.044	2235.57
244.424	2267.22
244.804	2294.66
245.184	2324.83
245.564	2354.27
245.944	2385.69
246.324	2415.69
246.704	2445.72
247.084	2473.05
247.464	2502.72
247.844	2535.79
248.224	2567.07
248.604	2600.69
248.983	2632.92
249.363	2664.44
249.743	2696.34
250.122	2729.37
250.502	2758.77
250.882	2792.48
251.261	2824.54
251.641	2856.06
252.02	2889.21
252.399	2921.86
252.779	2958.94
253.158	2994.14
253.537	3033.13
253.917	3075.32
254.296	3113.13
254.675	3154.83
255.054	3196.06
255.433	3240.47
255.812	3279.79
256.191	3322.14
256.57	3363.2
256.949	3405.57
257.328	3451.72
257.707	3496.56
258.086	3544.04
258.465	3592.82
258.843	3644.61
259.222	3697.56
259.601	3753.37
259.979	3810.87
260.358	3863.8
260.736	3919.73
261.115	3977.88
261.493	4031.07
261.872	4082.47
262.25	4143.66
262.629	4200.06
263.007	4259.88
263.385	4320.15
263.763	4383.46
264.142	4446.75
264.52	4513.04
264.898	4578.78
265.276	4644.38
265.654	4713.61
266.032	4783.8
266.41	4856.8
266.788	4928.89
267.166	5003.96
267.544	5077.74
267.921	5150.29
268.299	5230.11
268.677	5307.93
269.055	5387.52
269.432	5473.23
269.81	5559.46
270.188	5644.28
270.565	5734.35
270.943	5825.74
271.32	5913.63
271.697	6008.61
272.075	6101.21
272.452	6195.85
272.829	6294.25
273.207	6395.39
273.584	6500.61
273.961	6606.98
274.338	6716.15
274.715	6827.25
275.092	6943.53
275.469	7064.79
275.846	7187.59
276.223	7306.23
276.6	7430.35
276.977	7553.83
277.354	7678.25
277.731	7803.46
278.108	7933.43
278.484	8062.54
278.861	8193.5
279.238	8335.93
279.614	8470.75
279.991	8612.38
280.367	8755.43
280.744	8900.62
281.12	9048.9
281.497	9194.74
281.873	9344.05
282.249	9492.77
282.625	9642.07
283.002	9787.62
283.378	9933.6
283.754	10077.17
284.13	10232.02
284.506	10387.5
284.882	10547
285.258	10702.15
285.634	10858.04
286.01	11017.08
286.386	11176.68
286.762	11341.02
287.138	11498.31
287.513	11662.59
287.889	11826.09
288.265	11989.38
288.641	12152.86
289.016	12310.77
289.392	12473.78
289.767	12633.56
290.143	12794.97
290.518	12960.21
290.894	13123.93
291.269	13283.11
291.644	13447.39
292.02	13599.85
292.395	13753.29
292.77	13905.44
293.145	14059.13
293.52	14214.19
293.895	14364.2
294.27	14514.96
294.646	14667.34
295.02	14816.44
295.395	14963.39
295.77	15117.3
296.145	15271.38
296.52	15423.09
296.895	15579.75
297.269	15735.06
297.644	15890.56
298.019	16044.27
298.393	16191.39
298.768	16339.38
299.143	16488.51
299.517	16636.36
299.891	16790.2
300.266	16944.87
300.64	17100.47
301.015	17266.38
301.389	17439.96
301.763	17614.45
302.137	17787.34
302.512	17966.27
302.886	18142.7
303.26	18325.53
303.634	18505.09
304.008	18676.48
304.382	18858.5
304.756	19037.48
305.13	19218.36
305.504	19395.31
305.877	19583.1
306.251	19787.41
306.625	19993.1
306.999	20203.92
307.372	20422.94
307.746	20647.2
308.119	20861.93
308.493	21078.28
308.866	21286.67
309.24	21496.81
309.613	21703.28
309.987	21911.1
310.36	22104.64
310.733	22314.07
311.107	22531.24
311.48	22744.64
311.853	22976.15
312.226	23201.19
312.599	23433.3
312.972	23653.82
313.345	23888.52
313.718	24120.23
314.091	24335.27
314.464	24560.86
314.837	24787.91
315.21	24995.42
315.582	25206.64
315.955	25415.86
316.328	25634.35
316.7	25851.87
317.073	26068.71
317.446	26288.96
317.818	26516.9
318.191	26748.37
318.563	26973.02
318.936	27180.41
319.308	27386.02
319.68	27588.5
320.053	27785.78
320.425	27971.08
320.797	28159.44
321.169	28316.14
321.541	28457.35
321.913	28594.42
322.285	28711.18
322.657	28833.1
323.029	28981.07
323.401	29126.5
323.773	29298.74
324.145	29464.76
324.517	29650.15
324.889	29827.37
325.26	30027.68
325.632	30239.79
326.004	30475.82
326.375	30732.36
326.747	31006.43
327.118	31314.8
327.49	31603.39
327.861	31908.16
328.233	32215.69
328.604	32521.73
328.975	32841.52
329.346	33160
329.718	33467.73
330.089	33776.51
330.46	34072.97
330.831	34342.91
331.202	34601.38
331.573	34841.83
331.944	35074.72
332.315	35301.32
332.686	35522.44
333.057	35727.53
333.428	35909.33
333.799	36078.19
334.169	36227.62
334.54	36367.59
334.911	36480.75
335.281	36614.14
335.652	36739.33
336.022	36870.12
336.393	37016.31
336.763	37182.45
337.134	37364.4
337.504	37566.36
337.874	37772.23
338.245	37979.98
338.615	38201.12
338.985	38428.51
339.355	38654.36
339.726	38878.25
340.096	39101
340.466	39348.84
340.836	39585.27
341.206	39834.04
341.576	40080.59
341.945	40325.51
342.315	40562.77
342.685	40805.85
343.055	41047.85
343.425	41287.04
343.794	41517.1
344.164	41749.9
344.533	41981.11
344.903	42212.28
345.273	42443.37
345.642	42668.18
346.011	42893.1
346.381	43129.98
346.75	43357.66
347.12	43598.18
347.489	43845.9
347.858	44094.09
348.227	44308.7
348.596	44541.52
348.965	44778.22
349.334	45002.71
349.704	45236
350.072	45483.02
350.441	45706.61
350.81	45940.55
351.179	46174.56
351.548	46413.93
351.917	46634.83
352.285	46830.8
352.654	47034.52
353.023	47241.56
353.391	47434.9
353.76	47641.47
354.129	47823.11
354.497	48056.55
354.865	48273.47
355.234	48504.16
355.602	48721.31
355.971	48965.4
356.339	49167.89
356.707	49381.52
357.075	49605.57
357.443	49829.32
357.811	50035.63
358.18	50255.32
358.548	50471.24
358.916	50678.62
359.284	50896.31
359.651	51110.38
360.019	51328.25
360.387	51530.11
360.755	51730.07
361.123	51965.25
361.49	52194.79
361.858	52413.61
362.226	52609.4
362.593	52809.59
362.961	52982.96
363.328	53181.62
363.696	53347.39
364.063	53568.94
364.43	53772.04
364.798	53981.15
365.165	54165.07
365.532	54349.8
365.899	54537.53
366.267	54699.33
366.634	54843.73
367.001	55009.18
367.368	55150.46
367.735	55332.98
368.102	55509.65
368.469	55700.87
368.835	55872.12
369.202	56034.84
369.569	56222.33
369.936	56408.01
370.303	56592.06
370.669	56799.71
371.036	56960.49
371.402	57160.14
371.769	57338.89
372.135	57490.14
372.502	57616.67
372.868	57759.88
373.235	57902.92
373.601	58037.51
373.967	58211.07
374.333	58407.42
374.7	58591.2
375.066	58792.33
375.432	58978.55
375.798	59158.38
376.164	59326.21
376.53	59471.12
376.896	59640.88
377.262	59819.21
377.628	59952.29
377.993	60106.4
378.359	60248.7
378.725	60402.13
379.091	60559.25
379.456	60689.37
379.822	60818.9
380.187	60961.79
380.553	61149.6
380.918	61348.71
381.284	61528
381.649	61699.93
382.015	61833.82
382.38	61953.83
382.745	62122.78
383.11	62269.74
383.476	62412.74
383.841	62544.51
384.206	62707.6
384.571	62820.44
384.936	62949.57
385.301	63117.32
385.666	63242.19
386.031	63396.96
386.396	63560.23
386.76	63708.16
387.125	63895.29
387.49	64095.59
387.855	64289.24
388.219	64443.44
388.584	64608.06
388.948	64794.18
389.313	64959.5
389.677	65162.41
390.042	65386.31
390.406	65543.77
390.771	65734.85
391.135	65918.2
391.499	66142.58
391.863	66380.59
392.227	66629.53
392.592	66826.06
392.956	67020.57
393.32	67221.97
393.684	67437.07
394.048	67613.2
394.412	67785.94
394.775	67940.74
395.139	68093.17
395.503	68248.82
395.867	68405.85
396.231	68551.96
396.594	68661.4
396.958	68794.82
397.321	68950.52
397.685	69078.44
398.048	69214.83
398.412	69342.48
398.775	69473.95
399.139	69597.03
399.502	69702.98
399.865	69839.43
400.228	70032.26
400.592	70163.46
400.955	70362.52
401.318	70493.38
401.681	70654.12
402.044	70796.15
402.407	70953.65
402.77	71106.63
403.133	71301.35
403.496	71449.34
403.859	71604.75
404.221	71844.63
404.584	72082.71
404.947	72331.35
405.309	72539.18
405.672	72771.46
406.034	72995.38
406.397	73249.48
406.759	73480.12
407.122	73663.95
407.484	73838.42
407.847	74022.68
408.209	74274.28
408.571	74505.77
408.933	74770.96
409.296	75023.15
409.658	75265.91
410.02	75535.96
410.382	75846.17
410.744	76108.73
411.106	76397.44
411.468	76672.88
411.83	76907.06
412.191	77110.54
412.553	77283.91
412.915	77500.27
413.277	77710.22
413.638	77908.18
414	78075.74
414.361	78246.34
414.723	78467.91
415.084	78681.28
415.446	78849.1
415.807	78985.87
416.169	79087.07
416.53	79170.86
416.891	79275.51
417.252	79399.38
417.614	79474.71
417.975	79516.33
418.336	79560.67
418.697	79611.11
419.058	79653.75
419.419	79685.37
419.78	79720.09
420.141	79746.06
420.501	79767.39
420.862	79787.93
421.223	79805.85
421.584	79841
421.944	79861.54
422.305	79875.18
422.666	79881.92
423.026	79887.68
423.387	79899.61
423.747	79908.09
424.107	79918.56
424.468	79927.01
424.828	79933.8
425.188	79936.68
425.549	79943.51
425.909	79948.34
426.269	79945.54
426.629	79948.83
426.989	79952.63
427.349	79957.06
427.709	79961.86
428.069	79964.82
428.429	79968.36
428.789	79973.75
429.149	79978.04
429.508	79980.7
429.868	79983.1
430.228	79989.57
430.587	79993.89
430.947	79999.51
431.306	80006.01
431.666	80010.04
432.025	80013.81
432.385	80015.11
432.744	80017.99
433.103	80020.65
433.463	80024.57
433.822	80032.58
434.181	80036.72
434.54	80040.5
434.899	80041.68
435.258	80043.01
435.618	80044.67
435.976	80049.74
436.335	80051.37
436.694	80051.44
437.053	80052.03
437.412	80052.03
437.771	80053.47
438.129	80054.77
438.488	80054.81
438.847	80055.21
439.205	80054.66
439.564	80055.03
439.922	80055.69
440.281	80056.91
440.639	80058.13
440.997	80056.8
441.356	80057.65
441.714	80059.02
442.072	80057.1
442.431	80058.58
442.789	80060.32
443.147	80060.91
443.505	80059.61
443.863	80059.73
444.221	80060.1
444.579	80062.13
444.937	80063.79
445.294	80064.39
445.652	80064.87
446.01	80065.05
446.368	80065.46
446.725	80065.98
447.083	80065.24
447.441	80066.01
447.798	80067.46
448.156	80066.87
448.513	80066.68
448.87	80068.24
449.228	80067.05
449.585	80068.6
449.942	80069.71
450.3	80070.05
450.657	80070.57
451.014	80070.57
451.371	80070.82
451.728	80070.53
452.085	80070.01
452.442	80070.16
452.799	80070.68
453.156	80071.49
453.513	80071.64
453.869	80071.19
454.226	80071.08
454.583	80073.12
454.939	80073.23
455.296	80071.9
455.653	80072.6
456.009	80074.3
456.366	80071.93
456.722	80072.27
457.078	80074.04
457.435	80074.01
457.791	80074.08
458.147	80074.41
458.503	80075.97
458.86	80075.45
459.216	80076.11
459.572	80076.19
459.928	80075.97
460.284	80074.52
460.64	80073.78
460.996	80074.23
461.351	80072.9
461.707	80072.23
462.063	80071.16
462.419	80070.97
462.774	80071.97
463.13	80072.16
463.486	80073.56
463.841	80075.45
464.197	80076.26
464.552	80076.34
464.908	80076.04
465.263	80077.11
465.618	80077.89
465.974	80078.08
466.329	80079.59
466.684	80081
467.039	80081.93
467.394	80082.67
467.749	80084.22
468.104	80084.41
468.459	80084.7
468.814	80086.7
469.169	80088.36
469.524	80089.55
469.879	80089.96
470.233	80091.18
470.588	80092.55
470.943	80092.25
471.297	80093.1
471.652	80093.62
472.006	80092.92
472.361	80094.99
472.715	80094.88
473.07	80095.43
473.424	80095.91
473.778	80096.17
474.133	80096.91
474.487	80096.43
474.841	80098.88
475.195	80099.14
475.549	80101.06
475.903	80102.62
476.257	80103.5
476.611	80104.24
476.965	80104.98
477.319	80106.61
477.673	80104.72
478.026	80104.21
478.38	80104.47
478.734	80103.98
479.087	80104.35
479.441	80105.5
479.795	80105.02
480.148	80105.06
480.502	80105.69
480.855	80106.35
481.208	80106.76
481.562	80106.91
481.915	80108.06
482.268	80106.43
482.621	80106.32
482.974	80106.65
483.328	80106.24
483.681	80106.46
484.034	80106.5
484.387	80106.13
484.739	80105.91
485.092	80108.2
485.445	80109.2
485.798	80109.5
486.151	80110.5
486.503	80112.2
486.856	80112.72
487.209	80111.39
487.561	80110.94
487.914	80111.94
488.266	80111.57
488.618	80111.24
488.971	80110.28
489.323	80109.8
489.675	80110.43
490.028	80109.35
490.38	80108.21
490.732	80108.87
491.084	80108.98
491.436	80109.69
491.788	80110.43
492.14	80108.91
492.492	80108.09
492.844	80109.09
493.196	80107.95
493.548	80107.72
493.899	80106.35
494.251	80104.61
494.603	80106.32
494.954	80106.28
495.306	80105.84
495.657	80106.91
496.009	80107.8
496.36	80108.35
496.712	80108.39
497.063	80107.76
497.414	80110.06
497.765	80110.61
498.117	80110.76
498.468	80111.24
498.819	80111.61
499.17	80112.5
499.521	80115.31
499.872	80114.2
500.223	80113.8
500.574	80116.06
500.924	80116.72
501.275	80118.43
501.626	80119.31
501.977	80118.28
502.327	80119.39
502.678	80119.54
503.029	80120.46
503.379	80119.76
503.73	80120.31
504.08	80119.83
504.43	80119.17
504.781	80118.83
505.131	80120.13
505.481	80119.24
505.831	80117.65
506.182	80115.61
506.532	80114.24
506.882	80110.98
507.232	80110.95
507.582	80110.06
507.932	80110.02
508.281	80110.65
508.631	80108.8
508.981	80109.5
509.331	80110.8
509.681	80111.69
510.03	80112.06
510.38	80109.91
510.729	80111.06
511.079	80110.06
511.428	80110.17
511.778	80110.91
512.127	80110.28
512.476	80109.39
512.826	80109.61
513.175	80111.91
513.524	80112.43
513.873	80113.69
514.222	80115.28
514.571	80116.72
514.92	80117.91
515.269	80117.2
515.618	80116.05
515.967	80116.94
516.316	80117.61
516.665	80116.94
517.014	80115.83
517.362	80115.09
517.711	80115.13
518.059	80112.8
518.408	80112.02
518.757	80111.76
519.105	80112.32
519.453	80112.72
519.802	80112.57
520.15	80114.54
520.498	80114.83
520.847	80116.13
521.195	80115.46
521.543	80117.31
521.891	80117.13
522.239	80118.13
522.587	80118.57
522.935	80119.39
523.283	80117.76
523.631	80117.24
523.979	80117.13
524.326	80116.65
524.674	80116.35
525.022	80116.65
525.369	80117.43
525.717	80119.68
526.064	80121.65
526.412	80122.24
526.759	80123.13
527.107	80122.61
527.454	80121.83
527.801	80120.79
528.149	80121.05
528.496	80119.91
528.843	80117.57
529.19	80118.98
529.537	80118.24
529.884	80118.65
530.231	80118.8
530.578	80121.35
530.925	80122.13
531.272	80123.02
531.619	80123.94
531.966	80124.28
532.312	80124.05
532.659	80123.87
533.006	80122.98
533.352	80121.98
533.699	80123.5
534.045	80123.54
534.392	80124.54
534.738	80123.98
535.084	80125.28
535.431	80124.98
535.777	80126.72
536.123	80128.2
536.469	80125.94
536.815	80123.91
537.161	80123.42
537.507	80122.54
537.853	80120.46
538.199	80119.61
538.545	80118.5
538.891	80118.35
539.237	80117.98
539.582	80118.72
539.928	80118.65
540.274	80118.65
540.619	80118.46
540.965	80116.94
541.31	80116.87
541.656	80116.09
542.001	80115.72
542.347	80113.94
542.692	80113.43
543.037	80112.72
543.382	80112.28
543.728	80114.09
544.073	80114.94
544.418	80115.09
544.763	80114.09
545.108	80114.42
545.453	80112.61
545.798	80112.02
546.142	80111.5
546.487	80112.98
546.832	80111.91
547.177	80112.35
547.521	80111.61
547.866	80113.02
548.211	80111.8
548.555	80110.8
548.9	80111.02
549.244	80109.61
549.588	80108.47
549.933	80107.73
550.277	80108.65
550.621	80108.84
550.965	80106.91
551.31	80106.28
551.654	80105.76
551.998	80106.28
552.342	80106.06
552.686	80108.72
553.03	80109.65
553.373	80110.65
553.717	80108.91
554.061	80109.32
554.405	80111.13
554.748	80112.39
555.092	80111.65
555.436	80111.83
555.779	80112.76
556.123	80113.69
556.466	80114.5
556.81	80115.8
557.153	80115.94
557.496	80115.13
557.839	80115.68
558.183	80116.72
558.526	80116.5
558.869	80115.68
559.212	80116.46
559.555	80117.65
559.898	80118.13
560.241	80119.54
560.584	80119.5
560.927	80119.31
561.269	80118.68
561.612	80117.57
561.955	80116.91
562.297	80114.94
562.64	80115.13
562.983	80114.46
563.325	80112.65
563.668	80113.43
564.01	80112.43
564.352	80113.61
564.695	80112.61
565.037	80110.98
565.379	80111.28
565.721	80112.02
566.063	80112.17
566.406	80110.8
566.748	80110.54
567.09	80108.32
567.431	80106.65
567.773	80104.84
568.115	80104.72
568.457	80105.69
568.799	80105.06
569.14	80104.65
569.482	80104.24
569.824	80105.13
570.165	80104.21
570.507	80104.58
570.848	80104.13
571.19	80105.84
571.531	80105.8
571.872	80107.24
572.214	80108.95
572.555	80107.58
572.896	80106.32
573.237	80106.06
573.578	80106.8
573.919	80105.58
574.26	80105.32
574.601	80104.36
574.942	80104.21
575.283	80103.02
575.624	80100.77
575.964	80099.77
576.305	80098.66
576.646	80099.32
576.986	80098.4
577.327	80098.58
577.667	80097.77
578.008	80098.69
578.348	80098.17
578.689	80096.43
579.029	80094.55
579.369	80093.77
579.71	80094.36
580.05	80095.62
580.39	80094.84
580.73	80094.58
581.07	80095.06
581.41	80095.03
581.75	80094.29
582.09	80094.14
582.43	80094.47
582.769	80095.77
583.109	80096.69
583.449	80097.03
583.789	80097.84
584.128	80097.88
584.468	80096.4
584.807	80096.95
585.147	80094.58
585.486	80091.55
585.825	80092.7
586.165	80094.44
586.504	80093.84
586.843	80093.21
587.182	80092.14
587.522	80092.62
587.861	80093.58
588.2	80093.1
588.539	80093.29
588.878	80094.77
589.216	80094.95
589.555	80095.43
589.894	80094.84
590.233	80095.03
590.572	80094.92
590.91	80094.47
591.249	80094.66
591.587	80096.66
591.926	80097.06
592.264	80098.28
592.603	80099.65
592.941	80097.95
593.279	80097.28
593.618	80097.47
593.956	80098.28
594.294	80098.73
594.632	80097.25
594.97	80095.8
595.308	80095.54
595.646	80095.03
595.984	80096.14
596.322	80096.43
596.66	80097.47
596.998	80098.14
597.335	80096.8
597.673	80096.73
598.011	80095.32
598.348	80094.81
598.686	80094.81
599.023	80095.36
599.361	80095.25
599.698	80095.99
600.035	80096.84
600.373	80095.92
600.71	80095.36
601.047	80094.18
601.384	80093.88
601.722	80096.32
602.059	80097.62
602.396	80099.36
602.733	80099.77
603.069	80097.77
603.406	80098.99
603.743	80097.84
604.08	80098.58
604.417	80099.1
604.753	80099.02
605.09	80099.91
605.426	80099.62
605.763	80098.8
606.099	80097.4
606.436	80095.88
606.772	80095.25
607.109	80094.66
607.445	80093.84
607.781	80094.51
608.117	80093.58
608.453	80093.18
608.79	80091.51
609.126	80089.77
609.462	80087.66
609.798	80088.29
610.133	80088.55
610.469	80088.22
610.805	80089.7
611.141	80088.07
611.477	80086
611.812	80086.26
612.148	80086
612.483	80086.37
612.819	80085.85
613.154	80084.52
613.49	80085.92
613.825	80085.37
614.16	80086.81
614.496	80087.11
614.831	80087
615.166	80087.48
615.501	80085.59
615.836	80084.89
616.171	80084.7
616.506	80083.52
616.841	80082.93
617.176	80082.85
617.511	80081
617.846	80080.56
618.18	80081.41
618.515	80083.67
618.85	80083.63
619.184	80082.11
619.519	80081.26
619.853	80081.78
620.188	80081.67
620.522	80080.82
620.856	80081.93
621.191	80080.78
621.525	80080.59
621.859	80080
622.193	80080.52
622.527	80081.85
622.861	80083.37
623.195	80084.63
623.529	80086.11
623.863	80084.81
624.197	80085.07
624.531	80085.77
624.865	80083.7
625.198	80082.29
625.532	80081.44
625.866	80081.26
626.199	80082.7
626.533	80082.7
626.866	80081.81
627.2	80081.7
627.533	80081.85
627.866	80080.81
628.2	80080.96
628.533	80081.11
628.866	80080.22
629.199	80079.48
629.532	80080.11
629.865	80079.04
630.198	80078.04
630.531	80077.45
630.864	80076.71
631.197	80074.26
631.529	80073.56
631.862	80073.89
632.195	80073.34
632.527	80072.41
632.86	80071.67
633.193	80072.16
633.525	80071.9
633.857	80072.08
634.19	80072.64
634.522	80070.71
634.854	80070.34
635.187	80070.79
635.519	80070.9
635.851	80070.9
636.183	80071.71
636.515	80072.23
636.847	80072.86
637.179	80072.38
637.511	80072.86
637.843	80072.38
638.174	80074.41
638.506	80073.64
638.838	80072.56
639.17	80072.38
639.501	80073.16
639.833	80072.56
640.164	80071.19
640.496	80070.68
640.827	80070.08
641.158	80070.2
641.49	80071.16
641.821	80071.05
642.152	80069.75
642.483	80068.75
642.814	80068.57
643.145	80067.09
643.476	80064.72
643.807	80062.54
644.138	80061.98
644.469	80062.02
644.8	80063.09
645.131	80061.46
645.461	80061.98
645.792	80063.02
646.122	80063.53
646.453	80063.16
646.784	80063.16
647.114	80064.09
647.444	80064.68
647.775	80063.31
648.105	80064.05
648.435	80065.09
648.765	80065.39
649.096	80064.98
649.426	80064.98
649.756	80065.16
650.086	80065.83
650.416	80066.46
650.746	80068.94
651.075	80068.86
651.405	80066.98
651.735	80064.87
652.065	80066.64
652.394	80066.02
652.724	80064.35
653.054	80065.42
653.383	80064.91
653.712	80065.42
654.042	80064.02
654.371	80063.91
654.701	80066.27
655.03	80064.02
655.359	80063.17
655.688	80063.02
656.017	80064.68
656.346	80063.09
656.675	80062.35
657.004	80062.17
657.333	80061.98
657.662	80059.58
657.991	80058.99
658.32	80059.36
658.648	80062.17
658.977	80063.43
659.306	80063.06
659.634	80065.35
659.963	80064.39
660.291	80063.46
660.619	80062.46
660.948	80062.58
661.276	80061.28
661.604	80058.36
661.933	80058.43
662.261	80057.36
662.589	80057.14
662.917	80055.21
663.245	80054.62
663.573	80053.44
663.901	80053.44
664.229	80053.14
664.556	80053.14
664.884	80053.18
665.212	80053.66
665.539	80053.25
665.867	80050.26
666.195	80049.22
666.522	80048.33
666.85	80048.04
667.177	80048.7
667.504	80048.52
667.832	80048.26
668.159	80047.7
668.486	80048
668.813	80048.81
669.14	80049.07
669.467	80048.11
669.794	80048
670.121	80050.44
670.448	80050.63
670.775	80050.18
671.102	80049.44
671.429	80049.74
671.755	80049.07
672.082	80048.3
672.409	80046.93
672.735	80046.37
673.062	80048.96
673.388	80047.59
673.714	80046.89
674.041	80045.82
674.367	80045
674.693	80044.38
675.019	80044.63
675.346	80044.23
675.672	80042.19
675.998	80040.38
676.324	80039.2
676.65	80039.57
676.976	80038.2
677.301	80038.53
677.627	80038.5
677.953	80038.01
678.279	80038.75
678.604	80037.76
678.93	80038.87
679.255	80038.83
679.581	80038.94
679.906	80036.61
680.232	80037.76
680.557	80038.13
680.882	80037.09
681.208	80038.76
681.533	80038.79
681.858	80038.72
682.183	80039.53
682.508	80040.09
682.833	80039.49
683.158	80040.53
683.483	80040.12
683.808	80040.53
684.132	80038.46
684.457	80037.31
684.782	80037.05
685.106	80035.35
685.431	80036.43
685.755	80033.84
686.08	80031.73
686.404	80030.14
686.729	80029.99
687.053	80028.03
687.377	80026.04
687.701	80026.15
688.026	80024.63
688.35	80023.67
688.674	80022.01
688.998	80020.08
689.322	80019.9
689.646	80019.16
689.97	80017.53
690.293	80015.17
690.617	80013.47
690.941	80013.28
691.264	80011.65
691.588	80009.66
691.912	80007.66
692.235	80005.22
692.559	80003.52
692.882	80003.71
693.205	80003.6
693.529	80002.56
693.852	79999.75
694.175	79997.09
694.498	79994.99
694.821	79991.11
695.144	79988.45
695.467	79984.53
695.79	79981.06
696.113	79975.78
696.436	79971.31
696.759	79964.71
697.082	79958.43
697.404	79952.26
697.727	79943.41
698.049	79934.89
698.372	79923.38
698.694	79907.4
699.017	79891.22
699.339	79873.4
699.662	79851.98
699.984	79815.45
700.306	79771.64
700.628	79707.54
700.95	79617.61
701.272	79509.02
701.594	79386.37
701.916	79265.93
702.238	79129.6
702.56	78939.85
702.882	78756.93
703.204	78596.22
703.525	78406.29
703.847	78170.04
704.169	77956.45
704.49	77724.24
704.812	77481.37
705.133	77235.96
705.455	76988.52
705.776	76717.51
706.097	76458.75
706.419	76192.41
706.74	75923.26
707.061	75634.68
707.382	75335.65
707.703	75047.27
708.024	74780.54
708.345	74503.48
708.666	74206.99
708.987	73900.45
709.307	73657.43
709.628	73363.62
709.949	73034.81
710.27	72727.61
710.59	72473.43
710.911	72171.91
711.231	71870.07
711.552	71595.7
711.872	71277.57
712.192	70999.86
712.512	70742.41
712.833	70473.52
713.153	70200.97
713.473	69963.11
713.793	69729.55
714.113	69516.14
714.433	69306.04
714.753	69096.57
715.073	68902.8
715.393	68700.53
715.712	68530.72
716.032	68314.57
716.352	68140.93
716.671	67987.03
716.991	67813.99
717.31	67621.08
717.63	67464.32
717.949	67291.68
718.268	67087.34
718.588	66911.32
718.907	66684.48
719.226	66430.42
719.545	66176.56
719.864	65898.85
720.183	65624.93
720.502	65356.65
720.821	65078.79
721.14	64797.77
721.459	64488.88
721.778	64214.7
722.096	63899.54
722.415	63605.96
722.734	63341.86
723.052	63062.29
723.371	62772
723.689	62499.92
724.008	62218.32
724.326	61917.93
724.644	61649.27
724.963	61377.14
725.281	61143.47
725.599	60918.87
725.917	60728.31
726.235	60532.13
726.553	60381.34
726.871	60181.3
727.189	59975.3
727.507	59778.92
727.824	59621.91
728.142	59490.77
728.46	59287.85
728.777	59186.17
729.095	59053.01
729.413	58905.88
729.73	58761.79
730.047	58626.72
730.365	58513.95
730.682	58407.81
730.999	58325.69
731.317	58254.56
731.634	58172.62
731.951	58061.86
732.268	57940.85
732.585	57794.54
732.902	57645.76
733.219	57475.76
733.536	57311.48
733.852	57183.28
734.169	57055.86
734.486	56905.16
734.802	56743.83
735.119	56634.04
735.435	56455.38
735.752	56295.17
736.068	56117.71
736.385	55953.64
736.701	55767.97
737.017	55532.13
737.333	55282.44
737.65	54974.52
737.966	54591.54
738.282	54202.57
738.598	53793.09
738.914	53339.66
739.23	52857.84
739.545	52335.83
739.861	51796.77
740.177	51246.72
740.493	50661.31
740.808	50087.21
741.124	49483.68
741.439	48902.39
741.755	48328.53
742.07	47808.49
742.386	47252.21
742.701	46753.69
743.016	46256.25
743.331	45784.87
743.647	45356.42
743.962	44969.96
744.277	44624.33
744.592	44352.49
744.907	44132.19
745.222	43965.03
745.537	43869.44
745.851	43832.84
746.166	43848.82
746.481	43902.55
746.795	44018.36
747.11	44177.62
747.424	44346.24
747.739	44512.69
748.053	44690.69
748.368	44838.92
748.682	44952.21
748.996	45083.04
749.311	45183.57
749.625	45279.96
749.939	45373.74
750.253	45438.88
750.567	45505.24
750.881	45569.95
751.195	45632.54
751.509	45700.23
751.822	45747.41
752.136	45789.03
752.45	45844.35
752.763	45911.65
753.077	45969.92
753.39	45997.77
753.704	46007.39
754.017	46026.83
754.331	46065.19
754.644	46071.58
754.957	46087.77
755.27	46096.47
755.584	46108.55
755.897	46115.38
756.21	46110.53
756.523	46087.09
756.836	46068.19
757.149	45991.3
757.461	45919.84
757.774	45836.81
758.087	45715.85
758.4	45577.11
758.712	45431.93
759.025	45271.58
759.337	45117.27
759.65	44951.25
759.962	44803.63
760.275	44646.89
760.587	44500.26
760.899	44358.65
761.211	44263.36
761.523	44191.31
761.836	44188.74
762.148	44195.08
762.46	44232.34
762.772	44301.41
763.083	44437.92
763.395	44582.68
763.707	44799.71
764.019	45027.26
764.33	45264.54
764.642	45521.08
764.954	45786.54
765.265	46063.46
765.577	46329.9
765.888	46574.6
766.199	46825.58
766.511	47035.46
766.822	47262.39
767.133	47447.65
767.444	47616.61
767.755	47716.77
768.066	47775.35
768.377	47766.39
768.688	47700.17
768.999	47615.36
769.31	47489.29
769.621	47298.44
769.931	47083.03
770.242	46830.53
770.553	46533.66
770.863	46190.72
771.174	45841.67
771.484	45466.47
771.794	45066.98
772.105	44661.98
772.415	44233.7
772.725	43783.05
773.035	43346.8
773.345	42887.49
773.656	42419.03
773.966	41948.59
774.276	41506.82
774.585	41075.65
774.895	40648.9
775.205	40270.63
775.515	39870.09
775.824	39475.83
776.134	39084.64
776.444	38716.81
776.753	38349.1
777.063	38006.82
777.372	37688.99
777.681	37362.2
777.991	37058.86
778.3	36756.19
778.609	36455.44
778.918	36169.51
779.228	35906.02
779.537	35649.74
779.846	35391.63
780.154	35145.22
780.463	34911.69
780.772	34664.9
781.081	34438.44
781.39	34235.46
781.698	34018.09
782.007	33808.22
782.316	33605.38
782.624	33406
782.932	33210.01
783.241	33026.54
783.549	32833.03
783.858	32658.51
784.166	32490.51
784.474	32313.52
784.782	32148.23
785.09	31987.63
785.398	31843.3
785.706	31702.4
786.014	31561.03
786.322	31420.8
786.63	31286.11
786.937	31155.85
787.245	31036.93
787.553	30906.26
787.86	30789.53
788.168	30667.28
788.475	30566.32
788.783	30472.19
789.09	30367.03
789.398	30262.12
789.705	30157.12
790.012	30054.27
790.319	29956.18
790.626	29850.69
790.933	29762.63
791.24	29676.28
791.547	29586.78
791.854	29496.52
792.161	29394.88
792.468	29293.82
792.774	29196.04
793.081	29111.71
793.388	29030.62
793.694	28933.25
794.001	28849.9
794.307	28728.54
794.614	28622.61
794.92	28499.28
795.226	28375.47
795.533	28270.65
795.839	28178.39
796.145	28068.02
796.451	27960.54
796.757	27853.11
797.063	27747.46
797.369	27636.22
797.675	27527.6
797.98	27430.58
798.286	27309.34
798.592	27210.44
798.898	27098.6
799.203	26989.47
799.509	26869.56
799.814	26745.11
800.12	26650.17
800.425	26537.3
800.73	26430.06
801.035	26322.88
801.341	26218.83
801.646	26114.34
801.951	26013.85
802.256	25908.1
802.561	25803.46
802.866	25713.41
803.171	25620.5
803.476	25529.38
803.78	25430.65
804.085	25334.72
804.39	25221.37
804.694	25121.29
804.999	25021.5
805.303	24928
805.608	24840.93
805.912	24755.91
806.216	24686.02
806.521	24605.58
806.825	24525.22
807.129	24454.99
807.433	24379.91
807.737	24307.77
808.041	24251.96
808.345	24195.08
808.649	24139.71
808.953	24096.66
809.257	24038.25
809.561	23983
809.864	23934.36
810.168	23907.37
810.471	23872.42
810.775	23847.91
811.078	23831.23
811.382	23807.04
811.685	23805.21
811.988	23799.02
812.292	23795.13
812.595	23790.91
812.898	23790.6
813.201	23804.63
813.504	23826.67
813.807	23859.37
814.11	23890.93
814.413	23919.41
814.716	23942.26
815.018	23983.06
815.321	24035.73
815.624	24116.86
815.926	24216.84
816.229	24337.56
816.531	24478.9
816.834	24644.26
817.136	24836.42
817.438	25047.07
817.74	25313.86
818.043	25620.6
818.345	25989.8
818.647	26440.62
818.949	26987.57
819.251	27621.62
819.553	28366.78
819.855	29228.97
820.156	30190.67
820.458	31271.27
820.76	32421.92
821.062	33634.86
821.363	34902.51
821.665	36236.82
821.966	37667.6
822.268	39115.01
822.569	40567.46
822.87	42044.7
823.171	43527.91
823.473	45050.81
823.774	46626.4
824.075	48142.76
824.376	49635.79
824.677	51109.24
824.978	52489.82
825.279	53784.46
825.58	54956.65
825.88	55991.32
826.181	56869.47
826.482	57652.88
826.782	58275.32
827.083	58789.31
827.383	59172.13
827.684	59389.98
827.984	59478.45
828.284	59387.53
828.585	59162.29
828.885	58852.73
829.185	58394.11
829.485	57844.22
829.785	57172.46
830.085	56341.76
830.385	55478
830.685	54551.87
830.985	53509.18
831.285	52434.34
831.584	51302.23
831.884	50152.78
832.183	48982.81
832.483	47785.21
832.782	46513.58
833.082	45236.74
833.381	43956.6
833.681	42722.57
833.98	41549.7
834.279	40412.59
834.578	39303.31
834.877	38269.95
835.176	37268.4
835.475	36338.02
835.774	35445.01
836.073	34581.86
836.372	33769.94
836.671	32959.68
836.969	32154.92
837.268	31412.6
837.567	30705.08
837.865	30025.76
838.164	29352.52
838.462	28704.23
838.761	28091.6
839.059	27509.27
839.357	26966.07
839.655	26439.68
839.953	25899.06
840.252	25383.13
840.55	24863.94
840.848	24362.19
841.146	23872.39
841.443	23374.03
841.741	22872.6
842.039	22373.24
842.337	21869.35
842.634	21406.13
842.932	20968.6
843.229	20546.88
843.527	20128.54
843.824	19687.81
844.122	19241.25
844.419	18819.7
844.716	18395.91
845.013	17984.47
845.311	17601.08
845.608	17226.53
845.905	16859.99
846.202	16511.27
846.499	16146.37
846.796	15780.77
847.092	15415.17
847.389	15050.98
847.686	14716.13
847.982	14405.2
848.279	14100.26
848.576	13820.8
848.872	13524.4
849.168	13237.63
849.465	12958.66
849.761	12669.21
850.057	12399.7
850.354	12140.26
850.65	11894.43
850.946	11662.97
851.242	11443.38
851.538	11227.23
851.834	11010.36
852.13	10799.98
852.425	10602.74
852.721	10424.34
853.017	10262.2
853.312	10112.43
853.608	9968.92
853.903	9830.11
854.199	9681.97
854.494	9549.27
854.79	9418.12
855.085	9289.27
855.38	9158.91
855.675	9029.39
855.971	8913.14
856.266	8813.39
856.561	8721.2
856.856	8629.63
857.151	8539.59
857.445	8443.33
857.74	8347.56
858.035	8254.65
858.33	8161.34
858.624	8073.95
858.919	7996.98
859.213	7911.34
859.508	7831.59
859.802	7743.79
860.096	7660.46
860.391	7596.06
860.685	7536.78
860.979	7478.95
861.273	7426.07
861.567	7367.79
861.861	7303.15
862.155	7248.22
862.449	7176.33
862.743	7110.27
863.037	7050.59
863.33	6998.63
863.624	6942.21
863.918	6898.04
864.211	6855.93
864.505	6823.69
864.798	6782.08
865.092	6731.56
865.385	6685.79
865.678	6633.32
865.971	6597.83
866.264	6567.87
866.558	6540.46
866.851	6508.18
867.144	6476.56
867.437	6446.02
867.729	6418.43
868.022	6398.01
868.315	6379.11
868.608	6369.91
868.9	6361.9
869.193	6340.13
869.485	6311.11
869.778	6290.28
870.07	6260.46
870.363	6241.63
870.655	6221.56
870.947	6216.65
871.239	6208.56
871.532	6208.66
871.824	6214.91
872.116	6213.22
872.408	6209.67
872.699	6193.97
872.991	6188.12
873.283	6182.01
873.575	6183.04
873.867	6192.11
874.158	6200.71
874.45	6198.96
874.741	6197.94
875.033	6194.87
875.324	6211.51
875.615	6232.67
875.907	6256.12
876.198	6273.36
876.489	6284.98
876.78	6292.19
877.071	6290.64
877.362	6295.42
877.653	6300.68
877.944	6310.03
878.235	6321.43
878.526	6327.28
878.816	6346.23
