Data from 24HourExp_27052025_FLMS018081_20-58-19-052.txt Node
Date: Tue May 27 20:58:19 BST 2025
User: adleo
Spectrometer: FLMS01808
Trigger mode: 0
Integration Time (sec): 4.000000E-1
Scans to average: 10
Electric dark correction enabled: true
Nonlinearity correction enabled: true
Boxcar width: 10
XAxis mode: Wavelengths
Number of Pixels in Spectrum: 2048
>>>>>Begin Spectral Data<<<<<
178.471	-126.93
178.857	-119.42
179.244	-113.31
179.631	-105.37
180.017	-97.57
180.404	-87.89
180.79	-76.54
181.176	-67.87
181.563	-59.11
181.949	-49.18
182.335	-39.24
182.722	-24.27
183.108	-5.44
183.494	21.73
183.88	75.27
184.266	130.74
184.653	187.4
185.039	242.82
185.425	299.55
185.811	353.58
186.197	406.76
186.582	458.56
186.968	510.67
187.354	562.48
187.74	613.97
188.126	665.42
188.511	714.54
188.897	761.78
189.283	808.54
189.668	855.94
190.054	900.15
190.439	946.47
190.825	990.61
191.21	1030.79
191.596	1063.59
191.981	1072.03
192.366	1074.08
192.752	1076.65
193.137	1080.22
193.522	1081.01
193.908	1082.89
194.293	1087
194.678	1089.5
195.063	1091.94
195.448	1094.14
195.833	1093.59
196.218	1093.3
196.603	1093.26
196.988	1092.97
197.373	1094.43
197.757	1093.76
198.142	1095
198.527	1092.8
198.912	1094
199.296	1094.62
199.681	1092.96
200.066	1090.99
200.45	1091.96
200.835	1093.01
201.219	1093.89
201.604	1091.97
201.988	1092.4
202.372	1092.58
202.757	1091.65
203.141	1091.7
203.525	1091.72
203.91	1091.72
204.294	1093.25
204.678	1092.98
205.062	1092.62
205.446	1093.4
205.83	1095.15
206.214	1094.19
206.598	1094.98
206.982	1095.19
207.366	1095.74
207.75	1097.51
208.134	1100.05
208.517	1101.3
208.901	1100.92
209.285	1100.21
209.669	1102.44
210.052	1102.1
210.436	1101.74
210.819	1103.86
211.203	1105.43
211.586	1107.5
211.97	1110.69
212.353	1109.56
212.737	1111.76
213.12	1114.3
213.503	1116.86
213.886	1117.29
214.27	1120.03
214.653	1123.46
215.036	1124.46
215.419	1126.47
215.802	1129.98
216.185	1129.91
216.568	1133.84
216.951	1135.97
217.334	1138.9
217.717	1142.91
218.1	1144.68
218.482	1147.46
218.865	1149.7
219.248	1153.12
219.631	1156.04
220.013	1160.19
220.396	1167.95
220.778	1173.61
221.161	1179.55
221.544	1184.18
221.926	1192.2
222.308	1200.54
222.691	1206.18
223.073	1215.14
223.455	1223.84
223.838	1232.5
224.22	1244.2
224.602	1254.03
224.984	1265.64
225.366	1278.36
225.749	1292.51
226.131	1306.99
226.513	1320.11
226.895	1336.24
227.276	1348.58
227.658	1364.79
228.04	1379.45
228.422	1394.76
228.804	1410.44
229.186	1426.7
229.567	1444.1
229.949	1459.59
230.331	1475.69
230.712	1495.85
231.094	1514.23
231.475	1534.1
231.857	1552.04
232.238	1570.01
232.62	1590.24
233.001	1611.21
233.382	1631.67
233.763	1650.04
234.145	1669.2
234.526	1690.36
234.907	1711.04
235.288	1732.05
235.669	1752.11
236.05	1774.59
236.431	1793.61
236.812	1814.65
237.193	1835.42
237.574	1857.99
237.955	1882.51
238.336	1904.95
238.717	1926.23
239.097	1951.5
239.478	1973.61
239.859	1998.19
240.239	2023.3
240.62	2045.43
241.001	2067.9
241.381	2092.71
241.762	2117.36
242.142	2142.81
242.522	2168.68
242.903	2194.2
243.283	2223.74
243.663	2250.98
244.044	2278.31
244.424	2307.2
244.804	2337.84
245.184	2369.16
245.564	2398.09
245.944	2428.65
246.324	2459.5
246.704	2490.03
247.084	2518.86
247.464	2550.46
247.844	2582.19
248.224	2613.41
248.604	2648.79
248.983	2681
249.363	2715.88
249.743	2748.12
250.122	2781.33
250.502	2813.37
250.882	2843.9
251.261	2875.85
251.641	2910.78
252.02	2945.15
252.399	2984.03
252.779	3022.14
253.158	3058.78
253.537	3099.2
253.917	3142.5
254.296	3183.33
254.675	3226.29
255.054	3270.66
255.433	3314.3
255.812	3355.7
256.191	3398.77
256.57	3440.36
256.949	3486.64
257.328	3529.67
257.707	3574.1
258.086	3623.34
258.465	3673.54
258.843	3728.46
259.222	3780.52
259.601	3836.33
259.979	3892.97
260.358	3947.6
260.736	4003.05
261.115	4063.06
261.493	4118.73
261.872	4173.09
262.25	4233.85
262.629	4294.76
263.007	4356.15
263.385	4417.57
263.763	4483.75
264.142	4548.42
264.52	4616.82
264.898	4684.94
265.276	4752.57
265.654	4827.62
266.032	4901
266.41	4974.48
266.788	5047.2
267.166	5126.01
267.544	5200.36
267.921	5279.29
268.299	5362.37
268.677	5442.37
269.055	5525.97
269.432	5612.4
269.81	5697.49
270.188	5784.9
270.565	5872.43
270.943	5963.64
271.32	6057.99
271.697	6153.97
272.075	6254.61
272.452	6352.11
272.829	6449.51
273.207	6551.86
273.584	6654.34
273.961	6760.15
274.338	6871.97
274.715	6989.35
275.092	7108.9
275.469	7230.42
275.846	7353.13
276.223	7476.71
276.6	7598.93
276.977	7723.32
277.354	7849.36
277.731	7978.76
278.108	8111.04
278.484	8240.9
278.861	8370.69
279.238	8512.62
279.614	8651.54
279.991	8791.8
280.367	8937.6
280.744	9089.68
281.12	9242.79
281.497	9393.33
281.873	9544.66
282.249	9694.1
282.625	9841.64
283.002	9987.87
283.378	10136.65
283.754	10286.97
284.13	10440.61
284.506	10605.09
284.882	10765.35
285.258	10926.02
285.634	11088.2
286.01	11250.13
286.386	11413.44
286.762	11583
287.138	11746.66
287.513	11911.68
287.889	12081.47
288.265	12244.78
288.641	12406.53
289.016	12570.18
289.392	12739.2
289.767	12905.03
290.143	13073.36
290.518	13240.82
290.894	13405.02
291.269	13566.38
291.644	13729.42
292.02	13883.47
292.395	14032.1
292.77	14188.36
293.145	14342.43
293.52	14495.79
293.895	14646.97
294.27	14804.25
294.646	14955.94
295.02	15102.82
295.395	15255.58
295.77	15410.13
296.145	15567.15
296.52	15722.23
296.895	15876.58
297.269	16028.59
297.644	16178.87
298.019	16332.85
298.393	16483.98
298.768	16641.24
299.143	16798.43
299.517	16949.8
299.891	17110.84
300.266	17279.45
300.64	17439.56
301.015	17602.69
301.389	17779.3
301.763	17960.65
302.137	18134.59
302.512	18320.47
302.886	18507.04
303.26	18691.95
303.634	18872.46
304.008	19052.4
304.382	19240.13
304.756	19426.3
305.13	19616.9
305.504	19803.13
305.877	19997.25
306.251	20202.21
306.625	20405.73
306.999	20619.67
307.372	20840.32
307.746	21058.79
308.119	21271.28
308.493	21487.25
308.866	21709.55
309.24	21923.95
309.613	22127.81
309.987	22339.07
310.36	22535.66
310.733	22735.73
311.107	22959.19
311.48	23172.86
311.853	23402.99
312.226	23626.14
312.599	23857.9
312.972	24083.6
313.345	24319.49
313.718	24548.27
314.091	24774.18
314.464	25006.35
314.837	25229.71
315.21	25443.13
315.582	25665.99
315.955	25881.64
316.328	26101.33
316.7	26314.69
317.073	26533.28
317.446	26759.99
317.818	26996.94
318.191	27230.89
318.563	27464.73
318.936	27674.33
319.308	27891.78
319.68	28097.36
320.053	28299.94
320.425	28488.2
320.797	28670.09
321.169	28839.25
321.541	28985.1
321.913	29122.2
322.285	29243.88
322.657	29368.69
323.029	29518.7
323.401	29661.05
323.773	29821.72
324.145	29997.81
324.517	30186.37
324.889	30365.05
325.26	30573.29
325.632	30786.19
326.004	31020.02
326.375	31280.43
326.747	31554.41
327.118	31858.42
327.49	32151.13
327.861	32468.17
328.233	32780.51
328.604	33100.82
328.975	33412.67
329.346	33729.77
329.718	34044.18
330.089	34351.64
330.46	34654.49
330.831	34926.09
331.202	35190.69
331.573	35449.71
331.944	35679.89
332.315	35914.27
332.686	36138.29
333.057	36339.65
333.428	36518.31
333.799	36692.83
334.169	36842.55
334.54	36987.91
334.911	37107.37
335.281	37238.39
335.652	37354.7
336.022	37491.6
336.393	37639.64
336.763	37813.92
337.134	38007.46
337.504	38209.02
337.874	38411.42
338.245	38615.44
338.615	38835.61
338.985	39063.78
339.355	39280.96
339.726	39512.75
340.096	39731.19
340.466	39983.94
340.836	40226.76
341.206	40483.58
341.576	40736.23
341.945	40992.24
342.315	41225.8
342.685	41468.67
343.055	41720.82
343.425	41967.03
343.794	42204.26
344.164	42434.92
344.533	42670
344.903	42896.39
345.273	43129.04
345.642	43360.28
346.011	43603.69
346.381	43839.42
346.75	44068.72
347.12	44320.12
347.489	44567.38
347.858	44820.29
348.227	45035.58
348.596	45264.88
348.965	45500.69
349.334	45733.49
349.704	45974.46
350.072	46226.31
350.441	46460.5
350.81	46699.77
351.179	46929.67
351.548	47164.7
351.917	47386.54
352.285	47582.01
352.654	47793.11
353.023	48000.4
353.391	48202.09
353.76	48407.17
354.129	48600.93
354.497	48839.02
354.865	49060.52
355.234	49290.52
355.602	49510.22
355.971	49753.12
356.339	49965.15
356.707	50177.85
357.075	50394.86
357.443	50606.36
357.811	50817.21
358.18	51034.1
358.548	51244.59
358.916	51456.99
359.284	51677.95
359.651	51897.29
360.019	52116.78
360.387	52315.43
360.755	52521.68
361.123	52749.81
361.49	52977.64
361.858	53188.65
362.226	53382.1
362.593	53581.9
362.961	53766.54
363.328	53968.33
363.696	54135.45
364.063	54356.95
364.43	54559.7
364.798	54774.02
365.165	54957.24
365.532	55148.57
365.899	55335.22
366.267	55500.57
366.634	55654.42
367.001	55812.42
367.368	55951.62
367.735	56134.82
368.102	56313.62
368.469	56501.91
368.835	56685.29
369.202	56842.23
369.569	57040.39
369.936	57233.77
370.303	57421.99
370.669	57625.71
371.036	57786.78
371.402	57996.43
371.769	58172.79
372.135	58333.34
372.502	58456.41
372.868	58602.15
373.235	58734.23
373.601	58872.67
373.967	59049.78
374.333	59240.16
374.7	59422.2
375.066	59631.57
375.432	59823.56
375.798	60010.28
376.164	60179.99
376.53	60326.44
376.896	60508.96
377.262	60686.65
377.628	60815.19
377.993	60964.41
378.359	61106.09
378.725	61268.53
379.091	61421.42
379.456	61557.62
379.822	61688.33
380.187	61841.13
380.553	62031.42
380.918	62237.71
381.284	62415.91
381.649	62587.93
382.015	62728.79
382.38	62857.48
382.745	63027.19
383.11	63178.28
383.476	63320.95
383.841	63453.56
384.206	63617.43
384.571	63738.15
384.936	63870.68
385.301	64050.49
385.666	64188.08
386.031	64339.53
386.396	64503.01
386.76	64662.72
387.125	64857.12
387.49	65056.95
387.855	65254.7
388.219	65433.48
388.584	65600.76
388.948	65798.81
389.313	65963.14
389.677	66168.52
390.042	66406.11
390.406	66566.04
390.771	66752.66
391.135	66944.64
391.499	67181.88
391.863	67417.49
392.227	67662.38
392.592	67862.15
392.956	68062.72
393.32	68260.15
393.684	68481.41
394.048	68655.86
394.412	68836.85
394.775	68980.68
395.139	69137.48
395.503	69299.22
395.867	69446.99
396.231	69601.42
396.594	69708.28
396.958	69852.33
397.321	70016.8
397.685	70140.87
398.048	70279.34
398.412	70420.95
398.775	70553.43
399.139	70678.6
399.502	70789.16
399.865	70930.91
400.228	71132.63
400.592	71266.4
400.955	71467.07
401.318	71610.07
401.681	71776.36
402.044	71915.74
402.407	72080.62
402.77	72249.99
403.133	72443.36
403.496	72596.61
403.859	72755.38
404.221	72990.47
404.584	73232.39
404.947	73474.01
405.309	73694.69
405.672	73942.02
406.034	74167.97
406.397	74429.4
406.759	74661.52
407.122	74855.97
407.484	75033.57
407.847	75216.2
408.209	75460.45
408.571	75684.88
408.933	75936.3
409.296	76193.57
409.658	76445.15
410.02	76709.37
410.382	76984.79
410.744	77219.05
411.106	77480.77
411.468	77729.04
411.83	77939.31
412.191	78108.19
412.553	78249.81
412.915	78416.79
413.277	78573.72
413.638	78721.31
414	78847.17
414.361	78972.55
414.723	79142.41
415.084	79301.04
415.446	79417.42
415.807	79508.19
416.169	79570.55
416.53	79614.31
416.891	79665.99
417.252	79727.11
417.614	79758.87
417.975	79773.44
418.336	79791.8
418.697	79809.53
419.058	79822.85
419.419	79833.28
419.78	79848.19
420.141	79857.14
420.501	79865.18
420.862	79872.04
421.223	79879.89
421.584	79895.46
421.944	79901.69
422.305	79905.64
422.666	79910
423.026	79912.51
423.387	79920.69
423.747	79924.9
424.107	79930.58
424.468	79936.26
424.828	79939.44
425.188	79942.8
425.549	79947.93
425.909	79950.41
426.269	79949.08
426.629	79954.54
426.989	79956.98
427.349	79957.57
427.709	79960.71
428.069	79963.11
428.429	79964.77
428.789	79970.05
429.149	79974.04
429.508	79977.4
429.868	79980.55
430.228	79983.13
430.587	79985.02
430.947	79985.27
431.306	79989.52
431.666	79993.36
432.025	79993.51
432.385	79995.73
432.744	79996.99
433.103	79997.02
433.463	79999.2
433.822	80004.85
434.181	80007.33
434.54	80009.81
434.899	80011.1
435.258	80012.8
435.618	80014.02
435.976	80017.9
436.335	80015.65
436.694	80015.5
437.053	80017.09
437.412	80016.13
437.771	80017.31
438.129	80019.16
438.488	80021.74
438.847	80021.08
439.205	80020.6
439.564	80021.89
439.922	80021.56
440.281	80022.78
440.639	80023.89
440.997	80023.11
441.356	80024.04
441.714	80022.52
442.072	80021.93
442.431	80023.48
442.789	80025.33
443.147	80025.88
443.505	80026.18
443.863	80028.77
444.221	80029.32
444.579	80030.25
444.937	80031.5
445.294	80031.25
445.652	80029.77
446.01	80028.55
446.368	80029.58
446.725	80029.43
447.083	80030.58
447.441	80031.5
447.798	80031.99
448.156	80031.32
448.513	80033.65
448.87	80033.28
449.228	80033.58
449.585	80034.13
449.942	80034.76
450.3	80032.72
450.657	80032.17
451.014	80032.13
451.371	80029.55
451.728	80029.1
452.085	80027.92
452.442	80029.36
452.799	80028.84
453.156	80028.1
453.513	80028.88
453.869	80030.4
454.226	80030.21
454.583	80029.92
454.939	80029.55
455.296	80030.17
455.653	80032.58
456.009	80031.65
456.366	80032.02
456.722	80031.84
457.078	80031.62
457.435	80031.54
457.791	80032.47
458.147	80033.46
458.503	80033.32
458.86	80034.87
459.216	80035.28
459.572	80034.72
459.928	80033.72
460.284	80035.68
460.64	80036.94
460.996	80038.71
461.351	80037.68
461.707	80038.46
462.063	80039.31
462.419	80040.23
462.774	80040.27
463.13	80038.49
463.486	80038.53
463.841	80038.27
464.197	80040.68
464.552	80042.23
464.908	80043.15
465.263	80042.78
465.618	80042.12
465.974	80043.63
466.329	80045.11
466.684	80045.52
467.039	80045.82
467.394	80046.67
467.749	80046.56
468.104	80048.92
468.459	80047.18
468.814	80047.96
469.169	80049.4
469.524	80049.96
469.879	80049.7
470.233	80050.11
470.588	80051.44
470.943	80051.1
471.297	80051.25
471.652	80050.81
472.006	80050.25
472.361	80050.36
472.715	80050.96
473.07	80052.47
473.424	80051.81
473.778	80051.29
474.133	80051.58
474.487	80053.32
474.841	80054.4
475.195	80055.54
475.549	80055.62
475.903	80056.36
476.257	80057.17
476.611	80056.58
476.965	80055.88
477.319	80057.87
477.673	80058.39
478.026	80059.87
478.38	80061.98
478.734	80063.53
479.087	80064.01
479.441	80064.38
479.795	80063.05
480.148	80063.83
480.502	80064.42
480.855	80066.12
481.208	80066.68
481.562	80068.68
481.915	80069.75
482.268	80069.34
482.621	80069.82
482.974	80070.16
483.328	80072.19
483.681	80072.45
484.034	80073.38
484.387	80073.74
484.739	80073.12
485.092	80072.38
485.445	80072.23
485.798	80072.86
486.151	80072.01
486.503	80072.89
486.856	80075.37
487.209	80077.63
487.561	80078.96
487.914	80079.33
488.266	80077.48
488.618	80077.63
488.971	80076.52
489.323	80076.3
489.675	80076.56
490.028	80076.04
490.38	80074.67
490.732	80074.23
491.084	80074.37
491.436	80074.52
491.788	80075.93
492.14	80075.15
492.492	80077
492.844	80077.26
493.196	80074.89
493.548	80076.89
493.899	80075.67
494.251	80074.41
494.603	80074.11
494.954	80073.52
495.306	80072.19
495.657	80073.71
496.009	80074.19
496.36	80074.34
496.712	80074.26
497.063	80074.19
497.414	80074.74
497.765	80076.74
498.117	80077.67
498.468	80077.93
498.819	80077.26
499.17	80077.45
499.521	80078.33
499.872	80076.74
500.223	80078.45
500.574	80080.41
500.924	80079.63
501.275	80080.29
501.626	80080.74
501.977	80082
502.327	80082.22
502.678	80084.25
503.029	80084.18
503.379	80083.33
503.73	80084.33
504.08	80085.88
504.43	80087.18
504.781	80087.59
505.131	80086.14
505.481	80084.51
505.831	80083.29
506.182	80085.22
506.532	80084.18
506.882	80085
507.232	80084.37
507.582	80081.96
507.932	80081.48
508.281	80080.78
508.631	80080.33
508.981	80078.78
509.331	80078.08
509.681	80079.22
510.03	80077.89
510.38	80076.82
510.729	80078.37
511.079	80078.11
511.428	80075.74
511.778	80074.86
512.127	80073.15
512.476	80074.56
512.826	80075.26
513.175	80075.52
513.524	80075.37
513.873	80074.74
514.222	80074.89
514.571	80076.93
514.92	80077.04
515.269	80078.33
515.618	80078.74
515.967	80079.26
516.316	80080.7
516.665	80080.81
517.014	80079.78
517.362	80081.29
517.711	80082.33
518.059	80082.48
518.408	80081.7
518.757	80082.55
519.105	80083.48
519.453	80084.51
519.802	80083
520.15	80082.85
520.498	80083.62
520.847	80083.07
521.195	80083.96
521.543	80084.03
521.891	80083.7
522.239	80086.33
522.587	80084.92
522.935	80086.66
523.283	80085.92
523.631	80085.66
523.979	80085.29
524.326	80085.59
524.674	80083.44
525.022	80082.85
525.369	80083.4
525.717	80085.33
526.064	80084.14
526.412	80081.59
526.759	80081.04
527.107	80082.4
527.454	80082.55
527.801	80082.74
528.149	80082.78
528.496	80082.7
528.843	80082.4
529.19	80081.92
529.537	80079.04
529.884	80079.22
530.231	80078.26
530.578	80078.85
530.925	80079.55
531.272	80078.93
531.619	80077.7
531.966	80079.33
532.312	80079.96
532.659	80079.37
533.006	80078.37
533.352	80078.67
533.699	80079.55
534.045	80079.26
534.392	80078.78
534.738	80079.11
535.084	80078.78
535.431	80078.63
535.777	80078.55
536.123	80077.81
536.469	80077.11
536.815	80079.48
537.161	80080.15
537.507	80079.81
537.853	80079.63
538.199	80079.41
538.545	80079.26
538.891	80079.44
539.237	80079.55
539.582	80080.33
539.928	80079.74
540.274	80078.52
540.619	80078.7
540.965	80078.67
541.31	80078.89
541.656	80079.96
542.001	80079.11
542.347	80079.74
542.692	80078.59
543.037	80078.7
543.382	80078.52
543.728	80078.63
544.073	80077.48
544.418	80076.89
544.763	80077.48
545.108	80077.33
545.453	80076.11
545.798	80077.15
546.142	80078.44
546.487	80077.11
546.832	80077
547.177	80076.52
547.521	80077.07
547.866	80076.04
548.211	80076.63
548.555	80075.78
548.9	80075.15
549.244	80074.49
549.588	80073.45
549.933	80073.78
550.277	80074.15
550.621	80074.82
550.965	80075.63
551.31	80075.19
551.654	80075.26
551.998	80074.11
552.342	80074.15
552.686	80075.22
553.03	80073.04
553.373	80073.34
553.717	80073.97
554.061	80072.08
554.405	80072.26
554.748	80073.08
555.092	80074.67
555.436	80075.74
555.779	80077.26
556.123	80077.33
556.466	80078.04
556.81	80080.63
557.153	80081.77
557.496	80080.96
557.839	80080
558.183	80080.96
558.526	80080.7
558.869	80081.44
559.212	80081.74
559.555	80081.33
559.898	80081
560.241	80082.29
560.584	80080.81
560.927	80080.41
561.269	80082.03
561.612	80082.11
561.955	80081.4
562.297	80080.78
562.64	80079.59
562.983	80078.7
563.325	80078.22
563.668	80079.67
564.01	80076.85
564.352	80074.52
564.695	80073.97
565.037	80075.04
565.379	80073.71
565.721	80073.6
566.063	80072.23
566.406	80072.52
566.748	80072.45
567.09	80072.75
567.431	80074.04
567.773	80073.78
568.115	80074.71
568.457	80073.23
568.799	80072.89
569.14	80073.86
569.482	80072.6
569.824	80072.71
570.165	80072.64
570.507	80071.49
570.848	80069.79
571.19	80068.12
571.531	80070.05
571.872	80069.68
572.214	80068.64
572.555	80068.75
572.896	80067.97
573.237	80067.97
573.578	80066.49
573.919	80065.46
574.26	80063.87
574.601	80061.68
574.942	80060.17
575.283	80059.17
575.624	80058.47
575.964	80057.98
576.305	80057.61
576.646	80058.1
576.986	80058.1
577.327	80058.61
577.667	80059.43
578.008	80058.35
578.348	80061.2
578.689	80060.28
579.029	80061.2
579.369	80061.13
579.71	80060.94
580.05	80061.28
580.39	80062.5
580.73	80061.91
581.07	80062.83
581.41	80064.57
581.75	80064.75
582.09	80065.01
582.43	80065.05
582.769	80065.72
583.109	80065.05
583.449	80062.9
583.789	80062.65
584.128	80063.39
584.468	80062.54
584.807	80061.72
585.147	80061.76
585.486	80060.54
585.825	80060.13
586.165	80059.21
586.504	80059.35
586.843	80059.61
587.182	80058.58
587.522	80056.95
587.861	80058.02
588.2	80057.24
588.539	80056.58
588.878	80056.95
589.216	80058.02
589.555	80058.24
589.894	80058.61
590.233	80060.13
590.572	80060.61
590.91	80062.5
591.249	80062.09
591.587	80062.83
591.926	80063.09
592.264	80063.64
592.603	80063.83
592.941	80064.79
593.279	80065.57
593.618	80064.98
593.956	80066.12
594.294	80067.9
594.632	80066.9
594.97	80066.23
595.308	80066.38
595.646	80066.42
595.984	80066.27
596.322	80066.75
596.66	80066.09
596.998	80065.64
597.335	80063.72
597.673	80063.57
598.011	80061.83
598.348	80060.39
598.686	80059.58
599.023	80060.13
599.361	80060.72
599.698	80060.94
600.035	80060.09
600.373	80057.91
600.71	80058.28
601.047	80056.17
601.384	80055.32
601.722	80054.77
602.059	80053.99
602.396	80053.95
602.733	80052.1
603.069	80052.84
603.406	80052.62
603.743	80051.77
604.08	80051.29
604.417	80052.77
604.753	80052.07
605.09	80051.47
605.426	80051.07
605.763	80050.88
606.099	80051.11
606.436	80050.81
606.772	80050.48
607.109	80049.81
607.445	80049.59
607.781	80049.03
608.117	80048.44
608.453	80045.78
608.79	80046.67
609.126	80047.81
609.462	80046.7
609.798	80047.15
610.133	80044.67
610.469	80044.93
610.805	80044.82
611.141	80043.82
611.477	80042.3
611.812	80043.12
612.148	80043.12
612.483	80043.82
612.819	80042.16
613.154	80040.9
613.49	80040.16
613.825	80039.97
614.16	80039.75
614.496	80041.75
614.831	80041.38
615.166	80041.08
615.501	80042.78
615.836	80042.56
616.171	80043.12
616.506	80043.08
616.841	80043.15
617.176	80043.6
617.511	80041.97
617.846	80041.78
618.18	80041.75
618.515	80042.86
618.85	80042.19
619.184	80041.56
619.519	80041.16
619.853	80042.12
620.188	80041.19
620.522	80042.52
620.856	80041.6
621.191	80042.78
621.525	80040.71
621.859	80039.23
622.193	80040.31
622.527	80040.08
622.861	80040.45
623.195	80039.79
623.529	80039.38
623.863	80038.46
624.197	80039.34
624.531	80040.05
624.865	80039.2
625.198	80039.75
625.532	80037.86
625.866	80037.79
626.199	80038.12
626.533	80036.79
626.866	80035.42
627.2	80036.39
627.533	80034.31
627.866	80034.8
628.2	80032.84
628.533	80033.69
628.866	80035.31
629.199	80035.5
629.532	80035.02
629.865	80034.43
630.198	80033.61
630.531	80034.31
630.864	80033.76
631.197	80032.98
631.529	80030.84
631.862	80033.43
632.195	80031.65
632.527	80032.43
632.86	80033.84
633.193	80034.61
633.525	80036.53
633.857	80037.61
634.19	80035.87
634.522	80036.35
634.854	80036.05
635.187	80037.9
635.519	80039.64
635.851	80040.86
636.183	80038.83
636.515	80039.27
636.847	80038.75
637.179	80038.61
637.511	80037.83
637.843	80038.87
638.174	80037.87
638.506	80039.16
638.838	80038.53
639.17	80039.16
639.501	80038.9
639.833	80036.65
640.164	80036.05
640.496	80035.06
640.827	80034.35
641.158	80034.54
641.49	80033.8
641.821	80034.43
642.152	80032.91
642.483	80030.43
642.814	80027.33
643.145	80027.36
643.476	80026.66
643.807	80027.14
644.138	80025.7
644.469	80026.48
644.8	80026.07
645.131	80027.25
645.461	80026.7
645.792	80025.37
646.122	80025.48
646.453	80026.88
646.784	80026.29
647.114	80025.92
647.444	80025.59
647.775	80024.92
648.105	80023.37
648.435	80024.37
648.765	80021.37
649.096	80021.23
649.426	80022.26
649.756	80023.48
650.086	80024.48
650.416	80023.82
650.746	80023.15
651.075	80023.33
651.405	80023.19
651.735	80022.3
652.065	80022
652.394	80022.19
652.724	80022.04
653.054	80023.26
653.383	80021.45
653.712	80021.71
654.042	80022
654.371	80021.67
654.701	80022.45
655.03	80024.74
655.359	80023.19
655.688	80025.85
656.017	80025.96
656.346	80024.26
656.675	80024
657.004	80025.11
657.333	80024.26
657.662	80024.18
657.991	80023.78
658.32	80021.78
658.648	80021.63
658.977	80020.3
659.306	80019.53
659.634	80018.01
659.963	80017.12
660.291	80015.39
660.619	80015.17
660.948	80013.8
661.276	80013.1
661.604	80012.8
661.933	80011.39
662.261	80010.43
662.589	80008.47
662.917	80007.85
663.245	80008.55
663.573	80007.22
663.901	80004
664.229	80005.29
664.556	80005.48
664.884	80006.85
665.212	80008.66
665.539	80009.51
665.867	80010.91
666.195	80011.84
666.522	80011.87
666.85	80011.47
667.177	80011.69
667.504	80012.21
667.832	80011.13
668.159	80011.17
668.486	80010.51
668.813	80012.21
669.14	80012.02
669.467	80012.06
669.794	80013.35
670.121	80013.02
670.448	80012.69
670.775	80012.36
671.102	80010.66
671.429	80011.54
671.755	80011.06
672.082	80010.84
672.409	80010.1
672.735	80008.47
673.062	80008.07
673.388	80008.44
673.714	80007.55
674.041	80008.7
674.367	80007.77
674.693	80007.22
675.019	80006.48
675.346	80005.85
675.672	80003.63
675.998	80005.59
676.324	80005.3
676.65	80003.56
676.976	80003.37
677.301	80003.6
677.627	80004.56
677.953	80004.78
678.279	80003.19
678.604	80001.08
678.93	80000.79
679.255	80000.27
679.581	79999.83
679.906	79996.91
680.232	79997.17
680.557	79997.83
680.882	79997.68
681.208	79998.27
681.533	79998.61
681.858	79999.83
682.183	80001.12
682.508	80001.12
682.833	80000.27
683.158	79999.64
683.483	79999.75
683.808	79998.53
684.132	79998.83
684.457	79998.24
684.782	79998.72
685.106	79998.75
685.431	79999.16
685.755	79997.5
686.08	79997.13
686.404	79996.94
686.729	79999.27
687.053	79997.68
687.377	79996.24
687.701	79995.58
688.026	79995.1
688.35	79995.72
688.674	79993.03
688.998	79990.11
689.322	79990
689.646	79986.78
689.97	79985.6
690.293	79983.38
690.617	79982.83
690.941	79980.39
691.264	79979.84
691.588	79978.47
691.912	79978.17
692.235	79977.1
692.559	79976.62
692.882	79974.19
693.205	79972.97
693.529	79969.72
693.852	79969.27
694.175	79967.46
694.498	79965.17
694.821	79963.88
695.144	79961.07
695.467	79959.67
695.79	79958.53
696.113	79955.28
696.436	79953.58
696.759	79949.67
697.082	79945.72
697.404	79941.62
697.727	79937.05
698.049	79931.21
698.372	79922.25
698.694	79912.81
699.017	79904.03
699.339	79892.17
699.662	79877.66
699.984	79856.39
700.306	79835.95
700.628	79803.89
700.95	79764.96
701.272	79714.19
701.594	79658.18
701.916	79602.17
702.238	79539.02
702.56	79437.49
702.882	79325.77
703.204	79216.98
703.525	79088.53
703.847	78916.77
704.169	78757.29
704.49	78576.05
704.812	78385.84
705.133	78195.86
705.455	78000.34
705.776	77788.9
706.097	77583.79
706.419	77361.61
706.74	77132.06
707.061	76870.77
707.382	76584.41
707.703	76296.81
708.024	76014.82
708.345	75723.13
708.666	75408.9
708.987	75077.29
709.307	74794.31
709.628	74474.03
709.949	74155.93
710.27	73826.92
710.59	73552.19
710.911	73245.56
711.231	72932.62
711.552	72653.97
711.872	72321.25
712.192	72024.01
712.512	71745.27
712.833	71458.08
713.153	71176.06
713.473	70931.07
713.793	70699.55
714.113	70486.2
714.433	70267.43
714.753	70063.24
715.073	69864.9
715.393	69663.49
715.712	69497.04
716.032	69266.54
716.352	69095.02
716.671	68928.66
716.991	68759.07
717.31	68558.95
717.63	68394.17
717.949	68217.29
718.268	68001.5
718.588	67817.33
718.907	67597.1
719.226	67337.85
719.545	67084.49
719.864	66813.47
720.183	66528.62
720.502	66239.4
720.821	65960.61
721.14	65674.29
721.459	65358.54
721.778	65068.29
722.096	64737.63
722.415	64431.1
722.734	64173.79
723.052	63889.57
723.371	63587.8
723.689	63307.66
724.008	63024.67
724.326	62719.84
724.644	62450.76
724.963	62173.03
725.281	61946.01
725.599	61711.99
725.917	61524.42
726.235	61329.56
726.553	61163.16
726.871	60973.3
727.189	60765.83
727.507	60557.46
727.824	60407.44
728.142	60267.31
728.46	60069.32
728.777	59971.17
729.095	59828.44
729.413	59672.61
729.73	59522.04
730.047	59377.98
730.365	59257.68
730.682	59144.49
730.999	59054.26
731.317	58978.4
731.634	58900.64
731.951	58783.74
732.268	58661.98
732.585	58505.79
732.902	58339.07
733.219	58175.62
733.536	57998.01
733.852	57880.68
734.169	57755.13
734.486	57598.93
734.802	57438.13
735.119	57326.11
735.435	57140.43
735.752	56981.95
736.068	56812.71
736.385	56640.04
736.701	56455.59
737.017	56226.17
737.333	55978.53
737.65	55674.77
737.966	55289.66
738.282	54896.43
738.598	54479.49
738.914	54026.13
739.23	53541.57
739.545	53025.74
739.861	52480.38
740.177	51929.34
740.493	51327.86
740.808	50751.93
741.124	50136.99
741.439	49551.17
741.755	48977.34
742.07	48460.59
742.386	47902.96
742.701	47395.4
743.016	46900.35
743.331	46419.79
743.647	45991.38
743.962	45597.82
744.277	45247.89
744.592	44981.4
744.907	44763.12
745.222	44595.16
745.537	44492.09
745.851	44453.25
746.166	44471.77
746.481	44523.57
746.795	44640.87
747.11	44799.77
747.424	44963.95
747.739	45130.37
748.053	45307.15
748.368	45453.84
748.682	45563.71
748.996	45697.25
749.311	45798.81
749.625	45901.34
749.939	46005.11
750.253	46066.92
750.567	46139.93
750.881	46202.62
751.195	46263.68
751.509	46323.22
751.822	46372.75
752.136	46417.14
752.45	46473.16
752.763	46535.64
753.077	46590.44
753.39	46616.04
753.704	46639.49
754.017	46662.9
754.331	46704.93
754.644	46712.15
754.957	46723.26
755.27	46733.24
755.584	46741.42
755.897	46753.65
756.21	46750.2
756.523	46722.07
756.836	46707.55
757.149	46631
757.461	46563.95
757.774	46476.67
758.087	46358.13
758.4	46217.22
758.712	46070.39
759.025	45908.27
759.337	45750.53
759.65	45588.07
759.962	45438.89
760.275	45279.25
760.587	45132.94
760.899	44994.06
761.211	44901.43
761.523	44828.36
761.836	44826.66
762.148	44836.01
762.46	44860.19
762.772	44920.61
763.083	45058.96
763.395	45200.89
763.707	45423.32
764.019	45649.09
764.33	45880.68
764.642	46137.24
764.954	46404.79
765.265	46687.13
765.577	46956.28
765.888	47204.67
766.199	47445.13
766.511	47662.3
766.822	47880.85
767.133	48061.21
767.444	48221.31
767.755	48312.4
768.066	48371.3
768.377	48366.34
768.688	48293.66
768.999	48203.58
769.31	48075.82
769.621	47890.1
769.931	47668.88
770.242	47408.53
770.553	47110.39
770.863	46775.11
771.174	46416.33
771.484	46032.28
771.794	45622.04
772.105	45214.77
772.415	44786.89
772.725	44342.26
773.035	43900.17
773.345	43438.92
773.656	42973.63
773.966	42507.4
774.276	42073.84
774.585	41641.58
774.895	41203.96
775.205	40828.92
775.515	40435.5
775.824	40040.34
776.134	39649.27
776.444	39281.3
776.753	38916.79
777.063	38574.27
777.372	38252.42
777.681	37932.6
777.991	37628.89
778.3	37321.58
778.609	37016.63
778.918	36727.97
779.228	36464.74
779.537	36199.93
779.846	35940.66
780.154	35684.99
780.463	35445.88
780.772	35193.1
781.081	34962.89
781.39	34760.52
781.698	34534.39
782.007	34325.28
782.316	34117.8
782.624	33902.14
782.932	33696.38
783.241	33498.91
783.549	33298.23
783.858	33126.55
784.166	32955.51
784.474	32783.94
784.782	32619.71
785.09	32463.63
785.398	32312.22
785.706	32171.78
786.014	32027.43
786.322	31885.74
786.63	31749.95
786.937	31619.57
787.245	31501.58
787.553	31371.23
787.86	31250.72
788.168	31128.02
788.475	31016.26
788.783	30926.68
789.09	30828.18
789.398	30728.81
789.705	30620.18
790.012	30521.12
790.319	30411.85
790.626	30297.41
790.933	30202.44
791.24	30115.25
791.547	30021.9
791.854	29926.73
792.161	29824.95
792.468	29725.5
792.774	29628.86
793.081	29547.36
793.388	29462.54
793.694	29356.31
794.001	29265.04
794.307	29147.6
794.614	29045.97
794.92	28915.26
795.226	28782.95
795.533	28671.93
795.839	28576.06
796.145	28467.57
796.451	28358.32
796.757	28249.26
797.063	28143.73
797.369	28033.1
797.675	27925.26
797.98	27824.83
798.286	27704.83
798.592	27596.57
798.898	27483.61
799.203	27375.28
799.509	27248.48
799.814	27123.68
800.12	27026.99
800.425	26913.17
800.73	26800.45
801.035	26681.93
801.341	26584.9
801.646	26482.81
801.951	26379.56
802.256	26271.57
802.561	26174.05
802.866	26080.8
803.171	25986.17
803.476	25898.54
803.78	25805.41
804.085	25704.88
804.39	25587.63
804.694	25491.45
804.999	25391.88
805.303	25293.61
805.608	25208.04
805.912	25128.42
806.216	25055.8
806.521	24986.93
806.825	24915.21
807.129	24841.12
807.433	24770.42
807.737	24693.62
808.041	24631.86
808.345	24576.85
808.649	24523.45
808.953	24467.67
809.257	24403.41
809.561	24348.44
809.864	24294.64
810.168	24262.24
810.471	24233.21
810.775	24207.25
811.078	24189.7
811.382	24163.08
811.685	24160.21
811.988	24146.45
812.292	24134.41
812.595	24130.51
812.898	24125.24
813.201	24133.47
813.504	24165.2
813.807	24197.05
814.11	24238.32
814.413	24263.6
814.716	24292.99
815.018	24337.21
815.321	24404.12
815.624	24493.22
815.926	24593.87
816.229	24724.25
816.531	24863.32
816.834	25024.6
817.136	25224.09
817.438	25438.31
817.74	25711.22
818.043	26027.09
818.345	26405.73
818.647	26869.07
818.949	27418.41
819.251	28051.54
819.553	28806.11
819.855	29669.19
820.156	30638.4
820.458	31720.81
820.76	32882.94
821.062	34094.86
821.363	35367.71
821.665	36705.58
821.966	38136.8
822.268	39594.01
822.569	41043.38
822.87	42524.63
823.171	44014.91
823.473	45543.98
823.774	47129.31
824.075	48659.61
824.376	50156.83
824.677	51635.75
824.978	53015.19
825.279	54308.87
825.58	55494.37
825.88	56533.51
826.181	57422.43
826.482	58208.09
826.782	58832.69
827.083	59352.39
827.383	59738.06
827.684	59956.23
827.984	60042.2
828.284	59955.7
828.585	59723.36
828.885	59419.3
829.185	58961.78
829.485	58404.15
829.785	57735.72
830.085	56896.49
830.385	56018.49
830.685	55085.08
830.985	54032.19
831.285	52955.13
831.584	51833.35
831.884	50672.5
832.183	49494.95
832.483	48277.9
832.782	47000.18
833.082	45719.16
833.381	44433.11
833.681	43188.75
833.98	42011.51
834.279	40865.9
834.578	39753.6
834.877	38719.21
835.176	37708.18
835.475	36773.55
835.774	35887.77
836.073	35017.45
836.372	34194.33
836.671	33383.87
836.969	32577.72
837.268	31827.97
837.567	31114.76
837.865	30420.42
838.164	29739.59
838.462	29083.2
838.761	28470.84
839.059	27889.25
839.357	27334.95
839.655	26800.47
839.953	26257.99
840.252	25732.1
840.55	25208.36
840.848	24699.2
841.146	24200.91
841.443	23703.1
841.741	23193.7
842.039	22681.35
842.337	22171.26
842.634	21704.55
842.932	21259.12
843.229	20828.03
843.527	20410.1
843.824	19963.59
844.122	19513.76
844.419	19093.2
844.716	18663.55
845.013	18249.57
845.311	17857.74
845.608	17484.92
845.905	17115.8
846.202	16754.4
846.499	16382.48
846.796	16014.59
847.092	15641.48
847.389	15275.9
847.686	14931.03
847.982	14612.71
848.279	14304.13
848.576	14015.56
848.872	13720.97
849.168	13429.24
849.465	13151.12
849.761	12856.66
850.057	12580.98
850.354	12320.36
850.65	12065.06
850.946	11832.05
851.242	11606.51
851.538	11385.55
851.834	11159.52
852.13	10945.25
852.425	10752.49
852.721	10570.65
853.017	10405.09
853.312	10255.39
853.608	10106.59
853.903	9965.98
854.199	9822.65
854.494	9691.98
854.79	9558.18
855.085	9424.41
855.38	9296.24
855.675	9162.29
855.971	9044.7
856.266	8944.98
856.561	8846.74
856.856	8755.48
857.151	8663.48
857.445	8562.65
857.74	8463.58
858.035	8372.43
858.33	8276.91
858.624	8187.87
858.919	8110.95
859.213	8022.68
859.508	7941.32
859.802	7852.86
860.096	7770.85
860.391	7706.84
860.685	7641.3
860.979	7580.27
861.273	7531.17
861.567	7470.77
861.861	7408.44
862.155	7349.67
862.449	7280.41
862.743	7213.1
863.037	7152.6
863.33	7097.12
863.624	7046.19
863.918	7001.45
864.211	6961.01
864.505	6927.93
864.798	6887.04
865.092	6838.53
865.385	6793.18
865.678	6738.87
865.971	6705.76
866.264	6671.45
866.558	6640.35
866.851	6606.9
867.144	6576.14
867.437	6540.14
867.729	6512.76
868.022	6492.36
868.315	6473.2
868.608	6461.36
868.9	6455.3
869.193	6440.72
869.485	6414.33
869.778	6389.14
870.07	6359.59
870.363	6338.66
870.655	6321.59
870.947	6312.56
871.239	6304.87
871.532	6304.53
871.824	6309.03
872.116	6305.81
872.408	6303.05
872.699	6287.44
872.991	6281.64
873.283	6277.04
873.575	6275.92
873.867	6283.67
874.158	6285.24
874.45	6288.55
874.741	6288.21
875.033	6283.72
875.324	6294.28
875.615	6314.8
875.907	6339.02
876.198	6356.98
876.489	6369.11
876.78	6372.02
877.071	6374.03
877.362	6376.67
877.653	6382
877.944	6392.44
878.235	6403.53
878.526	6412.17
878.816	6430.9
