Data from 24HourExp_27052025_FLMS018081_15-48-21-823.txt Node
Date: Tue May 27 15:48:21 BST 2025
User: adleo
Spectrometer: FLMS01808
Trigger mode: 0
Integration Time (sec): 4.000000E-1
Scans to average: 10
Electric dark correction enabled: true
Nonlinearity correction enabled: true
Boxcar width: 10
XAxis mode: Wavelengths
Number of Pixels in Spectrum: 2048
>>>>>Begin Spectral Data<<<<<
178.471	-128.24
178.857	-120.5
179.244	-113.76
179.631	-104.23
180.017	-97.58
180.404	-89.09
180.79	-78.56
181.176	-70.8
181.563	-61.12
181.949	-49.96
182.335	-39.17
182.722	-23.67
183.108	-4.46
183.494	22.21
183.88	74.96
184.266	128.07
184.653	182.36
185.039	236.55
185.425	291.71
185.811	347.07
186.197	400.73
186.582	451.71
186.968	504.05
187.354	556.26
187.74	606.49
188.126	656.95
188.511	706.45
188.897	754.44
189.283	802.61
189.668	847.86
190.054	890.52
190.439	935.8
190.825	978.95
191.21	1019.94
191.596	1052.98
191.981	1059.82
192.366	1065.29
192.752	1068.32
193.137	1073.33
193.522	1074.65
193.908	1075.49
194.293	1079.5
194.678	1081.96
195.063	1082.67
195.448	1084.43
195.833	1084.44
196.218	1084.84
196.603	1086.1
196.988	1085.73
197.373	1086.53
197.757	1086.46
198.142	1087.94
198.527	1085.78
198.912	1086.1
199.296	1085.06
199.681	1084.33
200.066	1083.88
200.45	1082.24
200.835	1082.47
201.219	1082.04
201.604	1081.14
201.988	1081.85
202.372	1081.81
202.757	1080.41
203.141	1080.31
203.525	1080.37
203.91	1081.39
204.294	1084.4
204.678	1082.97
205.062	1083.21
205.446	1081.97
205.83	1083.63
206.214	1082.9
206.598	1083.65
206.982	1083.43
207.366	1084.2
207.75	1085.81
208.134	1087.84
208.517	1090.61
208.901	1091.58
209.285	1091.84
209.669	1094.28
210.052	1093.8
210.436	1093.51
210.819	1095.56
211.203	1096.29
211.586	1094.81
211.97	1094.47
212.353	1092.69
212.737	1092.8
213.12	1094.7
213.503	1097.47
213.886	1098.68
214.27	1100.32
214.653	1101.71
215.036	1104.27
215.419	1106.4
215.802	1107.66
216.185	1110.24
216.568	1111.84
216.951	1114.12
217.334	1116.39
217.717	1118.94
218.1	1121.02
218.482	1124.65
218.865	1128.36
219.248	1133.07
219.631	1137.5
220.013	1141.86
220.396	1148.81
220.778	1156.43
221.161	1160.76
221.544	1166.25
221.926	1171.81
222.308	1179.67
222.691	1186.48
223.073	1195.15
223.455	1202.07
223.838	1210.26
224.22	1218.04
224.602	1228.55
224.984	1237.68
225.366	1248.53
225.749	1260.85
226.131	1274.95
226.513	1287.15
226.895	1300.88
227.276	1315.59
227.658	1332.36
228.04	1347.98
228.422	1362.15
228.804	1376.41
229.186	1393.02
229.567	1410.48
229.949	1427.64
230.331	1444.53
230.712	1462.45
231.094	1480.54
231.475	1499.78
231.857	1519.69
232.238	1536.62
232.62	1554.45
233.001	1575.11
233.382	1597.69
233.763	1617.23
234.145	1635.32
234.526	1655.74
234.907	1674.39
235.288	1691.52
235.669	1711.81
236.05	1731.51
236.431	1751.24
236.812	1772.97
237.193	1793.75
237.574	1814.39
237.955	1835.93
238.336	1856.24
238.717	1877.71
239.097	1900.32
239.478	1922.35
239.859	1943.3
240.239	1969.09
240.62	1992.67
241.001	2015.91
241.381	2037.66
241.762	2060.91
242.142	2085.22
242.522	2108.77
242.903	2134.02
243.283	2162.67
243.663	2188.47
244.044	2218.17
244.424	2244.84
244.804	2269.28
245.184	2298.22
245.564	2326.2
245.944	2356.38
246.324	2386.05
246.704	2416.98
247.084	2445.83
247.464	2476.46
247.844	2508.79
248.224	2540.44
248.604	2573.9
248.983	2603.12
249.363	2633.71
249.743	2664.08
250.122	2693.92
250.502	2725.44
250.882	2756.1
251.261	2786.63
251.641	2818.63
252.02	2849.25
252.399	2883.92
252.779	2924.79
253.158	2959.73
253.537	2999.29
253.917	3040.99
254.296	3079.13
254.675	3119.84
255.054	3159.89
255.433	3203.64
255.812	3243.63
256.191	3284.35
256.57	3323.77
256.949	3369.7
257.328	3412.89
257.707	3455.98
258.086	3504.75
258.465	3552.12
258.843	3603.94
259.222	3654.66
259.601	3705.93
259.979	3759.61
260.358	3811.99
260.736	3863.08
261.115	3917.38
261.493	3969.72
261.872	4020.14
262.25	4078.18
262.629	4132.13
263.007	4189.94
263.385	4245.86
263.763	4307.5
264.142	4370.64
264.52	4437.35
264.898	4499.04
265.276	4563.74
265.654	4633.54
266.032	4701.66
266.41	4771.22
266.788	4839.03
267.166	4914.49
267.544	4988.01
267.921	5064.83
268.299	5143.71
268.677	5221.06
269.055	5303.26
269.432	5386.6
269.81	5472.77
270.188	5561.2
270.565	5648.83
270.943	5740.09
271.32	5827.18
271.697	5919.51
272.075	6013.91
272.452	6105.17
272.829	6201.78
273.207	6301.8
273.584	6405.23
273.961	6509.17
274.338	6618.9
274.715	6736.81
275.092	6853.41
275.469	6972.32
275.846	7090.25
276.223	7212.66
276.6	7335.7
276.977	7459.22
277.354	7584.25
277.731	7711.15
278.108	7837.73
278.484	7967.49
278.861	8097.37
279.238	8237.5
279.614	8373.36
279.991	8514.8
280.367	8657.61
280.744	8805.4
281.12	8954.87
281.497	9098.86
281.873	9250.66
282.249	9399.69
282.625	9544.39
283.002	9689.65
283.378	9834.96
283.754	9984.6
284.13	10137.34
284.506	10292.23
284.882	10448.92
285.258	10602.63
285.634	10756.79
286.01	10917.33
286.386	11074.44
286.762	11237.42
287.138	11404.97
287.513	11571.16
287.889	11730.65
288.265	11896.88
288.641	12056.26
289.016	12216.31
289.392	12380.48
289.767	12540.09
290.143	12703.79
290.518	12864.55
290.894	13025.92
291.269	13185.06
291.644	13343.19
292.02	13496.04
292.395	13648.13
292.77	13802.97
293.145	13961.67
293.52	14117.41
293.895	14266.09
294.27	14422.82
294.646	14575.17
295.02	14714.04
295.395	14860.23
295.77	15016.28
296.145	15167.35
296.52	15323.09
296.895	15476.43
297.269	15630.4
297.644	15784.51
298.019	15937.1
298.393	16089.61
298.768	16240.98
299.143	16395.66
299.517	16544.77
299.891	16701.03
300.266	16863.1
300.64	17019.19
301.015	17174.46
301.389	17345
301.763	17515.64
302.137	17684.37
302.512	17864.85
302.886	18045.75
303.26	18234.38
303.634	18409.95
304.008	18585.7
304.382	18766.24
304.756	18950.28
305.13	19133.97
305.504	19313.7
305.877	19500.61
306.251	19705.81
306.625	19910.05
306.999	20118.89
307.372	20330.98
307.746	20546.23
308.119	20755.33
308.493	20966.5
308.866	21178.96
309.24	21386.85
309.613	21592.24
309.987	21800.45
310.36	21991.16
310.733	22201.9
311.107	22412.74
311.48	22626.77
311.853	22853.44
312.226	23074.05
312.599	23299.38
312.972	23523.69
313.345	23751.61
313.718	23976.31
314.091	24196.82
314.464	24422.04
314.837	24644.01
315.21	24857.64
315.582	25072.9
315.955	25279.88
316.328	25499.27
316.7	25713.7
317.073	25927.91
317.446	26148.64
317.818	26381.51
318.191	26611.52
318.563	26824.94
318.936	27025.72
319.308	27227.21
319.68	27430.65
320.053	27630.09
320.425	27815.07
320.797	27995
321.169	28156.3
321.541	28302.83
321.913	28433.16
322.285	28548.97
322.657	28670.4
323.029	28811.73
323.401	28951.59
323.773	29118.33
324.145	29289.04
324.517	29475.67
324.889	29658.38
325.26	29856.74
325.632	30064.37
326.004	30299.52
326.375	30558.49
326.747	30839.23
327.118	31147.19
327.49	31432.02
327.861	31742.46
328.233	32048.28
328.604	32354.95
328.975	32666.14
329.346	32976.85
329.718	33283.43
330.089	33585.48
330.46	33884.01
330.831	34158.38
331.202	34413.46
331.573	34664.82
331.944	34889.85
332.315	35118.66
332.686	35333.04
333.057	35542.45
333.428	35716.84
333.799	35883.06
334.169	36040.06
334.54	36176.95
334.911	36287.25
335.281	36420.03
335.652	36539.07
336.022	36679.72
336.393	36827.07
336.763	36995.64
337.134	37179.76
337.504	37375.42
337.874	37579.39
338.245	37777.88
338.615	37996.98
338.985	38231.85
339.355	38447.82
339.726	38674.81
340.096	38892.64
340.466	39139.07
340.836	39371.92
341.206	39621.5
341.576	39871.72
341.945	40109.65
342.315	40338.97
342.685	40583.87
343.055	40829.65
343.425	41065.12
343.794	41286.28
344.164	41518.12
344.533	41749.66
344.903	41983.63
345.273	42214.71
345.642	42440.72
346.011	42678.43
346.381	42910.87
346.75	43141.06
347.12	43389.49
347.489	43632.77
347.858	43871.78
348.227	44088.72
348.596	44311.68
348.965	44550.12
349.334	44769.48
349.704	45002.43
350.072	45250.83
350.441	45482.9
350.81	45719.05
351.179	45955.52
351.548	46195.06
351.917	46412.32
352.285	46609.42
352.654	46810.53
353.023	47019.81
353.391	47219.92
353.76	47427.48
354.129	47613.74
354.497	47841.37
354.865	48052.23
355.234	48281.27
355.602	48507.06
355.971	48745.97
356.339	48959.29
356.707	49171.4
357.075	49393.85
357.443	49620.54
357.811	49832.25
358.18	50039.49
358.548	50247.02
358.916	50452.86
359.284	50664.99
359.651	50882.82
360.019	51096.07
360.387	51296.7
360.755	51495.57
361.123	51718.99
361.49	51942.67
361.858	52158.34
362.226	52345.6
362.593	52547.55
362.961	52722.7
363.328	52916.4
363.696	53084.25
364.063	53300.68
364.43	53506.35
364.798	53713.86
365.165	53893.29
365.532	54080.14
365.899	54271.78
366.267	54433.71
366.634	54584.8
367.001	54745.52
367.368	54883.82
367.735	55069.47
368.102	55242.47
368.469	55436.48
368.835	55618.6
369.202	55780.53
369.569	55973.95
369.936	56173.75
370.303	56358.05
370.669	56567.64
371.036	56734.79
371.402	56942.86
371.769	57121.76
372.135	57266.88
372.502	57399.92
372.868	57544.44
373.235	57683.1
373.601	57819.07
373.967	57996.16
374.333	58175.64
374.7	58357.17
375.066	58556.12
375.432	58742.69
375.798	58924.88
376.164	59087.26
376.53	59230.66
376.896	59401.19
377.262	59570.89
377.628	59697.53
377.993	59847.1
378.359	59989.23
378.725	60141.51
379.091	60282.7
379.456	60416.81
379.822	60553.07
380.187	60699.43
380.553	60886.16
380.918	61079.01
381.284	61254.45
381.649	61428.9
382.015	61577.46
382.38	61702.65
382.745	61881.49
383.11	62024.73
383.476	62162.93
383.841	62298.5
384.206	62456.04
384.571	62564.94
384.936	62692
385.301	62864.05
385.666	62992.72
386.031	63138.19
386.396	63297.27
386.76	63450.26
387.125	63636.16
387.49	63832.29
387.855	64020.31
388.219	64181.27
388.584	64348.57
388.948	64538.47
389.313	64693.7
389.677	64886.74
390.042	65117.35
390.406	65259.45
390.771	65448.56
391.135	65633.06
391.499	65855.62
391.863	66082.21
392.227	66326.01
392.592	66525.46
392.956	66714.46
393.32	66902.94
393.684	67119
394.048	67289.6
394.412	67466.56
394.775	67614.74
395.139	67761.23
395.503	67919.08
395.867	68067.35
396.231	68212.6
396.594	68310.86
396.958	68457.12
397.321	68616.42
397.685	68744.34
398.048	68880.43
398.412	69006.82
398.775	69141.69
399.139	69266.02
399.502	69375.37
399.865	69513.58
400.228	69707.3
400.592	69838.29
400.955	70048.16
401.318	70186.91
401.681	70354.07
402.044	70496.41
402.407	70656.81
402.77	70814.03
403.133	71002.06
403.496	71141.23
403.859	71292.71
404.221	71529.99
404.584	71758.46
404.947	71998.47
405.309	72198.66
405.672	72434.93
406.034	72661.39
406.397	72912.46
406.759	73124.53
407.122	73307.14
407.484	73480.71
407.847	73662.37
408.209	73911.02
408.571	74130.73
408.933	74377.56
409.296	74619.33
409.658	74853.24
410.02	75117.88
410.382	75428.98
410.744	75686.61
411.106	75980.48
411.468	76255.06
411.83	76500.88
412.191	76704.37
412.553	76888.26
412.915	77113.05
413.277	77330.39
413.638	77537.04
414	77709.59
414.361	77903.39
414.723	78143.46
415.084	78370.58
415.446	78555.19
415.807	78706.2
416.169	78830.28
416.53	78937.23
416.891	79064.83
417.252	79208.15
417.614	79302.1
417.975	79356.19
418.336	79420.09
418.697	79486.36
419.058	79547.56
419.419	79591.1
419.78	79639.82
420.141	79678.12
420.501	79709.51
420.862	79737.14
421.223	79759.37
421.584	79804.8
421.944	79830.27
422.305	79845.95
422.666	79856.82
423.026	79860.69
423.387	79873.62
423.747	79882.2
424.107	79896.46
424.468	79908.07
424.828	79915.38
425.188	79920.84
425.549	79929.25
425.909	79936.34
426.269	79934.9
426.629	79939.92
426.989	79946.27
427.349	79951.52
427.709	79955.54
428.069	79959.98
428.429	79966.07
428.789	79972.83
429.149	79979.55
429.508	79984.06
429.868	79989.01
430.228	79994.37
430.587	79999.25
430.947	80006.12
431.306	80012.51
431.666	80016.73
432.025	80020.5
432.385	80024.93
432.744	80026.82
433.103	80030.18
433.463	80033.03
433.822	80044.85
434.181	80047.99
434.54	80050.29
434.899	80051.47
435.258	80054.98
435.618	80054.95
435.976	80058.72
436.335	80059.57
436.694	80059.2
437.053	80059.87
437.412	80062.12
437.771	80062.46
438.129	80064.93
438.488	80065.38
438.847	80067.15
439.205	80067.08
439.564	80068.34
439.922	80069.67
440.281	80069.78
440.639	80070.85
440.997	80071.93
441.356	80069.89
441.714	80071.78
442.072	80072.07
442.431	80073.07
442.789	80071.96
443.147	80073.96
443.505	80075.03
443.863	80076.14
444.221	80077.4
444.579	80077.29
444.937	80075.59
445.294	80077.51
445.652	80077.55
446.01	80076.11
446.368	80075.55
446.725	80077.22
447.083	80076.29
447.441	80075.55
447.798	80077.25
448.156	80077.81
448.513	80077.55
448.87	80078.47
449.228	80078.18
449.585	80078.7
449.942	80078.96
450.3	80080.29
450.657	80078.55
451.014	80076.4
451.371	80077.29
451.728	80076.4
452.085	80078.77
452.442	80080.77
452.799	80080.99
453.156	80081.06
453.513	80082.47
453.869	80083.32
454.226	80083.14
454.583	80083.51
454.939	80082.84
455.296	80083.47
455.653	80082.47
456.009	80083.14
456.366	80082.36
456.722	80082.54
457.078	80082.8
457.435	80082.54
457.791	80081.21
458.147	80082.4
458.503	80083.91
458.86	80083.88
459.216	80082.91
459.572	80081.18
459.928	80081.32
460.284	80082.06
460.64	80082.8
460.996	80083.47
461.351	80083.25
461.707	80083.95
462.063	80083.1
462.419	80082.66
462.774	80083.14
463.13	80083.06
463.486	80082.95
463.841	80083.17
464.197	80084.28
464.552	80082.66
464.908	80083.88
465.263	80084.62
465.618	80086.06
465.974	80086.39
466.329	80086.69
466.684	80089.98
467.039	80091.32
467.394	80092.06
467.749	80092.09
468.104	80092.91
468.459	80093.54
468.814	80093.02
469.169	80093.02
469.524	80094.32
469.879	80095.68
470.233	80095.17
470.588	80096.5
470.943	80097.5
471.297	80099.76
471.652	80099.72
472.006	80102.09
472.361	80102.86
472.715	80104.23
473.07	80104.97
473.424	80104.35
473.778	80104.57
474.133	80104.12
474.487	80104.79
474.841	80104.83
475.195	80104.97
475.549	80105.64
475.903	80105.86
476.257	80108.34
476.611	80109.79
476.965	80111.27
477.319	80113.12
477.673	80114.42
478.026	80114.71
478.38	80114.08
478.734	80113.79
479.087	80114.19
479.441	80115.49
479.795	80116.56
480.148	80117.01
480.502	80116.79
480.855	80117.23
481.208	80118.71
481.562	80118.45
481.915	80119.41
482.268	80118.41
482.621	80118.23
482.974	80117.86
483.328	80117.79
483.681	80116.42
484.034	80116.08
484.387	80115.75
484.739	80114.42
485.092	80114.75
485.445	80116.82
485.798	80117.19
486.151	80117.97
486.503	80119.49
486.856	80118.56
487.209	80117.23
487.561	80116.97
487.914	80117.3
488.266	80117.93
488.618	80118.79
488.971	80118.71
489.323	80118.23
489.675	80118.38
490.028	80118.42
490.38	80118.42
490.732	80120.04
491.084	80120.67
491.436	80121.56
491.788	80122.34
492.14	80122.9
492.492	80123.3
492.844	80123.53
493.196	80124.08
493.548	80124.08
493.899	80122.3
494.251	80122.86
494.603	80123.41
494.954	80124.93
495.306	80122.71
495.657	80122.64
496.009	80121.12
496.36	80121.79
496.712	80122.71
497.063	80123.67
497.414	80124.16
497.765	80124.71
498.117	80123.56
498.468	80123.04
498.819	80120.97
499.17	80119.49
499.521	80120.79
499.872	80121.38
500.223	80119.42
500.574	80118.93
500.924	80118.34
501.275	80120.23
501.626	80121.05
501.977	80121.19
502.327	80120.05
502.678	80123.56
503.029	80124.93
503.379	80126.82
503.73	80126.82
504.08	80125.56
504.43	80126.79
504.781	80127.04
505.131	80126.79
505.481	80127.67
505.831	80127.71
506.182	80128.64
506.532	80130.67
506.882	80129.82
507.232	80127.64
507.582	80127.93
507.932	80130.04
508.281	80130.64
508.631	80129.38
508.981	80129.16
509.331	80129.56
509.681	80130.6
510.03	80128.67
510.38	80128.41
510.729	80127.64
511.079	80127.64
511.428	80127.53
511.778	80125.93
512.127	80125.27
512.476	80125.38
512.826	80124.45
513.175	80126.04
513.524	80125.9
513.873	80124.49
514.222	80125.19
514.571	80127.27
514.92	80127.19
515.269	80124.78
515.618	80124.64
515.967	80125.49
516.316	80125.41
516.665	80124.86
517.014	80124.45
517.362	80124.82
517.711	80126.45
518.059	80126.15
518.408	80126.93
518.757	80126.78
519.105	80128.27
519.453	80130.12
519.802	80130.41
520.15	80130.04
520.498	80130.71
520.847	80130.3
521.195	80130.93
521.543	80130.01
521.891	80130.53
522.239	80130.38
522.587	80132.3
522.935	80132.67
523.283	80133.19
523.631	80133.38
523.979	80133.71
524.326	80133.9
524.674	80134.27
525.022	80131.45
525.369	80131.12
525.717	80131.38
526.064	80132.6
526.412	80131.71
526.759	80130.75
527.107	80130.04
527.454	80130.64
527.801	80128.04
528.149	80130.64
528.496	80131.56
528.843	80131.6
529.19	80129.86
529.537	80129.9
529.884	80127.93
530.231	80128.19
530.578	80127.75
530.925	80126.71
531.272	80126.6
531.619	80125.82
531.966	80126.75
532.312	80127.16
532.659	80125.79
533.006	80124.23
533.352	80123.08
533.699	80122.38
534.045	80121.67
534.392	80122.38
534.738	80123.42
535.084	80125.56
535.431	80123.34
535.777	80122.34
536.123	80124.53
536.469	80124.79
536.815	80125.79
537.161	80127.64
537.507	80127.04
537.853	80126.53
538.199	80126.71
538.545	80125.49
538.891	80126.53
539.237	80125.9
539.582	80126.53
539.928	80128.01
540.274	80128.82
540.619	80130.49
540.965	80132.19
541.31	80131.67
541.656	80131.12
542.001	80130.38
542.347	80129.3
542.692	80129.64
543.037	80128.56
543.382	80124.53
543.728	80123.82
544.073	80123.41
544.418	80122.38
544.763	80122.04
545.108	80123.34
545.453	80123.6
545.798	80125.78
546.142	80126.93
546.487	80128.79
546.832	80128.42
547.177	80127.75
547.521	80127.01
547.866	80126.01
548.211	80126.01
548.555	80127.05
548.9	80127.49
549.244	80125.71
549.588	80125.93
549.933	80127.3
550.277	80129.82
550.621	80131.19
550.965	80131.42
551.31	80128.75
551.654	80128.45
551.998	80128.56
552.342	80125.68
552.686	80125.08
553.03	80124.53
553.373	80124.23
553.717	80120.23
554.061	80119.53
554.405	80120.38
554.748	80120.71
555.092	80120.64
555.436	80121.05
555.779	80120.75
556.123	80120.08
556.466	80122.34
556.81	80123.9
557.153	80122.94
557.496	80121.27
557.839	80123.05
558.183	80122.71
558.526	80126.6
558.869	80126.08
559.212	80125.16
559.555	80127.19
559.898	80127.42
560.241	80127.49
560.584	80127.12
560.927	80129.27
561.269	80129.64
561.612	80129.86
561.955	80128.86
562.297	80127.86
562.64	80126.12
562.983	80126.34
563.325	80127.41
563.668	80126.67
564.01	80124.16
564.352	80121.49
564.695	80121.27
565.037	80119.42
565.379	80120.75
565.721	80118.71
566.063	80118.79
566.406	80118.27
566.748	80117.9
567.09	80118.27
567.431	80116.42
567.773	80115.86
568.115	80114.34
568.457	80113.97
568.799	80113.6
569.14	80114.71
569.482	80115.34
569.824	80116.64
570.165	80115.42
570.507	80114.86
570.848	80114.56
571.19	80114.68
571.531	80118.23
571.872	80119.3
572.214	80119.75
572.555	80120.05
572.896	80121.23
573.237	80121.64
573.578	80122.08
573.919	80121.64
574.26	80121.67
574.601	80123.67
574.942	80122.34
575.283	80122.16
575.624	80121.38
575.964	80119.97
576.305	80119.56
576.646	80117.68
576.986	80117.12
577.327	80117.9
577.667	80117.19
578.008	80117.86
578.348	80118.49
578.689	80117.01
579.029	80115.64
579.369	80115.68
579.71	80114.38
580.05	80113.79
580.39	80113.53
580.73	80114.16
581.07	80114.16
581.41	80114.01
581.75	80112.45
582.09	80111.86
582.43	80112.23
582.769	80112.75
583.109	80112.64
583.449	80114.34
583.789	80115.08
584.128	80113.75
584.468	80112.38
584.807	80113.71
585.147	80111.57
585.486	80111.6
585.825	80111.75
586.165	80112.53
586.504	80112.42
586.843	80112.49
587.182	80112.23
587.522	80111.53
587.861	80111.23
588.2	80110.34
588.539	80109.9
588.878	80109.94
589.216	80110.79
589.555	80109.53
589.894	80108.05
590.233	80108.2
590.572	80105.86
590.91	80105.42
591.249	80106.01
591.587	80107.31
591.926	80106.75
592.264	80107.57
592.603	80106.68
592.941	80105.49
593.279	80104.75
593.618	80103.46
593.956	80103.01
594.294	80101.38
594.632	80101.31
594.97	80101.61
595.308	80103.24
595.646	80102.61
595.984	80102.42
596.322	80101.57
596.66	80102.64
596.998	80105.01
597.335	80105.05
597.673	80104.42
598.011	80104.6
598.348	80104.23
598.686	80102.31
599.023	80101.57
599.361	80101.75
599.698	80100.94
600.035	80100.98
600.373	80100.87
600.71	80099.83
601.047	80099.2
601.384	80100.24
601.722	80100.83
602.059	80099.9
602.396	80097.31
602.733	80096.5
603.069	80096.68
603.406	80096.42
603.743	80095.05
604.08	80093.28
604.417	80093.31
604.753	80093.91
605.09	80095.17
605.426	80093.5
605.763	80092.94
606.099	80092.91
606.436	80091.32
606.772	80092.69
607.109	80092.83
607.445	80091.83
607.781	80092.35
608.117	80091.61
608.453	80092.43
608.79	80091.58
609.126	80091.65
609.462	80092.61
609.798	80093.5
610.133	80093.13
610.469	80093.06
610.805	80093.83
611.141	80094.39
611.477	80093.76
611.812	80092.65
612.148	80091.87
612.483	80092.76
612.819	80093.57
613.154	80091.69
613.49	80092.76
613.825	80090.69
614.16	80088.91
614.496	80090.8
614.831	80091.32
615.166	80090.91
615.501	80089.58
615.836	80089.98
616.171	80089.8
616.506	80090.39
616.841	80089.58
617.176	80088.28
617.511	80088.87
617.846	80088.5
618.18	80089.5
618.515	80090.06
618.85	80089.36
619.184	80089.32
619.519	80089.39
619.853	80089.65
620.188	80090.17
620.522	80089.65
620.856	80089.76
621.191	80090.21
621.525	80087.5
621.859	80087.65
622.193	80088.76
622.527	80088.21
622.861	80087.58
623.195	80087.17
623.529	80085.02
623.863	80084.21
624.197	80084.99
624.531	80083.95
624.865	80084.4
625.198	80084.47
625.532	80084.47
625.866	80082.66
626.199	80082.32
626.533	80082.18
626.866	80081.99
627.2	80082.36
627.533	80082.47
627.866	80082.69
628.2	80082.47
628.533	80082.92
628.866	80083.25
629.199	80082.18
629.532	80081.29
629.865	80080.25
630.198	80079.4
630.531	80079.29
630.864	80078.81
631.197	80077.88
631.529	80077.51
631.862	80077.74
632.195	80076.18
632.527	80075.4
632.86	80078.21
633.193	80078.4
633.525	80078.66
633.857	80077.33
634.19	80075.92
634.522	80076.03
634.854	80076.07
635.187	80076.92
635.519	80077.22
635.851	80075.03
636.183	80075.14
636.515	80076.88
636.847	80077.62
637.179	80077.66
637.511	80079.14
637.843	80079.47
638.174	80078.55
638.506	80078.55
638.838	80079.03
639.17	80078.1
639.501	80077.92
639.833	80078.1
640.164	80078.25
640.496	80076.74
640.827	80077.77
641.158	80078.73
641.49	80077.88
641.821	80078.55
642.152	80078.29
642.483	80077.44
642.814	80077.92
643.145	80077.92
643.476	80076.59
643.807	80075.22
644.138	80075.85
644.469	80076.22
644.8	80076.33
645.131	80077.4
645.461	80078.29
645.792	80076.07
646.122	80076.59
646.453	80076.81
646.784	80075
647.114	80071.96
647.444	80072.66
647.775	80071.19
648.105	80072.26
648.435	80073.07
648.765	80071.59
649.096	80071.74
649.426	80072.67
649.756	80072.37
650.086	80072.85
650.416	80073.18
650.746	80074.77
651.075	80073.52
651.405	80072.52
651.735	80073.18
652.065	80073.41
652.394	80073.48
652.724	80074.15
653.054	80073.74
653.383	80072.37
653.712	80073.63
654.042	80075.22
654.371	80073.81
654.701	80074.66
655.03	80072.55
655.359	80070.07
655.688	80071.44
656.017	80070.41
656.346	80071.19
656.675	80070.78
657.004	80070.19
657.333	80069.78
657.662	80069.19
657.991	80070.26
658.32	80069.19
658.648	80068.45
658.977	80067.08
659.306	80066.86
659.634	80067.12
659.963	80066.97
660.291	80069
660.619	80068.23
660.948	80068.6
661.276	80069.41
661.604	80069.37
661.933	80071.11
662.261	80071.48
662.589	80070.93
662.917	80071.96
663.245	80070
663.573	80070.67
663.901	80071.18
664.229	80069.78
664.556	80070.3
664.884	80069.37
665.212	80068.15
665.539	80068.52
665.867	80068.37
666.195	80066.75
666.522	80064.86
666.85	80064.53
667.177	80061.53
667.504	80062.45
667.832	80062.16
668.159	80061.05
668.486	80060.05
668.813	80059.24
669.14	80060.23
669.467	80058.9
669.794	80057.72
670.121	80058.42
670.448	80058.09
670.775	80057.68
671.102	80057.83
671.429	80057.64
671.755	80057.35
672.082	80057.98
672.409	80058.61
672.735	80058.83
673.062	80058.35
673.388	80058.68
673.714	80058.79
674.041	80058.68
674.367	80057.83
674.693	80056.28
675.019	80056.98
675.346	80056.2
675.672	80056.57
675.998	80055.91
676.324	80056.02
676.65	80054.8
676.976	80052.8
677.301	80051.76
677.627	80051.36
677.953	80051.1
678.279	80049.8
678.604	80050.03
678.93	80048.88
679.255	80046.84
679.581	80044.92
679.906	80044.4
680.232	80045.07
680.557	80044.55
680.882	80044
681.208	80043.55
681.533	80042.81
681.858	80042.85
682.183	80043.15
682.508	80042.48
682.833	80041.67
683.158	80041.7
683.483	80042
683.808	80042.55
684.132	80042.55
684.457	80041.19
684.782	80041.7
685.106	80040.63
685.431	80038.52
685.755	80041
686.08	80041.67
686.404	80041.67
686.729	80043.07
687.053	80042.52
687.377	80041.22
687.701	80040.71
688.026	80040.15
688.35	80039.49
688.674	80037.78
688.998	80036.82
689.322	80034.01
689.646	80032.53
689.97	80030.87
690.293	80029.87
690.617	80026.18
690.941	80026.21
691.264	80024.85
691.588	80022.07
691.912	80020.19
692.235	80019.71
692.559	80016.53
692.882	80014.79
693.205	80014.16
693.529	80011.61
693.852	80009.13
694.175	80007.25
694.498	80005.14
694.821	80002.55
695.144	79999.45
695.467	79994.61
695.79	79992.32
696.113	79987.63
696.436	79983.42
696.759	79976.41
697.082	79969.87
697.404	79964.01
697.727	79952.27
698.049	79941.94
698.372	79927.86
698.694	79909.26
699.017	79889.45
699.339	79864
699.662	79832.71
699.984	79783.13
700.306	79724.56
700.628	79640.13
700.95	79531.06
701.272	79397.97
701.594	79248.85
701.916	79107.4
702.238	78953.41
702.56	78740.39
702.882	78540.79
703.204	78356.21
703.525	78146.98
703.847	77896.42
704.169	77664.66
704.49	77411.31
704.812	77156.76
705.133	76905.53
705.455	76651.15
705.776	76371.91
706.097	76113.45
706.419	75844.38
706.74	75575.2
707.061	75288.31
707.382	74998.03
707.703	74707.89
708.024	74447.15
708.345	74172.31
708.666	73875.75
708.987	73582.58
709.307	73342.98
709.628	73052.59
709.949	72739.06
710.27	72431.29
710.59	72177.61
710.911	71886.22
711.231	71596.71
711.552	71324.41
711.872	70992.86
712.192	70713.34
712.512	70451.42
712.833	70175.29
713.153	69896.25
713.473	69661.89
713.793	69425.74
714.113	69206.3
714.433	69004.05
714.753	68803.73
715.073	68619.62
715.393	68429.38
715.712	68265
716.032	68052.18
716.352	67879.3
716.671	67722.73
716.991	67558.52
717.31	67362.24
717.63	67201.78
717.949	67028.49
718.268	66829.58
718.588	66663.75
718.907	66440.46
719.226	66192.29
719.545	65941.94
719.864	65672.5
720.183	65394.54
720.502	65121.82
720.821	64856.09
721.14	64575.15
721.459	64265.99
721.778	63988.23
722.096	63668.1
722.415	63365.94
722.734	63105.69
723.052	62826.59
723.371	62534.32
723.689	62258.99
724.008	61979.26
724.326	61684.71
724.644	61413.27
724.963	61137.61
725.281	60907.83
725.599	60677.82
725.917	60485.73
726.235	60294.16
726.553	60140.04
726.871	59953.95
727.189	59758.54
727.507	59558.6
727.824	59405.02
728.142	59276.15
728.46	59083.39
728.777	58987
729.095	58849.05
729.413	58702.82
729.73	58554.59
730.047	58418.49
730.365	58304.15
730.682	58198.32
730.999	58115.32
731.317	58042.22
731.634	57965.5
731.951	57848.58
732.268	57730.08
732.585	57591.29
732.902	57432.65
733.219	57275.71
733.536	57100.41
733.852	56977.45
734.169	56849.3
734.486	56705.42
734.802	56540.82
735.119	56425.47
735.435	56251.52
735.752	56099.28
736.068	55923.33
736.385	55764.54
736.701	55579.28
737.017	55352.83
737.333	55107.05
737.65	54792.95
737.966	54419.21
738.282	54025.51
738.598	53614.02
738.914	53161.43
739.23	52665.72
739.545	52148.11
739.861	51591.6
740.177	51043.46
740.493	50443.1
740.808	49861.16
741.124	49256.84
741.439	48675.49
741.755	48104.43
742.07	47586.71
742.386	47024.97
742.701	46525.67
743.016	46031.69
743.331	45560.55
743.647	45139.09
743.962	44752.27
744.277	44416.56
744.592	44142.7
744.907	43922.49
745.222	43761.65
745.537	43663.7
745.851	43641.58
746.166	43661.96
746.481	43717.55
746.795	43828.05
747.11	43992.21
747.424	44169.42
747.739	44332.52
748.053	44513.46
748.368	44664.97
748.682	44776.16
748.996	44910.21
749.311	45018.49
749.625	45116.31
749.939	45220.91
750.253	45282.99
750.567	45354.95
750.881	45409.98
751.195	45477.3
751.509	45542.44
751.822	45590.8
752.136	45642.09
752.45	45693.21
752.763	45763.03
753.077	45821.23
753.39	45857.65
753.704	45874.45
754.017	45892.12
754.331	45922.82
754.644	45926.84
754.957	45937.78
755.27	45942.26
755.584	45953.81
755.897	45950.32
756.21	45943.22
756.523	45912.08
756.836	45889.97
757.149	45810.06
757.461	45745.54
757.774	45655.03
758.087	45531.72
758.4	45393.73
758.712	45238.09
759.025	45077.45
759.337	44916.94
759.65	44758.34
759.962	44607.53
760.275	44451.85
760.587	44301.26
760.899	44169.09
761.211	44072.43
761.523	43999.42
761.836	43997.46
762.148	44000.37
762.46	44038.98
762.772	44101.2
763.083	44239.2
763.395	44384.21
763.707	44602.61
764.019	44824.78
764.33	45056.71
764.642	45316.6
764.954	45592.41
765.265	45871.77
765.577	46140.28
765.888	46380.88
766.199	46626.19
766.511	46838.17
766.822	47057.85
767.133	47246.68
767.444	47413.63
767.755	47509.79
768.066	47563.99
768.377	47555.92
768.688	47494.11
768.999	47407.25
769.31	47288.93
769.621	47093.39
769.931	46870.61
770.242	46611.72
770.553	46323.62
770.863	45990.54
771.174	45634.62
771.484	45244.77
771.794	44842.99
772.105	44433.67
772.415	44011.17
772.725	43564.19
773.035	43124.09
773.345	42667.79
773.656	42198.91
773.966	41726.48
774.276	41293.51
774.585	40869.79
774.895	40439.99
775.205	40057.71
775.515	39659.94
775.824	39263.49
776.134	38880.72
776.444	38521.4
776.753	38160.48
777.063	37813.93
777.372	37494.64
777.681	37176.11
777.991	36879.96
778.3	36583.48
778.609	36287.6
778.918	36005.9
779.228	35743.75
779.537	35482.15
779.846	35220.05
780.154	34976.87
780.463	34745.07
780.772	34500.84
781.081	34281.71
781.39	34078.35
781.698	33864.77
782.007	33663.78
782.316	33464.52
782.624	33256.24
782.932	33049.49
783.241	32864.96
783.549	32669.29
783.858	32502.7
784.166	32343.28
784.474	32163.61
784.782	31996.7
785.09	31838.2
785.398	31692.43
785.706	31549.54
786.014	31415.22
786.322	31284.58
786.63	31146.66
786.937	31013.56
787.245	30889.48
787.553	30758.35
787.86	30645.08
788.168	30524.2
788.475	30415.92
788.783	30322.7
789.09	30234.08
789.398	30142.38
789.705	30031.94
790.012	29941.69
790.319	29831.24
790.626	29721.93
790.933	29633.68
791.24	29548.87
791.547	29455.84
791.854	29357.74
792.161	29262.89
792.468	29165.31
792.774	29066.75
793.081	28984.16
793.388	28911.68
793.694	28817.7
794.001	28728.82
794.307	28604.6
794.614	28500.92
794.92	28372.97
795.226	28244.6
795.533	28130.71
795.839	28033.25
796.145	27920.79
796.451	27804.61
796.757	27700.57
797.063	27590.68
797.369	27479.1
797.675	27375.98
797.98	27277.96
798.286	27165.03
798.592	27063.06
798.898	26947.23
799.203	26839.1
799.509	26720.62
799.814	26589.69
800.12	26489.64
800.425	26377.01
800.73	26275.81
801.035	26162.23
801.341	26064.74
801.646	25962.81
801.951	25861.92
802.256	25753.11
802.561	25660.57
802.866	25567.89
803.171	25476.03
803.476	25391.27
803.78	25298.61
804.085	25194.94
804.39	25082.72
804.694	24985.16
804.999	24881.74
805.303	24792.13
805.608	24708.43
805.912	24626.5
806.216	24559.18
806.521	24487.78
806.825	24412.31
807.129	24336.45
807.433	24256.8
807.737	24187.03
808.041	24129.04
808.345	24067.53
808.649	24012.66
808.953	23966.19
809.257	23907.59
809.561	23852.87
809.864	23799.27
810.168	23771.2
810.471	23738.66
810.775	23712.62
811.078	23692.19
811.382	23673.69
811.685	23671.04
811.988	23662.93
812.292	23654.18
812.595	23652.79
812.898	23647.22
813.201	23657.75
813.504	23683.52
813.807	23722.24
814.11	23750.24
814.413	23777.14
814.716	23806.71
815.018	23850.4
815.321	23908.92
815.624	23999.86
815.926	24104.57
816.229	24227.09
816.531	24363.9
816.834	24526.83
817.136	24721.21
817.438	24936.42
817.74	25198.4
818.043	25508.21
818.345	25875.67
818.647	26331.97
818.949	26871.86
819.251	27505.55
819.553	28251.16
819.855	29107.64
820.156	30073.48
820.458	31153.56
820.76	32306.58
821.062	33514.81
821.363	34773.96
821.665	36108.05
821.966	37526.38
822.268	38964.58
822.569	40412.31
822.87	41884.43
823.171	43371.75
823.473	44889.8
823.774	46464.86
824.075	47988.39
824.376	49479.76
824.677	50948.54
824.978	52320.5
825.279	53608.4
825.58	54782.84
825.88	55817.25
826.181	56705.94
826.482	57486.97
826.782	58102.87
827.083	58616.27
827.383	58998.34
827.684	59216.01
827.984	59296.4
828.284	59216.57
828.585	59002.42
828.885	58699.78
829.185	58249.24
829.485	57704.36
829.785	57044.89
830.085	56213.26
830.385	55343.21
830.685	54409.67
830.985	53363.59
831.285	52290.98
831.584	51171.92
831.884	50024.52
832.183	48853.53
832.483	47645.79
832.782	46376.85
833.082	45102.83
833.381	43826.33
833.681	42589.99
833.98	41432.6
834.279	40299.89
834.578	39190.74
834.877	38149.29
835.176	37141.23
835.475	36205.35
835.774	35310.86
836.073	34441.89
836.372	33623.25
836.671	32817.54
836.969	32021.32
837.268	31282.67
837.567	30584.32
837.865	29899.07
838.164	29226.3
838.462	28581.32
838.761	27974.66
839.059	27394.64
839.357	26858.15
839.655	26330.51
839.953	25796.37
840.252	25277.05
840.55	24755.64
840.848	24253.46
841.146	23770.02
841.443	23276.84
841.741	22781.34
842.039	22281.96
842.337	21783.4
842.634	21325.98
842.932	20885.86
843.229	20464.56
843.527	20052.69
843.824	19608.53
844.122	19165.23
844.419	18746.73
844.716	18324.72
845.013	17920.04
845.311	17534.12
845.608	17162.25
845.905	16801.91
846.202	16450.9
846.499	16085.03
846.796	15725.42
847.092	15362.71
847.389	14999.55
847.686	14665.81
847.982	14353.19
848.279	14044.38
848.576	13760.77
848.872	13465.22
849.168	13180.67
849.465	12903.28
849.761	12613.99
850.057	12348.78
850.354	12092.19
850.65	11845.61
850.946	11615.88
851.242	11394.58
851.538	11176.68
851.834	10957.45
852.13	10746.12
852.425	10554.54
852.721	10374.52
853.017	10208.35
853.312	10060.49
853.608	9918.69
853.903	9779.66
854.199	9635.2
854.494	9505.58
854.79	9374.58
855.085	9247.33
855.38	9120.51
855.675	8992
855.971	8879.29
856.266	8775.34
856.561	8679.14
856.856	8585.88
857.151	8496.67
857.445	8397.64
857.74	8305.9
858.035	8218.38
858.33	8121.3
858.624	8036.43
858.919	7961.43
859.213	7880.72
859.508	7795.51
859.802	7703.54
860.096	7622.44
860.391	7557.73
860.685	7498.43
860.979	7439.88
861.273	7386.94
861.567	7331.92
861.861	7268.16
862.155	7211.45
862.449	7145.09
862.743	7080.66
863.037	7020.52
863.33	6962.72
863.624	6909.05
863.918	6863.52
864.211	6819.34
864.505	6789.35
864.798	6748.05
865.092	6697.11
865.385	6650.73
865.678	6601.51
865.971	6568.15
866.264	6536.43
866.558	6507.49
866.851	6474.51
867.144	6446.23
867.437	6413.46
867.729	6384.37
868.022	6361.69
868.315	6344.87
868.608	6332.62
868.9	6327.38
869.193	6309.62
869.485	6283.12
869.778	6261.22
870.07	6232.79
870.363	6214.7
870.655	6197.79
870.947	6187.81
871.239	6184.53
871.532	6183.36
871.824	6185.65
872.116	6184.03
872.408	6181.26
872.699	6164.85
872.991	6159.85
873.283	6154.35
873.575	6154.64
873.867	6159.51
874.158	6164.45
874.45	6158.34
874.741	6158.98
875.033	6154.98
875.324	6167
875.615	6186.97
875.907	6208.61
876.198	6224.65
876.489	6234.53
876.78	6238.77
877.071	6239.26
877.362	6240.15
877.653	6244.23
877.944	6253.42
878.235	6262.62
878.526	6267
878.816	6288.21
