Data from 24HourExp_27052025_FLMS018081_18-08-21-238.txt Node
Date: Tue May 27 18:08:21 BST 2025
User: adleo
Spectrometer: FLMS01808
Trigger mode: 0
Integration Time (sec): 4.000000E-1
Scans to average: 10
Electric dark correction enabled: true
Nonlinearity correction enabled: true
Boxcar width: 10
XAxis mode: Wavelengths
Number of Pixels in Spectrum: 2048
>>>>>Begin Spectral Data<<<<<
178.471	-122.87
178.857	-115.95
179.244	-110.67
179.631	-104.24
180.017	-94.85
180.404	-87.14
180.79	-74.8
181.176	-66.44
181.563	-58.02
181.949	-47.91
182.335	-38.21
182.722	-24.04
183.108	-5.78
183.494	20.82
183.88	73.96
184.266	128.41
184.653	183.5
185.039	237.99
185.425	294.51
185.811	346.65
186.197	399.58
186.582	451.73
186.968	505.08
187.354	559.15
187.74	612.75
188.126	663.15
188.511	714.03
188.897	761.92
189.283	809.83
189.668	857.51
190.054	901.59
190.439	947.41
190.825	992.13
191.21	1032.52
191.596	1066.62
191.981	1077.59
192.366	1082.07
192.752	1085.62
193.137	1090.68
193.522	1092.21
193.908	1096.19
194.293	1100.79
194.678	1104.13
195.063	1105.13
195.448	1106.23
195.833	1104.99
196.218	1103.46
196.603	1103.8
196.988	1101.76
197.373	1102.39
197.757	1101.05
198.142	1102.27
198.527	1101.08
198.912	1100.29
199.296	1100.92
199.681	1098.48
200.066	1095.26
200.45	1095.21
200.835	1093.88
201.219	1092.35
201.604	1090.41
201.988	1090.66
202.372	1090.61
202.757	1088.73
203.141	1089.56
203.525	1089.41
203.91	1090.4
204.294	1092.87
204.678	1091.78
205.062	1092.72
205.446	1093.96
205.83	1096.86
206.214	1096.52
206.598	1097.72
206.982	1100.53
207.366	1100.2
207.75	1100.56
208.134	1102.19
208.517	1104.3
208.901	1105.79
209.285	1108.54
209.669	1110.3
210.052	1109.13
210.436	1109.28
210.819	1109.27
211.203	1108.33
211.586	1108.33
211.97	1109.58
212.353	1108.66
212.737	1110.35
213.12	1112.72
213.503	1112.58
213.886	1112.79
214.27	1115.46
214.653	1117.98
215.036	1118.12
215.419	1120.8
215.802	1123.86
216.185	1124.97
216.568	1125.46
216.951	1126.98
217.334	1128.98
217.717	1132.41
218.1	1134.89
218.482	1137.96
218.865	1142.67
219.248	1148.87
219.631	1154.57
220.013	1157.2
220.396	1164.81
220.778	1172.33
221.161	1176.35
221.544	1181.94
221.926	1189.87
222.308	1196.43
222.691	1202.11
223.073	1210.17
223.455	1217.78
223.838	1226.68
224.22	1236.7
224.602	1249.62
224.984	1260.25
225.366	1270.78
225.749	1285.87
226.131	1298.4
226.513	1313.12
226.895	1328.46
227.276	1341.09
227.658	1357.27
228.04	1373.73
228.422	1388.18
228.804	1404.52
229.186	1422.44
229.567	1441.19
229.949	1457.27
230.331	1476.38
230.712	1496.05
231.094	1515.01
231.475	1533.72
231.857	1553.64
232.238	1574.74
232.62	1593.84
233.001	1614.79
233.382	1637.17
233.763	1655.96
234.145	1677.04
234.526	1696.7
234.907	1715.96
235.288	1737.18
235.669	1756.48
236.05	1780.35
236.431	1800.03
236.812	1818.35
237.193	1839.8
237.574	1862.13
237.955	1884.85
238.336	1906.33
238.717	1927.2
239.097	1951.68
239.478	1975.44
239.859	1997.08
240.239	2020.4
240.62	2044.68
241.001	2069.06
241.381	2094.49
241.762	2117.67
242.142	2143.73
242.522	2169.9
242.903	2197.88
243.283	2225.21
243.663	2251.7
244.044	2278.65
244.424	2308.78
244.804	2338.24
245.184	2368.84
245.564	2397.96
245.944	2429
246.324	2460.89
246.704	2492.81
247.084	2522.41
247.464	2555.02
247.844	2588.39
248.224	2620.81
248.604	2652.18
248.983	2682.44
249.363	2714.77
249.743	2747.8
250.122	2779.94
250.502	2812.16
250.882	2843.62
251.261	2875.67
251.641	2909.42
252.02	2942.48
252.399	2978.06
252.779	3016.44
253.158	3053
253.537	3093.82
253.917	3136.11
254.296	3175.94
254.675	3218.16
255.054	3261.05
255.433	3305
255.812	3345.62
256.191	3388.21
256.57	3433.36
256.949	3481.88
257.328	3526.4
257.707	3573.04
258.086	3620.85
258.465	3668.91
258.843	3719.73
259.222	3773.62
259.601	3829.8
259.979	3885.03
260.358	3941.33
260.736	3994.47
261.115	4049.98
261.493	4102.94
261.872	4157.34
262.25	4213.85
262.629	4271.43
263.007	4333.41
263.385	4391.81
263.763	4457.34
264.142	4523.04
264.52	4585.59
264.898	4650.5
265.276	4718.51
265.654	4789.54
266.032	4861.62
266.41	4934.79
266.788	5007.28
267.166	5083.9
267.544	5158.9
267.921	5237.49
268.299	5315.94
268.677	5397.56
269.055	5481.45
269.432	5567.07
269.81	5653.77
270.188	5745.81
270.565	5833.42
270.943	5922.35
271.32	6013.95
271.697	6108.84
272.075	6207.1
272.452	6304.62
272.829	6402.35
273.207	6502.77
273.584	6605.91
273.961	6711.47
274.338	6825.79
274.715	6942.39
275.092	7059.87
275.469	7184.51
275.846	7306.01
276.223	7428.17
276.6	7550.54
276.977	7677.84
277.354	7804.74
277.731	7930.47
278.108	8056.95
278.484	8189.52
278.861	8322.39
279.238	8466.86
279.614	8608.16
279.991	8748.12
280.367	8892.63
280.744	9042.34
281.12	9192.05
281.497	9340.4
281.873	9492.99
282.249	9643.46
282.625	9794.97
283.002	9944.07
283.378	10088.26
283.754	10239.86
284.13	10396.99
284.506	10558.3
284.882	10716.62
285.258	10871.73
285.634	11032.81
286.01	11198.24
286.386	11360.36
286.762	11525.3
287.138	11684.82
287.513	11847.6
287.889	12009.96
288.265	12179.96
288.641	12339.2
289.016	12502.22
289.392	12669.14
289.767	12834.03
290.143	12998.04
290.518	13162.13
290.894	13323.93
291.269	13487.49
291.644	13648.46
292.02	13800.25
292.395	13950.91
292.77	14105.64
293.145	14264.45
293.52	14420.87
293.895	14566.33
294.27	14724.18
294.646	14877.01
295.02	15025.82
295.395	15176.61
295.77	15333.34
296.145	15488.79
296.52	15644.74
296.895	15801.17
297.269	15954.74
297.644	16107.26
298.019	16258.5
298.393	16410.66
298.768	16567.09
299.143	16719.05
299.517	16867.25
299.891	17022.59
300.266	17187.2
300.64	17347.51
301.015	17513.76
301.389	17686.96
301.763	17868.48
302.137	18039.3
302.512	18223.29
302.886	18405.37
303.26	18595.27
303.634	18777.17
304.008	18950.49
304.382	19137.72
304.756	19321.26
305.13	19510.47
305.504	19689.38
305.877	19884.42
306.251	20089.42
306.625	20288.57
306.999	20503.81
307.372	20717.74
307.746	20944.27
308.119	21157.16
308.493	21369.35
308.866	21579.1
309.24	21788.52
309.613	21993.54
309.987	22205.66
310.36	22397.61
310.733	22606.82
311.107	22821.51
311.48	23038.08
311.853	23274.13
312.226	23503.92
312.599	23739.42
312.972	23965.15
313.345	24202.59
313.718	24433.9
314.091	24656.24
314.464	24894.3
314.837	25120.01
315.21	25338.29
315.582	25557.32
315.955	25770.46
316.328	25992.17
316.7	26213.93
317.073	26443.72
317.446	26673.13
317.818	26903.43
318.191	27141.68
318.563	27367.89
318.936	27576.7
319.308	27784.71
319.68	27990.15
320.053	28186.87
320.425	28375.23
320.797	28556.38
321.169	28721.49
321.541	28870.52
321.913	29007.95
322.285	29121.92
322.657	29243.63
323.029	29398.17
323.401	29539.86
323.773	29713.69
324.145	29890.31
324.517	30078.02
324.889	30251.89
325.26	30450.27
325.632	30667.58
326.004	30906.41
326.375	31166.65
326.747	31442.95
327.118	31748.67
327.49	32038.21
327.861	32353.94
328.233	32657.36
328.604	32971.9
328.975	33290.01
329.346	33603.37
329.718	33912.79
330.089	34226.82
330.46	34524.95
330.831	34797.63
331.202	35059.59
331.573	35308.45
331.944	35536.76
332.315	35766.22
332.686	35984.45
333.057	36189.37
333.428	36364.41
333.799	36531.26
334.169	36683.31
334.54	36827.6
334.911	36944.77
335.281	37078.28
335.652	37194.92
336.022	37336.4
336.393	37483.46
336.763	37651.22
337.134	37839.42
337.504	38042.24
337.874	38246.29
338.245	38456.66
338.615	38670.29
338.985	38897.23
339.355	39116.16
339.726	39346.23
340.096	39566.9
340.466	39819.64
340.836	40065.52
341.206	40319.54
341.576	40566.08
341.945	40815.85
342.315	41045.83
342.685	41293.28
343.055	41535
343.425	41781.5
343.794	42015.62
344.164	42248.74
344.533	42483.29
344.903	42710.47
345.273	42943.17
345.642	43169.21
346.011	43395.94
346.381	43632.01
346.75	43868.09
347.12	44119.22
347.489	44362.66
347.858	44614.9
348.227	44833.25
348.596	45056
348.965	45296.33
349.334	45533.54
349.704	45764.22
350.072	46016.48
350.441	46255.12
350.81	46495.61
351.179	46726.8
351.548	46960.26
351.917	47175.4
352.285	47369.51
352.654	47577.18
353.023	47787.62
353.391	47985.49
353.76	48207.49
354.129	48398.82
354.497	48630.82
354.865	48845.07
355.234	49079.99
355.602	49304.34
355.971	49543.41
356.339	49757.25
356.707	49963.58
357.075	50180.16
357.443	50407.23
357.811	50620.8
358.18	50828.05
358.548	51038.58
358.916	51249.37
359.284	51470.75
359.651	51697.99
360.019	51918.53
360.387	52122.18
360.755	52323.37
361.123	52553.65
361.49	52771.52
361.858	52986.52
362.226	53183.37
362.593	53388.3
362.961	53572.37
363.328	53765.33
363.696	53938.77
364.063	54158.58
364.43	54365.26
364.798	54574.74
365.165	54757.4
365.532	54944.3
365.899	55132.3
366.267	55301.18
366.634	55449.56
367.001	55606.78
367.368	55743.5
367.735	55931.48
368.102	56109.22
368.469	56300.27
368.835	56483.78
369.202	56649.32
369.569	56854.49
369.936	57045.12
370.303	57227.05
370.669	57432.14
371.036	57596.25
371.402	57806.9
371.769	57986.1
372.135	58140.19
372.502	58268.97
372.868	58414.7
373.235	58555.08
373.601	58693.63
373.967	58865.31
374.333	59059.99
374.7	59248.42
375.066	59455.35
375.432	59637.38
375.798	59817.1
376.164	59989.35
376.53	60134.09
376.896	60304.54
377.262	60472.58
377.628	60600.99
377.993	60753.45
378.359	60893.73
378.725	61053.22
379.091	61198.07
379.456	61326.62
379.822	61463.87
380.187	61617.99
380.553	61811.53
380.918	62007.45
381.284	62190.72
381.649	62364.73
382.015	62505.44
382.38	62629.73
382.745	62798.94
383.11	62952.43
383.476	63100.03
383.841	63225.64
384.206	63391.02
384.571	63510.63
384.936	63641.77
385.301	63827.34
385.666	63956.88
386.031	64109.46
386.396	64275.79
386.76	64430.63
387.125	64628.61
387.49	64828.33
387.855	65027.55
388.219	65190.19
388.584	65364.46
388.948	65560.74
389.313	65726.42
389.677	65931.11
390.042	66168.49
390.406	66315.02
390.771	66508.41
391.135	66693.85
391.499	66931.66
391.863	67164.29
392.227	67412.18
392.592	67617.09
392.956	67804.34
393.32	68010.72
393.684	68230.17
394.048	68407.28
394.412	68590.18
394.775	68741.79
395.139	68901.88
395.503	69064.47
395.867	69216.47
396.231	69362.69
396.594	69464.25
396.958	69610.61
397.321	69767.01
397.685	69886.93
398.048	70037
398.412	70173.3
398.775	70307.01
399.139	70435.88
399.502	70543.6
399.865	70684.11
400.228	70883.64
400.592	71021.8
400.955	71224.96
401.318	71361.77
401.681	71532.22
402.044	71672.81
402.407	71835.55
402.77	71983.48
403.133	72165.99
403.496	72314.36
403.859	72473.1
404.221	72716.52
404.584	72953.48
404.947	73201.34
405.309	73418.66
405.672	73657.09
406.034	73884.24
406.397	74143.11
406.759	74363.8
407.122	74556.1
407.484	74732.86
407.847	74918.38
408.209	75167.99
408.571	75390.55
408.933	75648.31
409.296	75899.28
409.658	76152.29
410.02	76417.33
410.382	76717.17
410.744	76965.69
411.106	77240.98
411.468	77497.72
411.83	77708.3
412.191	77888.08
412.553	78036.23
412.915	78218.7
413.277	78399.69
413.638	78558.29
414	78699.87
414.361	78843.51
414.723	79028.9
415.084	79203.92
415.446	79326.65
415.807	79424.99
416.169	79495.83
416.53	79549.23
416.891	79608.87
417.252	79681.21
417.614	79722.22
417.975	79740.71
418.336	79762.07
418.697	79786.36
419.058	79807.46
419.419	79822.44
419.78	79837.23
420.141	79849.97
420.501	79860.96
420.862	79868.84
421.223	79877.32
421.584	79894.07
421.944	79903.4
422.305	79909.34
422.666	79913.8
423.026	79914.54
423.387	79921.84
423.747	79927.93
424.107	79934.98
424.468	79941.48
424.828	79943.58
425.188	79946.65
425.549	79951.37
425.909	79954.95
426.269	79953.77
426.629	79957.98
426.989	79961.86
427.349	79966.29
427.709	79968.4
428.069	79969.87
428.429	79973.68
428.789	79976.41
429.149	79979.81
429.508	79982.73
429.868	79984.61
430.228	79987.83
430.587	79992.19
430.947	79995.77
431.306	79998.02
431.666	79999.5
432.025	80001.31
432.385	80004.34
432.744	80004.57
433.103	80006.19
433.463	80006.41
433.822	80013.36
434.181	80016.5
434.54	80018.42
434.899	80019.83
435.258	80024.04
435.618	80026.44
435.976	80028.55
436.335	80029.77
436.694	80029.44
437.053	80030.7
437.412	80032.54
437.771	80032.43
438.129	80032.91
438.488	80034.65
438.847	80035.84
439.205	80035.91
439.564	80037.24
439.922	80038.13
440.281	80039.42
440.639	80041.05
440.997	80041.23
441.356	80041.97
441.714	80042.57
442.072	80042.75
442.431	80042.31
442.789	80041.27
443.147	80041.75
443.505	80040.98
443.863	80041.97
444.221	80044.01
444.579	80044.75
444.937	80044.64
445.294	80046.15
445.652	80047.78
446.01	80048.33
446.368	80049.63
446.725	80051.44
447.083	80050.15
447.441	80049.81
447.798	80050.78
448.156	80049.7
448.513	80051.48
448.87	80051.44
449.228	80050.07
449.585	80050.44
449.942	80051.77
450.3	80050.81
450.657	80052
451.014	80053.55
451.371	80053.66
451.728	80053.48
452.085	80052.44
452.442	80053.59
452.799	80053.29
453.156	80053.66
453.513	80051.96
453.869	80051.29
454.226	80049
454.583	80050.15
454.939	80049.85
455.296	80048.67
455.653	80050.04
456.009	80049.96
456.366	80049.33
456.722	80049.08
457.078	80049.82
457.435	80050.48
457.791	80052.59
458.147	80050.92
458.503	80051.37
458.86	80052.48
459.216	80052.22
459.572	80051.96
459.928	80050.92
460.284	80050.33
460.64	80050.74
460.996	80052.15
461.351	80052.92
461.707	80054.77
462.063	80054.92
462.419	80057.47
462.774	80059.1
463.13	80059.84
463.486	80060.13
463.841	80060.43
464.197	80062.02
464.552	80061.8
464.908	80062.02
465.263	80062.43
465.618	80063.02
465.974	80062.24
466.329	80062.39
466.684	80064.5
467.039	80065.76
467.394	80064.24
467.749	80065.57
468.104	80067.02
468.459	80067.16
468.814	80067.31
469.169	80068.09
469.524	80068.79
469.879	80067.68
470.233	80068.57
470.588	80067.24
470.943	80068.2
471.297	80068.39
471.652	80069.87
472.006	80069.98
472.361	80071.23
472.715	80071.46
473.07	80072.71
473.424	80074.42
473.778	80075.64
474.133	80075.16
474.487	80075.34
474.841	80079
475.195	80080.08
475.549	80078.41
475.903	80079.19
476.257	80078.93
476.611	80080.11
476.965	80080.63
477.319	80082
477.673	80082.74
478.026	80084.55
478.38	80085.11
478.734	80086
479.087	80086.18
479.441	80088.11
479.795	80087.55
480.148	80088.4
480.502	80088.77
480.855	80089.25
481.208	80089.4
481.562	80090.18
481.915	80091.62
482.268	80090.99
482.621	80092.62
482.974	80094.03
483.328	80093.73
483.681	80095.95
484.034	80095.51
484.387	80096.95
484.739	80098.84
485.092	80098.47
485.445	80099.73
485.798	80101.17
486.151	80101.91
486.503	80100.95
486.856	80099.55
487.209	80100.25
487.561	80101.1
487.914	80101.54
488.266	80101.17
488.618	80101.62
488.971	80102.03
489.323	80102.73
489.675	80102.58
490.028	80100.1
490.38	80099.92
490.732	80100.84
491.084	80099.84
491.436	80101.84
491.788	80101.17
492.14	80100.25
492.492	80099.47
492.844	80098.51
493.196	80096.77
493.548	80096.77
493.899	80098.03
494.251	80098.92
494.603	80097.69
494.954	80096.92
495.306	80095.92
495.657	80096.07
496.009	80097.07
496.36	80098.29
496.712	80098.18
497.063	80098.44
497.414	80099.25
497.765	80099.25
498.117	80097.47
498.468	80097.51
498.819	80096.55
499.17	80096.36
499.521	80095.51
499.872	80096.4
500.223	80097.55
500.574	80097.4
500.924	80098.14
501.275	80097.81
501.626	80096.47
501.977	80097.18
502.327	80096.25
502.678	80096.88
503.029	80097.21
503.379	80094.22
503.73	80092.51
504.08	80091.4
504.43	80091.96
504.781	80092.18
505.131	80092.66
505.481	80094.7
505.831	80093.7
506.182	80091.59
506.532	80092.7
506.882	80092.59
507.232	80092.66
507.582	80091.18
507.932	80092.29
508.281	80091.51
508.631	80091.59
508.981	80091.88
509.331	80092.25
509.681	80093.03
510.03	80093.25
510.38	80093.44
510.729	80094.4
511.079	80095.81
511.428	80096.66
511.778	80096.18
512.127	80097.44
512.476	80097.88
512.826	80097.69
513.175	80099.55
513.524	80100.69
513.873	80100.1
514.222	80100.51
514.571	80100.73
514.92	80100.4
515.269	80100.03
515.618	80100.06
515.967	80101.51
516.316	80101.28
516.665	80102.17
517.014	80101.54
517.362	80101.14
517.711	80100.91
518.059	80101.03
518.408	80100.25
518.757	80098.69
519.105	80098.99
519.453	80098.06
519.802	80097.18
520.15	80098.1
520.498	80097.36
520.847	80097.73
521.195	80097.32
521.543	80097.95
521.891	80098.21
522.239	80098.62
522.587	80098.06
522.935	80099.06
523.283	80097.62
523.631	80099.47
523.979	80098.29
524.326	80098.84
524.674	80098.91
525.022	80098.43
525.369	80098.21
525.717	80098.14
526.064	80099.17
526.412	80099.17
526.759	80098.62
527.107	80098.1
527.454	80098.17
527.801	80098.06
528.149	80098.25
528.496	80099.29
528.843	80098.91
529.19	80098.43
529.537	80098.84
529.884	80101.28
530.231	80101.88
530.578	80101.65
530.925	80101.73
531.272	80101.77
531.619	80103.28
531.966	80104.39
532.312	80103.88
532.659	80103.25
533.006	80102.62
533.352	80103.21
533.699	80103.84
534.045	80104.43
534.392	80103.58
534.738	80102.17
535.084	80103.21
535.431	80104.02
535.777	80103.4
536.123	80104.58
536.469	80104.32
536.815	80103.95
537.161	80102.21
537.507	80100.8
537.853	80100.47
538.199	80097.84
538.545	80097.03
538.891	80096.7
539.237	80096.44
539.582	80097.32
539.928	80099.14
540.274	80099.14
540.619	80099.1
540.965	80099.77
541.31	80099.32
541.656	80101.51
542.001	80101.84
542.347	80101.58
542.692	80100.47
543.037	80099.77
543.382	80098.4
543.728	80098.1
544.073	80098.14
544.418	80098.1
544.763	80099.03
545.108	80098.84
545.453	80101.17
545.798	80102.21
546.142	80100.95
546.487	80100.65
546.832	80100.95
547.177	80100.14
547.521	80100.88
547.866	80102.25
548.211	80099.4
548.555	80098.99
548.9	80099.06
549.244	80098.1
549.588	80095.99
549.933	80096.03
550.277	80096.73
550.621	80095.62
550.965	80096.29
551.31	80095.47
551.654	80096.14
551.998	80095.92
552.342	80096.25
552.686	80096.25
553.03	80095.22
553.373	80097.18
553.717	80096.4
554.061	80094.29
554.405	80093.18
554.748	80092.22
555.092	80090.81
555.436	80092.77
555.779	80092.07
556.123	80090.55
556.466	80092.07
556.81	80094.18
557.153	80093.88
557.496	80093.33
557.839	80094.47
558.183	80094.07
558.526	80094.33
558.869	80093.25
559.212	80093.03
559.555	80093.77
559.898	80094.33
560.241	80094.84
560.584	80094.55
560.927	80096.03
561.269	80097.84
561.612	80100.03
561.955	80101.1
562.297	80099.43
562.64	80100.73
562.983	80103.43
563.325	80105.69
563.668	80105.73
564.01	80104.77
564.352	80104.1
564.695	80104.65
565.037	80104.95
565.379	80105.02
565.721	80105.95
566.063	80106.47
566.406	80106.47
566.748	80105.1
567.09	80103.65
567.431	80104.84
567.773	80103.36
568.115	80101.21
568.457	80100.43
568.799	80099.21
569.14	80097.62
569.482	80097.36
569.824	80095.88
570.165	80094.4
570.507	80091.22
570.848	80089.51
571.19	80089.59
571.531	80088.66
571.872	80087.89
572.214	80086.04
572.555	80085.67
572.896	80085
573.237	80083.89
573.578	80082.48
573.919	80083.22
574.26	80083.67
574.601	80084.22
574.942	80082.59
575.283	80082.56
575.624	80082.3
575.964	80082.63
576.305	80081.71
576.646	80080.86
576.986	80080.26
577.327	80080.23
577.667	80081.74
578.008	80082.59
578.348	80082.96
578.689	80084.15
579.029	80083.74
579.369	80085.11
579.71	80085.93
580.05	80085.37
580.39	80085.19
580.73	80084.52
581.07	80084
581.41	80083.93
581.75	80081.26
582.09	80082.78
582.43	80082.78
582.769	80083.19
583.109	80080.45
583.449	80081.45
583.789	80082.85
584.128	80082.63
584.468	80082.22
584.807	80081.93
585.147	80079.49
585.486	80079.15
585.825	80079.71
586.165	80081.52
586.504	80080.26
586.843	80079.12
587.182	80079.41
587.522	80079.63
587.861	80080.45
588.2	80077.78
588.539	80078.04
588.878	80079.04
589.216	80076.53
589.555	80075.6
589.894	80074.42
590.233	80076.53
590.572	80075.68
590.91	80076.23
591.249	80076.56
591.587	80076.64
591.926	80076.05
592.264	80078.34
592.603	80079.15
592.941	80078.41
593.279	80076.75
593.618	80075.68
593.956	80075.27
594.294	80074.97
594.632	80075.16
594.97	80075.9
595.308	80078.45
595.646	80079.12
595.984	80077.53
596.322	80080.08
596.66	80081.34
596.998	80081.63
597.335	80081.37
597.673	80082.45
598.011	80081.11
598.348	80080.41
598.686	80080.26
599.023	80081.41
599.361	80080.48
599.698	80079.56
600.035	80078.97
600.373	80079.34
600.71	80081
601.047	80080.45
601.384	80080.71
601.722	80080.89
602.059	80079.34
602.396	80078.41
602.733	80076.01
603.069	80076.86
603.406	80076.6
603.743	80075.49
604.08	80075.56
604.417	80075.75
604.753	80075.53
605.09	80075.56
605.426	80076.45
605.763	80076.15
606.099	80074.78
606.436	80074.16
606.772	80072.23
607.109	80073.6
607.445	80071.79
607.781	80073.38
608.117	80072.94
608.453	80073.05
608.79	80072.42
609.126	80072.57
609.462	80072.09
609.798	80072.53
610.133	80072.09
610.469	80071.01
610.805	80071.83
611.141	80072.01
611.477	80070.86
611.812	80070.94
612.148	80070.64
612.483	80068.39
612.819	80067.46
613.154	80067.09
613.49	80065.76
613.825	80066.09
614.16	80064.76
614.496	80065.28
614.831	80062.32
615.166	80061.1
615.501	80060.47
615.836	80060.47
616.171	80060.62
616.506	80061.95
616.841	80062.1
617.176	80061.17
617.511	80061.02
617.846	80060.8
618.18	80059.62
618.515	80058.99
618.85	80059.14
619.184	80057.88
619.519	80058.73
619.853	80058.14
620.188	80057.21
620.522	80058.1
620.856	80058.65
621.191	80057.69
621.525	80058.29
621.859	80058.36
622.193	80060.62
622.527	80060.58
622.861	80061.5
623.195	80061.5
623.529	80061.76
623.863	80059.28
624.197	80058.62
624.531	80058.21
624.865	80057.4
625.198	80057.69
625.532	80057.43
625.866	80055.33
626.199	80057.99
626.533	80057.55
626.866	80058.88
627.2	80059.54
627.533	80058.32
627.866	80057.4
628.2	80055.81
628.533	80053.26
628.866	80052.59
629.199	80052.11
629.532	80051.56
629.865	80051.15
630.198	80049.34
630.531	80047.38
630.864	80047.82
631.197	80048.78
631.529	80047.89
631.862	80047.38
632.195	80046.89
632.527	80046.82
632.86	80049.04
633.193	80048.04
633.525	80048.04
633.857	80046.15
634.19	80044.93
634.522	80044.71
634.854	80045.27
635.187	80047.15
635.519	80048.45
635.851	80049.56
636.183	80048.85
636.515	80048.93
636.847	80047.97
637.179	80047.85
637.511	80048.52
637.843	80049.33
638.174	80047.67
638.506	80047.48
638.838	80049.15
639.17	80048.78
639.501	80049.33
639.833	80047.56
640.164	80046.6
640.496	80045.49
640.827	80046.89
641.158	80048.19
641.49	80050.33
641.821	80050.78
642.152	80050.41
642.483	80050.78
642.814	80050.07
643.145	80049.37
643.476	80048.41
643.807	80047.78
644.138	80049.56
644.469	80049.41
644.8	80049.19
645.131	80049.7
645.461	80051.26
645.792	80049.74
646.122	80050
646.453	80049.37
646.784	80048.33
647.114	80047.85
647.444	80048.45
647.775	80048.85
648.105	80047.52
648.435	80045.41
648.765	80044.53
649.096	80044.38
649.426	80045.08
649.756	80044.56
650.086	80044.53
650.416	80043.97
650.746	80041.97
651.075	80039.31
651.405	80038.39
651.735	80036.1
652.065	80036.13
652.394	80035.76
652.724	80036.28
653.054	80035.73
653.383	80035.76
653.712	80035.73
654.042	80035.69
654.371	80036.65
654.701	80033.43
655.03	80034.14
655.359	80036.24
655.688	80036.8
656.017	80036.47
656.346	80035.5
656.675	80035.36
657.004	80035.13
657.333	80037.09
657.662	80039.46
657.991	80039.68
658.32	80039.13
658.648	80042.31
658.977	80043.12
659.306	80043.08
659.634	80042.16
659.963	80042.38
660.291	80040.75
660.619	80040.79
660.948	80040.31
661.276	80039.35
661.604	80040.27
661.933	80041.46
662.261	80041.09
662.589	80038.76
662.917	80038.91
663.245	80038.31
663.573	80037.91
663.901	80038.46
664.229	80036.72
664.556	80035.95
664.884	80036.83
665.212	80036.83
665.539	80034.91
665.867	80034.02
666.195	80031.81
666.522	80031.81
666.85	80030.81
667.177	80031.18
667.504	80031.73
667.832	80032.03
668.159	80031.99
668.486	80031.03
668.813	80027.7
669.14	80026.11
669.467	80027.74
669.794	80027.15
670.121	80025.15
670.448	80025.59
670.775	80024.48
671.102	80023.93
671.429	80022.49
671.755	80022.12
672.082	80022.52
672.409	80022.49
672.735	80022.38
673.062	80023.63
673.388	80023.49
673.714	80023.49
674.041	80023.45
674.367	80024.04
674.693	80023.93
675.019	80023.23
675.346	80023.12
675.672	80022.19
675.998	80022.49
676.324	80021.3
676.65	80020.57
676.976	80021.08
677.301	80020.75
677.627	80021.19
677.953	80021.56
678.279	80022.56
678.604	80022.6
678.93	80023.12
679.255	80020.68
679.581	80020.01
679.906	80020.57
680.232	80019.57
680.557	80018.94
680.882	80019.79
681.208	80018.72
681.533	80017.17
681.858	80016.24
682.183	80016.61
682.508	80017.76
682.833	80015.83
683.158	80014.39
683.483	80014.87
683.808	80014.25
684.132	80012.84
684.457	80011.55
684.782	80011.77
685.106	80009.77
685.431	80008.81
685.755	80006.7
686.08	80008.55
686.404	80008.22
686.729	80006.11
687.053	80004.23
687.377	80004.71
687.701	80003.12
688.026	80001.42
688.35	80001.79
688.674	80000.35
688.998	79998.94
689.322	79998.09
689.646	79998.57
689.97	79998.54
690.293	79996.73
690.617	79996.36
690.941	79995.06
691.264	79993.03
691.588	79992.81
691.912	79992.77
692.235	79992.48
692.559	79991.92
692.882	79990.33
693.205	79989.45
693.529	79988.15
693.852	79987.93
694.175	79984.2
694.498	79981.39
694.821	79979.1
695.144	79975.45
695.467	79972.9
695.79	79969.95
696.113	79966.62
696.436	79962.67
696.759	79958.83
697.082	79954.51
697.404	79949.79
697.727	79943.18
698.049	79937.35
698.372	79925.84
698.694	79914.41
699.017	79901.95
699.339	79888.79
699.662	79874.09
699.984	79851.5
700.306	79827.89
700.628	79790.98
700.95	79744.9
701.272	79687.72
701.594	79623.26
701.916	79559.86
702.238	79482.81
702.56	79361.54
702.882	79233.14
703.204	79110.47
703.525	78966.15
703.847	78775.2
704.169	78595.04
704.49	78404.2
704.812	78207.36
705.133	78003.67
705.455	77801.02
705.776	77569.51
706.097	77356.18
706.419	77126.57
706.74	76877.62
707.061	76612.61
707.382	76322.48
707.703	76022.48
708.024	75742.71
708.345	75443.93
708.666	75131.44
708.987	74812.8
709.307	74539.3
709.628	74222.11
709.949	73901.36
710.27	73582.35
710.59	73323.06
710.911	73022
711.231	72716.71
711.552	72433.98
711.872	72095.44
712.192	71805.15
712.512	71535.97
712.833	71255.55
713.153	70968.05
713.473	70733.07
713.793	70497.3
714.113	70284.03
714.433	70082.99
714.753	69870.7
715.073	69671.8
715.393	69464.2
715.712	69291.91
716.032	69071.2
716.352	68904.06
716.671	68735.26
716.991	68561.48
717.31	68353.69
717.63	68189.76
717.949	68004.42
718.268	67792.47
718.588	67618.05
718.907	67384.88
719.226	67134.1
719.545	66875.63
719.864	66596.37
720.183	66312.69
720.502	66021.31
720.821	65732.12
721.14	65446.71
721.459	65129.64
721.778	64848.93
722.096	64524.36
722.415	64211.15
722.734	63935.12
723.052	63640.08
723.371	63342.66
723.689	63062.48
724.008	62776.99
724.326	62480.35
724.644	62214.38
724.963	61940.42
725.281	61712.58
725.599	61480.63
725.917	61277.76
726.235	61082.86
726.553	60928.88
726.871	60735.55
727.189	60534.39
727.507	60341.38
727.824	60175.34
728.142	60040.11
728.46	59845.39
728.777	59739.32
729.095	59606.49
729.413	59458.08
729.73	59319.14
730.047	59187.52
730.365	59073.69
730.682	58966.41
730.999	58874.28
731.317	58801.84
731.634	58722.21
731.951	58605.69
732.268	58483.07
732.585	58337.78
732.902	58176.38
733.219	58016.14
733.536	57839.55
733.852	57717.13
734.169	57582.65
734.486	57430.93
734.802	57270.84
735.119	57153.79
735.435	56980.9
735.752	56824.08
736.068	56652.88
736.385	56483.02
736.701	56292.22
737.017	56059.99
737.333	55817.39
737.65	55510.86
737.966	55128.83
738.282	54734.65
738.598	54323.99
738.914	53868.24
739.23	53383.18
739.545	52856.64
739.861	52307.71
740.177	51765.6
740.493	51166.31
740.808	50590.17
741.124	49988.04
741.439	49405.07
741.755	48829.66
742.07	48309.36
742.386	47745.38
742.701	47246.51
743.016	46753.14
743.331	46279.56
743.647	45854.56
743.962	45465.75
744.277	45125.77
744.592	44849.96
744.907	44628.46
745.222	44459.64
745.537	44370.05
745.851	44338.1
746.166	44358.34
746.481	44413.03
746.795	44523.95
747.11	44684.71
747.424	44856.76
747.739	45023.74
748.053	45202.99
748.368	45356.92
748.682	45461.21
748.996	45596.71
749.311	45690.61
749.625	45792.77
749.939	45888.38
750.253	45944.43
750.567	46009.35
750.881	46063.54
751.195	46122.47
751.509	46190.52
751.822	46238.53
752.136	46284.4
752.45	46339.79
752.763	46409.96
753.077	46464.25
753.39	46496.9
753.704	46518.91
754.017	46535.68
754.331	46564.55
754.644	46568.39
754.957	46584.39
755.27	46598.09
755.584	46610.01
755.897	46628.98
756.21	46615.16
756.523	46600.38
756.836	46580.27
757.149	46501.44
757.461	46436.81
757.774	46354.01
758.087	46230.19
758.4	46097.4
758.712	45941.21
759.025	45778.74
759.337	45624.52
759.65	45463.61
759.962	45310
760.275	45151.68
760.587	45010.55
760.899	44869.39
761.211	44771.97
761.523	44691.74
761.836	44692.72
762.148	44687.49
762.46	44710.71
762.772	44778.62
763.083	44908.28
763.395	45050.81
763.707	45273.2
764.019	45501.26
764.33	45733.65
764.642	45990.93
764.954	46258.97
765.265	46543.85
765.577	46809.19
765.888	47046.55
766.199	47290.64
766.511	47506.4
766.822	47725.62
767.133	47903.34
767.444	48070.87
767.755	48167.04
768.066	48224.06
768.377	48214.63
768.688	48158.79
768.999	48072.97
769.31	47950.42
769.621	47755.47
769.931	47535.95
770.242	47278.87
770.553	46977.24
770.863	46641.21
771.174	46282.25
771.484	45893.81
771.794	45489.68
772.105	45084.96
772.415	44659.92
772.725	44203.49
773.035	43758.79
773.345	43302.98
773.656	42836.35
773.966	42369.92
774.276	41938.56
774.585	41500.95
774.895	41056.59
775.205	40672.54
775.515	40274.44
775.824	39878.31
776.134	39495.87
776.444	39137.33
776.753	38772.42
777.063	38430.42
777.372	38102.98
777.681	37780.35
777.991	37475.01
778.3	37164.45
778.609	36856.53
778.918	36568.86
779.228	36311.66
779.537	36050.03
779.846	35783.56
780.154	35536.75
780.463	35297.32
780.772	35048.35
781.081	34826.2
781.39	34631.17
781.698	34411.38
782.007	34206.61
782.316	33996
782.624	33774.4
782.932	33568.45
783.241	33367.73
783.549	33169.54
783.858	33000.06
784.166	32832.77
784.474	32657.45
784.782	32496.29
785.09	32336.05
785.398	32189.02
785.706	32050.78
786.014	31908.04
786.322	31767.16
786.63	31631.2
786.937	31503.17
787.245	31380.02
787.553	31249.36
787.86	31137.36
788.168	31019.63
788.475	30911.95
788.783	30816.97
789.09	30727.69
789.398	30627.08
789.705	30530.21
790.012	30430.7
790.319	30322.74
790.626	30219.6
790.933	30128.64
791.24	30039.59
791.547	29953.05
791.854	29863.42
792.161	29758.24
792.468	29653.59
792.774	29560.28
793.081	29471.21
793.388	29385.74
793.694	29288.98
794.001	29202.73
794.307	29079.15
794.614	28972.42
794.92	28841.68
795.226	28716.2
795.533	28601.69
795.839	28503.66
796.145	28388.43
796.451	28277.4
796.757	28176.73
797.063	28068.86
797.369	27957.91
797.675	27853.23
797.98	27749.88
798.286	27624.79
798.592	27519.16
798.898	27410.5
799.203	27297.08
799.509	27179.06
799.814	27051.2
800.12	26946.79
800.425	26832.84
800.73	26720.42
801.035	26602.42
801.341	26502.58
801.646	26403.32
801.951	26303.91
802.256	26204.25
802.561	26104.67
802.866	26010.62
803.171	25919.53
803.476	25821.39
803.78	25724.57
804.085	25621.58
804.39	25500.64
804.694	25405.31
804.999	25312.03
805.303	25217.63
805.608	25136.06
805.912	25048.35
806.216	24982.86
806.521	24910
806.825	24831.98
807.129	24757.47
807.433	24681.22
807.737	24612.72
808.041	24546.02
808.345	24487.66
808.649	24427.2
808.953	24380.71
809.257	24324.13
809.561	24262.72
809.864	24209.73
810.168	24177.81
810.471	24149.38
810.775	24131.11
811.078	24109.14
811.382	24080.05
811.685	24079.16
811.988	24064.83
812.292	24055.61
812.595	24047.56
812.898	24047.14
813.201	24058.53
813.504	24084.98
813.807	24120.45
814.11	24153.96
814.413	24183.27
814.716	24207.17
815.018	24246.76
815.321	24304.1
815.624	24389.45
815.926	24494.54
816.229	24624.61
816.531	24764.62
816.834	24922.53
817.136	25114.91
817.438	25327.09
817.74	25595.15
818.043	25900.4
818.345	26279.79
818.647	26740.2
818.949	27285.62
819.251	27918.14
819.553	28663.7
819.855	29527.65
820.156	30496.75
820.458	31573.63
820.76	32735.28
821.062	33951.66
821.363	35219.27
821.665	36556.05
821.966	37987.95
822.268	39438.3
822.569	40888.65
822.87	42369.43
823.171	43865.16
823.473	45401.93
823.774	46988.21
824.075	48514.54
824.376	50021.56
824.677	51494.84
824.978	52881.64
825.279	54184.1
825.58	55363.68
825.88	56405.92
826.181	57304.21
826.482	58090.64
826.782	58714.9
827.083	59234.14
827.383	59618.58
827.684	59841.56
827.984	59922.2
828.284	59836.53
828.585	59611.94
828.885	59311.67
829.185	58855.57
829.485	58293.91
829.785	57623.98
830.085	56788.02
830.385	55921.17
830.685	54979.01
830.985	53929.52
831.285	52849.54
831.584	51724.9
831.884	50570.22
832.183	49397.3
832.483	48181.85
832.782	46903.69
833.082	45624.92
833.381	44336.36
833.681	43101.62
833.98	41931.87
834.279	40789.2
834.578	39680.18
834.877	38639.58
835.176	37628.35
835.475	36695.4
835.774	35808
836.073	34931.4
836.372	34107.13
836.671	33289.47
836.969	32485.87
837.268	31740.79
837.567	31029.81
837.865	30336.48
838.164	29660.49
838.462	29003.53
838.761	28389.5
839.059	27807.64
839.357	27258.21
839.655	26729.59
839.953	26186.2
840.252	25656.38
840.55	25136.94
840.848	24624.79
841.146	24132.03
841.443	23627.11
841.741	23116.37
842.039	22608.08
842.337	22103.93
842.634	21639.69
842.932	21197.74
843.229	20772.24
843.527	20353.96
843.824	19906.61
844.122	19455.67
844.419	19027.47
844.716	18596.71
845.013	18182.9
845.311	17791.45
845.608	17412.57
845.905	17043.27
846.202	16682.91
846.499	16314.01
846.796	15951.95
847.092	15581.94
847.389	15215.1
847.686	14877.57
847.982	14563.63
848.279	14255.08
848.576	13965.82
848.872	13669.01
849.168	13375.69
849.465	13093.17
849.761	12799.31
850.057	12529.83
850.354	12269.54
850.65	12023.93
850.946	11796.09
851.242	11570.61
851.538	11350.38
851.834	11135.91
852.13	10921.1
852.425	10724.26
852.721	10543.09
853.017	10371.98
853.312	10220.11
853.608	10074.08
853.903	9935.72
854.199	9788.03
854.494	9656.22
854.79	9524.53
855.085	9391.69
855.38	9262.3
855.675	9132.45
855.971	9015.41
856.266	8912.77
856.561	8814.08
856.856	8717.16
857.151	8625.66
857.445	8528.82
857.74	8434.48
858.035	8340.39
858.33	8243.72
858.624	8157.26
858.919	8081.94
859.213	8000.03
859.508	7917.51
859.802	7827.98
860.096	7741.85
860.391	7678.74
860.685	7615.1
860.979	7557.37
861.273	7507.42
861.567	7451.55
861.861	7386.45
862.155	7331.75
862.449	7260.61
862.743	7197.95
863.037	7138.35
863.33	7081.21
863.624	7024.66
863.918	6977.72
864.211	6934.33
864.505	6902.15
864.798	6859.78
865.092	6810.67
865.385	6762.96
865.678	6711.23
865.971	6674.8
866.264	6643.16
866.558	6615.24
866.851	6583.31
867.144	6553.68
867.437	6524.46
867.729	6495.94
868.022	6474.89
868.315	6452.63
868.608	6440.62
868.9	6433.4
869.193	6412.08
869.485	6383.98
869.778	6360.99
870.07	6332.4
870.363	6311.27
870.655	6292.04
870.947	6285.57
871.239	6277.45
871.532	6277.04
871.824	6281.93
872.116	6282.57
872.408	6279.28
872.699	6263.28
872.991	6255.15
873.283	6246.54
873.575	6241.41
873.867	6247.31
874.158	6253.9
874.45	6251.95
874.741	6248.58
875.033	6245.92
875.324	6262.45
875.615	6286.04
875.907	6308.55
876.198	6325.54
876.489	6337.08
876.78	6342.41
877.071	6340.04
877.362	6341.94
877.653	6345.88
877.944	6352.78
878.235	6360.7
878.526	6368.5
878.816	6385.01
