Data from 24HourExp_27052025_FLMS018081_18-58-21-508.txt Node
Date: Tue May 27 18:58:21 BST 2025
User: adleo
Spectrometer: FLMS01808
Trigger mode: 0
Integration Time (sec): 4.000000E-1
Scans to average: 10
Electric dark correction enabled: true
Nonlinearity correction enabled: true
Boxcar width: 10
XAxis mode: Wavelengths
Number of Pixels in Spectrum: 2048
>>>>>Begin Spectral Data<<<<<
178.471	-130.9
178.857	-123.47
179.244	-115.68
179.631	-109.25
180.017	-100.72
180.404	-92.44
180.79	-80.8
181.176	-69.46
181.563	-61.09
181.949	-50.23
182.335	-40.41
182.722	-24.28
183.108	-4.83
183.494	23.25
183.88	76.88
184.266	129.83
184.653	187.09
185.039	241.14
185.425	297.33
185.811	352.05
186.197	404.28
186.582	454.21
186.968	506.31
187.354	558.46
187.74	611.13
188.126	662.24
188.511	713.05
188.897	760.93
189.283	806.7
189.668	853.22
190.054	896.55
190.439	943.68
190.825	987.16
191.21	1027.49
191.596	1060.26
191.981	1067.42
192.366	1071.54
192.752	1073.87
193.137	1077.77
193.522	1079.5
193.908	1081.09
194.293	1084.58
194.678	1087.7
195.063	1090.42
195.448	1092.96
195.833	1092.91
196.218	1093.06
196.603	1092.01
196.988	1092
197.373	1093.08
197.757	1093.96
198.142	1096.04
198.527	1092.15
198.912	1093.41
199.296	1093.31
199.681	1091.84
200.066	1092.06
200.45	1091.93
200.835	1091.46
201.219	1091.07
201.604	1091.26
201.988	1093.81
202.372	1094.95
202.757	1096.04
203.141	1097.38
203.525	1096.08
203.91	1096.47
204.294	1096.23
204.678	1096.84
205.062	1094.41
205.446	1092.98
205.83	1095.09
206.214	1094.48
206.598	1096.73
206.982	1096.83
207.366	1098.1
207.75	1098.25
208.134	1099.2
208.517	1102
208.901	1102.31
209.285	1103.84
209.669	1105.03
210.052	1105.55
210.436	1105.72
210.819	1105.48
211.203	1105.71
211.586	1105.83
211.97	1106.92
212.353	1107.18
212.737	1107.58
213.12	1112.12
213.503	1115.25
213.886	1114.84
214.27	1116.85
214.653	1118.49
215.036	1119.35
215.419	1121.32
215.802	1123.47
216.185	1125.43
216.568	1126.75
216.951	1128.36
217.334	1130.61
217.717	1134.51
218.1	1135.75
218.482	1140.75
218.865	1145.07
219.248	1149.34
219.631	1155.1
220.013	1160.83
220.396	1167.77
220.778	1174.57
221.161	1179.22
221.544	1185.59
221.926	1193.54
222.308	1200.81
222.691	1206.62
223.073	1215.04
223.455	1222.6
223.838	1233.22
224.22	1242.7
224.602	1253.95
224.984	1265.76
225.366	1278.05
225.749	1292.08
226.131	1306.72
226.513	1319.01
226.895	1332.75
227.276	1344.26
227.658	1358.92
228.04	1374.46
228.422	1390.49
228.804	1408.11
229.186	1425.19
229.567	1441.99
229.949	1459.46
230.331	1475.28
230.712	1494.31
231.094	1513.84
231.475	1533.96
231.857	1553.8
232.238	1573.15
232.62	1593.27
233.001	1613.67
233.382	1634.4
233.763	1652.59
234.145	1671.37
234.526	1692.1
234.907	1711.3
235.288	1733.53
235.669	1753.32
236.05	1773.18
236.431	1794.04
236.812	1814.42
237.193	1836.29
237.574	1858.1
237.955	1882.13
238.336	1907.79
238.717	1929.96
239.097	1954.34
239.478	1977.32
239.859	2001.44
240.239	2027.42
240.62	2052.34
241.001	2077.09
241.381	2101.62
241.762	2127.26
242.142	2152.43
242.522	2177.61
242.903	2204.54
243.283	2232.63
243.663	2261.18
244.044	2292.48
244.424	2322.4
244.804	2348.48
245.184	2378.34
245.564	2408.45
245.944	2438.72
246.324	2468.3
246.704	2503.11
247.084	2532.45
247.464	2566.04
247.844	2595.75
248.224	2625.98
248.604	2656.06
248.983	2687.23
249.363	2720.92
249.743	2751.65
250.122	2783.21
250.502	2815.05
250.882	2848.02
251.261	2881.19
251.641	2916.83
252.02	2948.86
252.399	2983.91
252.779	3023.18
253.158	3061
253.537	3101.7
253.917	3145.66
254.296	3184.3
254.675	3224.65
255.054	3265.44
255.433	3306.61
255.812	3349.68
256.191	3393.4
256.57	3438.65
256.949	3485.2
257.328	3530.69
257.707	3578.81
258.086	3628.86
258.465	3679.92
258.843	3735.11
259.222	3788.64
259.601	3842.19
259.979	3898.1
260.358	3952.14
260.736	4008.56
261.115	4064.24
261.493	4118.01
261.872	4170.34
262.25	4230.36
262.629	4287.37
263.007	4349.35
263.385	4411.54
263.763	4478.52
264.142	4544.6
264.52	4609.5
264.898	4675.7
265.276	4743.41
265.654	4814.86
266.032	4886.58
266.41	4960.63
266.788	5034.72
267.166	5108.64
267.544	5185.72
267.921	5265.47
268.299	5347.27
268.677	5431.45
269.055	5516.5
269.432	5604.32
269.81	5693.74
270.188	5785.88
270.565	5877.77
270.943	5971.86
271.32	6066.59
271.697	6161.33
272.075	6257.75
272.452	6355.93
272.829	6454.88
273.207	6556.92
273.584	6660.82
273.961	6767.35
274.338	6880.83
274.715	6998.31
275.092	7120.73
275.469	7242.32
275.846	7363.21
276.223	7485.8
276.6	7606.25
276.977	7734.67
277.354	7861.01
277.731	7987.75
278.108	8119.88
278.484	8251.18
278.861	8383.89
279.238	8524.32
279.614	8663.26
279.991	8803.7
280.367	8950.22
280.744	9103.99
281.12	9255.54
281.497	9403.9
281.873	9555.49
282.249	9705.16
282.625	9851.65
283.002	9998.22
283.378	10149.03
283.754	10301.62
284.13	10459.72
284.506	10618.5
284.882	10773.38
285.258	10931.03
285.634	11090.38
286.01	11249.42
286.386	11412.33
286.762	11578.78
287.138	11742.08
287.513	11906.24
287.889	12071.13
288.265	12235.58
288.641	12394.35
289.016	12556.3
289.392	12717.59
289.767	12883.28
290.143	13045.98
290.518	13206.94
290.894	13369.87
291.269	13524.37
291.644	13684.49
292.02	13837.99
292.395	13991.94
292.77	14151.07
293.145	14303.78
293.52	14457.44
293.895	14608.74
294.27	14762.01
294.646	14914.75
295.02	15059.75
295.395	15215.59
295.77	15372.06
296.145	15525.01
296.52	15680.03
296.895	15834.99
297.269	15997.66
297.644	16151.26
298.019	16306.02
298.393	16461.2
298.768	16614.05
299.143	16773.2
299.517	16927.55
299.891	17088.54
300.266	17251.91
300.64	17412.25
301.015	17581.96
301.389	17753.44
301.763	17932.75
302.137	18105.94
302.512	18290.36
302.886	18473.87
303.26	18659.78
303.634	18837.33
304.008	19017.85
304.382	19200.73
304.756	19388.44
305.13	19575.56
305.504	19762.43
305.877	19957.17
306.251	20167.82
306.625	20379.42
306.999	20596.63
307.372	20808.97
307.746	21027.49
308.119	21244.29
308.493	21461.36
308.866	21675.19
309.24	21893.53
309.613	22098.76
309.987	22311.27
310.36	22505.71
310.733	22715.72
311.107	22931.49
311.48	23156.9
311.853	23386.81
312.226	23618.38
312.599	23848.29
312.972	24075.08
313.345	24301.03
313.718	24531.44
314.091	24747.52
314.464	24975.59
314.837	25194.66
315.21	25411.75
315.582	25626.29
315.955	25835.48
316.328	26047.55
316.7	26272.86
317.073	26495.19
317.446	26718.11
317.818	26950.3
318.191	27187.36
318.563	27417.92
318.936	27631.75
319.308	27834.01
319.68	28049.25
320.053	28242.32
320.425	28425.48
320.797	28607.55
321.169	28780.54
321.541	28928.27
321.913	29064.77
322.285	29178.59
322.657	29308.49
323.029	29457.29
323.401	29601.63
323.773	29774.53
324.145	29956.57
324.517	30141.62
324.889	30318.73
325.26	30522.71
325.632	30738.69
326.004	30979.1
326.375	31239.86
326.747	31515.2
327.118	31826.3
327.49	32105.3
327.861	32429.65
328.233	32750.22
328.604	33059.96
328.975	33374.53
329.346	33691.43
329.718	34003.95
330.089	34317.86
330.46	34612.41
330.831	34887.03
331.202	35157.49
331.573	35404.23
331.944	35632.27
332.315	35855.9
332.686	36076.78
333.057	36282.81
333.428	36467.03
333.799	36633.02
334.169	36781.64
334.54	36925.75
334.911	37042.71
335.281	37178.62
335.652	37294.97
336.022	37428.78
336.393	37584.63
336.763	37757.51
337.134	37944.01
337.504	38141.58
337.874	38344.65
338.245	38558.72
338.615	38777.76
338.985	39002.71
339.355	39224.23
339.726	39454.16
340.096	39683.09
340.466	39937.37
340.836	40180.99
341.206	40428.46
341.576	40681.09
341.945	40930.37
342.315	41162.64
342.685	41410.47
343.055	41656.57
343.425	41901.17
343.794	42141.43
344.164	42375.03
344.533	42607.39
344.903	42838.67
345.273	43077.34
345.642	43304.76
346.011	43533.28
346.381	43773.88
346.75	44007.77
347.12	44258.92
347.489	44506.25
347.858	44742.86
348.227	44958.47
348.596	45183.06
348.965	45417.61
349.334	45648.9
349.704	45885.07
350.072	46135.78
350.441	46371.99
350.81	46613.83
351.179	46847.38
351.548	47079.24
351.917	47297
352.285	47493.54
352.654	47701.54
353.023	47908.69
353.391	48112.46
353.76	48325.95
354.129	48513.22
354.497	48744.56
354.865	48964.76
355.234	49203.58
355.602	49429.46
355.971	49673.21
356.339	49889.75
356.707	50102.73
357.075	50318.41
357.443	50543.75
357.811	50749.35
358.18	50961.67
358.548	51174.76
358.916	51386.02
359.284	51603.03
359.651	51826.98
360.019	52045.44
360.387	52245.37
360.755	52450.27
361.123	52680.46
361.49	52904.53
361.858	53121.38
362.226	53316.34
362.593	53516.78
362.961	53691.18
363.328	53900.68
363.696	54067.46
364.063	54284.68
364.43	54498.29
364.798	54709.98
365.165	54888.69
365.532	55078.53
365.899	55265.27
366.267	55438.98
366.634	55588.43
367.001	55753.55
367.368	55888.95
367.735	56072.43
368.102	56257.92
368.469	56450.38
368.835	56631.88
369.202	56795.4
369.569	56995.58
369.936	57186.87
370.303	57373.19
370.669	57579.05
371.036	57740.65
371.402	57949.74
371.769	58134.76
372.135	58292.77
372.502	58421.73
372.868	58561.49
373.235	58703.1
373.601	58837.56
373.967	59010.49
374.333	59198.51
374.7	59380.53
375.066	59589.16
375.432	59779.3
375.798	59958.32
376.164	60131.03
376.53	60273.56
376.896	60447.96
377.262	60613.81
377.628	60749.41
377.993	60900.7
378.359	61047.57
378.725	61207.73
379.091	61363.64
379.456	61497.17
379.822	61625.52
380.187	61775.04
380.553	61965.96
380.918	62166.8
381.284	62350.26
381.649	62519.93
382.015	62660.06
382.38	62781.73
382.745	62952.68
383.11	63101.66
383.476	63241.12
383.841	63371.65
384.206	63539.74
384.571	63652.13
384.936	63788.86
385.301	63961.89
385.666	64098.05
386.031	64247.98
386.396	64417.72
386.76	64562.21
387.125	64752.72
387.49	64961.96
387.855	65161.13
388.219	65333.35
388.584	65507.56
388.948	65708.16
389.313	65870.71
389.677	66081.27
390.042	66321.39
390.406	66472.08
390.771	66662.72
391.135	66859.03
391.499	67094.5
391.863	67326.32
392.227	67584.94
392.592	67787.87
392.956	67989.69
393.32	68197.73
393.684	68421.77
394.048	68593.32
394.412	68782.62
394.775	68934.43
395.139	69079.36
395.503	69244.37
395.867	69393.19
396.231	69538.58
396.594	69636.43
396.958	69779.15
397.321	69940.83
397.685	70067.92
398.048	70218.54
398.412	70357.65
398.775	70482.3
399.139	70604.59
399.502	70716.33
399.865	70856.81
400.228	71059.89
400.592	71189.93
400.955	71383
401.318	71510.43
401.681	71675.9
402.044	71815.92
402.407	71974.5
402.77	72137.84
403.133	72327.23
403.496	72477.07
403.859	72640.27
404.221	72886.73
404.584	73121.97
404.947	73361.44
405.309	73573.38
405.672	73810.57
406.034	74038.83
406.397	74301.62
406.759	74534.29
407.122	74728.43
407.484	74901.14
407.847	75075.75
408.209	75329.17
408.571	75554.07
408.933	75814.89
409.296	76069.83
409.658	76323.72
410.02	76589.5
410.382	76874.22
410.744	77112.42
411.106	77390.27
411.468	77639.65
411.83	77845.89
412.191	78026.35
412.553	78173.43
412.915	78349.36
413.277	78515.38
413.638	78669.08
414	78803.35
414.361	78932.54
414.723	79106.23
415.084	79273.84
415.446	79398.74
415.807	79488.72
416.169	79553.15
416.53	79601.64
416.891	79654.73
417.252	79718.15
417.614	79754.71
417.975	79770.82
418.336	79788.44
418.697	79806.17
419.058	79822.92
419.419	79837.06
419.78	79850.39
420.141	79861.74
420.501	79871.44
420.862	79879.03
421.223	79884.96
421.584	79901.9
421.944	79911.71
422.305	79918.17
422.666	79920.46
423.026	79921.9
423.387	79930.38
423.747	79935.07
424.107	79942.41
424.468	79947.69
424.828	79952.68
425.188	79955.41
425.549	79959.69
425.909	79963.31
426.269	79961.69
426.629	79964.01
426.989	79967.52
427.349	79970.59
427.709	79972.58
428.069	79972.84
428.429	79977.75
428.789	79981.67
429.149	79984.81
429.508	79988.4
429.868	79992.98
430.228	79995.2
430.587	79998.3
430.947	80000.85
431.306	80004.06
431.666	80004.99
432.025	80005.51
432.385	80006.21
432.744	80006.8
433.103	80008.68
433.463	80011.9
433.822	80017.11
434.181	80020.06
434.54	80019.8
434.899	80022.13
435.258	80024.46
435.618	80026.12
435.976	80027.6
436.335	80028.27
436.694	80028.86
437.053	80027.82
437.412	80026.27
437.771	80028.56
438.129	80028.82
438.488	80028.93
438.847	80030.01
439.205	80028.42
439.564	80031.19
439.922	80031
440.281	80032.85
440.639	80033.26
440.997	80032.78
441.356	80035.81
441.714	80035.99
442.072	80036.92
442.431	80036.7
442.789	80036.62
443.147	80038.07
443.505	80040.58
443.863	80039.58
444.221	80038.88
444.579	80038.77
444.937	80038.33
445.294	80039.14
445.652	80038.92
446.01	80039.77
446.368	80038.4
446.725	80039.84
447.083	80039.62
447.441	80040.43
447.798	80039.32
448.156	80040.03
448.513	80039.29
448.87	80038.32
449.228	80039.21
449.585	80037.96
449.942	80037.96
450.3	80037.73
450.657	80036.07
451.014	80033.26
451.371	80034.59
451.728	80035.37
452.085	80036.92
452.442	80038.07
452.799	80038.55
453.156	80040.8
453.513	80040.91
453.869	80043.39
454.226	80043.35
454.583	80044.35
454.939	80043.8
455.296	80043.98
455.653	80042.62
456.009	80043.84
456.366	80044.35
456.722	80045.02
457.078	80047.05
457.435	80048.16
457.791	80048.9
458.147	80051.64
458.503	80052.56
458.86	80053.89
459.216	80053.97
459.572	80053.01
459.928	80053.67
460.284	80053.19
460.64	80052.53
460.996	80052.42
461.351	80050.27
461.707	80050.86
462.063	80048.27
462.419	80049.16
462.774	80049.53
463.13	80051.31
463.486	80051.08
463.841	80052.12
464.197	80050.16
464.552	80050.79
464.908	80050.64
465.263	80050.86
465.618	80051.16
465.974	80052.53
466.329	80050.86
466.684	80051.82
467.039	80051.75
467.394	80051.79
467.749	80052.08
468.104	80053.16
468.459	80054.56
468.814	80057.78
469.169	80058.26
469.524	80061.52
469.879	80063.77
470.233	80064.44
470.588	80064.73
470.943	80065.33
471.297	80066.95
471.652	80068.95
472.006	80068.03
472.361	80069.47
472.715	80070.36
473.07	80069.95
473.424	80068.21
473.778	80070.62
474.133	80071.39
474.487	80073.39
474.841	80074.39
475.195	80074.39
475.549	80073.58
475.903	80071.69
476.257	80070.84
476.611	80072.58
476.965	80072.36
477.319	80072.58
477.673	80072.73
478.026	80074.02
478.38	80074.91
478.734	80072.65
479.087	80072.73
479.441	80074.5
479.795	80073.13
480.148	80073.02
480.502	80073.84
480.855	80076.72
481.208	80076.72
481.562	80076.09
481.915	80075.94
482.268	80076.72
482.621	80077.98
482.974	80079.35
483.328	80082.16
483.681	80082.9
484.034	80082.35
484.387	80081.72
484.739	80080.72
485.092	80081.57
485.445	80082.35
485.798	80082.38
486.151	80083.57
486.503	80083.46
486.856	80083.64
487.209	80085.71
487.561	80087.05
487.914	80087.45
488.266	80085.97
488.618	80086.53
488.971	80086.71
489.323	80086.75
489.675	80086.68
490.028	80086.19
490.38	80085.86
490.732	80084.12
491.084	80083.79
491.436	80085.34
491.788	80086.6
492.14	80087.16
492.492	80087.12
492.844	80087.71
493.196	80088.45
493.548	80089.19
493.899	80090.04
494.251	80088.64
494.603	80088.05
494.954	80087.16
495.306	80086.45
495.657	80087.27
496.009	80087.34
496.36	80087.01
496.712	80088.49
497.063	80089.04
497.414	80090.19
497.765	80091.89
498.117	80092.93
498.468	80092.52
498.819	80091.71
499.17	80091.15
499.521	80090.16
499.872	80090.38
500.223	80089.08
500.574	80087.97
500.924	80087.27
501.275	80087.53
501.626	80088.82
501.977	80089.19
502.327	80088.9
502.678	80090.12
503.029	80090.23
503.379	80089.56
503.73	80090.01
504.08	80087.79
504.43	80085.34
504.781	80084.64
505.131	80083.68
505.481	80083.97
505.831	80084.23
506.182	80084.01
506.532	80084.6
506.882	80086.19
507.232	80085.75
507.582	80086.12
507.932	80087.45
508.281	80086.53
508.631	80087.53
508.981	80087.97
509.331	80089.71
509.681	80089.97
510.03	80088.53
510.38	80088.23
510.729	80088.19
511.079	80088.27
511.428	80087.64
511.778	80089.97
512.127	80089.97
512.476	80089.64
512.826	80089.56
513.175	80090.01
513.524	80089.56
513.873	80089.93
514.222	80088.6
514.571	80088.97
514.92	80088.97
515.269	80088.08
515.618	80089.75
515.967	80088.53
516.316	80088.05
516.665	80086.12
517.014	80086.27
517.362	80087.97
517.711	80087.12
518.059	80086.93
518.408	80087.97
518.757	80088.97
519.105	80088.86
519.453	80089.52
519.802	80090.71
520.15	80090.78
520.498	80091.34
520.847	80091.26
521.195	80089.23
521.543	80089.67
521.891	80089.53
522.239	80090.19
522.587	80089.45
522.935	80088.27
523.283	80086.97
523.631	80086.2
523.979	80086.01
524.326	80086.2
524.674	80084.01
525.022	80083.97
525.369	80083.57
525.717	80082.94
526.064	80082.79
526.412	80082.72
526.759	80083.98
527.107	80083.16
527.454	80082.68
527.801	80081.01
528.149	80081.79
528.496	80083.49
528.843	80082.72
529.19	80082.75
529.537	80080.98
529.884	80081.38
530.231	80081.9
530.578	80082.57
530.925	80083.12
531.272	80083.68
531.619	80082.9
531.966	80084.6
532.312	80085.64
532.659	80086.82
533.006	80084.97
533.352	80086.01
533.699	80085.53
534.045	80083.27
534.392	80083.38
534.738	80083.23
535.084	80084.23
535.431	80084.2
535.777	80084.23
536.123	80084.94
536.469	80086.27
536.815	80086.93
537.161	80088.27
537.507	80088.49
537.853	80088.53
538.199	80088.23
538.545	80087.71
538.891	80088.34
539.237	80088.16
539.582	80089.08
539.928	80089.04
540.274	80091.08
540.619	80090.71
540.965	80090.34
541.31	80091.71
541.656	80090.19
542.001	80091.26
542.347	80092.19
542.692	80092.49
543.037	80091.67
543.382	80092.6
543.728	80091.63
544.073	80091.82
544.418	80090.97
544.763	80091.01
545.108	80090.64
545.453	80091.26
545.798	80091.19
546.142	80090.82
546.487	80091.26
546.832	80090.78
547.177	80090.67
547.521	80089.71
547.866	80090.67
548.211	80090.64
548.555	80090.01
548.9	80090.6
549.244	80089.97
549.588	80088.45
549.933	80088.9
550.277	80089.75
550.621	80088.3
550.965	80087.49
551.31	80087.27
551.654	80087.45
551.998	80088.49
552.342	80090.08
552.686	80090.56
553.03	80091.3
553.373	80092.38
553.717	80091.64
554.061	80090.49
554.405	80090.38
554.748	80090.71
555.092	80090.04
555.436	80089.78
555.779	80090.15
556.123	80091.89
556.466	80092.26
556.81	80092.26
557.153	80091.67
557.496	80091.6
557.839	80092.78
558.183	80094.04
558.526	80094.34
558.869	80092.67
559.212	80089.93
559.555	80089.12
559.898	80088.19
560.241	80087.68
560.584	80086.71
560.927	80087.31
561.269	80088.82
561.612	80089.16
561.955	80090.19
562.297	80090.38
562.64	80092.26
562.983	80092.04
563.325	80090.67
563.668	80091.97
564.01	80091.64
564.352	80090.6
564.695	80090.93
565.037	80090.56
565.379	80089.38
565.721	80089.38
566.063	80090.78
566.406	80092.08
566.748	80091.27
567.09	80090.01
567.431	80089.56
567.773	80089.49
568.115	80089.12
568.457	80088.05
568.799	80086.97
569.14	80087.45
569.482	80086.71
569.824	80085.08
570.165	80084.94
570.507	80084.64
570.848	80082.2
571.19	80082.86
571.531	80083.34
571.872	80083.09
572.214	80083.23
572.555	80084.01
572.896	80082.16
573.237	80082.79
573.578	80081.9
573.919	80081.49
574.26	80082.09
574.601	80082.09
574.942	80080.87
575.283	80078.65
575.624	80078.05
575.964	80077.05
576.305	80075.61
576.646	80076.76
576.986	80076.35
577.327	80076.17
577.667	80075.24
578.008	80075.76
578.348	80077.54
578.689	80076.87
579.029	80076.61
579.369	80075.61
579.71	80075.83
580.05	80076.65
580.39	80075.28
580.73	80076.13
581.07	80077.8
581.41	80078.79
581.75	80078.68
582.09	80079.42
582.43	80081.27
582.769	80083.72
583.109	80084.6
583.449	80084.6
583.789	80083.68
584.128	80084.6
584.468	80082.46
584.807	80083.57
585.147	80083.57
585.486	80082.94
585.825	80083.64
586.165	80084.05
586.504	80084.97
586.843	80083.75
587.182	80084.05
587.522	80084.46
587.861	80083.2
588.2	80080.72
588.539	80079.13
588.878	80078.98
589.216	80078.91
589.555	80078.57
589.894	80075.2
590.233	80074.21
590.572	80073.98
590.91	80074.65
591.249	80074.61
591.587	80076.06
591.926	80075.83
592.264	80074.17
592.603	80073.24
592.941	80071.87
593.279	80069.91
593.618	80070.32
593.956	80071.5
594.294	80072.02
594.632	80072.58
594.97	80074.06
595.308	80074.91
595.646	80077.17
595.984	80075.69
596.322	80075.54
596.66	80075.95
596.998	80076.91
597.335	80078.13
597.673	80078.91
598.011	80077.24
598.348	80077.35
598.686	80077.72
599.023	80078.57
599.361	80080.35
599.698	80079.61
600.035	80080.27
600.373	80081.72
600.71	80080.83
601.047	80079.87
601.384	80079.39
601.722	80078.61
602.059	80077.35
602.396	80077.72
602.733	80075.09
603.069	80076.72
603.406	80076.35
603.743	80076.54
604.08	80076.76
604.417	80076.31
604.753	80075.46
605.09	80074.72
605.426	80073.58
605.763	80073.95
606.099	80072.72
606.436	80070.5
606.772	80069.65
607.109	80069.58
607.445	80067.62
607.781	80067.14
608.117	80066.69
608.453	80066.55
608.79	80064.84
609.126	80064.73
609.462	80064.44
609.798	80064.92
610.133	80064.25
610.469	80064.1
610.805	80063.73
611.141	80062.62
611.477	80061.96
611.812	80061.59
612.148	80062.11
612.483	80062.55
612.819	80060.89
613.154	80060.77
613.49	80062.37
613.825	80062.18
614.16	80062.07
614.496	80062.25
614.831	80062.14
615.166	80062
615.501	80060.89
615.836	80062.18
616.171	80063.62
616.506	80062.7
616.841	80062.03
617.176	80062.81
617.511	80063.44
617.846	80061.96
618.18	80063.77
618.515	80064.22
618.85	80062.44
619.184	80061.77
619.519	80059.7
619.853	80060
620.188	80059.15
620.522	80058.15
620.856	80057.22
621.191	80056.78
621.525	80057.89
621.859	80058.26
622.193	80057.45
622.527	80057.34
622.861	80056.26
623.195	80054.71
623.529	80055.26
623.863	80057.22
624.197	80056.3
624.531	80056.97
624.865	80056.67
625.198	80055.71
625.532	80055.56
625.866	80057.52
626.199	80055.97
626.533	80056
626.866	80055.41
627.2	80054.82
627.533	80053.75
627.866	80055.26
628.2	80054.27
628.533	80052.38
628.866	80051.6
629.199	80051.27
629.532	80051.79
629.865	80053.08
630.198	80052.82
630.531	80051.49
630.864	80050.16
631.197	80048.16
631.529	80045.24
631.862	80046.46
632.195	80045.68
632.527	80044.61
632.86	80043.28
633.193	80044.13
633.525	80044.28
633.857	80045.87
634.19	80045.91
634.522	80045.98
634.854	80045.61
635.187	80047.05
635.519	80048.27
635.851	80048.05
636.183	80049.9
636.515	80049.23
636.847	80047.5
637.179	80047.05
637.511	80047.5
637.843	80046.31
638.174	80048.05
638.506	80049.27
638.838	80047.09
639.17	80046.16
639.501	80047.83
639.833	80047.53
640.164	80048.83
640.496	80049.72
640.827	80047.98
641.158	80048.09
641.49	80047.64
641.821	80048.46
642.152	80046.42
642.483	80044.87
642.814	80043.87
643.145	80042.91
643.476	80042.21
643.807	80043.8
644.138	80043.39
644.469	80043.02
644.8	80044.65
645.131	80043.43
645.461	80042.43
645.792	80042.84
646.122	80042.65
646.453	80041.47
646.784	80041.84
647.114	80039.95
647.444	80037.59
647.775	80038.21
648.105	80038.69
648.435	80039.21
648.765	80039.06
649.096	80040.28
649.426	80040.88
649.756	80040.58
650.086	80038.69
650.416	80039.4
650.746	80038.55
651.075	80040.47
651.405	80041.02
651.735	80039.73
652.065	80039.62
652.394	80039.84
652.724	80040.69
653.054	80040.8
653.383	80040.95
653.712	80038.84
654.042	80038.81
654.371	80039.92
654.701	80038.44
655.03	80037.36
655.359	80036.11
655.688	80035.22
656.017	80033.78
656.346	80032.45
656.675	80033.33
657.004	80034.52
657.333	80032.59
657.662	80031.82
657.991	80031.48
658.32	80030.04
658.648	80029.6
658.977	80029.82
659.306	80030.01
659.634	80029.23
659.963	80029.3
660.291	80029.38
660.619	80030.86
660.948	80032.41
661.276	80031.74
661.604	80031.67
661.933	80029.71
662.261	80028.6
662.589	80029.34
662.917	80029.64
663.245	80030.45
663.573	80029.27
663.901	80028.45
664.229	80029.01
664.556	80029.45
664.884	80026.53
665.212	80026.27
665.539	80024.98
665.867	80023.31
666.195	80022.09
666.522	80021.5
666.85	80020.36
667.177	80019.91
667.504	80018.99
667.832	80018.95
668.159	80018.21
668.486	80020.21
668.813	80021.47
669.14	80022.91
669.467	80019.14
669.794	80018.55
670.121	80017.77
670.448	80017.92
670.775	80017.92
671.102	80016.73
671.429	80014.63
671.755	80016.92
672.082	80017.03
672.409	80017.92
672.735	80019.06
673.062	80018.25
673.388	80019.06
673.714	80019.69
674.041	80017.4
674.367	80017.07
674.693	80015.18
675.019	80015.4
675.346	80012.74
675.672	80011.45
675.998	80011.34
676.324	80012.11
676.65	80011.82
676.976	80011.23
677.301	80010.56
677.627	80010.34
677.953	80010.41
678.279	80011.34
678.604	80009.89
678.93	80010.12
679.255	80009.49
679.581	80009.75
679.906	80010.15
680.232	80008.34
680.557	80007.9
680.882	80007.75
681.208	80007.82
681.533	80008.23
681.858	80008.9
682.183	80009.27
682.508	80010.12
682.833	80009.67
683.158	80009.41
683.483	80009.82
683.808	80010.82
684.132	80009.97
684.457	80008.67
684.782	80008.82
685.106	80008.53
685.431	80007.45
685.755	80007.12
686.08	80007.27
686.404	80005.94
686.729	80005.2
687.053	80004.28
687.377	80003.24
687.701	80003.94
688.026	80003.68
688.35	80002.76
688.674	80001.25
688.998	79999.77
689.322	79998.88
689.646	79998.14
689.97	79996.44
690.293	79994.78
690.617	79992.04
690.941	79991.56
691.264	79991.05
691.588	79990.9
691.912	79990.27
692.235	79987.94
692.559	79985.06
692.882	79982.59
693.205	79981.63
693.529	79980.33
693.852	79980.74
694.175	79980.04
694.498	79977.9
694.821	79975.64
695.144	79974.83
695.467	79971.54
695.79	79969.7
696.113	79966.56
696.436	79961.79
696.759	79958.66
697.082	79954.08
697.404	79950.87
697.727	79944.01
698.049	79938.36
698.372	79928.73
698.694	79918.92
699.017	79909.33
699.339	79898.32
699.662	79886.45
699.984	79866.65
700.306	79845.13
700.628	79809.63
700.95	79763.11
701.272	79709.11
701.594	79649.32
701.916	79589.25
702.238	79522.88
702.56	79413.13
702.882	79292.63
703.204	79179.04
703.525	79044.89
703.847	78876
704.169	78709.08
704.49	78524.19
704.812	78335.97
705.133	78142.35
705.455	77941.77
705.776	77721.88
706.097	77510.02
706.419	77282.12
706.74	77037.79
707.061	76781.33
707.382	76499.78
707.703	76209.63
708.024	75935.61
708.345	75637.55
708.666	75319.84
708.987	74990.69
709.307	74711.23
709.628	74393.41
709.949	74077.53
710.27	73752.44
710.59	73466.89
710.911	73154.49
711.231	72856.98
711.552	72574.82
711.872	72238.06
712.192	71945.62
712.512	71673.15
712.833	71394.38
713.153	71109.04
713.473	70869.42
713.793	70629.94
714.113	70410.41
714.433	70205.36
714.753	69987.31
715.073	69793.07
715.393	69586.36
715.712	69418.75
716.032	69192.93
716.352	69022.69
716.671	68854.47
716.991	68682.34
717.31	68487
717.63	68336.04
717.949	68144
718.268	67920.02
718.588	67742.18
718.907	67516.17
719.226	67255.15
719.545	67000.39
719.864	66724.34
720.183	66441.08
720.502	66153.02
720.821	65876.78
721.14	65585
721.459	65274.04
721.778	64984.97
722.096	64663.78
722.415	64360.22
722.734	64093.5
723.052	63801.79
723.371	63496.98
723.689	63218.35
724.008	62929.09
724.326	62619.58
724.644	62352.83
724.963	62089.37
725.281	61864.4
725.599	61636.4
725.917	61440.13
726.235	61239.46
726.553	61083.63
726.871	60896.69
727.189	60688.25
727.507	60485.35
727.824	60329.74
728.142	60194.16
728.46	60002.8
728.777	59899.71
729.095	59750.9
729.413	59599.99
729.73	59453.83
730.047	59322.68
730.365	59209.65
730.682	59102.76
730.999	59014.97
731.317	58937.02
731.634	58854.17
731.951	58736.02
732.268	58609.36
732.585	58460.06
732.902	58299.14
733.219	58135.12
733.536	57956.44
733.852	57838.85
734.169	57705.29
734.486	57552.72
734.802	57390.48
735.119	57274.93
735.435	57101.97
735.752	56950.93
736.068	56772.53
736.385	56613.39
736.701	56422.73
737.017	56183.97
737.333	55935.5
737.65	55627.67
737.966	55246.37
738.282	54851.12
738.598	54427.96
738.914	53971.07
739.23	53491.44
739.545	52974.25
739.861	52424.72
740.177	51871.95
740.493	51269.61
740.808	50688.38
741.124	50072.63
741.439	49491.08
741.755	48908.99
742.07	48379.92
742.386	47818.27
742.701	47322.91
743.016	46822.58
743.331	46343.64
743.647	45917.6
743.962	45532.12
744.277	45188.39
744.592	44919.01
744.907	44697.11
745.222	44538.25
745.537	44443.74
745.851	44403.98
746.166	44417.81
746.481	44468.64
746.795	44590
747.11	44746.02
747.424	44920.5
747.739	45089.46
748.053	45264.88
748.368	45418.4
748.682	45530.24
748.996	45667.16
749.311	45765.21
749.625	45860.18
749.939	45962.41
750.253	46027.18
750.567	46089.71
750.881	46154.45
751.195	46216.66
751.509	46287.85
751.822	46332.42
752.136	46377.77
752.45	46438.81
752.763	46507.54
753.077	46567.36
753.39	46595.35
753.704	46622.64
754.017	46637.78
754.331	46680.47
754.644	46689.69
754.957	46704.36
755.27	46719.53
755.584	46725.19
755.897	46740.49
756.21	46738.57
756.523	46714.71
756.836	46690.73
757.149	46619.03
757.461	46544.77
757.774	46453.29
758.087	46325.28
758.4	46189.43
758.712	46041.31
759.025	45878.91
759.337	45720.62
759.65	45565.16
759.962	45412.21
760.275	45247.55
760.587	45100.7
760.899	44954.09
761.211	44855.27
761.523	44784.16
761.836	44779.74
762.148	44782.27
762.46	44807.61
762.772	44866.01
763.083	44996.43
763.395	45138.15
763.707	45353.74
764.019	45579.32
764.33	45814
764.642	46078.21
764.954	46351.4
765.265	46631.29
765.577	46896.29
765.888	47141.92
766.199	47383.12
766.511	47599.37
766.822	47822.06
767.133	48004.37
767.444	48177.31
767.755	48268.6
768.066	48331.63
768.377	48324.12
768.688	48267.12
768.999	48177.13
769.31	48061.78
769.621	47876.48
769.931	47666.31
770.242	47412.36
770.553	47115.6
770.863	46785.29
771.174	46422.04
771.484	46033.64
771.794	45626.37
772.105	45217.85
772.415	44790.97
772.725	44335.51
773.035	43894.57
773.345	43438.46
773.656	42972.39
773.966	42502.57
774.276	42060.3
774.585	41615.3
774.895	41176.61
775.205	40789.72
775.515	40389.74
775.824	39993.19
776.134	39599.09
776.444	39232.96
776.753	38867.98
777.063	38523.59
777.372	38197.29
777.681	37872.44
777.991	37563.66
778.3	37260.15
778.609	36963.7
778.918	36669.14
779.228	36406.73
779.537	36141.88
779.846	35874.58
780.154	35621.77
780.463	35387.92
780.772	35145.96
781.081	34922.23
781.39	34718.46
781.698	34500.89
782.007	34293.72
782.316	34085.65
782.624	33874.43
782.932	33662.93
783.241	33465.59
783.549	33273.76
783.858	33097.45
784.166	32927.22
784.474	32751.14
784.782	32582.75
785.09	32416.45
785.398	32277.58
785.706	32137.65
786.014	31994.55
786.322	31855.97
786.63	31725.03
786.937	31586.64
787.245	31459.65
787.553	31332.94
787.86	31220.44
788.168	31094.72
788.475	30990.6
788.783	30888.59
789.09	30790.54
789.398	30691.99
789.705	30589.47
790.012	30481.54
790.319	30374.65
790.626	30269.83
790.933	30181.86
791.24	30090.75
791.547	29996.62
791.854	29897.28
792.161	29796.96
792.468	29702.4
792.774	29609.46
793.081	29518.1
793.388	29433.15
793.694	29341.01
794.001	29251.25
794.307	29124.99
794.614	29022.85
794.92	28892.82
795.226	28766.82
795.533	28653.42
795.839	28556.51
796.145	28440.64
796.451	28336.95
796.757	28228.6
797.063	28120.01
797.369	28006.42
797.675	27910.13
797.98	27812.48
798.286	27691.31
798.592	27584.51
798.898	27467.54
799.203	27352.99
799.509	27239.03
799.814	27116.52
800.12	27013.43
800.425	26897.76
800.73	26787.89
801.035	26675.11
801.341	26572.33
801.646	26471.37
801.951	26369.03
802.256	26266.6
802.561	26168.51
802.866	26065.69
803.171	25974.04
803.476	25882.98
803.78	25791.22
804.085	25683.77
804.39	25566.36
804.694	25467.96
804.999	25367.66
805.303	25271.74
805.608	25187.78
805.912	25097.83
806.216	25026.81
806.521	24952.27
806.825	24870.3
807.129	24799.7
807.433	24726.44
807.737	24653.69
808.041	24595.49
808.345	24539.67
808.649	24478.25
808.953	24431.11
809.257	24378.74
809.561	24323.27
809.864	24274.07
810.168	24235.7
810.471	24196.02
810.775	24171.38
811.078	24151.41
811.382	24130.83
811.685	24120.49
811.988	24105.56
812.292	24100.8
812.595	24094.09
812.898	24093.41
813.201	24109.24
813.504	24129.75
813.807	24154.9
814.11	24192.49
814.413	24216.55
814.716	24243.52
815.018	24290.81
815.321	24348.06
815.624	24427.6
815.926	24529.41
816.229	24652.16
816.531	24790.75
816.834	24958.97
817.136	25155.58
817.438	25374.67
817.74	25639.46
818.043	25958.61
818.345	26340.41
818.647	26794.65
818.949	27342.68
819.251	27976.55
819.553	28725.82
819.855	29595.86
820.156	30574.2
820.458	31652.75
820.76	32818.29
821.062	34039.31
821.363	35304.77
821.665	36646.7
821.966	38082.09
822.268	39533.4
822.569	40988.76
822.87	42476.97
823.171	43970.28
823.473	45503.69
823.774	47083.95
824.075	48614.87
824.376	50119.47
824.677	51602.09
824.978	52985.69
825.279	54278.95
825.58	55463.21
825.88	56501.5
826.181	57389.11
826.482	58168.78
826.782	58798.66
827.083	59309.7
827.383	59688.93
827.684	59908.15
827.984	59989.29
828.284	59903.94
828.585	59682.41
828.885	59378.22
829.185	58922.04
829.485	58372.47
829.785	57703.76
830.085	56873.62
830.385	56000.35
830.685	55066.29
830.985	54010.28
831.285	52933.24
831.584	51806.48
831.884	50651.4
832.183	49476.57
832.483	48265.9
832.782	46991.57
833.082	45710.3
833.381	44427.94
833.681	43186.31
833.98	42013.41
834.279	40871.28
834.578	39759.39
834.877	38716.84
835.176	37704.76
835.475	36763.89
835.774	35866.24
836.073	34987.25
836.372	34157.71
836.671	33344.94
836.969	32528.37
837.268	31778.37
837.567	31070.51
837.865	30386.25
838.164	29697.69
838.462	29043.28
838.761	28426.28
839.059	27838.55
839.357	27281.97
839.655	26749.9
839.953	26209.82
840.252	25684.65
840.55	25160.56
840.848	24651.17
841.146	24157.79
841.443	23653.23
841.741	23151.21
842.039	22641.56
842.337	22138.96
842.634	21674.47
842.932	21224.25
843.229	20801.65
843.527	20381.44
843.824	19934.62
844.122	19481.79
844.419	19064.47
844.716	18636.57
845.013	18224.07
845.311	17831.46
845.608	17457.6
845.905	17085.96
846.202	16728.91
846.499	16357.12
846.796	15990.93
847.092	15617.85
847.389	15252.19
847.686	14917.43
847.982	14600.66
848.279	14289.59
848.576	14001.24
848.872	13704.72
849.168	13416.06
849.465	13134.18
849.761	12844.55
850.057	12570.67
850.354	12305.78
850.65	12052.46
850.946	11821.17
851.242	11598.93
851.538	11381.5
851.834	11160.48
852.13	10945.28
852.425	10751.98
852.721	10573.79
853.017	10407.25
853.312	10257.03
853.608	10109.69
853.903	9966.17
854.199	9814.33
854.494	9684.4
854.79	9550.97
855.085	9417.16
855.38	9288.1
855.675	9158.33
855.971	9038.43
856.266	8933.22
856.561	8839.99
856.856	8745.85
857.151	8653.2
857.445	8551.68
857.74	8452.57
858.035	8362.47
858.33	8268.72
858.624	8176.68
858.919	8097.33
859.213	8011.43
859.508	7927.98
859.802	7835.76
860.096	7753.3
860.391	7693.18
860.685	7631.82
860.979	7570.56
861.273	7520.34
861.567	7462.1
861.861	7394.86
862.155	7340.15
862.449	7271.49
862.743	7204.32
863.037	7146.07
863.33	7084.84
863.624	7030.87
863.918	6986.71
864.211	6945.75
864.505	6911.13
864.798	6871.18
865.092	6822.45
865.385	6778.87
865.678	6726.43
865.971	6694.28
866.264	6660.15
866.558	6628.43
866.851	6595.15
867.144	6565.47
867.437	6530.25
867.729	6499.28
868.022	6479.58
868.315	6459.03
868.608	6446.97
868.9	6441.29
869.193	6423.98
869.485	6398.15
869.778	6375.11
870.07	6345.99
870.363	6323.19
870.655	6308.51
870.947	6300.16
871.239	6290.91
871.532	6289.28
871.824	6295.85
872.116	6293.39
872.408	6288.04
872.699	6273.4
872.991	6265.5
873.283	6259.14
873.575	6259.8
873.867	6269.73
874.158	6272.34
874.45	6271.75
874.741	6272.53
875.033	6269.45
875.324	6279.31
875.615	6300.07
875.907	6322.03
876.198	6338.07
876.489	6349.2
876.78	6351.36
877.071	6349
877.362	6353.92
877.653	6356.13
877.944	6364.07
878.235	6372.15
878.526	6382.37
878.816	6397.58
