Data from 24HourExp_27052025_FLMS018081_23-28-18-727.txt Node
Date: Tue May 27 23:28:18 BST 2025
User: adleo
Spectrometer: FLMS01808
Trigger mode: 0
Integration Time (sec): 4.000000E-1
Scans to average: 10
Electric dark correction enabled: true
Nonlinearity correction enabled: true
Boxcar width: 10
XAxis mode: Wavelengths
Number of Pixels in Spectrum: 2048
>>>>>Begin Spectral Data<<<<<
178.471	-128.44
178.857	-120.62
179.244	-113.11
179.631	-104.92
180.017	-96.38
180.404	-88.25
180.79	-77.38
181.176	-69.63
181.563	-60.9
181.949	-49.7
182.335	-39.36
182.722	-23.94
183.108	-5.9
183.494	19.75
183.88	72.89
184.266	127.38
184.653	183.56
185.039	237.13
185.425	291.92
185.811	346.58
186.197	398.24
186.582	450.78
186.968	503.3
187.354	554.5
187.74	604.3
188.126	653.36
188.511	703.51
188.897	750.63
189.283	799.35
189.668	845.24
190.054	888.62
190.439	933.97
190.825	976.99
191.21	1019.82
191.596	1052.99
191.981	1061.53
192.366	1065.6
192.752	1067.51
193.137	1071.86
193.522	1073.47
193.908	1073.25
194.293	1079.33
194.678	1082.46
195.063	1083.49
195.448	1085.91
195.833	1086.39
196.218	1088.24
196.603	1088.07
196.988	1087.7
197.373	1087.87
197.757	1088.22
198.142	1088.89
198.527	1086.45
198.912	1086.05
199.296	1085.38
199.681	1083.37
200.066	1081.74
200.45	1081.13
200.835	1082.25
201.219	1080.18
201.604	1080.21
201.988	1082.22
202.372	1082.12
202.757	1081.92
203.141	1083.06
203.525	1082.32
203.91	1083.37
204.294	1083.72
204.678	1083.99
205.062	1084.71
205.446	1084.81
205.83	1085.63
206.214	1084.53
206.598	1084.46
206.982	1085.9
207.366	1085.95
207.75	1087.53
208.134	1090.31
208.517	1092.85
208.901	1092.39
209.285	1095.07
209.669	1096.54
210.052	1095.29
210.436	1095.73
210.819	1097.69
211.203	1098.35
211.586	1098.81
211.97	1098.94
212.353	1099.61
212.737	1101.03
213.12	1102.41
213.503	1102.39
213.886	1103.8
214.27	1106.09
214.653	1109.58
215.036	1110.94
215.419	1112.23
215.802	1115.32
216.185	1116.78
216.568	1119.22
216.951	1121.57
217.334	1124.45
217.717	1127.08
218.1	1130.62
218.482	1132.41
218.865	1134.3
219.248	1136.91
219.631	1142.05
220.013	1148.86
220.396	1156.85
220.778	1162.83
221.161	1167.12
221.544	1174.95
221.926	1183.32
222.308	1191.85
222.691	1199.73
223.073	1207.26
223.455	1215.56
223.838	1226.01
224.22	1235.17
224.602	1244.87
224.984	1256.24
225.366	1265.9
225.749	1280.78
226.131	1294.01
226.513	1308.23
226.895	1323.75
227.276	1338.58
227.658	1354.37
228.04	1369.41
228.422	1382.79
228.804	1397.97
229.186	1416.91
229.567	1435.7
229.949	1451.56
230.331	1469.16
230.712	1487.18
231.094	1506.25
231.475	1525.47
231.857	1543.96
232.238	1562.94
232.62	1582.54
233.001	1604
233.382	1626.57
233.763	1643.55
234.145	1665.56
234.526	1687.21
234.907	1705.34
235.288	1725.22
235.669	1745.62
236.05	1764.76
236.431	1783.21
236.812	1803.76
237.193	1824.51
237.574	1844.17
237.955	1867.76
238.336	1888.2
238.717	1910.07
239.097	1933.86
239.478	1956.69
239.859	1979.3
240.239	2003.54
240.62	2027
241.001	2047.97
241.381	2071.71
241.762	2094.43
242.142	2116.77
242.522	2139.11
242.903	2167.13
243.283	2194.65
243.663	2221.58
244.044	2251.6
244.424	2283.76
244.804	2313.26
245.184	2341.94
245.564	2371.84
245.944	2402.67
246.324	2436.44
246.704	2467.28
247.084	2496.05
247.464	2526.17
247.844	2559.3
248.224	2591.42
248.604	2624.63
248.983	2658.03
249.363	2689.53
249.743	2724.06
250.122	2756.77
250.502	2790.38
250.882	2820.32
251.261	2852.45
251.641	2884.26
252.02	2917.65
252.399	2950.61
252.779	2985.41
253.158	3024.39
253.537	3064.68
253.917	3106.58
254.296	3146.61
254.675	3190.03
255.054	3234.13
255.433	3279.58
255.812	3319.34
256.191	3361.69
256.57	3407.32
256.949	3452.83
257.328	3499.06
257.707	3543.66
258.086	3590.4
258.465	3639.9
258.843	3694.72
259.222	3746.47
259.601	3802.81
259.979	3857.38
260.358	3912.58
260.736	3967.98
261.115	4021.17
261.493	4074.02
261.872	4127.1
262.25	4182.96
262.629	4237.79
263.007	4295.73
263.385	4356.24
263.763	4419.8
264.142	4484.88
264.52	4546.62
264.898	4611.27
265.276	4677.48
265.654	4749.65
266.032	4823.46
266.41	4894.8
266.788	4964.51
267.166	5043.26
267.544	5117.83
267.921	5195.59
268.299	5277.53
268.677	5358.47
269.055	5444.97
269.432	5530.2
269.81	5614.72
270.188	5702.74
270.565	5794.33
270.943	5888.29
271.32	5977.41
271.697	6072.09
272.075	6167.68
272.452	6266.07
272.829	6367.34
273.207	6467.94
273.584	6573.68
273.961	6678.06
274.338	6790.64
274.715	6909.52
275.092	7022.64
275.469	7141.53
275.846	7263.34
276.223	7386.22
276.6	7509.58
276.977	7633.3
277.354	7762.62
277.731	7892.66
278.108	8024.27
278.484	8156.34
278.861	8288.31
279.238	8429.94
279.614	8569.01
279.991	8710.02
280.367	8857.72
280.744	9007.32
281.12	9158.19
281.497	9306.78
281.873	9460.5
282.249	9608.7
282.625	9753.08
283.002	9903.77
283.378	10055.76
283.754	10209.21
284.13	10363.41
284.506	10520.58
284.882	10678.89
285.258	10836.17
285.634	10993.85
286.01	11156.92
286.386	11314.54
286.762	11475.38
287.138	11641.24
287.513	11807.74
287.889	11971.86
288.265	12130.19
288.641	12288.18
289.016	12449.48
289.392	12614.7
289.767	12777.66
290.143	12945.61
290.518	13108.79
290.894	13272.56
291.269	13431.09
291.644	13590.54
292.02	13743.08
292.395	13896.72
292.77	14055.65
293.145	14211.4
293.52	14373.47
293.895	14519.08
294.27	14672.97
294.646	14832.48
295.02	14973.98
295.395	15127.56
295.77	15286.46
296.145	15443.51
296.52	15600.11
296.895	15754.76
297.269	15907.71
297.644	16058.12
298.019	16211.84
298.393	16368.5
298.768	16521.58
299.143	16681.33
299.517	16828.77
299.891	16986.37
300.266	17150.87
300.64	17303.84
301.015	17467.55
301.389	17636.63
301.763	17812.83
302.137	17988.92
302.512	18166.31
302.886	18354.31
303.26	18534.75
303.634	18712.2
304.008	18890.54
304.382	19076.47
304.756	19264.38
305.13	19448.57
305.504	19632.52
305.877	19820.98
306.251	20023.26
306.625	20230.69
306.999	20441.02
307.372	20661.88
307.746	20878.38
308.119	21092.07
308.493	21313.9
308.866	21528.19
309.24	21738.88
309.613	21952.02
309.987	22163.5
310.36	22358.6
310.733	22565.19
311.107	22784.71
311.48	23005.21
311.853	23241.25
312.226	23466.97
312.599	23697.98
312.972	23924.74
313.345	24164.51
313.718	24396.61
314.091	24620.46
314.464	24846.67
314.837	25068.91
315.21	25277.98
315.582	25504.51
315.955	25719.17
316.328	25936.28
316.7	26154.08
317.073	26375.18
317.446	26595.29
317.818	26822.77
318.191	27055.74
318.563	27281.63
318.936	27490.73
319.308	27698.39
319.68	27900.29
320.053	28089.88
320.425	28281.96
320.797	28465.79
321.169	28624.84
321.541	28767.98
321.913	28902.4
322.285	29025.44
322.657	29149.21
323.029	29299.97
323.401	29439.85
323.773	29606.02
324.145	29777
324.517	29965.7
324.889	30146.41
325.26	30355.33
325.632	30569.38
326.004	30808.08
326.375	31061.71
326.747	31334.83
327.118	31641.88
327.49	31933.28
327.861	32257.56
328.233	32558.83
328.604	32877.32
328.975	33197.96
329.346	33517.03
329.718	33831.49
330.089	34131.8
330.46	34426.87
330.831	34700.14
331.202	34958.89
331.573	35204.65
331.944	35440.21
332.315	35668.43
332.686	35887.49
333.057	36084.1
333.428	36271
333.799	36443.07
334.169	36603.92
334.54	36751.49
334.911	36861.18
335.281	36983
335.652	37104
336.022	37245.61
336.393	37394.47
336.763	37555.59
337.134	37735.66
337.504	37933.27
337.874	38141.44
338.245	38352.07
338.615	38572.93
338.985	38802.44
339.355	39027.35
339.726	39251.21
340.096	39478.79
340.466	39729.92
340.836	39969.78
341.206	40215.85
341.576	40466.36
341.945	40709.43
342.315	40939.84
342.685	41187.29
343.055	41438.11
343.425	41678.13
343.794	41904.92
344.164	42127.79
344.533	42361.95
344.903	42595.09
345.273	42830.36
345.642	43054.31
346.011	43286.61
346.381	43520.39
346.75	43750.57
347.12	44000.05
347.489	44254.54
347.858	44494.41
348.227	44700.29
348.596	44933.87
348.965	45173.32
349.334	45403.2
349.704	45641.87
350.072	45891.51
350.441	46126.14
350.81	46372.19
351.179	46604.65
351.548	46850.77
351.917	47079.86
352.285	47274.19
352.654	47482.79
353.023	47687.77
353.391	47895.91
353.76	48106.93
354.129	48296.11
354.497	48537.01
354.865	48747.34
355.234	48969.69
355.602	49188.82
355.971	49440.56
356.339	49650.61
356.707	49863.59
357.075	50081.12
357.443	50298.52
357.811	50513.11
358.18	50723.95
358.548	50936.3
358.916	51140.49
359.284	51352.69
359.651	51566.3
360.019	51792.85
360.387	51997.52
360.755	52196.57
361.123	52421.4
361.49	52644.91
361.858	52861.48
362.226	53054.88
362.593	53256.12
362.961	53437.69
363.328	53638.98
363.696	53809.83
364.063	54024.73
364.43	54227.38
364.798	54444.34
365.165	54627.09
365.532	54810.82
365.899	54998.03
366.267	55157.5
366.634	55313.47
367.001	55472.59
367.368	55611.56
367.735	55794.89
368.102	55971.79
368.469	56170.84
368.835	56352.25
369.202	56520.11
369.569	56718.94
369.936	56904.84
370.303	57098.59
370.669	57301.32
371.036	57465.7
371.402	57667.26
371.769	57854.12
372.135	58008.39
372.502	58133.58
372.868	58278.18
373.235	58416.5
373.601	58559.76
373.967	58736.26
374.333	58919.76
374.7	59112.96
375.066	59320.49
375.432	59503.96
375.798	59682.01
376.164	59850.3
376.53	59999.9
376.896	60160.49
377.262	60332.54
377.628	60461.37
377.993	60608.7
378.359	60750.93
378.725	60906.66
379.091	61060.58
379.456	61185.92
379.822	61320.44
380.187	61462.85
380.553	61653.69
380.918	61853.31
381.284	62029.44
381.649	62201.55
382.015	62349.86
382.38	62466.48
382.745	62625.9
383.11	62781.45
383.476	62925.23
383.841	63049.75
384.206	63204.64
384.571	63332.67
384.936	63464.33
385.301	63641.68
385.666	63776.11
386.031	63927.09
386.396	64091.77
386.76	64238.71
387.125	64436.05
387.49	64632.69
387.855	64832.05
388.219	64999.4
388.584	65170.01
388.948	65364.74
389.313	65529.06
389.677	65734.8
390.042	65974.8
390.406	66134.57
390.771	66318.63
391.135	66508.94
391.499	66744.86
391.863	66977.59
392.227	67221.26
392.592	67420.28
392.956	67618.04
393.32	67816.78
393.684	68044.99
394.048	68220.32
394.412	68402.86
394.775	68548.27
395.139	68704.08
395.503	68861.69
395.867	69017.17
396.231	69161.91
396.594	69261.98
396.958	69397.08
397.321	69555.05
397.685	69669.84
398.048	69813.81
398.412	69950.9
398.775	70085.15
399.139	70211.86
399.502	70318.66
399.865	70461.73
400.228	70654.01
400.592	70781.3
400.955	70982.55
401.318	71113.14
401.681	71286.21
402.044	71428.1
402.407	71589.18
402.77	71749.65
403.133	71947.36
403.496	72092.43
403.859	72250.12
404.221	72500.08
404.584	72747.75
404.947	72986.23
405.309	73203.31
405.672	73445.08
406.034	73669.21
406.397	73922.3
406.759	74143.8
407.122	74334.27
407.484	74504.61
407.847	74685.13
408.209	74941.41
408.571	75168.72
408.933	75429.7
409.296	75676.23
409.658	75926.88
410.02	76194.85
410.382	76490.71
410.744	76734.04
411.106	77014.37
411.468	77280.23
411.83	77494.29
412.191	77675.1
412.553	77838.13
412.915	78028.29
413.277	78208.51
413.638	78380.21
414	78529.95
414.361	78683.57
414.723	78884.35
415.084	79071.84
415.446	79216.31
415.807	79323.49
416.169	79400.75
416.53	79458.24
416.891	79530.39
417.252	79614.84
417.614	79665.7
417.975	79689.39
418.336	79718.81
418.697	79744.95
419.058	79768.72
419.419	79786.7
419.78	79808.21
420.141	79821.73
420.501	79835.25
420.862	79848.02
421.223	79856.17
421.584	79877.87
421.944	79889.15
422.305	79896.27
422.666	79900.29
423.026	79903.53
423.387	79911.61
423.747	79917.21
424.107	79926.54
424.468	79933.52
424.828	79938.13
425.188	79942.89
425.549	79946.18
425.909	79948.47
426.269	79948.25
426.629	79951.53
426.989	79956.48
427.349	79958.99
427.709	79960.65
428.069	79962.28
428.429	79964.42
428.789	79969
429.149	79972.55
429.508	79974.06
429.868	79976.17
430.228	79979.79
430.587	79983.74
430.947	79986.69
431.306	79990.46
431.666	79991.53
432.025	79993.2
432.385	79996.74
432.744	79996.78
433.103	79998.92
433.463	80001.73
433.822	80008.27
434.181	80013.12
434.54	80014.52
434.899	80018
435.258	80021.32
435.618	80023.47
435.976	80026.42
436.335	80026.64
436.694	80025.2
437.053	80026.16
437.412	80026.5
437.771	80027.2
438.129	80028.31
438.488	80030.3
438.847	80030.78
439.205	80032.63
439.564	80034.78
439.922	80033.41
440.281	80034
440.639	80036.59
440.997	80035.07
441.356	80034.7
441.714	80034.26
442.072	80033.11
442.431	80031.71
442.789	80030.78
443.147	80032.45
443.505	80032.82
443.863	80034.08
444.221	80036.52
444.579	80036.7
444.937	80039.58
445.294	80039.84
445.652	80040.66
446.01	80040.29
446.368	80041.43
446.725	80040.18
447.083	80039.73
447.441	80040.62
447.798	80041.43
448.156	80040.25
448.513	80041.88
448.87	80042.03
449.228	80042.25
449.585	80044.61
449.942	80044.91
450.3	80045.58
450.657	80044.28
451.014	80044.72
451.371	80045.24
451.728	80044.69
452.085	80045.54
452.442	80044.46
452.799	80045.5
453.156	80044.95
453.513	80045.65
453.869	80046.83
454.226	80049.2
454.583	80048.76
454.939	80049.57
455.296	80049.24
455.653	80048.72
456.009	80047.46
456.366	80049.75
456.722	80049.9
457.078	80050.35
457.435	80051.09
457.791	80051.97
458.147	80052.49
458.503	80053.71
458.86	80054.6
459.216	80055.04
459.572	80056.23
459.928	80056.34
460.284	80055.41
460.64	80055.01
460.996	80055.08
461.351	80055.3
461.707	80054.86
462.063	80056.08
462.419	80057.08
462.774	80057
463.13	80056.82
463.486	80058.08
463.841	80055.56
464.197	80054.71
464.552	80055.15
464.908	80054.05
465.263	80054.49
465.618	80054.05
465.974	80052.64
466.329	80053.34
466.684	80053.56
467.039	80053.49
467.394	80053.97
467.749	80055.12
468.104	80056.56
468.459	80055.34
468.814	80054.19
469.169	80054.16
469.524	80054.79
469.879	80055.12
470.233	80056.19
470.588	80057.45
470.943	80058.26
471.297	80060.96
471.652	80062.29
472.006	80060.74
472.361	80063.55
472.715	80062.37
473.07	80063.15
473.424	80063.52
473.778	80063.96
474.133	80066.29
474.487	80065.85
474.841	80066.66
475.195	80067.33
475.549	80068.7
475.903	80071.54
476.257	80072.95
476.611	80073.76
476.965	80072.95
477.319	80073.47
477.673	80074.28
478.026	80075.47
478.38	80075.58
478.734	80072.58
479.087	80073.39
479.441	80075.76
479.795	80075.39
480.148	80077.95
480.502	80078.39
480.855	80079.02
481.208	80078.72
481.562	80077.83
481.915	80078.35
482.268	80077.54
482.621	80078.28
482.974	80077.06
483.328	80078.2
483.681	80077.87
484.034	80078.76
484.387	80079.91
484.739	80080.68
485.092	80079.72
485.445	80079.87
485.798	80079.28
486.151	80081.53
486.503	80082.16
486.856	80082.9
487.209	80083.38
487.561	80083.79
487.914	80084.64
488.266	80085.31
488.618	80085.86
488.971	80086.72
489.323	80086.49
489.675	80087.64
490.028	80087.71
490.38	80086.97
490.732	80086.79
491.084	80086.9
491.436	80085.68
491.788	80087.35
492.14	80087.64
492.492	80089.27
492.844	80090.31
493.196	80092.64
493.548	80093.56
493.899	80093.16
494.251	80092.38
494.603	80091.93
494.954	80091.86
495.306	80092.08
495.657	80093.53
496.009	80093.27
496.36	80092.3
496.712	80094.67
497.063	80096.23
497.414	80097.56
497.765	80097.67
498.117	80096.63
498.468	80096.86
498.819	80098.08
499.17	80096.93
499.521	80097.97
499.872	80099.19
500.223	80099.15
500.574	80097.04
500.924	80097.08
501.275	80098.23
501.626	80097.6
501.977	80096.64
502.327	80095.86
502.678	80095.82
503.029	80093.56
503.379	80094.27
503.73	80094.23
504.08	80092.68
504.43	80090.34
504.781	80088.83
505.131	80090.53
505.481	80089.97
505.831	80089.53
506.182	80088.86
506.532	80089.01
506.882	80086.23
507.232	80085.27
507.582	80084.9
507.932	80085.35
508.281	80083.31
508.631	80079.68
508.981	80079.61
509.331	80080.87
509.681	80080.76
510.03	80082.09
510.38	80083.05
510.729	80083.9
511.079	80085.68
511.428	80085.68
511.778	80086.68
512.127	80084.98
512.476	80083.87
512.826	80084.83
513.175	80086.98
513.524	80087.61
513.873	80088.49
514.222	80089.34
514.571	80089.6
514.92	80088.27
515.269	80088.49
515.618	80089.49
515.967	80091.01
516.316	80092.34
516.665	80094.05
517.014	80093.64
517.362	80093.38
517.711	80094.12
518.059	80092.93
518.408	80092.12
518.757	80093.38
519.105	80092.79
519.453	80095.6
519.802	80096.26
520.15	80095.82
520.498	80094.23
520.847	80093.04
521.195	80091.97
521.543	80091.75
521.891	80091.42
522.239	80092.3
522.587	80093.78
522.935	80096.71
523.283	80098.63
523.631	80096.38
523.979	80093.49
524.326	80095.23
524.674	80095.38
525.022	80094.82
525.369	80095.71
525.717	80096.19
526.064	80097.19
526.412	80097.64
526.759	80098.08
527.107	80098.3
527.454	80098.01
527.801	80098.23
528.149	80099
528.496	80099.75
528.843	80099.56
529.19	80099.75
529.537	80099.04
529.884	80097.08
530.231	80094.93
530.578	80093.45
530.925	80095.45
531.272	80097.71
531.619	80096.86
531.966	80094.9
532.312	80094.71
532.659	80094.75
533.006	80095.45
533.352	80093.64
533.699	80094.38
534.045	80093.78
534.392	80093.01
534.738	80094.01
535.084	80094.3
535.431	80093.64
535.777	80093.67
536.123	80094.27
536.469	80093.27
536.815	80094.6
537.161	80095.97
537.507	80096.19
537.853	80096.3
538.199	80096.26
538.545	80094.3
538.891	80094.49
539.237	80095.93
539.582	80095.97
539.928	80095.23
540.274	80093.45
540.619	80093.6
540.965	80092.27
541.31	80090.97
541.656	80091.9
542.001	80092.12
542.347	80092.45
542.692	80093.64
543.037	80092.41
543.382	80091.67
543.728	80092.12
544.073	80092.9
544.418	80092.64
544.763	80092.82
545.108	80093.6
545.453	80093.27
545.798	80094.67
546.142	80095.82
546.487	80095.38
546.832	80095.89
547.177	80096.12
547.521	80095.56
547.866	80096.56
548.211	80097.41
548.555	80099.04
548.9	80097.97
549.244	80096.75
549.588	80095.04
549.933	80094.08
550.277	80093.67
550.621	80091.27
550.965	80090.71
551.31	80089.46
551.654	80089.75
551.998	80089.57
552.342	80088.49
552.686	80087.46
553.03	80086.42
553.373	80086.38
553.717	80086.24
554.061	80085.01
554.405	80084.79
554.748	80086.38
555.092	80085.83
555.436	80084.76
555.779	80084.5
556.123	80086.01
556.466	80087.12
556.81	80087.64
557.153	80090.16
557.496	80090.86
557.839	80095.01
558.183	80094.97
558.526	80095.75
558.869	80095.56
559.212	80095.3
559.555	80093.97
559.898	80094.67
560.241	80095.49
560.584	80094.93
560.927	80095.08
561.269	80096.56
561.612	80095.86
561.955	80094.34
562.297	80093.27
562.64	80093.86
562.983	80092.34
563.325	80090.79
563.668	80090.12
564.01	80088.97
564.352	80085.9
564.695	80084.98
565.037	80082.79
565.379	80083.98
565.721	80084.01
566.063	80082.31
566.406	80082.35
566.748	80083.09
567.09	80082.31
567.431	80082.53
567.773	80080.5
568.115	80079.43
568.457	80078.2
568.799	80078.35
569.14	80079.61
569.482	80079.5
569.824	80078.87
570.165	80079.43
570.507	80079.35
570.848	80080.5
571.19	80082.05
571.531	80081.53
571.872	80082.46
572.214	80084.5
572.555	80082.35
572.896	80081.87
573.237	80082.61
573.578	80081.24
573.919	80081.42
574.26	80080.13
574.601	80078.83
574.942	80077.91
575.283	80077.13
575.624	80077.35
575.964	80075.39
576.305	80074.32
576.646	80076.06
576.986	80076.58
577.327	80076.47
577.667	80075.99
578.008	80075.5
578.348	80074.99
578.689	80076.95
579.029	80076.5
579.369	80075.32
579.71	80076.02
580.05	80074.32
580.39	80074.39
580.73	80075.39
581.07	80076.24
581.41	80077.21
581.75	80077.46
582.09	80079.09
582.43	80079.91
582.769	80079.54
583.109	80081.05
583.449	80080.16
583.789	80077.8
584.128	80076.06
584.468	80075.21
584.807	80074.98
585.147	80072.91
585.486	80073.62
585.825	80072.62
586.165	80072.25
586.504	80072.58
586.843	80073.47
587.182	80074.28
587.522	80074.13
587.861	80073.69
588.2	80071.03
588.539	80070.17
588.878	80069.73
589.216	80069.14
589.555	80068.07
589.894	80069.03
590.233	80070.18
590.572	80069.84
590.91	80070.06
591.249	80071.99
591.587	80072.58
591.926	80073.8
592.264	80074.84
592.603	80074.87
592.941	80074.87
593.279	80076.76
593.618	80077.06
593.956	80077.28
594.294	80077.46
594.632	80077.39
594.97	80078.24
595.308	80078.83
595.646	80080.98
595.984	80080.72
596.322	80080.35
596.66	80082.35
596.998	80081.46
597.335	80080.2
597.673	80081.2
598.011	80080.61
598.348	80080.31
598.686	80081.61
599.023	80081.5
599.361	80081.61
599.698	80080.42
600.035	80080.68
600.373	80077.91
600.71	80076.24
601.047	80073.76
601.384	80073.69
601.722	80072.8
602.059	80072.73
602.396	80073.65
602.733	80071.77
603.069	80072.58
603.406	80072.58
603.743	80071.03
604.08	80070.43
604.417	80071.73
604.753	80071.65
605.09	80073.1
605.426	80071.62
605.763	80067.99
606.099	80067.84
606.436	80066.85
606.772	80066.66
607.109	80065.66
607.445	80066.11
607.781	80065.74
608.117	80065.25
608.453	80062.89
608.79	80062.55
609.126	80061.41
609.462	80060.56
609.798	80059.63
610.133	80059.22
610.469	80059.45
610.805	80058.74
611.141	80058.34
611.477	80056.56
611.812	80055.86
612.148	80054.16
612.483	80055.15
612.819	80056.82
613.154	80055.93
613.49	80055.23
613.825	80053.34
614.16	80053.16
614.496	80054.67
614.831	80054.12
615.166	80055.86
615.501	80056.15
615.836	80057.04
616.171	80057.67
616.506	80058.19
616.841	80059.85
617.176	80059.78
617.511	80057.49
617.846	80058.93
618.18	80058.34
618.515	80057.01
618.85	80056.27
619.184	80057.23
619.519	80056.45
619.853	80056.04
620.188	80055.9
620.522	80055.67
620.856	80056.71
621.191	80057.37
621.525	80055.71
621.859	80055.64
622.193	80054.97
622.527	80057.19
622.861	80057.74
623.195	80057.49
623.529	80057.78
623.863	80058.37
624.197	80056.34
624.531	80058.89
624.865	80057.86
625.198	80058.08
625.532	80058.45
625.866	80059.26
626.199	80058.85
626.533	80057.52
626.866	80056.75
627.2	80055.3
627.533	80056.27
627.866	80055.71
628.2	80054.49
628.533	80053.82
628.866	80053.42
629.199	80053.05
629.532	80051.35
629.865	80050.94
630.198	80049.2
630.531	80048.13
630.864	80046.13
631.197	80046.24
631.529	80046.02
631.862	80045.98
632.195	80045.17
632.527	80045.06
632.86	80044.13
633.193	80043.24
633.525	80043.95
633.857	80043.5
634.19	80044.35
634.522	80043.32
634.854	80042.51
635.187	80042.21
635.519	80042.14
635.851	80042.8
636.183	80042.21
636.515	80041.8
636.847	80040.91
637.179	80040.18
637.511	80039.62
637.843	80038.47
638.174	80037.77
638.506	80037.92
638.838	80036.85
639.17	80036.81
639.501	80036.85
639.833	80036.22
640.164	80036.37
640.496	80037.99
640.827	80040.29
641.158	80039.66
641.49	80040.14
641.821	80041.36
642.152	80040.84
642.483	80039.84
642.814	80040.14
643.145	80040.73
643.476	80041.32
643.807	80041.06
644.138	80041.88
644.469	80043.14
644.8	80044.69
645.131	80044.5
645.461	80041.36
645.792	80041.62
646.122	80040.95
646.453	80041.47
646.784	80042.69
647.114	80042.69
647.444	80039.25
647.775	80038.11
648.105	80038.88
648.435	80038.18
648.765	80037.92
649.096	80038.85
649.426	80040.29
649.756	80040.44
650.086	80040.18
650.416	80040.55
650.746	80040.51
651.075	80043.43
651.405	80041.73
651.735	80042.03
652.065	80043.84
652.394	80046.32
652.724	80045.76
653.054	80048.02
653.383	80048.35
653.712	80046.54
654.042	80044.99
654.371	80046.17
654.701	80046.58
655.03	80046.43
655.359	80046.54
655.688	80048.24
656.017	80047.94
656.346	80046.02
656.675	80044.47
657.004	80044.13
657.333	80044.06
657.662	80043.51
657.991	80039.99
658.32	80039.33
658.648	80038.44
658.977	80039.14
659.306	80038.55
659.634	80039.62
659.963	80038.33
660.291	80036.48
660.619	80036.4
660.948	80038.33
661.276	80039.77
661.604	80038.25
661.933	80038.03
662.261	80036.7
662.589	80032.97
662.917	80031.75
663.245	80032.41
663.573	80031.64
663.901	80032.15
664.229	80031.6
664.556	80031.6
664.884	80032.45
665.212	80034.08
665.539	80032.97
665.867	80032.41
666.195	80029.38
666.522	80027.9
666.85	80026.98
667.177	80026.61
667.504	80025.42
667.832	80024.87
668.159	80022.24
668.486	80022.58
668.813	80022.61
669.14	80023.65
669.467	80025.98
669.794	80026.13
670.121	80026.09
670.448	80027.2
670.775	80026.02
671.102	80024.43
671.429	80023.13
671.755	80021.17
672.082	80018.47
672.409	80018.58
672.735	80016.88
673.062	80018.81
673.388	80018.66
673.714	80018.44
674.041	80019.84
674.367	80021.39
674.693	80019.03
675.019	80020.21
675.346	80019.36
675.672	80019.03
675.998	80017.03
676.324	80016.99
676.65	80017.73
676.976	80017.99
677.301	80017.51
677.627	80016.22
677.953	80016.07
678.279	80016.22
678.604	80016.85
678.93	80018.58
679.255	80018.07
679.581	80017.62
679.906	80016.18
680.232	80016
680.557	80016.55
680.882	80014.7
681.208	80013.74
681.533	80013.08
681.858	80011.08
682.183	80010.56
682.508	80009.79
682.833	80010.12
683.158	80008.2
683.483	80008.57
683.808	80008.09
684.132	80006.79
684.457	80006.05
684.782	80004.91
685.106	80005.24
685.431	80003.8
685.755	80002.91
686.08	80002.58
686.404	80002.06
686.729	80002.69
687.053	80001.88
687.377	80000.29
687.701	79998.48
688.026	79997.41
688.35	79998.77
688.674	79999.7
688.998	79998.88
689.322	79997.7
689.646	79998.33
689.97	79997.18
690.293	79993.93
690.617	79990.13
690.941	79988.5
691.264	79987.73
691.588	79987.5
691.912	79986.54
692.235	79985.58
692.559	79983.55
692.882	79982.85
693.205	79982.4
693.529	79980.67
693.852	79979.45
694.175	79976.46
694.498	79976.79
694.821	79974.87
695.144	79971.14
695.467	79967.15
695.79	79963.75
696.113	79960.32
696.436	79954.74
696.759	79950.46
697.082	79945.77
697.404	79940.91
697.727	79935.52
698.049	79929.21
698.372	79918.85
698.694	79905.91
699.017	79893.75
699.339	79878.39
699.662	79860.97
699.984	79832.48
700.306	79801.34
700.628	79754.11
700.95	79693.37
701.272	79618.23
701.594	79538.22
701.916	79455.97
702.238	79360.49
702.56	79212.28
702.882	79062.7
703.204	78921.35
703.525	78762.76
703.847	78557.32
704.169	78372.71
704.49	78166.54
704.812	77953.97
705.133	77740.41
705.455	77526.09
705.776	77289.84
706.097	77064.96
706.419	76824.13
706.74	76572.73
707.061	76301.56
707.382	76005.93
707.703	75717.63
708.024	75447.03
708.345	75153.62
708.666	74846.17
708.987	74524.09
709.307	74261.55
709.628	73961.31
709.949	73643.86
710.27	73325.89
710.59	73064.74
710.911	72764.4
711.231	72458.31
711.552	72177.1
711.872	71839.95
712.192	71547.3
712.512	71276.87
712.833	70994.17
713.153	70711.99
713.473	70465.55
713.793	70231.4
714.113	70023.81
714.433	69812.78
714.753	69596.17
715.073	69397.03
715.393	69195.05
715.712	69029.95
716.032	68811.77
716.352	68642.37
716.671	68483.19
716.991	68312.06
717.31	68114.72
717.63	67949.84
717.949	67770.94
718.268	67561.61
718.588	67390.39
718.907	67165.22
719.226	66910.27
719.545	66659.2
719.864	66382.07
720.183	66107.49
720.502	65820.62
720.821	65542.91
721.14	65255.59
721.459	64948.78
721.778	64676.18
722.096	64352.01
722.415	64052.03
722.734	63788.44
723.052	63502.82
723.371	63206.36
723.689	62931.27
724.008	62649.07
724.326	62348.62
724.644	62084.24
724.963	61808.71
725.281	61581.83
725.599	61349.33
725.917	61154.23
726.235	60957
726.553	60797.39
726.871	60606.99
727.189	60402.65
727.507	60201.43
727.824	60043.36
728.142	59898.68
728.46	59694.09
728.777	59592.45
729.095	59451.77
729.413	59304.1
729.73	59150.79
730.047	59013.67
730.365	58897.61
730.682	58784.08
730.999	58699.55
731.317	58621.58
731.634	58548.79
731.951	58429.06
732.268	58313.07
732.585	58156.79
732.902	57996.57
733.219	57840.6
733.536	57664.69
733.852	57544.29
734.169	57411.6
734.486	57267.52
734.802	57114.83
735.119	57002.64
735.435	56822.6
735.752	56659.06
736.068	56479.93
736.385	56313.62
736.701	56128.24
737.017	55893.43
737.333	55650.59
737.65	55340.65
737.966	54957.51
738.282	54562.03
738.598	54147
738.914	53687.95
739.23	53204.41
739.545	52692.89
739.861	52140.8
740.177	51595.34
740.493	50995.66
740.808	50412.18
741.124	49798.61
741.439	49212.28
741.755	48639.21
742.07	48113.13
742.386	47553.63
742.701	47056.3
743.016	46559.9
743.331	46089.9
743.647	45664.11
743.962	45269.1
744.277	44923.4
744.592	44659.6
744.907	44437.87
745.222	44274.59
745.537	44178.94
745.851	44147.14
746.166	44159.04
746.481	44209.64
746.795	44328.21
747.11	44489.91
747.424	44668.62
747.739	44829.56
748.053	45004.66
748.368	45153.13
748.682	45272.57
748.996	45414.35
749.311	45514.43
749.625	45612.63
749.939	45705.13
750.253	45766.46
750.567	45834.69
750.881	45896.49
751.195	45955.35
751.509	46019.35
751.822	46067.33
752.136	46109.01
752.45	46162.41
752.763	46227.46
753.077	46295.07
753.39	46320.17
753.704	46345.63
754.017	46362.4
754.331	46403.7
754.644	46409.85
754.957	46420.72
755.27	46426.09
755.584	46432.2
755.897	46440.29
756.21	46430.19
756.523	46406.9
756.836	46386.41
757.149	46311.38
757.461	46238.42
757.774	46154.17
758.087	46037.8
758.4	45898.3
758.712	45755.52
759.025	45598.46
759.337	45441.09
759.65	45277.87
759.962	45131.19
760.275	44963.32
760.587	44820.14
760.899	44675.31
761.211	44578.41
761.523	44506.73
761.836	44508.14
762.148	44512.68
762.46	44539.01
762.772	44608.97
763.083	44741.42
763.395	44886.75
763.707	45108.11
764.019	45334.66
764.33	45563.26
764.642	45817.97
764.954	46087.25
765.265	46367.72
765.577	46638.62
765.888	46888.68
766.199	47130.93
766.511	47336.92
766.822	47558.07
767.133	47734.21
767.444	47908.56
767.755	48006.15
768.066	48067.32
768.377	48061.64
768.688	48000.45
768.999	47911.9
769.31	47786.3
769.621	47595.03
769.931	47375.02
770.242	47114.16
770.553	46818.64
770.863	46492.64
771.174	46133.38
771.484	45749.99
771.794	45343.32
772.105	44932.13
772.415	44503.58
772.725	44052.23
773.035	43615.42
773.345	43159.81
773.656	42696.45
773.966	42228.38
774.276	41794.43
774.585	41356.97
774.895	40918.85
775.205	40537.85
775.515	40144.08
775.824	39760.59
776.134	39372.59
776.444	39008.79
776.753	38647.63
777.063	38305.05
777.372	37973.9
777.681	37654.16
777.991	37345.96
778.3	37041.46
778.609	36741.1
778.918	36448.45
779.228	36187.12
779.537	35925.22
779.846	35669.2
780.154	35417.34
780.463	35178.59
780.772	34928.48
781.081	34701.73
781.39	34495.52
781.698	34278.08
782.007	34067.45
782.316	33851.42
782.624	33641.53
782.932	33440.11
783.241	33249.92
783.549	33056.76
783.858	32884.83
784.166	32711.24
784.474	32541.77
784.782	32380.02
785.09	32221.66
785.398	32076.68
785.706	31934.05
786.014	31792.97
786.322	31654.11
786.63	31523.32
786.937	31396.2
787.245	31277.02
787.553	31147.93
787.86	31039.36
788.168	30917.2
788.475	30814.63
788.783	30725.39
789.09	30629.06
789.398	30526.08
789.705	30426.83
790.012	30329.65
790.319	30222.47
790.626	30119.61
790.933	30030.35
791.24	29939.07
791.547	29848.12
791.854	29747.23
792.161	29654.57
792.468	29552.87
792.774	29457.4
793.081	29369.07
793.388	29282.34
793.694	29182.81
794.001	29089.33
794.307	28960.46
794.614	28856.39
794.92	28731.39
795.226	28599.75
795.533	28487.23
795.839	28389.58
796.145	28275.9
796.451	28160.05
796.757	28054.35
797.063	27945.35
797.369	27836.58
797.675	27730.35
797.98	27624.98
798.286	27506.83
798.592	27394.43
798.898	27283.7
799.203	27168.53
799.509	27048.88
799.814	26919.33
800.12	26820.72
800.425	26711.62
800.73	26602.24
801.035	26483.24
801.341	26376.75
801.646	26281.33
801.951	26178.41
802.256	26076.9
802.561	25969.83
802.866	25877.43
803.171	25787.67
803.476	25697.72
803.78	25598.8
804.085	25498.91
804.39	25389.18
804.694	25299.47
804.999	25199.31
805.303	25107.96
805.608	25026.01
805.912	24942.86
806.216	24871.37
806.521	24802.6
806.825	24733.39
807.129	24664.55
807.433	24587.56
807.737	24521.91
808.041	24452.84
808.345	24396.95
808.649	24340.73
808.953	24297.78
809.257	24238.74
809.561	24182.94
809.864	24132.6
810.168	24100.46
810.471	24072.17
810.775	24050.77
811.078	24024.99
811.382	23997.44
811.685	23990.16
811.988	23979.84
812.292	23973.35
812.595	23976.66
812.898	23970.99
813.201	23979.09
813.504	24006.7
813.807	24041.23
814.11	24067.56
814.413	24098.67
814.716	24125.46
815.018	24169.19
815.321	24225.23
815.624	24313.82
815.926	24414.54
816.229	24542.72
816.531	24682.41
816.834	24838.43
817.136	25029.68
817.438	25245.94
817.74	25522.12
818.043	25831
818.345	26209.76
818.647	26664.34
818.949	27206.19
819.251	27838.01
819.553	28588.63
819.855	29461.3
820.156	30430.89
820.458	31520.13
820.76	32676.31
821.062	33891.65
821.363	35153.22
821.665	36490.11
821.966	37925.32
822.268	39370.4
822.569	40816.85
822.87	42302.37
823.171	43789.67
823.473	45325.6
823.774	46907.72
824.075	48427.93
824.376	49934.31
824.677	51395.9
824.978	52776.44
825.279	54068.99
825.58	55242.83
825.88	56273.47
826.181	57146.95
826.482	57935.23
826.782	58550.44
827.083	59060.88
827.383	59440.19
827.684	59663.73
827.984	59741.07
828.284	59641.46
828.585	59413.48
828.885	59107.51
829.185	58643.92
829.485	58094.16
829.785	57418.17
830.085	56577.91
830.385	55708
830.685	54767.41
830.985	53725.06
831.285	52649.96
831.584	51528.92
831.884	50378.28
832.183	49206.66
832.483	48003.17
832.782	46725.19
833.082	45449.08
833.381	44172.24
833.681	42940.04
833.98	41771.9
834.279	40635.41
834.578	39535.1
834.877	38500.55
835.176	37496.89
835.475	36560.58
835.774	35673.2
836.073	34806.95
836.372	33990.5
836.671	33176.87
836.969	32372.92
837.268	31627.94
837.567	30914.89
837.865	30224.43
838.164	29546.08
838.462	28892.2
838.761	28278.44
839.059	27698.86
839.357	27154.1
839.655	26623.36
839.953	26084.98
840.252	25553.13
840.55	25033.47
840.848	24521.52
841.146	24036.75
841.443	23539.98
841.741	23041.37
842.039	22531.64
842.337	22022.93
842.634	21559.38
842.932	21117.57
843.229	20692.59
843.527	20273.03
843.824	19837.19
844.122	19391.12
844.419	18970.28
844.716	18545.37
845.013	18131.19
845.311	17739.79
845.608	17362.99
845.905	16998.74
846.202	16639.22
846.499	16274.7
846.796	15909.45
847.092	15545.58
847.389	15175.29
847.686	14836.11
847.982	14514.35
848.279	14204.08
848.576	13915.21
848.872	13623.24
849.168	13334.4
849.465	13053.65
849.761	12764.27
850.057	12489.3
850.354	12228.38
850.65	11977.99
850.946	11748.18
851.242	11527.59
851.538	11307.38
851.834	11086.01
852.13	10869.7
852.425	10673.36
852.721	10494.2
853.017	10332.13
853.312	10177.58
853.608	10035.82
853.903	9891.35
854.199	9749.36
854.494	9618.9
854.79	9489.59
855.085	9353.98
855.38	9227.75
855.675	9095.77
855.971	8978.09
856.266	8873.23
856.561	8777.76
856.856	8687.06
857.151	8595.03
857.445	8496.14
857.74	8399.84
858.035	8309.84
858.33	8217.57
858.624	8132.07
858.919	8054.94
859.213	7968.14
859.508	7885.34
859.802	7795.13
860.096	7713.38
860.391	7649.15
860.685	7585.91
860.979	7524.75
861.273	7477.35
861.567	7420.69
861.861	7357.24
862.155	7301.72
862.449	7235.93
862.743	7171.62
863.037	7110.71
863.33	7054.56
863.624	7001.08
863.918	6955.44
864.211	6915.66
864.505	6883.06
864.798	6838.76
865.092	6787.21
865.385	6740.54
865.678	6691.12
865.971	6657.69
866.264	6626.96
866.558	6598.21
866.851	6569.4
867.144	6537.98
867.437	6502.96
867.729	6470.73
868.022	6449.88
868.315	6428.45
868.608	6414.92
868.9	6408.94
869.193	6391.91
869.485	6365.29
869.778	6339.71
870.07	6313.99
870.363	6290.73
870.655	6271.58
870.947	6265.33
871.239	6259.4
871.532	6261.45
871.824	6264.46
872.116	6257.98
872.408	6253.73
872.699	6236.59
872.991	6227.95
873.283	6224.89
873.575	6225.26
873.867	6232.14
874.158	6239.52
874.45	6236.87
874.741	6235.73
875.033	6229.66
875.324	6243.02
875.615	6264.95
875.907	6289.73
876.198	6304.36
876.489	6316.18
876.78	6319.18
877.071	6318.76
877.362	6323
877.653	6323.23
877.944	6331.93
878.235	6344.4
878.526	6350.97
878.816	6371.13
