Data from 24HourExp_27052025_FLMS018081_05-38-20-056.txt Node
Date: Wed May 28 05:38:20 BST 2025
User: adleo
Spectrometer: FLMS01808
Trigger mode: 0
Integration Time (sec): 4.000000E-1
Scans to average: 10
Electric dark correction enabled: true
Nonlinearity correction enabled: true
Boxcar width: 10
XAxis mode: Wavelengths
Number of Pixels in Spectrum: 2048
>>>>>Begin Spectral Data<<<<<
178.471	-129.31
178.857	-120.57
179.244	-114.32
179.631	-106.75
180.017	-99.24
180.404	-92.59
180.79	-81.17
181.176	-72.16
181.563	-62.36
181.949	-50.48
182.335	-39.71
182.722	-24.28
183.108	-6.18
183.494	20.13
183.88	73.12
184.266	125.64
184.653	179.86
185.039	234.81
185.425	291.77
185.811	345.64
186.197	400.41
186.582	451.47
186.968	502.85
187.354	554.31
187.74	605.78
188.126	657.42
188.511	708.53
188.897	754.96
189.283	802.81
189.668	846.46
190.054	890.16
190.439	934.33
190.825	978.66
191.21	1020.89
191.596	1053.4
191.981	1062.03
192.366	1067.56
192.752	1069.61
193.137	1072.04
193.522	1072.71
193.908	1073.38
194.293	1075.34
194.678	1076.69
195.063	1077.9
195.448	1082.43
195.833	1083.42
196.218	1083.11
196.603	1082.89
196.988	1082.07
197.373	1081.75
197.757	1083.86
198.142	1083.07
198.527	1080.39
198.912	1079.81
199.296	1078.73
199.681	1079.94
200.066	1078.2
200.45	1077.53
200.835	1077.82
201.219	1078.79
201.604	1078.51
201.988	1079.44
202.372	1080.13
202.757	1082.89
203.141	1084.23
203.525	1083.49
203.91	1082.35
204.294	1081.23
204.678	1080.84
205.062	1081.52
205.446	1081.27
205.83	1082.96
206.214	1083.71
206.598	1084.43
206.982	1087.27
207.366	1087.76
207.75	1087.49
208.134	1088.9
208.517	1088.25
208.901	1089.09
209.285	1090.75
209.669	1092.93
210.052	1094
210.436	1092.06
210.819	1091.05
211.203	1090.1
211.586	1090.19
211.97	1093.34
212.353	1094.84
212.737	1096.9
213.12	1097.88
213.503	1099.67
213.886	1100.76
214.27	1101.15
214.653	1103.35
215.036	1102.78
215.419	1103.98
215.802	1106.31
216.185	1110.29
216.568	1114.95
216.951	1118.73
217.334	1119.68
217.717	1122.21
218.1	1123.25
218.482	1129.22
218.865	1133.14
219.248	1137.41
219.631	1141.63
220.013	1144.58
220.396	1152.14
220.778	1158.57
221.161	1166.3
221.544	1173.04
221.926	1180.59
222.308	1188.59
222.691	1196.56
223.073	1204.42
223.455	1213.63
223.838	1222.23
224.22	1229.13
224.602	1238.61
224.984	1247.44
225.366	1260.24
225.749	1273.84
226.131	1288.98
226.513	1301.85
226.895	1316.11
227.276	1330.13
227.658	1344.62
228.04	1358.81
228.422	1374.42
228.804	1389.15
229.186	1405.36
229.567	1423.57
229.949	1439.31
230.331	1455.45
230.712	1473.24
231.094	1492.77
231.475	1512.24
231.857	1532.29
232.238	1550.79
232.62	1570.36
233.001	1589.83
233.382	1609.92
233.763	1627.67
234.145	1646.74
234.526	1665.86
234.907	1683.03
235.288	1704.47
235.669	1722.72
236.05	1743.82
236.431	1761.5
236.812	1783.33
237.193	1802.95
237.574	1823.68
237.955	1844.51
238.336	1866.73
238.717	1888.43
239.097	1911.46
239.478	1932.3
239.859	1953.53
240.239	1978.78
240.62	2000.96
241.001	2023.85
241.381	2047.81
241.762	2070.44
242.142	2093.15
242.522	2118.48
242.903	2145.78
243.283	2170.74
243.663	2196.95
244.044	2223.91
244.424	2254.07
244.804	2279.52
245.184	2308.09
245.564	2334.57
245.944	2365.15
246.324	2395.15
246.704	2426.64
247.084	2454.75
247.464	2485.49
247.844	2516.39
248.224	2545.63
248.604	2577.11
248.983	2607.83
249.363	2639.68
249.743	2670.37
250.122	2699.26
250.502	2729.66
250.882	2760.15
251.261	2791.39
251.641	2824.02
252.02	2854.96
252.399	2885.71
252.779	2923.11
253.158	2957.24
253.537	2996.13
253.917	3037.73
254.296	3076.4
254.675	3114.06
255.054	3154.14
255.433	3196.26
255.812	3235.58
256.191	3277.17
256.57	3320.37
256.949	3364.94
257.328	3406.84
257.707	3453.84
258.086	3505.07
258.465	3553.09
258.843	3604.33
259.222	3654.14
259.601	3707.15
259.979	3761.03
260.358	3813.93
260.736	3866.29
261.115	3921.87
261.493	3973.07
261.872	4022.16
262.25	4078.73
262.629	4135.21
263.007	4193.82
263.385	4252.43
263.763	4311.76
264.142	4375.46
264.52	4436.38
264.898	4502.09
265.276	4567.12
265.654	4634.48
266.032	4701.62
266.41	4769.55
266.788	4838.43
267.166	4914.75
267.544	4988.01
267.921	5066.88
268.299	5144.88
268.677	5224.76
269.055	5306.73
269.432	5393.7
269.81	5479.55
270.188	5567.06
270.565	5653.47
270.943	5743.37
271.32	5831.62
271.697	5927.98
272.075	6024.07
272.452	6122.49
272.829	6218.64
273.207	6320.3
273.584	6423.68
273.961	6526.95
274.338	6642.14
274.715	6758.28
275.092	6874.6
275.469	6995.65
275.846	7115.7
276.223	7239.65
276.6	7362.73
276.977	7487.31
277.354	7611.02
277.731	7737.38
278.108	7865.07
278.484	7997.65
278.861	8130.34
279.238	8268.76
279.614	8405.65
279.991	8545.7
280.367	8688.54
280.744	8838.01
281.12	8986.24
281.497	9133.64
281.873	9285.1
282.249	9431.2
282.625	9576.57
283.002	9724.9
283.378	9871.78
283.754	10019.06
284.13	10174.21
284.506	10328.95
284.882	10487.49
285.258	10641.48
285.634	10797.84
286.01	10961.19
286.386	11120.89
286.762	11282.94
287.138	11444.22
287.513	11606.97
287.889	11768.75
288.265	11929.8
288.641	12087.89
289.016	12248.58
289.392	12410.77
289.767	12575.11
290.143	12740.52
290.518	12901.62
290.894	13064.49
291.269	13222.88
291.644	13383.18
292.02	13533.95
292.395	13687.43
292.77	13842.39
293.145	14000.04
293.52	14158.76
293.895	14305.79
294.27	14458.24
294.646	14609.97
295.02	14757.53
295.395	14916
295.77	15072.83
296.145	15228.13
296.52	15386.38
296.895	15537.58
297.269	15691.81
297.644	15847.19
298.019	15995.41
298.393	16148.95
298.768	16294.74
299.143	16453.04
299.517	16603.2
299.891	16759.42
300.266	16922.62
300.64	17076.21
301.015	17237.49
301.389	17405.5
301.763	17579.68
302.137	17750.43
302.512	17930.41
302.886	18109.76
303.26	18288.49
303.634	18464.76
304.008	18635.88
304.382	18815.4
304.756	19000.55
305.13	19187.82
305.504	19366.17
305.877	19559.03
306.251	19764.28
306.625	19975.09
306.999	20186.54
307.372	20404.05
307.746	20619.44
308.119	20825.08
308.493	21041.37
308.866	21253.08
309.24	21460.13
309.613	21667.11
309.987	21877.17
310.36	22073.84
310.733	22278.39
311.107	22496.12
311.48	22718.01
311.853	22958.48
312.226	23179.48
312.599	23409.52
312.972	23633.13
313.345	23860.42
313.718	24087.16
314.091	24307.46
314.464	24529.21
314.837	24746.28
315.21	24958.71
315.582	25179.18
315.955	25395.18
316.328	25614.47
316.7	25830.07
317.073	26052.83
317.446	26278.87
317.818	26508.25
318.191	26734.62
318.563	26958.45
318.936	27158.56
319.308	27354.08
319.68	27552.2
320.053	27749.02
320.425	27937.73
320.797	28118.94
321.169	28282.13
321.541	28428.09
321.913	28560.55
322.285	28684.65
322.657	28814.1
323.029	28963.73
323.401	29106.23
323.773	29269.06
324.145	29438.86
324.517	29622.98
324.889	29803.09
325.26	29999.58
325.632	30213.9
326.004	30448.64
326.375	30713.26
326.747	30988.36
327.118	31294.49
327.49	31576.37
327.861	31891.42
328.233	32193.63
328.604	32501.18
328.975	32820.37
329.346	33130.85
329.718	33434.56
330.089	33735.74
330.46	34027.36
330.831	34294.62
331.202	34548.25
331.573	34793.99
331.944	35020.98
332.315	35249.64
332.686	35462.74
333.057	35664.49
333.428	35842.71
333.799	36011.93
334.169	36164.38
334.54	36306.35
334.911	36416.44
335.281	36550.44
335.652	36669.03
336.022	36802.5
336.393	36946.97
336.763	37108.24
337.134	37299.23
337.504	37502.88
337.874	37704.11
338.245	37908.85
338.615	38125.96
338.985	38358.71
339.355	38581.93
339.726	38808.71
340.096	39032.56
340.466	39284.39
340.836	39530.14
341.206	39772.63
341.576	40020.43
341.945	40259.59
342.315	40490.36
342.685	40736.04
343.055	40979.01
343.425	41217.98
343.794	41451.71
344.164	41690.46
344.533	41921.81
344.903	42147.25
345.273	42376.89
345.642	42607.67
346.011	42826.65
346.381	43060.22
346.75	43294.24
347.12	43542.76
347.489	43790.63
347.858	44027.91
348.227	44236.99
348.596	44446.6
348.965	44689.1
349.334	44916.27
349.704	45156.33
350.072	45400.98
350.441	45636.6
350.81	45876.89
351.179	46104.46
351.548	46339.34
351.917	46557.61
352.285	46752.14
352.654	46959.01
353.023	47169.29
353.391	47360.48
353.76	47585.29
354.129	47771.24
354.497	47995.56
354.865	48210.46
355.234	48440.43
355.602	48661.74
355.971	48913.94
356.339	49133.93
356.707	49339.55
357.075	49560.68
357.443	49773.98
357.811	49985.27
358.18	50198.48
358.548	50410.47
358.916	50623.21
359.284	50839.82
359.651	51054.97
360.019	51274.86
360.387	51473.81
360.755	51671.14
361.123	51904.29
361.49	52127.62
361.858	52348.97
362.226	52550.49
362.593	52754.18
362.961	52933.51
363.328	53135.33
363.696	53293.98
364.063	53514.48
364.43	53722.37
364.798	53940.45
365.165	54121
365.532	54311.12
365.899	54494.8
366.267	54658.17
366.634	54801.85
367.001	54966.08
367.368	55109.69
367.735	55291.34
368.102	55462.22
368.469	55652.09
368.835	55832.01
369.202	55987.52
369.569	56172.36
369.936	56349.65
370.303	56527.98
370.669	56723.34
371.036	56890.17
371.402	57097.08
371.769	57271.64
372.135	57422.48
372.502	57540.86
372.868	57686.51
373.235	57826.15
373.601	57958.92
373.967	58127.53
374.333	58321.94
374.7	58501.01
375.066	58698.58
375.432	58882.64
375.798	59066.71
376.164	59233.59
376.53	59376.21
376.896	59550.47
377.262	59722.11
377.628	59850.37
377.993	60003.28
378.359	60151.51
378.725	60308.76
379.091	60461.75
379.456	60592.1
379.822	60723.15
380.187	60865.34
380.553	61051.54
380.918	61246.44
381.284	61420.64
381.649	61597.03
382.015	61733.14
382.38	61857.7
382.745	62022.92
383.11	62175.04
383.476	62313.27
383.841	62442.87
384.206	62605.79
384.571	62724.88
384.936	62851.28
385.301	63028.95
385.666	63160.19
386.031	63310.85
386.396	63460.39
386.76	63607.09
387.125	63798.58
387.49	63999.97
387.855	64201.66
388.219	64366.9
388.584	64536.02
388.948	64730.37
389.313	64883.59
389.677	65084.51
390.042	65311.33
390.406	65460.51
390.771	65648.63
391.135	65841.54
391.499	66073.86
391.863	66301.31
392.227	66540.97
392.592	66748.57
392.956	66937.38
393.32	67137.75
393.684	67349.47
394.048	67527.75
394.412	67712.95
394.775	67865.61
395.139	68013.02
395.503	68171.97
395.867	68322.49
396.231	68460.85
396.594	68562.24
396.958	68700.83
397.321	68862.44
397.685	68988.93
398.048	69135.32
398.412	69261.7
398.775	69390.95
399.139	69508.18
399.502	69617.11
399.865	69753.05
400.228	69940.28
400.592	70081.94
400.955	70264.35
401.318	70399.61
401.681	70556.92
402.044	70683.17
402.407	70838.11
402.77	70992.61
403.133	71172.32
403.496	71312
403.859	71470.72
404.221	71706.95
404.584	71945.17
404.947	72182.87
405.309	72383.21
405.672	72617.16
406.034	72832.39
406.397	73077.02
406.759	73297.9
407.122	73471.1
407.484	73643.1
407.847	73827.88
408.209	74072.29
408.571	74303.32
408.933	74563.93
409.296	74816.91
409.658	75057.31
410.02	75327.15
410.382	75643.43
410.744	75904.48
411.106	76196.85
411.468	76467.03
411.83	76706.94
412.191	76908.21
412.553	77086.03
412.915	77309.27
413.277	77518.05
413.638	77728.31
414	77903.26
414.361	78087.75
414.723	78325.62
415.084	78544.41
415.446	78719.34
415.807	78860.98
416.169	78974.81
416.53	79065.19
416.891	79178.46
417.252	79314.92
417.614	79394.14
417.975	79435.9
418.336	79490.53
418.697	79548.13
419.058	79603.12
419.419	79645.84
419.78	79691.37
420.141	79723.83
420.501	79749.82
420.862	79770.8
421.223	79789.21
421.584	79827.96
421.944	79849.4
422.305	79861.34
422.666	79870.96
423.026	79874.87
423.387	79886.47
423.747	79896.46
424.107	79908.58
424.468	79919.31
424.828	79923.74
425.188	79928.99
425.549	79937.25
425.909	79942.24
426.269	79941.65
426.629	79946
426.989	79950.29
427.349	79955.94
427.709	79960.67
428.069	79964.4
428.429	79969.79
428.789	79977.66
429.149	79982.46
429.508	79987.86
429.868	79993.99
430.228	79999.2
430.587	80002.89
430.947	80007.81
431.306	80014.13
431.666	80017.6
432.025	80020.52
432.385	80024.07
432.744	80027.07
433.103	80028.21
433.463	80031.21
433.822	80039.07
434.181	80042.55
434.54	80044.62
434.899	80045.84
435.258	80048.02
435.618	80049.57
435.976	80052.5
436.335	80051.42
436.694	80052.05
437.053	80052.9
437.412	80053.35
437.771	80053.98
438.129	80054.9
438.488	80055.27
438.847	80056.49
439.205	80057.3
439.564	80059.6
439.922	80059.89
440.281	80059.86
440.639	80062.11
440.997	80061.45
441.356	80062.37
441.714	80063.26
442.072	80064.11
442.431	80063.93
442.789	80063.33
443.147	80062.93
443.505	80063.22
443.863	80066.92
444.221	80067.52
444.579	80068.37
444.937	80069.11
445.294	80070.62
445.652	80071.14
446.01	80073.36
446.368	80072.62
446.725	80073.14
447.083	80071.77
447.441	80071.99
447.798	80072.77
448.156	80072.81
448.513	80073.88
448.87	80074.84
449.228	80074.25
449.585	80074.51
449.942	80075.8
450.3	80077.14
450.657	80079.5
451.014	80079.43
451.371	80077.99
451.728	80078.5
452.085	80078.02
452.442	80076.95
452.799	80075.84
453.156	80076.76
453.513	80075.54
453.869	80075.84
454.226	80075.06
454.583	80075.21
454.939	80076.28
455.296	80077.54
455.653	80079.5
456.009	80079.43
456.366	80078.65
456.722	80079.28
457.078	80080.21
457.435	80079.47
457.791	80080.69
458.147	80079.36
458.503	80080.58
458.86	80081.35
459.216	80080.72
459.572	80081.02
459.928	80082.46
460.284	80083.72
460.64	80083.2
460.996	80084.09
461.351	80084.39
461.707	80085.79
462.063	80086.68
462.419	80086.2
462.774	80087.2
463.13	80086.35
463.486	80086.53
463.841	80087.09
464.197	80087.57
464.552	80087.42
464.908	80086.94
465.263	80086.76
465.618	80088.53
465.974	80086.87
466.329	80086.54
466.684	80087.72
467.039	80087.16
467.394	80087.5
467.749	80087.79
468.104	80090.72
468.459	80091.46
468.814	80093.2
469.169	80093.12
469.524	80091.79
469.879	80092.01
470.233	80091.16
470.588	80092.9
470.943	80094.64
471.297	80093.53
471.652	80095.01
472.006	80094.94
472.361	80097.34
472.715	80098.38
473.07	80098.01
473.424	80100.75
473.778	80098.68
474.133	80100.01
474.487	80101.94
474.841	80103.19
475.195	80103.12
475.549	80102.08
475.903	80101.19
476.257	80101.68
476.611	80103.56
476.965	80106.86
477.319	80109.3
477.673	80109.71
478.026	80108.12
478.38	80107.49
478.734	80109.97
479.087	80109.12
479.441	80111.08
479.795	80111.04
480.148	80110.41
480.502	80111.37
480.855	80112.34
481.208	80115.11
481.562	80114.96
481.915	80115.63
482.268	80115.26
482.621	80115.85
482.974	80116.08
483.328	80118.15
483.681	80117.19
484.034	80117.07
484.387	80116.59
484.739	80116.33
485.092	80116.96
485.445	80117.85
485.798	80118.89
486.151	80119.81
486.503	80120.93
486.856	80119.59
487.209	80119.89
487.561	80120.41
487.914	80119.59
488.266	80118.37
488.618	80117.96
488.971	80117.96
489.323	80117
489.675	80117.52
490.028	80117.48
490.38	80117.33
490.732	80118.15
491.084	80117.48
491.436	80117.26
491.788	80117.45
492.14	80118.08
492.492	80119.37
492.844	80120.11
493.196	80119.19
493.548	80118.63
493.899	80118.93
494.251	80120.04
494.603	80120.48
494.954	80121.41
495.306	80120.52
495.657	80122.37
496.009	80122.78
496.36	80122.74
496.712	80124.59
497.063	80122.63
497.414	80123.85
497.765	80124.56
498.117	80123.3
498.468	80124.63
498.819	80125.11
499.17	80123.78
499.521	80122.04
499.872	80121.26
500.223	80121.67
500.574	80121.7
500.924	80121.56
501.275	80122.45
501.626	80123.19
501.977	80122.19
502.327	80122.37
502.678	80125.52
503.029	80123.67
503.379	80124.04
503.73	80124.56
504.08	80122.74
504.43	80122.82
504.781	80123.26
505.131	80123.56
505.481	80122.78
505.831	80121.71
506.182	80121
506.532	80122.71
506.882	80123.15
507.232	80122.59
507.582	80122.22
507.932	80122.93
508.281	80123.74
508.631	80122.52
508.981	80120.04
509.331	80121.63
509.681	80120.26
510.03	80117.26
510.38	80119.37
510.729	80120.08
511.079	80120.19
511.428	80121.19
511.778	80121.89
512.127	80119.82
512.476	80119.37
512.826	80120.08
513.175	80121.52
513.524	80122.37
513.873	80122.63
514.222	80122.37
514.571	80120.48
514.92	80120.04
515.269	80121.3
515.618	80120.3
515.967	80118.71
516.316	80121.19
516.665	80119.78
517.014	80120.48
517.362	80120.11
517.711	80117.74
518.059	80116.04
518.408	80114.93
518.757	80115.15
519.105	80115.97
519.453	80118.19
519.802	80118.74
520.15	80118.48
520.498	80116.56
520.847	80115.26
521.195	80113.37
521.543	80113.3
521.891	80116.04
522.239	80115.97
522.587	80115.78
522.935	80117
523.283	80118.93
523.631	80117.48
523.979	80118.93
524.326	80119.93
524.674	80122.15
525.022	80122.78
525.369	80124.11
525.717	80125.41
526.064	80123.85
526.412	80123.48
526.759	80122.82
527.107	80122.37
527.454	80122.48
527.801	80123.85
528.149	80124.67
528.496	80125.04
528.843	80124.81
529.19	80122.81
529.537	80123.82
529.884	80123.41
530.231	80122.26
530.578	80122.07
530.925	80122.96
531.272	80122.44
531.619	80120.89
531.966	80120.04
532.312	80120.22
532.659	80121.04
533.006	80121
533.352	80122.22
533.699	80123.3
534.045	80122.11
534.392	80121.85
534.738	80122
535.084	80123
535.431	80123.63
535.777	80124.07
536.123	80125
536.469	80125.63
536.815	80123.33
537.161	80123.22
537.507	80122.07
537.853	80121.44
538.199	80119.96
538.545	80118.67
538.891	80119.3
539.237	80119.26
539.582	80119.3
539.928	80118
540.274	80118.37
540.619	80119.48
540.965	80118.22
541.31	80118.41
541.656	80120.08
542.001	80119.78
542.347	80119.67
542.692	80119.48
543.037	80118.45
543.382	80118.74
543.728	80120.96
544.073	80121.26
544.418	80120.3
544.763	80121.41
545.108	80121.04
545.453	80122.11
545.798	80121.04
546.142	80121.19
546.487	80122.45
546.832	80121.52
547.177	80123.59
547.521	80124.78
547.866	80125.04
548.211	80125.82
548.555	80127.41
548.9	80126.19
549.244	80125.93
549.588	80124.08
549.933	80123.78
550.277	80124.74
550.621	80124.15
550.965	80122.11
551.31	80121.71
551.654	80123.19
551.998	80123.04
552.342	80123.41
552.686	80124.37
553.03	80126.7
553.373	80126.74
553.717	80125.26
554.061	80125.59
554.405	80124.41
554.748	80122.26
555.092	80121.37
555.436	80120.85
555.779	80118.74
556.123	80118.48
556.466	80118.63
556.81	80119.52
557.153	80120
557.496	80119.74
557.839	80120.44
558.183	80120.52
558.526	80121.89
558.869	80120.22
559.212	80120.15
559.555	80119.59
559.898	80118.89
560.241	80118.44
560.584	80118.93
560.927	80120.82
561.269	80121.93
561.612	80121.48
561.955	80121.52
562.297	80120.41
562.64	80121.93
562.983	80124.37
563.325	80124.78
563.668	80125.33
564.01	80124.52
564.352	80122.48
564.695	80120.93
565.037	80120.3
565.379	80120.78
565.721	80120.15
566.063	80119.26
566.406	80119.93
566.748	80120.82
567.09	80122.08
567.431	80121.48
567.773	80120.37
568.115	80118.89
568.457	80118.67
568.799	80117.85
569.14	80118.56
569.482	80118.93
569.824	80117.67
570.165	80114.67
570.507	80114.11
570.848	80114
571.19	80115.34
571.531	80115.71
571.872	80116.59
572.214	80117
572.555	80117.33
572.896	80118.96
573.237	80119.67
573.578	80118.52
573.919	80119.08
574.26	80117.78
574.601	80119.33
574.942	80117.78
575.283	80117.04
575.624	80116.67
575.964	80116.82
576.305	80116.37
576.646	80116.78
576.986	80116.71
577.327	80117.74
577.667	80118.78
578.008	80117.93
578.348	80117.37
578.689	80119.19
579.029	80119.82
579.369	80119.85
579.71	80118.11
580.05	80116.59
580.39	80117.26
580.73	80117.78
581.07	80117.26
581.41	80117.52
581.75	80115.22
582.09	80116.3
582.43	80115.96
582.769	80115.48
583.109	80114.89
583.449	80112.67
583.789	80111.26
584.128	80110.34
584.468	80109.82
584.807	80109.08
585.147	80110.08
585.486	80109.6
585.825	80108.52
586.165	80108.48
586.504	80107.08
586.843	80107.52
587.182	80107.74
587.522	80106.19
587.861	80107.12
588.2	80105.6
588.539	80104.45
588.878	80104.93
589.216	80105.82
589.555	80104.6
589.894	80104.6
590.233	80105.6
590.572	80106.82
590.91	80107.37
591.249	80107.63
591.587	80105.97
591.926	80104.49
592.264	80102.71
592.603	80100.86
592.941	80100.53
593.279	80099.53
593.618	80099.9
593.956	80101.12
594.294	80099.9
594.632	80100.45
594.97	80098.45
595.308	80099.31
595.646	80099.86
595.984	80100.34
596.322	80099.9
596.66	80099.79
596.998	80100.45
597.335	80099.68
597.673	80098.9
598.011	80097.86
598.348	80097.82
598.686	80098.79
599.023	80098.71
599.361	80098.6
599.698	80099.23
600.035	80097.12
600.373	80097.01
600.71	80095.86
601.047	80094.46
601.384	80093.49
601.722	80093.79
602.059	80093.53
602.396	80092.68
602.733	80091.27
603.069	80089.64
603.406	80088.64
603.743	80091.05
604.08	80089.5
604.417	80090.2
604.753	80089.35
605.09	80089.87
605.426	80089.5
605.763	80090.9
606.099	80092.12
606.436	80091.61
606.772	80092.57
607.109	80094.09
607.445	80093.68
607.781	80094.27
608.117	80093.68
608.453	80094.53
608.79	80094.71
609.126	80094.16
609.462	80094.2
609.798	80094.83
610.133	80095.34
610.469	80095.6
610.805	80094.79
611.141	80095.42
611.477	80094.01
611.812	80094.97
612.148	80094.97
612.483	80094.16
612.819	80093.16
613.154	80092.01
613.49	80093.08
613.825	80091.6
614.16	80092.34
614.496	80094.05
614.831	80094.83
615.166	80094.16
615.501	80093.83
615.836	80092.42
616.171	80094.23
616.506	80095.45
616.841	80094.79
617.176	80094.42
617.511	80095.12
617.846	80094.31
618.18	80095.16
618.515	80095.12
618.85	80095.6
619.184	80095.31
619.519	80095.86
619.853	80096.38
620.188	80097.23
620.522	80096.23
620.856	80095.75
621.191	80094.75
621.525	80093.38
621.859	80091.86
622.193	80090.94
622.527	80090.87
622.861	80091.2
623.195	80089.98
623.529	80088.02
623.863	80089.13
624.197	80089.57
624.531	80087.9
624.865	80087.09
625.198	80084.8
625.532	80085.28
625.866	80084.17
626.199	80083.17
626.533	80082.83
626.866	80080.91
627.2	80081.02
627.533	80080.61
627.866	80082.17
628.2	80082.72
628.533	80082.8
628.866	80083.09
629.199	80085.09
629.532	80083.39
629.865	80083.65
630.198	80082.69
630.531	80082.46
630.864	80082.43
631.197	80080.84
631.529	80081.17
631.862	80082.28
632.195	80082.28
632.527	80081.32
632.86	80081.54
633.193	80083.39
633.525	80082.69
633.857	80082.83
634.19	80081.87
634.522	80082.83
634.854	80081.13
635.187	80080.24
635.519	80079.87
635.851	80078.43
636.183	80077.32
636.515	80079.28
636.847	80078.76
637.179	80079.76
637.511	80079.98
637.843	80081.02
638.174	80081.54
638.506	80081.21
638.838	80079.39
639.17	80079.58
639.501	80079.99
639.833	80079.5
640.164	80078.39
640.496	80079.21
640.827	80079.54
641.158	80078.73
641.49	80077.91
641.821	80077.88
642.152	80078.25
642.483	80078.25
642.814	80080.1
643.145	80079.69
643.476	80078.87
643.807	80078.25
644.138	80078.36
644.469	80079.06
644.8	80076.95
645.131	80077.62
645.461	80078.24
645.792	80078.95
646.122	80077.58
646.453	80077.54
646.784	80077.54
647.114	80076.8
647.444	80076.47
647.775	80076.8
648.105	80076.73
648.435	80076.58
648.765	80078.43
649.096	80077.25
649.426	80075.54
649.756	80074.88
650.086	80075.28
650.416	80075.54
650.746	80076.58
651.075	80075.65
651.405	80075.28
651.735	80074.73
652.065	80073.32
652.394	80073.14
652.724	80072.84
653.054	80072.84
653.383	80071.18
653.712	80070.29
654.042	80068.63
654.371	80068.81
654.701	80067.48
655.03	80067.29
655.359	80067.37
655.688	80065.7
656.017	80065.96
656.346	80067.29
656.675	80067.52
657.004	80067.66
657.333	80067.63
657.662	80065.07
657.991	80065.22
658.32	80063.74
658.648	80063.56
658.977	80063.74
659.306	80062.59
659.634	80063
659.963	80063.63
660.291	80065.11
660.619	80065.41
660.948	80065.85
661.276	80064.41
661.604	80064.26
661.933	80063.22
662.261	80063.67
662.589	80062.15
662.917	80061.67
663.245	80060.71
663.573	80059.75
663.901	80059.71
664.229	80058.64
664.556	80059.12
664.884	80057.53
665.212	80058.93
665.539	80057.79
665.867	80058.82
666.195	80059.82
666.522	80058.9
666.85	80057.49
667.177	80057.05
667.504	80055.16
667.832	80055.12
668.159	80056.05
668.486	80056.75
668.813	80056.68
669.14	80056.9
669.467	80058.49
669.794	80058.67
670.121	80056.86
670.448	80057.6
670.775	80056.83
671.102	80058.16
671.429	80057.53
671.755	80057.71
672.082	80055.05
672.409	80056.35
672.735	80054.05
673.062	80052.02
673.388	80052.65
673.714	80053.46
674.041	80053.09
674.367	80053.72
674.693	80055.42
675.019	80054.42
675.346	80052.83
675.672	80052.53
675.998	80051.83
676.324	80050.83
676.65	80048.98
676.976	80049.76
677.301	80048.24
677.627	80047.17
677.953	80046.28
678.279	80046.62
678.604	80047.54
678.93	80048.5
679.255	80047.98
679.581	80048.06
679.906	80048.91
680.232	80048.06
680.557	80047.84
680.882	80047.54
681.208	80047.06
681.533	80045.51
681.858	80044.91
682.183	80044.88
682.508	80045.47
682.833	80044.14
683.158	80044.21
683.483	80044.88
683.808	80045.84
684.132	80044.8
684.457	80044.36
684.782	80042.84
685.106	80043.25
685.431	80043.17
685.755	80042.95
686.08	80041.62
686.404	80042.47
686.729	80040.44
687.053	80040.48
687.377	80040.29
687.701	80039.7
688.026	80039.07
688.35	80038.48
688.674	80037.44
688.998	80037.44
689.322	80035
689.646	80033.23
689.97	80032.64
690.293	80031.42
690.617	80029.05
690.941	80028.09
691.264	80027.05
691.588	80026.83
691.912	80025.54
692.235	80022.17
692.559	80021.58
692.882	80019.4
693.205	80016.93
693.529	80015.26
693.852	80011.82
694.175	80007.28
694.498	80004.47
694.821	80001.63
695.144	79998.23
695.467	79992.87
695.79	79988.07
696.113	79984.19
696.436	79978.95
696.759	79970.38
697.082	79964.62
697.404	79957.13
697.727	79947.09
698.049	79935.59
698.372	79918.52
698.694	79901.2
699.017	79881.43
699.339	79856.59
699.662	79829.16
699.984	79781.03
700.306	79723.06
700.628	79635.45
700.95	79522.06
701.272	79389.51
701.594	79245.38
701.916	79105.03
702.238	78950.61
702.56	78744.72
702.882	78543.98
703.204	78363.47
703.525	78156.19
703.847	77909.68
704.169	77679.75
704.49	77429.29
704.812	77176.83
705.133	76928.68
705.455	76669.14
705.776	76390.77
706.097	76128.37
706.419	75854.79
706.74	75581.59
707.061	75293.33
707.382	74998.52
707.703	74717.45
708.024	74465.55
708.345	74198.47
708.666	73904.22
708.987	73608.7
709.307	73372.85
709.628	73088.54
709.949	72781.36
710.27	72479.53
710.59	72223.48
710.911	71930.1
711.231	71632.27
711.552	71350.72
711.872	71023.63
712.192	70753.53
712.512	70495.5
712.833	70221.9
713.153	69945.33
713.473	69705.46
713.793	69479.11
714.113	69269.35
714.433	69062.11
714.753	68853.13
715.073	68654.46
715.393	68460.53
715.712	68293.83
716.032	68067.1
716.352	67889.67
716.671	67721.81
716.991	67551.56
717.31	67358.23
717.63	67200.85
717.949	67027.64
718.268	66831.53
718.588	66658.69
718.907	66431.31
719.226	66177.71
719.545	65932.11
719.864	65660.92
720.183	65388.77
720.502	65114.15
720.821	64847.92
721.14	64572.69
721.459	64261.54
721.778	63991.38
722.096	63676.79
722.415	63382.51
722.734	63129
723.052	62857.53
723.371	62573.77
723.689	62299.53
724.008	62012.34
724.326	61712.9
724.644	61445.12
724.963	61173.77
725.281	60943.36
725.599	60716.17
725.917	60528.16
726.235	60331.91
726.553	60180.1
726.871	59998.02
727.189	59799.13
727.507	59597.96
727.824	59439.08
728.142	59303.07
728.46	59108.27
728.777	59002.38
729.095	58862.11
729.413	58713.75
729.73	58560.27
730.047	58422.86
730.365	58308.37
730.682	58203.84
730.999	58117.86
731.317	58045.14
731.634	57968.77
731.951	57852.83
732.268	57728.51
732.585	57583.65
732.902	57425.3
733.219	57267.47
733.536	57087.72
733.852	56957.83
734.169	56833.66
734.486	56696.07
734.802	56536.73
735.119	56420.2
735.435	56244.66
735.752	56088.88
736.068	55910.46
736.385	55755.01
736.701	55560.36
737.017	55330.79
737.333	55088.62
737.65	54786.33
737.966	54416.42
738.282	54021.52
738.598	53614.97
738.914	53161.69
739.23	52670.5
739.545	52155.03
739.861	51602.8
740.177	51059.05
740.493	50471.11
740.808	49885.44
741.124	49268.3
741.439	48689.35
741.755	48121.04
742.07	47605.82
742.386	47045.92
742.701	46549.58
743.016	46049.21
743.331	45585.73
743.647	45160.65
743.962	44770.84
744.277	44430.47
744.592	44155.09
744.907	43938.85
745.222	43772.13
745.537	43678.54
745.851	43651.5
746.166	43668.02
746.481	43720.47
746.795	43829.83
747.11	43975.11
747.424	44154.58
747.739	44321.24
748.053	44500.85
748.368	44650.53
748.682	44751.02
748.996	44889.71
749.311	44988.01
749.625	45085.01
749.939	45180.31
750.253	45243.03
750.567	45310.61
750.881	45371.14
751.195	45432.87
751.509	45499.33
751.822	45548.51
752.136	45595.82
752.45	45647.76
752.763	45718.87
753.077	45778.34
753.39	45816.52
753.704	45849.55
754.017	45867.95
754.331	45898.78
754.644	45903.77
754.957	45908.85
755.27	45924.33
755.584	45929.68
755.897	45943.35
756.21	45939.39
756.523	45916.49
756.836	45896.57
757.149	45823.13
757.461	45752.7
757.774	45671.33
758.087	45551.67
758.4	45414.99
758.712	45267.03
759.025	45116.98
759.337	44957.58
759.65	44805.12
759.962	44647.79
760.275	44484.83
760.587	44340.9
760.899	44210.23
761.211	44112.79
761.523	44045.59
761.836	44046.12
762.148	44054.86
762.46	44080.92
762.772	44145.4
763.083	44276.95
763.395	44418.88
763.707	44632.73
764.019	44857.11
764.33	45087.63
764.642	45346.39
764.954	45614.56
765.265	45892.32
765.577	46145.93
765.888	46383.23
766.199	46619.76
766.511	46837.67
766.822	47059.9
767.133	47235.38
767.444	47397.6
767.755	47494.02
768.066	47556
768.377	47544.96
768.688	47480.66
768.999	47399.34
769.31	47274.83
769.621	47086.49
769.931	46869.29
770.242	46617
770.553	46317.44
770.863	45985.02
771.174	45625.21
771.484	45240.54
771.794	44835
772.105	44431.79
772.415	44008.7
772.725	43565.45
773.035	43133.08
773.345	42675.71
773.656	42210.98
773.966	41744.38
774.276	41307.83
774.585	40876.05
774.895	40444.28
775.205	40063.25
775.515	39662.21
775.824	39273.54
776.134	38887.79
776.444	38525.6
776.753	38165.6
777.063	37828.08
777.372	37508.89
777.681	37188.14
777.991	36887.94
778.3	36586.19
778.609	36289.37
778.918	36012.78
779.228	35746.61
779.537	35477.33
779.846	35221.99
780.154	34978.19
780.463	34749.89
780.772	34511.22
781.081	34281.95
781.39	34082.34
781.698	33866.49
782.007	33667.95
782.316	33460.89
782.624	33250.98
782.932	33052.91
783.241	32859.48
783.549	32668.1
783.858	32491.53
784.166	32325.69
784.474	32151.05
784.782	31989.96
785.09	31835.15
785.398	31687.13
785.706	31545.58
786.014	31409.25
786.322	31271.48
786.63	31140.21
786.937	31015.41
787.245	30892.57
787.553	30774.54
787.86	30664.33
788.168	30544.11
788.475	30434.88
788.783	30345.27
789.09	30248.76
789.398	30154.05
789.705	30053.38
790.012	29951.31
790.319	29849.12
790.626	29745.67
790.933	29659.89
791.24	29575.98
791.547	29483.41
791.854	29390.31
792.161	29296.4
792.468	29196.76
792.774	29103.43
793.081	29014.16
793.388	28922.73
793.694	28823.52
794.001	28732.66
794.307	28608.06
794.614	28507.78
794.92	28383.54
795.226	28252.26
795.533	28142.89
795.839	28040.56
796.145	27929.75
796.451	27823.77
796.757	27715.18
797.063	27608.14
797.369	27493.15
797.675	27381.82
797.98	27281.83
798.286	27159.21
798.592	27056.51
798.898	26950.97
799.203	26839.06
799.509	26722.62
799.814	26602.59
800.12	26505.69
800.425	26388.03
800.73	26285.24
801.035	26170.39
801.341	26070.71
801.646	25970.66
801.951	25869.81
802.256	25770.58
802.561	25669.22
802.866	25575.14
803.171	25485.26
803.476	25400.15
803.78	25311.36
804.085	25217.37
804.39	25102.16
804.694	25009.96
804.999	24911.4
805.303	24818.11
805.608	24733.28
805.912	24652.38
806.216	24584.15
806.521	24514.5
806.825	24442.91
807.129	24367.18
807.433	24291.59
807.737	24217.3
808.041	24161.2
808.345	24109.72
808.649	24049.57
808.953	24005.16
809.257	23946.99
809.561	23892.7
809.864	23834.96
810.168	23803.15
810.471	23771
810.775	23746.73
811.078	23723.62
811.382	23695.12
811.685	23687.88
811.988	23679.74
812.292	23668.75
812.595	23660.21
812.898	23654.73
813.201	23664.5
813.504	23687.45
813.807	23710.48
814.11	23744.65
814.413	23770.99
814.716	23793.15
815.018	23842.17
815.321	23896.28
815.624	23976.94
815.926	24077.66
816.229	24202.31
816.531	24341.85
816.834	24497.88
817.136	24695.98
817.438	24912.65
817.74	25184.83
818.043	25499.64
818.345	25873.31
818.647	26328.02
818.949	26873.41
819.251	27510.8
819.553	28259.95
819.855	29128.64
820.156	30101.18
820.458	31180.02
820.76	32329.95
821.062	33542.77
821.363	34797.88
821.665	36132.42
821.966	37563.08
822.268	39011.02
822.569	40457.43
822.87	41938.85
823.171	43431.16
823.473	44960.15
823.774	46531.76
824.075	48053.21
824.376	49541.22
824.677	51002.88
824.978	52378.6
825.279	53663.38
825.58	54831.45
825.88	55862.51
826.181	56740.9
826.482	57527.31
826.782	58146.59
827.083	58664.18
827.383	59039.13
827.684	59258.61
827.984	59337.68
828.284	59244.7
828.585	59015.4
828.885	58713.63
829.185	58247.76
829.485	57690.31
829.785	57012.34
830.085	56171.67
830.385	55298.66
830.685	54360.74
830.985	53320.7
831.285	52251.11
831.584	51131.43
831.884	49981.47
832.183	48815.3
832.483	47611.5
832.782	46342.65
833.082	45068.19
833.381	43786.79
833.681	42555.55
833.98	41389.95
834.279	40259.08
834.578	39152.53
834.877	38122.71
835.176	37115.53
835.475	36185.38
835.774	35301.2
836.073	34440.77
836.372	33633.67
836.671	32828.13
836.969	32033.43
837.268	31292.68
837.567	30582.37
837.865	29905.4
838.164	29232.03
838.462	28580.54
838.761	27976.64
839.059	27392.9
839.357	26844.4
839.655	26315.27
839.953	25787.02
840.252	25270.76
840.55	24750.71
840.848	24248.3
841.146	23759.79
841.443	23268.13
841.741	22771.74
842.039	22267.46
842.337	21769.2
842.634	21311.84
842.932	20873.95
843.229	20453.35
843.527	20038.67
843.824	19601.95
844.122	19157.64
844.419	18741.44
844.716	18319.25
845.013	17903.82
845.311	17523.3
845.608	17157.61
845.905	16802.67
846.202	16446.1
846.499	16074.01
846.796	15716.32
847.092	15354.32
847.389	14991.22
847.686	14654.27
847.982	14339.67
848.279	14035.2
848.576	13748.38
848.872	13453.36
849.168	13166.63
849.465	12888.21
849.761	12599.56
850.057	12329.41
850.354	12071.19
850.65	11821.79
850.946	11594.53
851.242	11379.32
851.538	11160.32
851.834	10944.81
852.13	10728.38
852.425	10532.29
852.721	10357.87
853.017	10196.11
853.312	10051.7
853.608	9907.59
853.903	9771.2
854.199	9625.82
854.494	9496.7
854.79	9364.65
855.085	9238.2
855.38	9108.15
855.675	8978.62
855.971	8861.89
856.266	8764.68
856.561	8669.18
856.856	8579.13
857.151	8486.1
857.445	8384.45
857.74	8291.34
858.035	8202.41
858.33	8112.48
858.624	8030.75
858.919	7952.63
859.213	7865.47
859.508	7779.78
859.802	7693.01
860.096	7609.57
860.391	7546.96
860.685	7484.67
860.979	7426.08
861.273	7376.37
861.567	7322.5
861.861	7259.78
862.155	7208.17
862.449	7138.47
862.743	7073
863.037	7014.05
863.33	6959.27
863.624	6908.22
863.918	6862
864.211	6821.26
864.505	6788.69
864.798	6746.87
865.092	6701.73
865.385	6657.36
865.678	6606.29
865.971	6572.97
866.264	6543.29
866.558	6516.11
866.851	6486.16
867.144	6457.54
867.437	6422.39
867.729	6390.22
868.022	6370.82
868.315	6350.97
868.608	6339.29
868.9	6332.3
869.193	6315.38
869.485	6288.43
869.778	6264.25
870.07	6236.55
870.363	6214.14
870.655	6197.25
870.947	6188.09
871.239	6181.99
871.532	6181.44
871.824	6186.74
872.116	6184.34
872.408	6178.74
872.699	6164.3
872.991	6156.58
873.283	6149.17
873.575	6148.92
873.867	6157.23
874.158	6163.38
874.45	6158.53
874.741	6157.72
875.033	6156.51
875.324	6169.45
875.615	6190.93
875.907	6214.77
876.198	6229.82
876.489	6240.63
876.78	6243.15
877.071	6244.36
877.362	6245.52
877.653	6248.64
877.944	6258.84
878.235	6269.13
878.526	6277.64
878.816	6294.4
