Data from 24HourExp_27052025_FLMS018081_14-38-19-935.txt Node
Date: Tue May 27 14:38:19 BST 2025
User: adleo
Spectrometer: FLMS01808
Trigger mode: 0
Integration Time (sec): 4.000000E-1
Scans to average: 10
Electric dark correction enabled: true
Nonlinearity correction enabled: true
Boxcar width: 10
XAxis mode: Wavelengths
Number of Pixels in Spectrum: 2048
>>>>>Begin Spectral Data<<<<<
178.471	-127.95
178.857	-121.27
179.244	-115.54
179.631	-109.19
180.017	-99.75
180.404	-91.72
180.79	-80.63
181.176	-70.76
181.563	-61.18
181.949	-50.15
182.335	-39.78
182.722	-24.26
183.108	-5.36
183.494	20.76
183.88	73.79
184.266	127.7
184.653	184.09
185.039	240.62
185.425	295.82
185.811	349.28
186.197	403.1
186.582	454.2
186.968	506.66
187.354	559
187.74	611.32
188.126	661.16
188.511	711.96
188.897	759.43
189.283	806.14
189.668	852.27
190.054	894.43
190.439	939.22
190.825	982.7
191.21	1023.81
191.596	1057.29
191.981	1065.07
192.366	1068.89
192.752	1070.78
193.137	1071.57
193.522	1072.83
193.908	1074.78
194.293	1077.23
194.678	1080
195.063	1082.19
195.448	1083.45
195.833	1083.88
196.218	1084.15
196.603	1082.2
196.988	1081.22
197.373	1081.12
197.757	1080.68
198.142	1083.37
198.527	1080.74
198.912	1081.15
199.296	1079.66
199.681	1078.14
200.066	1076.22
200.45	1075.72
200.835	1075.53
201.219	1076.34
201.604	1078
201.988	1078.92
202.372	1079.01
202.757	1078.55
203.141	1078.18
203.525	1080.04
203.91	1081.06
204.294	1081.59
204.678	1083.34
205.062	1083.84
205.446	1083.97
205.83	1086.54
206.214	1084.64
206.598	1086.24
206.982	1087.24
207.366	1087.66
207.75	1088.9
208.134	1090.2
208.517	1093.11
208.901	1093.55
209.285	1093.2
209.669	1092.61
210.052	1092.54
210.436	1092.3
210.819	1093.96
211.203	1096.21
211.586	1096.72
211.97	1097.43
212.353	1096.9
212.737	1097.53
213.12	1099.49
213.503	1101.52
213.886	1099.91
214.27	1102.59
214.653	1103.74
215.036	1105.21
215.419	1106.97
215.802	1109.43
216.185	1111.9
216.568	1114.31
216.951	1117.4
217.334	1120.89
217.717	1124.39
218.1	1125.99
218.482	1131.25
218.865	1132.89
219.248	1136.22
219.631	1139.38
220.013	1142.31
220.396	1149.7
220.778	1155.64
221.161	1159.32
221.544	1164.65
221.926	1173.01
222.308	1179.09
222.691	1186.87
223.073	1195.53
223.455	1203.47
223.838	1212.51
224.22	1222.31
224.602	1231.83
224.984	1241.43
225.366	1252.29
225.749	1266.15
226.131	1280.43
226.513	1291.72
226.895	1306.94
227.276	1319.61
227.658	1333.76
228.04	1348.2
228.422	1364.07
228.804	1381.07
229.186	1397.45
229.567	1415.59
229.949	1432.44
230.331	1451.11
230.712	1468.89
231.094	1483.79
231.475	1503.4
231.857	1521.9
232.238	1540.42
232.62	1557.6
233.001	1578.23
233.382	1597.42
233.763	1614.08
234.145	1633.75
234.526	1653.74
234.907	1672.18
235.288	1691.35
235.669	1710.66
236.05	1731.27
236.431	1748.98
236.812	1767.7
237.193	1788.54
237.574	1807.71
237.955	1828.74
238.336	1849.17
238.717	1869.59
239.097	1893.51
239.478	1915.3
239.859	1936.88
240.239	1960.37
240.62	1986.18
241.001	2008.02
241.381	2032.11
241.762	2055.12
242.142	2078.48
242.522	2103.09
242.903	2128.09
243.283	2155.53
243.663	2183.48
244.044	2213.72
244.424	2243.22
244.804	2270.05
245.184	2300.29
245.564	2328.83
245.944	2358.29
246.324	2388.5
246.704	2419.76
247.084	2448.57
247.464	2479
247.844	2510.53
248.224	2540.07
248.604	2570.71
248.983	2601
249.363	2632.49
249.743	2663.53
250.122	2691.37
250.502	2719.67
250.882	2750.85
251.261	2781.05
251.641	2810.32
252.02	2839.93
252.399	2871.2
252.779	2905.29
253.158	2939.53
253.537	2977.82
253.917	3018.96
254.296	3056.99
254.675	3093.79
255.054	3133.74
255.433	3174.94
255.812	3210.67
256.191	3251.2
256.57	3291.28
256.949	3333.22
257.328	3376.57
257.707	3420.24
258.086	3469.44
258.465	3519.37
258.843	3568.51
259.222	3618.09
259.601	3671.72
259.979	3723.37
260.358	3777.03
260.736	3831.07
261.115	3884.5
261.493	3936.61
261.872	3989.08
262.25	4044.67
262.629	4101.02
263.007	4157.22
263.385	4215.41
263.763	4278.19
264.142	4341.92
264.52	4404.79
264.898	4469.82
265.276	4532.37
265.654	4599.67
266.032	4666.62
266.41	4734.59
266.788	4805.24
267.166	4879.29
267.544	4952.41
267.921	5028.13
268.299	5105.86
268.677	5184.12
269.055	5267.44
269.432	5352.61
269.81	5435.67
270.188	5522.61
270.565	5609.89
270.943	5703.4
271.32	5788.63
271.697	5883.62
272.075	5976.93
272.452	6073.26
272.829	6170.08
273.207	6270.59
273.584	6374.03
273.961	6478.72
274.338	6588.38
274.715	6702.83
275.092	6818.87
275.469	6939.15
275.846	7056.52
276.223	7177.36
276.6	7299.89
276.977	7422.99
277.354	7546.24
277.731	7672.81
278.108	7798.41
278.484	7928
278.861	8056.48
279.238	8199.53
279.614	8337.16
279.991	8477.83
280.367	8621.85
280.744	8772.35
281.12	8923.51
281.497	9070.79
281.873	9223.98
282.249	9376.92
282.625	9523.11
283.002	9668.51
283.378	9815
283.754	9965.53
284.13	10117.74
284.506	10277.91
284.882	10432.8
285.258	10589.35
285.634	10747.62
286.01	10912.91
286.386	11073.87
286.762	11237.14
287.138	11398.28
287.513	11560.31
287.889	11724.84
288.265	11885.22
288.641	12043.93
289.016	12200.36
289.392	12367.17
289.767	12529.39
290.143	12690.22
290.518	12850.05
290.894	13014.93
291.269	13176.72
291.644	13336.86
292.02	13492.3
292.395	13640.48
292.77	13798.3
293.145	13950.19
293.52	14103.98
293.895	14249.59
294.27	14407.48
294.646	14560.78
295.02	14708.49
295.395	14861.42
295.77	15015.38
296.145	15169.88
296.52	15324.95
296.895	15477.16
297.269	15628.06
297.644	15781.41
298.019	15935
298.393	16088.81
298.768	16241.54
299.143	16394.03
299.517	16548.09
299.891	16703.91
300.266	16868.95
300.64	17027.84
301.015	17194.33
301.389	17363.61
301.763	17538.57
302.137	17707.62
302.512	17886.41
302.886	18061.9
303.26	18238.54
303.634	18414.14
304.008	18590.35
304.382	18770.29
304.756	18960.13
305.13	19143.88
305.504	19322.51
305.877	19512.8
306.251	19716.76
306.625	19919.84
306.999	20126.63
307.372	20339.78
307.746	20560.23
308.119	20770.09
308.493	20977.25
308.866	21183.21
309.24	21392.99
309.613	21599.63
309.987	21804.18
310.36	21995.01
310.733	22207.16
311.107	22425.48
311.48	22641.59
311.853	22869.18
312.226	23090.53
312.599	23313.97
312.972	23534.3
313.345	23761.7
313.718	23989.38
314.091	24209.67
314.464	24435.04
314.837	24660.23
315.21	24868.83
315.582	25079.52
315.955	25287.48
316.328	25505.59
316.7	25722.04
317.073	25942.73
317.446	26165
317.818	26396.33
318.191	26629.71
318.563	26853.28
318.936	27059.6
319.308	27265.63
319.68	27468.73
320.053	27671.45
320.425	27859.06
320.797	28048.75
321.169	28208.73
321.541	28351.35
321.913	28483.49
322.285	28603.16
322.657	28723.76
323.029	28873.01
323.401	29013.14
323.773	29175.42
324.145	29351.73
324.517	29542.29
324.889	29710.68
325.26	29913.2
325.632	30129.21
326.004	30366.7
326.375	30616.84
326.747	30892.92
327.118	31195.65
327.49	31481.17
327.861	31781.43
328.233	32084.33
328.604	32388.24
328.975	32704.1
329.346	33015.01
329.718	33320.5
330.089	33623.08
330.46	33918.63
330.831	34187.59
331.202	34449.52
331.573	34694.5
331.944	34918.39
332.315	35143.24
332.686	35369.12
333.057	35560.71
333.428	35730.95
333.799	35898.19
334.169	36053.32
334.54	36194.38
334.911	36306.65
335.281	36436.57
335.652	36564.43
336.022	36704.42
336.393	36852.82
336.763	37016.45
337.134	37197.77
337.504	37395.11
337.874	37595.99
338.245	37803.07
338.615	38019.42
338.985	38248.95
339.355	38472.78
339.726	38697.05
340.096	38916.72
340.466	39163.9
340.836	39411.73
341.206	39663.18
341.576	39904.93
341.945	40147.75
342.315	40375.95
342.685	40621.19
343.055	40870.26
343.425	41105.01
343.794	41335.79
344.164	41566.21
344.533	41799.71
344.903	42028.25
345.273	42265.98
345.642	42490.21
346.011	42718.31
346.381	42948.15
346.75	43173.77
347.12	43419.79
347.489	43668.43
347.858	43910.26
348.227	44121.34
348.596	44341.96
348.965	44570.94
349.334	44798.81
349.704	45032.38
350.072	45277.46
350.441	45511.62
350.81	45740.9
351.179	45967.51
351.548	46200.52
351.917	46423.94
352.285	46624.53
352.654	46834
353.023	47040.88
353.391	47242.27
353.76	47454.44
354.129	47648.51
354.497	47881.1
354.865	48099.61
355.234	48324.39
355.602	48541.68
355.971	48787.88
356.339	48998.06
356.707	49221.27
357.075	49443.42
357.443	49662.02
357.811	49879.64
358.18	50087.89
358.548	50302.68
358.916	50516.35
359.284	50728.5
359.651	50935.48
360.019	51148.45
360.387	51346.91
360.755	51545.53
361.123	51775.99
361.49	51996.37
361.858	52204.55
362.226	52397.89
362.593	52599.26
362.961	52785.63
363.328	52985.09
363.696	53152.68
364.063	53368.62
364.43	53569.28
364.798	53781.43
365.165	53963.03
365.532	54142.65
365.899	54331.65
366.267	54500.36
366.634	54651.42
367.001	54815.33
367.368	54955.23
367.735	55138.41
368.102	55312.42
368.469	55500.21
368.835	55671.84
369.202	55836.37
369.569	56035.56
369.936	56224.35
370.303	56409.33
370.669	56603.56
371.036	56772.19
371.402	56973.07
371.769	57153.72
372.135	57304.42
372.502	57424.2
372.868	57565.62
373.235	57704.06
373.601	57831.02
373.967	58001.98
374.333	58186.17
374.7	58369.32
375.066	58575.63
375.432	58760.41
375.798	58934.77
376.164	59103.24
376.53	59255.62
376.896	59426.43
377.262	59598.14
377.628	59726.63
377.993	59868.74
378.359	60008.32
378.725	60160.02
379.091	60306.14
379.456	60438.96
379.822	60567.71
380.187	60721.96
380.553	60913.54
380.918	61112.92
381.284	61293.19
381.649	61459.96
382.015	61604.22
382.38	61722.09
382.745	61885.54
383.11	62031.06
383.476	62178.01
383.841	62303.58
384.206	62457.52
384.571	62570.65
384.936	62693.28
385.301	62869.26
385.666	62997.12
386.031	63149.68
386.396	63313.36
386.76	63468.35
387.125	63658.33
387.49	63858.52
387.855	64046.38
388.219	64211.11
388.584	64375.35
388.948	64566.77
389.313	64727.56
389.677	64930.93
390.042	65164.97
390.406	65314.53
390.771	65504.42
391.135	65688.55
391.499	65915.88
391.863	66146.28
392.227	66384.47
392.592	66590.17
392.956	66777.79
393.32	66972.81
393.684	67192.88
394.048	67363.13
394.412	67531.15
394.775	67667.97
395.139	67818.66
395.503	67977.73
395.867	68128.66
396.231	68265.25
396.594	68370.08
396.958	68509.45
397.321	68657.42
397.685	68777.6
398.048	68919.65
398.412	69053.1
398.775	69187.87
399.139	69313.66
399.502	69421.46
399.865	69555.29
400.228	69739.19
400.592	69874.57
400.955	70082.28
401.318	70210.88
401.681	70371.95
402.044	70520.78
402.407	70683.17
402.77	70837.62
403.133	71020.88
403.496	71156.82
403.859	71314.63
404.221	71544.41
404.584	71779.85
404.947	72029.63
405.309	72240
405.672	72467.78
406.034	72683.16
406.397	72934.12
406.759	73157.48
407.122	73336.72
407.484	73517.19
407.847	73709.33
408.209	73958.15
408.571	74179.81
408.933	74438.67
409.296	74687.69
409.658	74921.4
410.02	75197.58
410.382	75510.75
410.744	75775.51
411.106	76070.95
411.468	76350.32
411.83	76597.41
412.191	76802.59
412.553	76977.5
412.915	77196.34
413.277	77418.46
413.638	77627.98
414	77801.37
414.361	77984.07
414.723	78223.65
415.084	78447.75
415.446	78624.97
415.807	78769.22
416.169	78886.44
416.53	78988.93
416.891	79108.67
417.252	79249.79
417.614	79337.35
417.975	79384.77
418.336	79443.03
418.697	79505.57
419.058	79562.58
419.419	79606.32
419.78	79652.54
420.141	79688.38
420.501	79721.35
420.862	79747.71
421.223	79769.28
421.584	79812.36
421.944	79837.28
422.305	79851.67
422.666	79861.84
423.026	79866.23
423.387	79880.52
423.747	79891.39
424.107	79904.03
424.468	79914.98
424.828	79920.92
425.188	79926.09
425.549	79935.06
425.909	79940.67
426.269	79939.16
426.629	79945.43
426.989	79950.45
427.349	79956.22
427.709	79961.09
428.069	79963.42
428.429	79968.92
428.789	79975.68
429.149	79979.41
429.508	79983.62
429.868	79988.94
430.228	79994.26
430.587	80000.25
430.947	80005.31
431.306	80011.41
431.666	80015.44
432.025	80018.03
432.385	80021.61
432.744	80025.16
433.103	80029.64
433.463	80033.26
433.822	80041.64
434.181	80045.08
434.54	80047.26
434.899	80047.63
435.258	80051.22
435.618	80052.55
435.976	80056.29
436.335	80055.66
436.694	80057.91
437.053	80059.91
437.412	80061.72
437.771	80061.46
438.129	80062.76
438.488	80063.72
438.847	80065.09
439.205	80062.91
439.564	80063.83
439.922	80063.94
440.281	80063.35
440.639	80063.83
440.997	80064.02
441.356	80065.76
441.714	80067.64
442.072	80067.79
442.431	80069.38
442.789	80072.16
443.147	80072.82
443.505	80072.49
443.863	80074.3
444.221	80076.15
444.579	80076.19
444.937	80075.12
445.294	80076.82
445.652	80076.97
446.01	80077.15
446.368	80076.82
446.725	80078.89
447.083	80080
447.441	80079.89
447.798	80080.33
448.156	80079.19
448.513	80080.37
448.87	80079.34
449.228	80078.34
449.585	80078.78
449.942	80077.34
450.3	80074.75
450.657	80074.3
451.014	80072.97
451.371	80074.3
451.728	80071.27
452.085	80071.93
452.442	80072.97
452.799	80074.08
453.156	80075.12
453.513	80075.97
453.869	80077.52
454.226	80077.19
454.583	80077.04
454.939	80078.48
455.296	80077.38
455.653	80076.86
456.009	80076.15
456.366	80077.15
456.722	80078.63
457.078	80078.12
457.435	80080.34
457.791	80080.45
458.147	80082.26
458.503	80084.63
458.86	80083.18
459.216	80085.4
459.572	80084.89
459.928	80084.74
460.284	80084.37
460.64	80083.11
460.996	80082.89
461.351	80082.78
461.707	80083.22
462.063	80082.74
462.419	80084.33
462.774	80086.51
463.13	80089.14
463.486	80090.18
463.841	80091.14
464.197	80091.47
464.552	80092.51
464.908	80092.1
465.263	80092.36
465.618	80092.84
465.974	80092.51
466.329	80093.25
466.684	80093.99
467.039	80094.62
467.394	80094.99
467.749	80095.84
468.104	80098.21
468.459	80099.1
468.814	80098.95
469.169	80100.1
469.524	80100.84
469.879	80101.02
470.233	80100.21
470.588	80099.88
470.943	80100.69
471.297	80101.1
471.652	80101.21
472.006	80102.02
472.361	80103.5
472.715	80103.24
473.07	80102.87
473.424	80104.47
473.778	80105.43
474.133	80105.76
474.487	80106.69
474.841	80107.87
475.195	80107.8
475.549	80106.95
475.903	80107.28
476.257	80107.13
476.611	80109.02
476.965	80109.65
477.319	80109.8
477.673	80110.94
478.026	80112.24
478.38	80111.09
478.734	80110.61
479.087	80110.13
479.441	80110.57
479.795	80110.8
480.148	80112.83
480.502	80114.83
480.855	80114.91
481.208	80115.54
481.562	80116.54
481.915	80116.28
482.268	80116.72
482.621	80117.09
482.974	80117.05
483.328	80116.98
483.681	80118.35
484.034	80117.61
484.387	80118.65
484.739	80118.2
485.092	80118.57
485.445	80118.65
485.798	80119.61
486.151	80121.65
486.503	80123.2
486.856	80124.24
487.209	80125.02
487.561	80126.16
487.914	80124.76
488.266	80123.57
488.618	80124.09
488.971	80123.57
489.323	80125.02
489.675	80125.05
490.028	80124.79
490.38	80125.5
490.732	80126.09
491.084	80125.13
491.436	80126.13
491.788	80126.83
492.14	80127.57
492.492	80128.72
492.844	80129.61
493.196	80130.28
493.548	80129.09
493.899	80128.76
494.251	80128.61
494.603	80128.53
494.954	80127.87
495.306	80128.2
495.657	80128.65
496.009	80128.61
496.36	80129.31
496.712	80128.94
497.063	80128.39
497.414	80129.68
497.765	80130.83
498.117	80131.42
498.468	80133.02
498.819	80133.64
499.17	80132.53
499.521	80132.42
499.872	80132.13
500.223	80131.39
500.574	80132.09
500.924	80133.42
501.275	80134.05
501.626	80132.83
501.977	80132.68
502.327	80132.68
502.678	80132.42
503.029	80133.64
503.379	80132.98
503.73	80132.27
504.08	80131.46
504.43	80132.35
504.781	80131.09
505.131	80129.83
505.481	80130.76
505.831	80130.72
506.182	80128.79
506.532	80129.31
506.882	80128.79
507.232	80128.87
507.582	80129.79
507.932	80128.02
508.281	80126.39
508.631	80125.42
508.981	80126.35
509.331	80126.28
509.681	80125.98
510.03	80126.09
510.38	80126.39
510.729	80126.87
511.079	80127.39
511.428	80128.05
511.778	80127.72
512.127	80128.39
512.476	80129.39
512.826	80127.76
513.175	80127.72
513.524	80129.76
513.873	80130.05
514.222	80131.2
514.571	80130.64
514.92	80129.02
515.269	80128.76
515.618	80128.9
515.967	80128.9
516.316	80128.57
516.665	80127.42
517.014	80126.46
517.362	80126.9
517.711	80125.2
518.059	80125.79
518.408	80124.72
518.757	80123.28
519.105	80122.16
519.453	80121.87
519.802	80122.54
520.15	80123.31
520.498	80123.65
520.847	80120.13
521.195	80119.68
521.543	80119.17
521.891	80119.91
522.239	80120.2
522.587	80120.94
522.935	80121.54
523.283	80121.13
523.631	80122.17
523.979	80123.5
524.326	80125.46
524.674	80124.42
525.022	80125.57
525.369	80125.17
525.717	80126.94
526.064	80129.13
526.412	80130.5
526.759	80130.5
527.107	80129.94
527.454	80129.24
527.801	80128.98
528.149	80130.57
528.496	80130.76
528.843	80130.5
529.19	80130.68
529.537	80129.83
529.884	80131.39
530.231	80132.2
530.578	80134.05
530.925	80133.87
531.272	80134.24
531.619	80134.46
531.966	80136.98
532.312	80136.16
532.659	80135.76
533.006	80134.42
533.352	80133.09
533.699	80133.91
534.045	80133.68
534.392	80132.5
534.738	80132.28
535.084	80132.2
535.431	80133.2
535.777	80132.16
536.123	80131.79
536.469	80130.68
536.815	80131.94
537.161	80132.09
537.507	80130.35
537.853	80128.53
538.199	80128.2
538.545	80127.87
538.891	80126.39
539.237	80125.2
539.582	80126.57
539.928	80126.28
540.274	80125.65
540.619	80126.76
540.965	80126.09
541.31	80127.02
541.656	80128.13
542.001	80129.61
542.347	80130.05
542.692	80128.72
543.037	80129.13
543.382	80128.39
543.728	80129.2
544.073	80130.13
544.418	80128.87
544.763	80129.53
545.108	80130.46
545.453	80130.27
545.798	80130.9
546.142	80130.83
546.487	80130.5
546.832	80128.68
547.177	80128.83
547.521	80129.42
547.866	80130.28
548.211	80129.2
548.555	80128.9
548.9	80129.2
549.244	80127.28
549.588	80126.02
549.933	80125.83
550.277	80126.65
550.621	80128.09
550.965	80127.35
551.31	80126.31
551.654	80126.68
551.998	80126.46
552.342	80127.57
552.686	80127.87
553.03	80127.53
553.373	80128.83
553.717	80128.35
554.061	80128.72
554.405	80129.16
554.748	80129.68
555.092	80129.28
555.436	80129.72
555.779	80130.42
556.123	80131.02
556.466	80131.5
556.81	80131.83
557.153	80133.39
557.496	80132.68
557.839	80133.5
558.183	80134.57
558.526	80133.65
558.869	80133.42
559.212	80133.76
559.555	80132.57
559.898	80130.94
560.241	80130.05
560.584	80129.57
560.927	80129.76
561.269	80131.5
561.612	80132.35
561.955	80131.79
562.297	80131.46
562.64	80132.24
562.983	80130.68
563.325	80129.24
563.668	80129.27
564.01	80129.16
564.352	80127.83
564.695	80126.5
565.037	80125.76
565.379	80124.31
565.721	80123.83
566.063	80123.09
566.406	80124.05
566.748	80122.87
567.09	80124.53
567.431	80123.79
567.773	80123.83
568.115	80123.2
568.457	80121.02
568.799	80120.83
569.14	80120.61
569.482	80120.39
569.824	80119.35
570.165	80118.46
570.507	80117.46
570.848	80118.2
571.19	80117.61
571.531	80118.46
571.872	80118.8
572.214	80117.2
572.555	80117.68
572.896	80120.09
573.237	80119.46
573.578	80118.2
573.919	80118.83
574.26	80117.46
574.601	80117.43
574.942	80116.02
575.283	80116.28
575.624	80116.43
575.964	80114.17
576.305	80114.46
576.646	80111.76
576.986	80111.5
577.327	80112.94
577.667	80112.28
578.008	80110.91
578.348	80110.76
578.689	80110.39
579.029	80111.13
579.369	80111.91
579.71	80112.76
580.05	80110.32
580.39	80109.65
580.73	80108.17
581.07	80108.35
581.41	80108.72
581.75	80108.58
582.09	80108.76
582.43	80109.17
582.769	80109.24
583.109	80110.98
583.449	80109.98
583.789	80113.35
584.128	80113.31
584.468	80112.57
584.807	80113.13
585.147	80111.24
585.486	80110.95
585.825	80110.24
586.165	80109.43
586.504	80108.06
586.843	80107.58
587.182	80108.35
587.522	80109.91
587.861	80110.32
588.2	80108.95
588.539	80108.61
588.878	80109.65
589.216	80110.32
589.555	80110.76
589.894	80111.24
590.233	80110.21
590.572	80111.39
590.91	80108.65
591.249	80108.02
591.587	80107.65
591.926	80107.32
592.264	80108.06
592.603	80107.02
592.941	80106.5
593.279	80107.47
593.618	80107.21
593.956	80106.87
594.294	80105.91
594.632	80104.84
594.97	80105.32
595.308	80105.69
595.646	80105.54
595.984	80104.02
596.322	80104.87
596.66	80103.95
596.998	80103.47
597.335	80103.43
597.673	80102.76
598.011	80103.36
598.348	80104.36
598.686	80105.8
599.023	80106.24
599.361	80107.32
599.698	80108.54
600.035	80108.24
600.373	80107.17
600.71	80107.91
601.047	80106.76
601.384	80106.58
601.722	80105.84
602.059	80106.58
602.396	80106.72
602.733	80106.43
603.069	80107.58
603.406	80105.8
603.743	80105.91
604.08	80105.21
604.417	80105.13
604.753	80104.61
605.09	80104.8
605.426	80103.43
605.763	80102.02
606.099	80102.5
606.436	80102.43
606.772	80101.02
607.109	80101.39
607.445	80102.06
607.781	80102.13
608.117	80102.98
608.453	80103.32
608.79	80101.99
609.126	80101.62
609.462	80102.02
609.798	80101.47
610.133	80101.02
610.469	80099.28
610.805	80097.88
611.141	80099.4
611.477	80098.14
611.812	80096.36
612.148	80095.88
612.483	80094.92
612.819	80094.36
613.154	80093.4
613.49	80092.73
613.825	80094.32
614.16	80096.03
614.496	80095.1
614.831	80094.51
615.166	80093.25
615.501	80092.55
615.836	80093.69
616.171	80092.81
616.506	80092.4
616.841	80094.18
617.176	80092.51
617.511	80093.1
617.846	80093.99
618.18	80092.03
618.515	80094.29
618.85	80095.21
619.184	80095.29
619.519	80095.73
619.853	80097.14
620.188	80096.58
620.522	80096.32
620.856	80095.43
621.191	80091.81
621.525	80092.03
621.859	80093.47
622.193	80093.36
622.527	80094.03
622.861	80095.14
623.195	80094.36
623.529	80093.99
623.863	80092.36
624.197	80094.32
624.531	80093.84
624.865	80092.47
625.198	80090.99
625.532	80088.7
625.866	80088.14
626.199	80086.4
626.533	80086.07
626.866	80085.15
627.2	80084.52
627.533	80084.33
627.866	80083.7
628.2	80085.55
628.533	80085.52
628.866	80082.44
629.199	80083.07
629.532	80082.15
629.865	80081.78
630.198	80082.78
630.531	80080.56
630.864	80080.11
631.197	80079.96
631.529	80080.33
631.862	80082
632.195	80083.96
632.527	80084.15
632.86	80083.67
633.193	80085.07
633.525	80085.55
633.857	80085.74
634.19	80085.29
634.522	80084.78
634.854	80084.7
635.187	80083.3
635.519	80082.96
635.851	80084.29
636.183	80083.92
636.515	80084.55
636.847	80083.89
637.179	80082.67
637.511	80083.92
637.843	80083.07
638.174	80079.82
638.506	80080
638.838	80078.59
639.17	80078.63
639.501	80079.78
639.833	80081.74
640.164	80082.78
640.496	80082.3
640.827	80081.56
641.158	80083.92
641.49	80083.7
641.821	80083.44
642.152	80084
642.483	80084.07
642.814	80084.48
643.145	80084.63
643.476	80083.44
643.807	80082.92
644.138	80082.11
644.469	80081.7
644.8	80083
645.131	80085.92
645.461	80085.22
645.792	80085.63
646.122	80084.33
646.453	80082.74
646.784	80080.22
647.114	80077.74
647.444	80077.85
647.775	80076.3
648.105	80074.04
648.435	80074.71
648.765	80074.67
649.096	80074.04
649.426	80072.97
649.756	80072.3
650.086	80069.94
650.416	80071.45
650.746	80071.75
651.075	80073.04
651.405	80072.9
651.735	80072.56
652.065	80071.71
652.394	80071.82
652.724	80071.45
653.054	80072.19
653.383	80073.75
653.712	80074.27
654.042	80074.97
654.371	80074.45
654.701	80076.52
655.03	80076.08
655.359	80075.56
655.688	80076.41
656.017	80076.82
656.346	80076.74
656.675	80077.37
657.004	80079.48
657.333	80076.63
657.662	80077.23
657.991	80076.12
658.32	80077.19
658.648	80076.26
658.977	80075.49
659.306	80075.19
659.634	80075.23
659.963	80074.52
660.291	80073.23
660.619	80073.78
660.948	80073.41
661.276	80074.19
661.604	80072.56
661.933	80073.89
662.261	80073.27
662.589	80071.42
662.917	80070.94
663.245	80070.38
663.573	80069.71
663.901	80068.23
664.229	80069.42
664.556	80068.2
664.884	80068.83
665.212	80067.09
665.539	80066.79
665.867	80067.2
666.195	80067.9
666.522	80066.61
666.85	80066.01
667.177	80064.02
667.504	80062.28
667.832	80061.32
668.159	80060.46
668.486	80059.36
668.813	80057.99
669.14	80058.06
669.467	80058.36
669.794	80058.65
670.121	80058.91
670.448	80056.99
670.775	80056.25
671.102	80055.69
671.429	80055.29
671.755	80055.25
672.082	80053.44
672.409	80054.07
672.735	80054.84
673.062	80053.59
673.388	80053.22
673.714	80052.51
674.041	80054.47
674.367	80054.44
674.693	80054.58
675.019	80054.29
675.346	80054.99
675.672	80055.25
675.998	80054.7
676.324	80054.44
676.65	80054.29
676.976	80054.92
677.301	80054.95
677.627	80055.03
677.953	80053.77
678.279	80052.96
678.604	80051.74
678.93	80053.4
679.255	80052.36
679.581	80049.7
679.906	80049.92
680.232	80050.26
680.557	80049.85
680.882	80048.52
681.208	80048.33
681.533	80049.48
681.858	80049.52
682.183	80050
682.508	80050
682.833	80049.74
683.158	80049.26
683.483	80047.41
683.808	80046.41
684.132	80046.63
684.457	80045.37
684.782	80046.48
685.106	80046.08
685.431	80045.97
685.755	80046.67
686.08	80045.45
686.404	80044.34
686.729	80043.78
687.053	80042.86
687.377	80043.86
687.701	80044.19
688.026	80044.19
688.35	80042.34
688.674	80040.79
688.998	80038.68
689.322	80037.27
689.646	80035.61
689.97	80033.17
690.293	80033.32
690.617	80031.25
690.941	80029.4
691.264	80027.22
691.588	80025.22
691.912	80024.23
692.235	80022.12
692.559	80019.71
692.882	80019.01
693.205	80018.94
693.529	80016.76
693.852	80014.02
694.175	80010.33
694.498	80006.08
694.821	80002.6
695.144	79999.39
695.467	79995.73
695.79	79989.56
696.113	79983.84
696.436	79978.81
696.759	79973.09
697.082	79966.41
697.404	79960.13
697.727	79950.65
698.049	79942.83
698.372	79926.73
698.694	79909.7
699.017	79890.37
699.339	79865.42
699.662	79834.87
699.984	79787.31
700.306	79732.18
700.628	79650.26
700.95	79546.48
701.272	79419.16
701.594	79279.52
701.916	79139.59
702.238	78991.78
702.56	78792.93
702.882	78600.66
703.204	78417.26
703.525	78214.41
703.847	77973.45
704.169	77743.61
704.49	77495.4
704.812	77238.64
705.133	76985.17
705.455	76731.04
705.776	76457.14
706.097	76192.46
706.419	75922.84
706.74	75644.52
707.061	75359.61
707.382	75071.42
707.703	74788.26
708.024	74527.85
708.345	74260.77
708.666	73962.73
708.987	73661.7
709.307	73412.39
709.628	73115.36
709.949	72805.8
710.27	72500.82
710.59	72240.58
710.911	71946.34
711.231	71649.56
711.552	71379.44
711.872	71057.33
712.192	70776.88
712.512	70520.95
712.833	70256.64
713.153	69985.61
713.473	69758.86
713.793	69533.3
714.113	69319.82
714.433	69114.32
714.753	68910.9
715.073	68710.9
715.393	68517.71
715.712	68355.03
716.032	68149.22
716.352	67977.19
716.671	67819.68
716.991	67645.41
717.31	67456.13
717.63	67295.23
717.949	67118.59
718.268	66917.04
718.588	66745
718.907	66522.17
719.226	66259.88
719.545	66010.6
719.864	65731.93
720.183	65462.48
720.502	65177.84
720.821	64900.19
721.14	64612.17
721.459	64298.02
721.778	64025.46
722.096	63714.18
722.415	63402.45
722.734	63132.31
723.052	62855.71
723.371	62564.15
723.689	62292.96
724.008	62008.03
724.326	61720.57
724.644	61465.55
724.963	61194.66
725.281	60967.72
725.599	60737.62
725.917	60553.83
726.235	60356.88
726.553	60202.12
726.871	60003.63
727.189	59803.06
727.507	59606.4
727.824	59456.2
728.142	59322.79
728.46	59126.81
728.777	59024.49
729.095	58895.53
729.413	58753.45
729.73	58611.82
730.047	58480.57
730.365	58374.28
730.682	58264.84
730.999	58173.32
731.317	58091.24
731.634	58007.7
731.951	57899.04
732.268	57780.86
732.585	57630.61
732.902	57471.74
733.219	57312.79
733.536	57141.28
733.852	57024.53
734.169	56896.67
734.486	56749.22
734.802	56586.71
735.119	56475.16
735.435	56296.3
735.752	56144.17
736.068	55965.29
736.385	55799.12
736.701	55608.19
737.017	55374.03
737.333	55133.6
737.65	54825.63
737.966	54454.22
738.282	54069.91
738.598	53654.43
738.914	53203.06
739.23	52716.92
739.545	52201.11
739.861	51655.4
740.177	51104.29
740.493	50506.05
740.808	49927.64
741.124	49317.12
741.439	48743.22
741.755	48168.62
742.07	47651.53
742.386	47091.5
742.701	46594.45
743.016	46100.15
743.331	45631.64
743.647	45205.1
743.962	44815.79
744.277	44473.36
744.592	44194.95
744.907	43977.75
745.222	43808.97
745.537	43711.3
745.851	43679.34
746.166	43699.54
746.481	43750
746.795	43864.17
747.11	44015.3
747.424	44192.14
747.739	44362.82
748.053	44539.79
748.368	44688.4
748.682	44800.9
748.996	44936.39
749.311	45038.58
749.625	45138.52
749.939	45233.81
750.253	45291.74
750.567	45363.05
750.881	45424.39
751.195	45491.25
751.509	45556.67
751.822	45609.85
752.136	45660.07
752.45	45717.58
752.763	45778.11
753.077	45836.11
753.39	45872.27
753.704	45897.15
754.017	45908.7
754.331	45942.07
754.644	45946.83
754.957	45963.9
755.27	45968.68
755.584	45976.03
755.897	45985.16
756.21	45971.35
756.523	45946.87
756.836	45937.38
757.149	45854.68
757.461	45788.56
757.774	45702.37
758.087	45582.1
758.4	45444.77
758.712	45293.52
759.025	45140.17
759.337	44983.16
759.65	44826.38
759.962	44673.35
760.275	44516.99
760.587	44371.79
760.899	44235.06
761.211	44139.36
761.523	44068.05
761.836	44069.98
762.148	44079.7
762.46	44111.92
762.772	44179.04
763.083	44310.53
763.395	44451.81
763.707	44676
764.019	44901.38
764.33	45125.62
764.642	45374.23
764.954	45641.29
765.265	45917.08
765.577	46178.95
765.888	46426.63
766.199	46670.63
766.511	46887.28
766.822	47109.5
767.133	47287.83
767.444	47451.39
767.755	47549.67
768.066	47609.46
768.377	47604.13
768.688	47539.26
768.999	47442.74
769.31	47324.81
769.621	47140.36
769.931	46913.03
770.242	46647.34
770.553	46347.2
770.863	46023.48
771.174	45672.34
771.484	45292.25
771.794	44883.55
772.105	44477.92
772.415	44051.55
772.725	43606.25
773.035	43166.58
773.345	42707.42
773.656	42249.42
773.966	41783.65
774.276	41348.73
774.585	40913.58
774.895	40476.08
775.205	40094.65
775.515	39712.69
775.824	39319.11
776.134	38934
776.444	38575.02
776.753	38217.85
777.063	37879.31
777.372	37550.79
777.681	37225.65
777.991	36920.15
778.3	36628.8
778.609	36325.31
778.918	36041.39
779.228	35778.55
779.537	35522.2
779.846	35260.24
780.154	35014.79
780.463	34779.66
780.772	34532.48
781.081	34305.78
781.39	34105.53
781.698	33890.27
782.007	33681.32
782.316	33472.98
782.624	33257.47
782.932	33054.26
783.241	32858.57
783.549	32664.66
783.858	32497.56
784.166	32333.28
784.474	32163.04
784.782	31997.58
785.09	31839.38
785.398	31696.68
785.706	31555.86
786.014	31411.56
786.322	31275.28
786.63	31136.55
786.937	31011.98
787.245	30891.23
787.553	30769.22
787.86	30653.72
788.168	30525.01
788.475	30416.9
788.783	30326.23
789.09	30236.01
789.398	30139.88
789.705	30046.72
790.012	29951.27
790.319	29843.4
790.626	29741.71
790.933	29649
791.24	29560.04
791.547	29467.87
791.854	29372.72
792.161	29279.87
792.468	29179.97
792.774	29089.48
793.081	29010.56
793.388	28926.2
793.694	28832.86
794.001	28742.13
794.307	28628.54
794.614	28531.99
794.92	28407.8
795.226	28279.8
795.533	28168.35
795.839	28069.58
796.145	27951.11
796.451	27838.1
796.757	27736.85
797.063	27627.98
797.369	27515.33
797.675	27415.3
797.98	27322.46
798.286	27201.07
798.592	27094.79
798.898	26985.54
799.203	26868.64
799.509	26749.13
799.814	26622.39
800.12	26522.84
800.425	26409.3
800.73	26297.58
801.035	26182.63
801.341	26080.06
801.646	25982.77
801.951	25879.34
802.256	25782.82
802.561	25687.54
802.866	25595.78
803.171	25505.61
803.476	25417
803.78	25331.94
804.085	25228.6
804.39	25113.6
804.694	25019.7
804.999	24918.95
805.303	24824.95
805.608	24742.07
805.912	24653.73
806.216	24590.95
806.521	24519.99
806.825	24447.05
807.129	24374.98
807.433	24305.29
807.737	24239.2
808.041	24178.27
808.345	24125.15
808.649	24066.74
808.953	24015.91
809.257	23959.92
809.561	23906.68
809.864	23855.32
810.168	23815.7
810.471	23783.03
810.775	23758.2
811.078	23736.84
811.382	23707.41
811.685	23702.05
811.988	23697.08
812.292	23691.09
812.595	23679.59
812.898	23678.35
813.201	23689.07
813.504	23714.2
813.807	23740.2
814.11	23765.59
814.413	23800.75
814.716	23823.66
815.018	23865.79
815.321	23930.48
815.624	24013.47
815.926	24111.22
816.229	24235.42
816.531	24377.06
816.834	24540.23
817.136	24730.11
817.438	24941.87
817.74	25214.86
818.043	25530.53
818.345	25898.2
818.647	26350.01
818.949	26891.77
819.251	27520.36
819.553	28261.49
819.855	29119.95
820.156	30081.47
820.458	31164.38
820.76	32303.97
821.062	33513.74
821.363	34771.32
821.665	36093.35
821.966	37518.37
822.268	38962.38
822.569	40408.85
822.87	41882.58
823.171	43363.85
823.473	44892.41
823.774	46472.03
824.075	47986.79
824.376	49475.55
824.677	50948.17
824.978	52322.65
825.279	53608.55
825.58	54777.1
825.88	55812.59
826.181	56693.67
826.482	57480.39
826.782	58104.01
827.083	58626.16
827.383	59009.54
827.684	59238.54
827.984	59330.25
828.284	59242.23
828.585	59018.56
828.885	58716.56
829.185	58258.32
829.485	57709.5
829.785	57040.72
830.085	56203.13
830.385	55340.35
830.685	54412.24
830.985	53370.35
831.285	52304.17
831.584	51186.42
831.884	50049.71
832.183	48883.87
832.483	47688.75
832.782	46419.57
833.082	45139.63
833.381	43863.79
833.681	42631.82
833.98	41465.83
834.279	40326.79
834.578	39220.69
834.877	38182.57
835.176	37177.45
835.475	36250.28
835.774	35366.26
836.073	34496.71
836.372	33682.27
836.671	32873.96
836.969	32064.84
837.268	31321.98
837.567	30613.83
837.865	29936.1
838.164	29253.38
838.462	28605.41
838.761	27993.74
839.059	27417.26
839.357	26873.76
839.655	26347.18
839.953	25812.23
840.252	25285.23
840.55	24769.29
840.848	24267.73
841.146	23784.95
841.443	23287.97
841.741	22790.38
842.039	22286.07
842.337	21789.42
842.634	21332.11
842.932	20893.95
843.229	20483.34
843.527	20071.84
843.824	19636.77
844.122	19193.49
844.419	18777.1
844.716	18347.26
845.013	17938.19
845.311	17550.41
845.608	17180.11
845.905	16813.03
846.202	16458.01
846.499	16094.9
846.796	15736.13
847.092	15369.23
847.389	15007.24
847.686	14675.27
847.982	14359.45
848.279	14053.16
848.576	13769.54
848.872	13480.27
849.168	13195.14
849.465	12911.95
849.761	12624.01
850.057	12351.48
850.354	12089.39
850.65	11844.4
850.946	11624.2
851.242	11403.4
851.538	11188.74
851.834	10974.71
852.13	10763.75
852.425	10572.21
852.721	10393.65
853.017	10228.15
853.312	10086.53
853.608	9946.36
853.903	9803.19
854.199	9660.31
854.494	9530.94
854.79	9400.04
855.085	9269.82
855.38	9139.76
855.675	9013.65
855.971	8892.7
856.266	8794.25
856.561	8699.02
856.856	8605.65
857.151	8512.18
857.445	8416.25
857.74	8321.27
858.035	8227.52
858.33	8133.26
858.624	8048.31
858.919	7972.22
859.213	7887.09
859.508	7800.26
859.802	7711.28
860.096	7631.96
860.391	7570.15
860.685	7509.77
860.979	7453.59
861.273	7401.67
861.567	7345.2
861.861	7279.66
862.155	7226.46
862.449	7158.53
862.743	7094.44
863.037	7034.98
863.33	6980.12
863.624	6926.69
863.918	6879.48
864.211	6840.96
864.505	6808.09
864.798	6767.65
865.092	6720.26
865.385	6675.69
865.678	6624.43
865.971	6588.78
866.264	6555.79
866.558	6527.9
866.851	6493.82
867.144	6460.45
867.437	6422.95
867.729	6395.48
868.022	6376.54
868.315	6356.49
868.608	6342.45
868.9	6338.78
869.193	6321.62
869.485	6292.78
869.778	6267.26
870.07	6238.03
870.363	6216.13
870.655	6200.75
870.947	6189.77
871.239	6182.68
871.532	6181.16
871.824	6183.16
872.116	6182.27
872.408	6179.28
872.699	6161.88
872.991	6154.96
873.283	6151.03
873.575	6154.48
873.867	6159.19
874.158	6166.37
874.45	6166.71
874.741	6166.47
875.033	6164.38
875.324	6176.63
875.615	6198.92
875.907	6223.21
876.198	6241.79
876.489	6252.65
876.78	6255.2
877.071	6255.77
877.362	6257.39
877.653	6262.81
877.944	6276.72
878.235	6284.27
878.526	6291.94
878.816	6310.33
