Data from 24HourExp_27052025_FLMS018081_10-08-22-355.txt Node
Date: Tue May 27 10:08:22 BST 2025
User: adleo
Spectrometer: FLMS01808
Trigger mode: 0
Integration Time (sec): 4.000000E-1
Scans to average: 10
Electric dark correction enabled: true
Nonlinearity correction enabled: true
Boxcar width: 10
XAxis mode: Wavelengths
Number of Pixels in Spectrum: 2048
>>>>>Begin Spectral Data<<<<<
178.471	-124.35
178.857	-116.8
179.244	-111.36
179.631	-103.61
180.017	-95.94
180.404	-88.65
180.79	-78.44
181.176	-69.97
181.563	-60.08
181.949	-49.26
182.335	-39.7
182.722	-23.65
183.108	-6.25
183.494	19.39
183.88	72.68
184.266	126.39
184.653	183.59
185.039	237.32
185.425	290.88
185.811	344.38
186.197	395.21
186.582	446.53
186.968	498.9
187.354	551.38
187.74	602.77
188.126	653.96
188.511	705.09
188.897	752.01
189.283	799.6
189.668	844.84
190.054	887.48
190.439	934.4
190.825	978.93
191.21	1021.49
191.596	1055
191.981	1061.36
192.366	1066.43
192.752	1067.63
193.137	1071.77
193.522	1072.68
193.908	1075.27
194.293	1080.3
194.678	1080.26
195.063	1080.65
195.448	1081.46
195.833	1081.07
196.218	1080.35
196.603	1081.18
196.988	1081.93
197.373	1082.69
197.757	1083.19
198.142	1086.32
198.527	1082.93
198.912	1081.2
199.296	1080.91
199.681	1079.54
200.066	1080.26
200.45	1078.18
200.835	1078.19
201.219	1077.4
201.604	1077.87
201.988	1077.11
202.372	1077.88
202.757	1079.35
203.141	1080.63
203.525	1081.82
203.91	1082.73
204.294	1083.31
204.678	1081.2
205.062	1081.11
205.446	1081.82
205.83	1082.84
206.214	1081.07
206.598	1082.05
206.982	1081.87
207.366	1081.01
207.75	1083.76
208.134	1083.31
208.517	1085.32
208.901	1085.41
209.285	1086.7
209.669	1086.86
210.052	1087.59
210.436	1085.36
210.819	1087.08
211.203	1087.83
211.586	1088.36
211.97	1089.76
212.353	1091.12
212.737	1092.95
213.12	1095.93
213.503	1096.79
213.886	1097.69
214.27	1098.81
214.653	1101.41
215.036	1105.08
215.419	1107.66
215.802	1109.09
216.185	1113
216.568	1115.94
216.951	1119.83
217.334	1122.6
217.717	1126.82
218.1	1130.26
218.482	1135.88
218.865	1139.11
219.248	1142.64
219.631	1147.43
220.013	1151.06
220.396	1155.89
220.778	1160.94
221.161	1164.22
221.544	1169.78
221.926	1175.6
222.308	1184.68
222.691	1189.85
223.073	1197.06
223.455	1206.39
223.838	1215.03
224.22	1222.78
224.602	1232.79
224.984	1240.39
225.366	1251.88
225.749	1264.04
226.131	1275.82
226.513	1287.81
226.895	1301.31
227.276	1313.2
227.658	1327.18
228.04	1343
228.422	1358.22
228.804	1374.15
229.186	1391.73
229.567	1409.77
229.949	1427.3
230.331	1442.69
230.712	1460.94
231.094	1478.02
231.475	1497.75
231.857	1515.81
232.238	1533.75
232.62	1551.85
233.001	1572.92
233.382	1591.73
233.763	1611.74
234.145	1631.27
234.526	1649.91
234.907	1668.75
235.288	1688.97
235.669	1708.58
236.05	1729.3
236.431	1749.04
236.812	1768.43
237.193	1789.4
237.574	1809.02
237.955	1830.28
238.336	1851.76
238.717	1875.03
239.097	1898.92
239.478	1918.5
239.859	1941.53
240.239	1964.5
240.62	1988.21
241.001	2012.43
241.381	2036.63
241.762	2058.95
242.142	2082.51
242.522	2106.05
242.903	2132.35
243.283	2159.13
243.663	2184.86
244.044	2209.9
244.424	2237
244.804	2264.7
245.184	2292.1
245.564	2320.38
245.944	2350.14
246.324	2382.14
246.704	2410.56
247.084	2436.59
247.464	2464.49
247.844	2494.57
248.224	2527.03
248.604	2556.78
248.983	2586.31
249.363	2616.53
249.743	2646.94
250.122	2676.44
250.502	2707.45
250.882	2737.18
251.261	2767.84
251.641	2798.61
252.02	2830.96
252.399	2863.94
252.779	2899.32
253.158	2932.17
253.537	2968.03
253.917	3008.85
254.296	3044.51
254.675	3083.6
255.054	3124.37
255.433	3166.68
255.812	3205.38
256.191	3244.88
256.57	3287.36
256.949	3331.55
257.328	3375.34
257.707	3420.1
258.086	3467.14
258.465	3516.18
258.843	3566.03
259.222	3615.85
259.601	3668.5
259.979	3720.32
260.358	3773.31
260.736	3825.6
261.115	3882.75
261.493	3936.45
261.872	3985.44
262.25	4041.74
262.629	4095.62
263.007	4153.61
263.385	4212.16
263.763	4272.72
264.142	4335.64
264.52	4397.35
264.898	4459.34
265.276	4522.62
265.654	4586.86
266.032	4654.23
266.41	4722.43
266.788	4792.6
267.166	4865.53
267.544	4938.54
267.921	5015.72
268.299	5094.08
268.677	5172.11
269.055	5252.18
269.432	5338.15
269.81	5426.67
270.188	5513.99
270.565	5601.3
270.943	5691
271.32	5781.67
271.697	5877.15
272.075	5974.79
272.452	6071.98
272.829	6168.46
273.207	6268.5
273.584	6374.91
273.961	6480.67
274.338	6592.97
274.715	6707.13
275.092	6825.15
275.469	6944.58
275.846	7064.44
276.223	7183.76
276.6	7306.3
276.977	7432.4
277.354	7556.46
277.731	7679.44
278.108	7806.16
278.484	7937.13
278.861	8068.77
279.238	8208.2
279.614	8348.54
279.991	8486.74
280.367	8627.33
280.744	8778.6
281.12	8928.69
281.497	9076.11
281.873	9226.67
282.249	9374.72
282.625	9521.8
283.002	9668.63
283.378	9819.21
283.754	9969.18
284.13	10127.26
284.506	10286.5
284.882	10441.72
285.258	10597.07
285.634	10757.42
286.01	10924.73
286.386	11087.34
286.762	11255.41
287.138	11416.7
287.513	11575.55
287.889	11738.04
288.265	11898.67
288.641	12057.91
289.016	12221.5
289.392	12385.06
289.767	12547.99
290.143	12715
290.518	12881.37
290.894	13049.43
291.269	13208.21
291.644	13371.74
292.02	13525.11
292.395	13681.14
292.77	13839.8
293.145	13998.09
293.52	14153.76
293.895	14302.72
294.27	14462.04
294.646	14609.69
295.02	14758.49
295.395	14914.74
295.77	15073.69
296.145	15234.08
296.52	15391.1
296.895	15548.01
297.269	15703.37
297.644	15858.68
298.019	16012.55
298.393	16162.77
298.768	16314.81
299.143	16472.11
299.517	16623.13
299.891	16781.78
300.266	16942.92
300.64	17100.92
301.015	17265.91
301.389	17436.18
301.763	17608.58
302.137	17776.04
302.512	17961.79
302.886	18146.12
303.26	18327.03
303.634	18507.54
304.008	18684.94
304.382	18865.59
304.756	19048.26
305.13	19238.35
305.504	19422.07
305.877	19607.55
306.251	19817.36
306.625	20021.12
306.999	20233.67
307.372	20447.22
307.746	20664.68
308.119	20874.12
308.493	21085.28
308.866	21297.5
309.24	21510.38
309.613	21716.5
309.987	21928.14
310.36	22119.04
310.733	22325.21
311.107	22543.21
311.48	22761.51
311.853	22995.86
312.226	23221.04
312.599	23452.89
312.972	23676.47
313.345	23910.1
313.718	24141.68
314.091	24357.53
314.464	24589.08
314.837	24811.09
315.21	25023.27
315.582	25241.19
315.955	25456.7
316.328	25684.93
316.7	25901.66
317.073	26121.47
317.446	26345.15
317.818	26573.92
318.191	26806.37
318.563	27031.83
318.936	27241.9
319.308	27447.3
319.68	27648.41
320.053	27849.27
320.425	28036.93
320.797	28219.5
321.169	28383.31
321.541	28529.49
321.913	28666.79
322.285	28779.9
322.657	28901.86
323.029	29055.03
323.401	29197.53
323.773	29368.56
324.145	29531.24
324.517	29721.24
324.889	29898.26
325.26	30106.44
325.632	30323.43
326.004	30563.78
326.375	30819.69
326.747	31096.71
327.118	31394.11
327.49	31680.1
327.861	31989.05
328.233	32299.6
328.604	32612.55
328.975	32922.92
329.346	33234.33
329.718	33540.8
330.089	33851.46
330.46	34150.81
330.831	34418.95
331.202	34679.41
331.573	34922.7
331.944	35155.7
332.315	35379.95
332.686	35602.41
333.057	35802.46
333.428	35981.3
333.799	36152.88
334.169	36310.09
334.54	36448.05
334.911	36572.09
335.281	36701.31
335.652	36827.61
336.022	36955.35
336.393	37101.68
336.763	37275.41
337.134	37460.7
337.504	37657.81
337.874	37859.7
338.245	38063.88
338.615	38283.89
338.985	38511.96
339.355	38733.27
339.726	38965.07
340.096	39188.24
340.466	39443.31
340.836	39683.91
341.206	39933.8
341.576	40174.42
341.945	40415.93
342.315	40651.6
342.685	40891.17
343.055	41138.48
343.425	41375.59
343.794	41611.68
344.164	41836.37
344.533	42062.52
344.903	42299.21
345.273	42539.35
345.642	42762.23
346.011	42992.91
346.381	43225.95
346.75	43454.94
347.12	43698.21
347.489	43943.79
347.858	44184.59
348.227	44390.43
348.596	44614.47
348.965	44848.04
349.334	45082.27
349.704	45315.38
350.072	45557.01
350.441	45787.38
350.81	46036.16
351.179	46261.79
351.548	46502
351.917	46727.45
352.285	46921.57
352.654	47123
353.023	47323.84
353.391	47526.13
353.76	47736.13
354.129	47921.29
354.497	48160.48
354.865	48379.5
355.234	48608.73
355.602	48830.34
355.971	49078.16
356.339	49289.14
356.707	49502.21
357.075	49717.15
357.443	49950.99
357.811	50162.73
358.18	50375.29
358.548	50581.58
358.916	50795.74
359.284	51013.25
359.651	51228.06
360.019	51452.87
360.387	51661.38
360.755	51862.41
361.123	52091.94
361.49	52322.12
361.858	52542.99
362.226	52737.95
362.593	52944.36
362.961	53125.35
363.328	53329.93
363.696	53498.68
364.063	53716.15
364.43	53926.13
364.798	54142.74
365.165	54314.54
365.532	54505.39
365.899	54701.12
366.267	54867.51
366.634	55021.34
367.001	55178.71
367.368	55321.35
367.735	55500.6
368.102	55671.38
368.469	55864.61
368.835	56043.62
369.202	56205.85
369.569	56389.93
369.936	56569.36
370.303	56755.98
370.669	56953.27
371.036	57113.24
371.402	57312.81
371.769	57496.78
372.135	57647.01
372.502	57771.43
372.868	57918.91
373.235	58060.45
373.601	58193.69
373.967	58367.82
374.333	58555.14
374.7	58736.06
375.066	58943.27
375.432	59124.71
375.798	59311.84
376.164	59480.07
376.53	59628.04
376.896	59797.59
377.262	59976.94
377.628	60109.14
377.993	60253.88
378.359	60402.02
378.725	60556.16
379.091	60712.84
379.456	60839.86
379.822	60975.57
380.187	61124.29
380.553	61308.88
380.918	61502.08
381.284	61676.8
381.649	61842.5
382.015	61983.98
382.38	62108.07
382.745	62268.64
383.11	62423.78
383.476	62565.88
383.841	62694.45
384.206	62856.65
384.571	62969.21
384.936	63105.11
385.301	63283.13
385.666	63414.45
386.031	63563.38
386.396	63731.49
386.76	63882.28
387.125	64072.72
387.49	64274.19
387.855	64467.12
388.219	64636.89
388.584	64813.67
388.948	65004.41
389.313	65167.56
389.677	65366.56
390.042	65600.49
390.406	65762.59
390.771	65945.97
391.135	66134.03
391.499	66365.92
391.863	66587.69
392.227	66833.95
392.592	67032.51
392.956	67221.76
393.32	67420.61
393.684	67635.79
394.048	67804.14
394.412	67970.83
394.775	68119.39
395.139	68268.64
395.503	68420.5
395.867	68572.87
396.231	68710.87
396.594	68814.72
396.958	68961.05
397.321	69119.68
397.685	69249.99
398.048	69394.34
398.412	69533.72
398.775	69655.27
399.139	69781.23
399.502	69904.41
399.865	70039.7
400.228	70230.37
400.592	70367.24
400.955	70557.03
401.318	70685.41
401.681	70847.48
402.044	71001.54
402.407	71159.48
402.77	71312.63
403.133	71516.3
403.496	71656.83
403.859	71817.86
404.221	72062.45
404.584	72299.55
404.947	72550.13
405.309	72756.74
405.672	72994.75
406.034	73221
406.397	73479.91
406.759	73705.47
407.122	73882.85
407.484	74068.67
407.847	74258.51
408.209	74516.2
408.571	74754.06
408.933	75023.93
409.296	75285.18
409.658	75530.04
410.02	75805.09
410.382	76110.64
410.744	76361.71
411.106	76649.09
411.468	76918.92
411.83	77150.5
412.191	77344.7
412.553	77511.81
412.915	77712.99
413.277	77904.71
413.638	78091.59
414	78255.38
414.361	78425.04
414.723	78641.28
415.084	78840.28
415.446	78994.54
415.807	79115.5
416.169	79210.99
416.53	79286.9
416.891	79377.36
417.252	79483.1
417.614	79549.63
417.975	79583.91
418.336	79624.12
418.697	79667.66
419.058	79703.46
419.419	79730.96
419.78	79761
420.141	79781.81
420.501	79803.22
420.862	79819.37
421.223	79834.39
421.584	79861.39
421.944	79874.65
422.305	79884.71
422.666	79889.25
423.026	79892.49
423.387	79902.22
423.747	79909.04
424.107	79917.56
424.468	79925.6
424.828	79931.77
425.188	79935.57
425.549	79942.69
425.909	79946.98
426.269	79944.39
426.629	79949.27
426.989	79952.85
427.349	79955.69
427.709	79958.24
428.069	79960.49
428.429	79965.26
428.789	79970.02
429.149	79974.46
429.508	79978.63
429.868	79981.11
430.228	79985.87
430.587	79991.19
430.947	79993.78
431.306	79996.33
431.666	79999.65
432.025	80001.46
432.385	80002.13
432.744	80002.94
433.103	80004.05
433.463	80006.45
433.822	80014.39
434.181	80018.2
434.54	80020.75
434.899	80023.08
435.258	80026.29
435.618	80028.92
435.976	80030.92
436.335	80032.4
436.694	80034.02
437.053	80034.5
437.412	80035.02
437.771	80036.43
438.129	80035.58
438.488	80037.31
438.847	80039.27
439.205	80041.42
439.564	80042.45
439.922	80043.75
440.281	80045.48
440.639	80046.67
440.997	80046.85
441.356	80047.41
441.714	80045.82
442.072	80045.19
442.431	80046.15
442.789	80045.41
443.147	80045.41
443.505	80046.3
443.863	80044.63
444.221	80043.93
444.579	80043.75
444.937	80044.74
445.294	80044.74
445.652	80045.93
446.01	80045.63
446.368	80046.48
446.725	80045.85
447.083	80044.71
447.441	80045.19
447.798	80045.71
448.156	80046.19
448.513	80046.26
448.87	80047.22
449.228	80048.55
449.585	80048.37
449.942	80047.41
450.3	80049.22
450.657	80049.85
451.014	80050.18
451.371	80050.26
451.728	80049.85
452.085	80050.77
452.442	80051.33
452.799	80053.03
453.156	80053.73
453.513	80054.51
453.869	80055.21
454.226	80055.77
454.583	80058.69
454.939	80059.24
455.296	80058.65
455.653	80057.51
456.009	80057.28
456.366	80055.32
456.722	80055.55
457.078	80057.14
457.435	80055.92
457.791	80056.36
458.147	80053.88
458.503	80053.36
458.86	80055.03
459.216	80057.21
459.572	80058.47
459.928	80060.17
460.284	80059.25
460.64	80059.8
460.996	80061.35
461.351	80061.87
461.707	80061.47
462.063	80060.36
462.419	80061.17
462.774	80062.65
463.13	80064.54
463.486	80065.28
463.841	80067.16
464.197	80066.53
464.552	80067.68
464.908	80069.34
465.263	80068.83
465.618	80070.9
465.974	80070.9
466.329	80070.93
466.684	80070.38
467.039	80069.86
467.394	80068.53
467.749	80068.49
468.104	80068.49
468.459	80067.86
468.814	80067.72
469.169	80068.05
469.524	80068.57
469.879	80069.9
470.233	80069.6
470.588	80070.23
470.943	80070.42
471.297	80070.64
471.652	80072.97
472.006	80072.16
472.361	80073.67
472.715	80074.34
473.07	80073.93
473.424	80074.64
473.778	80075.63
474.133	80076.26
474.487	80076.97
474.841	80076.89
475.195	80078.11
475.549	80079.52
475.903	80080.04
476.257	80081.7
476.611	80082.85
476.965	80083.18
477.319	80082.26
477.673	80082.33
478.026	80082.52
478.38	80084.03
478.734	80085.18
479.087	80084.74
479.441	80086.22
479.795	80086.62
480.148	80087.33
480.502	80088.99
480.855	80090.51
481.208	80091.25
481.562	80091.51
481.915	80090.77
482.268	80092.18
482.621	80092.73
482.974	80093.84
483.328	80093.88
483.681	80092.99
484.034	80093.14
484.387	80093.84
484.739	80095.14
485.092	80095.36
485.445	80095.91
485.798	80096.66
486.151	80095.62
486.503	80095.51
486.856	80095.77
487.209	80095.88
487.561	80096.03
487.914	80095.32
488.266	80092.99
488.618	80091.95
488.971	80092.07
489.323	80092.95
489.675	80093.14
490.028	80093.44
490.38	80091.07
490.732	80093.14
491.084	80094.51
491.436	80095.21
491.788	80096.99
492.14	80095.88
492.492	80097.99
492.844	80098.73
493.196	80099.54
493.548	80100.99
493.899	80100.99
494.251	80100.69
494.603	80099.84
494.954	80099.65
495.306	80101.17
495.657	80103.54
496.009	80106.06
496.36	80106.58
496.712	80107.84
497.063	80107.58
497.414	80108.13
497.765	80109.65
498.117	80107.8
498.468	80107.54
498.819	80107.8
499.17	80107.17
499.521	80108.28
499.872	80106.69
500.223	80105.8
500.574	80105.58
500.924	80105.5
501.275	80107.35
501.626	80107.58
501.977	80109.13
502.327	80110.02
502.678	80110.94
503.029	80109.95
503.379	80108.87
503.73	80108.83
504.08	80108.5
504.43	80108.35
504.781	80107.21
505.131	80106.65
505.481	80106.02
505.831	80105.32
506.182	80105.91
506.532	80105.61
506.882	80104.84
507.232	80104.5
507.582	80103.54
507.932	80104.24
508.281	80105.21
508.631	80104.28
508.981	80103.76
509.331	80102.87
509.681	80102.73
510.03	80101.62
510.38	80102.62
510.729	80102.73
511.079	80103.36
511.428	80102.76
511.778	80103.58
512.127	80103.91
512.476	80104.95
512.826	80104.58
513.175	80106.91
513.524	80107.5
513.873	80106.5
514.222	80107.95
514.571	80109.72
514.92	80111.17
515.269	80108.65
515.618	80106.43
515.967	80106.24
516.316	80106.95
516.665	80108.47
517.014	80108.24
517.362	80108.87
517.711	80109.17
518.059	80109.5
518.408	80108.87
518.757	80108.39
519.105	80108.43
519.453	80109.65
519.802	80109.58
520.15	80110.02
520.498	80108.24
520.847	80106.91
521.195	80108.47
521.543	80108.21
521.891	80108.58
522.239	80107.69
522.587	80108.28
522.935	80110.39
523.283	80110.91
523.631	80110.32
523.979	80108.5
524.326	80109.06
524.674	80107.84
525.022	80107.76
525.369	80106.84
525.717	80107.02
526.064	80107.54
526.412	80107.28
526.759	80106.32
527.107	80105.06
527.454	80105.91
527.801	80106.32
528.149	80108.5
528.496	80107.76
528.843	80106.13
529.19	80103.21
529.537	80103.21
529.884	80103.28
530.231	80102.13
530.578	80099.88
530.925	80099.14
531.272	80099.8
531.619	80098.54
531.966	80100.36
532.312	80100.62
532.659	80100.73
533.006	80100.95
533.352	80101.84
533.699	80102.06
534.045	80101.91
534.392	80101.43
534.738	80101.06
535.084	80101.8
535.431	80099.32
535.777	80100.54
536.123	80100.51
536.469	80101.28
536.815	80100.25
537.161	80099.43
537.507	80100.4
537.853	80100.77
538.199	80100.8
538.545	80100.28
538.891	80100.54
539.237	80097.77
539.582	80095.66
539.928	80095.1
540.274	80095.14
540.619	80093.18
540.965	80094.1
541.31	80093.7
541.656	80095.18
542.001	80096.69
542.347	80094.18
542.692	80094.4
543.037	80092.92
543.382	80092.95
543.728	80093.44
544.073	80095.66
544.418	80094.88
544.763	80093.66
545.108	80095.18
545.453	80096.66
545.798	80096.54
546.142	80096.4
546.487	80098.88
546.832	80101.02
547.177	80101.06
547.521	80101.51
547.866	80101.95
548.211	80100.84
548.555	80100.32
548.9	80099.88
549.244	80097.69
549.588	80099.1
549.933	80099.58
550.277	80099.8
550.621	80100.36
550.965	80100.39
551.31	80098.95
551.654	80101.1
551.998	80100.36
552.342	80100.28
552.686	80099.58
553.03	80099.91
553.373	80101.1
553.717	80098.91
554.061	80098.14
554.405	80097.65
554.748	80095.4
555.092	80096.32
555.436	80096.84
555.779	80096.8
556.123	80098.28
556.466	80099.47
556.81	80100.69
557.153	80101.21
557.496	80101.25
557.839	80099.73
558.183	80099.69
558.526	80098.66
558.869	80098.77
559.212	80100.06
559.555	80099.36
559.898	80099.1
560.241	80098.62
560.584	80098.14
560.927	80100.21
561.269	80100.21
561.612	80101.91
561.955	80103.21
562.297	80102.32
562.64	80103.5
562.983	80105.1
563.325	80103.47
563.668	80104.17
564.01	80103.5
564.352	80100.54
564.695	80099.95
565.037	80102.21
565.379	80101.17
565.721	80101.95
566.063	80099.91
566.406	80099.03
566.748	80099.77
567.09	80099.43
567.431	80100.47
567.773	80099.21
568.115	80099.51
568.457	80099.1
568.799	80098.03
569.14	80097.4
569.482	80096.92
569.824	80094.47
570.165	80092.25
570.507	80092.25
570.848	80091.59
571.19	80090.51
571.531	80092.4
571.872	80092.62
572.214	80092.07
572.555	80091.51
572.896	80091.95
573.237	80091.55
573.578	80090.59
573.919	80089.18
574.26	80090.55
574.601	80089.73
574.942	80090.55
575.283	80088.25
575.624	80086.74
575.964	80085.14
576.305	80087.11
576.646	80087.88
576.986	80088.85
577.327	80088.51
577.667	80087.96
578.008	80087.7
578.348	80088.44
578.689	80088.18
579.029	80088.74
579.369	80089.33
579.71	80089.55
580.05	80090.66
580.39	80092.29
580.73	80093.62
581.07	80093.66
581.41	80092.18
581.75	80090.7
582.09	80089.29
582.43	80090.33
582.769	80091.62
583.109	80093.44
583.449	80091.84
583.789	80089.66
584.128	80088.03
584.468	80087.92
584.807	80087.48
585.147	80086.81
585.486	80084.85
585.825	80084.59
586.165	80083.26
586.504	80082.44
586.843	80083.33
587.182	80082.18
587.522	80082.07
587.861	80081.7
588.2	80081.78
588.539	80081.81
588.878	80081.96
589.216	80082.33
589.555	80081.78
589.894	80081.26
590.233	80082.33
590.572	80082.59
590.91	80085.14
591.249	80087.22
591.587	80087.85
591.926	80088.22
592.264	80088.11
592.603	80087.88
592.941	80086.63
593.279	80088.14
593.618	80087.7
593.956	80086.77
594.294	80085.55
594.632	80084.18
594.97	80082.59
595.308	80082.22
595.646	80081.59
595.984	80082.19
596.322	80083.07
596.66	80082.19
596.998	80081.96
597.335	80080.04
597.673	80078.74
598.011	80075.56
598.348	80073.53
598.686	80074.52
599.023	80073.64
599.361	80073.67
599.698	80072.68
600.035	80073.82
600.373	80072.34
600.71	80072.79
601.047	80072.71
601.384	80072.67
601.722	80073.64
602.059	80075.52
602.396	80075.38
602.733	80074.67
603.069	80074.89
603.406	80075.15
603.743	80074.78
604.08	80073.49
604.417	80073.27
604.753	80074.01
605.09	80076.34
605.426	80076.71
605.763	80075.56
606.099	80076.67
606.436	80077.11
606.772	80077.78
607.109	80078.3
607.445	80077.45
607.781	80077.41
608.117	80077.45
608.453	80078.3
608.79	80076.19
609.126	80075.45
609.462	80075.49
609.798	80075.3
610.133	80075.63
610.469	80073.9
610.805	80074.38
611.141	80075.6
611.477	80074.08
611.812	80073.23
612.148	80072.79
612.483	80071.82
612.819	80070.79
613.154	80068.46
613.49	80068.57
613.825	80069.38
614.16	80066.83
614.496	80066.76
614.831	80064.42
615.166	80064.31
615.501	80062.94
615.836	80064.28
616.171	80063.61
616.506	80063.72
616.841	80064.76
617.176	80063.94
617.511	80063.83
617.846	80064.35
618.18	80063.46
618.515	80063.54
618.85	80063.39
619.184	80063.54
619.519	80063.42
619.853	80064.42
620.188	80065.87
620.522	80064.13
620.856	80064.46
621.191	80065.79
621.525	80065.57
621.859	80066.86
622.193	80065.87
622.527	80065.79
622.861	80064.94
623.195	80064.53
623.529	80064.05
623.863	80062.65
624.197	80062.35
624.531	80063.61
624.865	80062.5
625.198	80062.13
625.532	80062.28
625.866	80062.02
626.199	80060.98
626.533	80062.02
626.866	80060.21
627.2	80058.99
627.533	80058.13
627.866	80056.14
628.2	80056.88
628.533	80056.25
628.866	80055.55
629.199	80055.99
629.532	80056.32
629.865	80055.95
630.198	80057.88
630.531	80057.36
630.864	80056.51
631.197	80055.81
631.529	80054.81
631.862	80055.44
632.195	80057.66
632.527	80058.91
632.86	80058.17
633.193	80059.62
633.525	80059.69
633.857	80061.47
634.19	80062.5
634.522	80063.94
634.854	80063.91
635.187	80062.09
635.519	80062.43
635.851	80063.09
636.183	80062.69
636.515	80063.43
636.847	80063.13
637.179	80061.54
637.511	80061.24
637.843	80063.2
638.174	80063.83
638.506	80063.06
638.838	80061.83
639.17	80060.06
639.501	80058.47
639.833	80058.36
640.164	80056.99
640.496	80055.25
640.827	80054.73
641.158	80053.77
641.49	80052.55
641.821	80053.55
642.152	80054.69
642.483	80054.07
642.814	80053.62
643.145	80053.88
643.476	80052.03
643.807	80052.66
644.138	80052.88
644.469	80052.07
644.8	80051.4
645.131	80050.18
645.461	80050.48
645.792	80050.37
646.122	80048.37
646.453	80048.04
646.784	80048.85
647.114	80047.96
647.444	80047.63
647.775	80047.11
648.105	80046.48
648.435	80045.71
648.765	80045.26
649.096	80044.04
649.426	80044.97
649.756	80044.23
650.086	80044.26
650.416	80045
650.746	80044.82
651.075	80043.6
651.405	80043.78
651.735	80044.23
652.065	80044.49
652.394	80045.04
652.724	80044.3
653.054	80046.19
653.383	80046.74
653.712	80046.33
654.042	80047.11
654.371	80046.67
654.701	80047.33
655.03	80047.56
655.359	80048.92
655.688	80047.89
656.017	80046.93
656.346	80044.78
656.675	80043.97
657.004	80043.01
657.333	80042.05
657.662	80041.93
657.991	80041.6
658.32	80041.01
658.648	80040.23
658.977	80040.12
659.306	80038.42
659.634	80037.98
659.963	80038.35
660.291	80037.24
660.619	80037.02
660.948	80036.46
661.276	80035.87
661.604	80033.91
661.933	80034.17
662.261	80034.8
662.589	80037.28
662.917	80038.24
663.245	80039.79
663.573	80040.05
663.901	80039.53
664.229	80041.01
664.556	80039.16
664.884	80038.98
665.212	80039.38
665.539	80037.61
665.867	80037.68
666.195	80038.94
666.522	80039.98
666.85	80038.24
667.177	80037.61
667.504	80037.31
667.832	80037.83
668.159	80038.46
668.486	80039.27
668.813	80038.57
669.14	80036.72
669.467	80034.39
669.794	80033.36
670.121	80033.47
670.448	80032.84
670.775	80034.32
671.102	80032.17
671.429	80032.76
671.755	80031.77
672.082	80031.36
672.409	80032.58
672.735	80031.1
673.062	80028.55
673.388	80026.81
673.714	80026.96
674.041	80027.96
674.367	80026.74
674.693	80026.59
675.019	80027.37
675.346	80025.67
675.672	80026.11
675.998	80026.52
676.324	80025.74
676.65	80026.29
676.976	80025.67
677.301	80026.07
677.627	80024.89
677.953	80025.41
678.279	80023.89
678.604	80024.3
678.93	80023.6
679.255	80022.74
679.581	80022.71
679.906	80023.26
680.232	80022.6
680.557	80021.34
680.882	80019.94
681.208	80021.12
681.533	80020.23
681.858	80019.34
682.183	80018.97
682.508	80018.49
682.833	80019.01
683.158	80018.42
683.483	80018.31
683.808	80016.79
684.132	80017.09
684.457	80016.79
684.782	80017.13
685.106	80019.31
685.431	80019.75
685.755	80018.53
686.08	80017.83
686.404	80018.2
686.729	80017.98
687.053	80019.82
687.377	80020.53
687.701	80020.19
688.026	80018.83
688.35	80018.46
688.674	80018.31
688.998	80018.97
689.322	80016.83
689.646	80013.32
689.97	80013.69
690.293	80012.43
690.617	80010.88
690.941	80009.29
691.264	80007.15
691.588	80006.3
691.912	80004.3
692.235	80001.16
692.559	80000.35
692.882	79999.24
693.205	79997.61
693.529	79994.36
693.852	79990.85
694.175	79986.75
694.498	79985.16
694.821	79983.28
695.144	79979.69
695.467	79975.37
695.79	79972.82
696.113	79969.91
696.436	79967.32
696.759	79962.85
697.082	79955.99
697.404	79950.3
697.727	79941.56
698.049	79934.81
698.372	79922.71
698.694	79910.95
699.017	79897.43
699.339	79881.92
699.662	79863.62
699.984	79834.15
700.306	79805.76
700.628	79760.2
700.95	79699.57
701.272	79623.28
701.594	79529.82
701.916	79442.93
702.238	79342.89
702.56	79194.97
702.882	79042.68
703.204	78895.75
703.525	78730.92
703.847	78522.64
704.169	78332.41
704.49	78117.11
704.812	77892.97
705.133	77667.03
705.455	77446.9
705.776	77196.93
706.097	76962.62
706.419	76710.44
706.74	76455.17
707.061	76178.08
707.382	75884.37
707.703	75587.78
708.024	75302.99
708.345	75009.36
708.666	74703.08
708.987	74383.74
709.307	74113.77
709.628	73808.16
709.949	73489.26
710.27	73169.06
710.59	72912.95
710.911	72613.28
711.231	72312.67
711.552	72032.14
711.872	71706.41
712.192	71420.12
712.512	71159.84
712.833	70883.04
713.153	70603.24
713.473	70362.69
713.793	70129.81
714.113	69911.49
714.433	69700.4
714.753	69494.42
715.073	69301.75
715.393	69102.2
715.712	68934.97
716.032	68719.82
716.352	68541.84
716.671	68386.6
716.991	68216.2
717.31	68015.32
717.63	67851.84
717.949	67668.96
718.268	67462.78
718.588	67292.37
718.907	67058.01
719.226	66800.95
719.545	66550.01
719.864	66279.34
720.183	65998.8
720.502	65718.47
720.821	65436.74
721.14	65153.02
721.459	64841.21
721.778	64565.36
722.096	64237.25
722.415	63928.28
722.734	63659.35
723.052	63376.6
723.371	63077.6
723.689	62803.89
724.008	62518.17
724.326	62219.36
724.644	61959.04
724.963	61691.22
725.281	61456.8
725.599	61229.52
725.917	61032.18
726.235	60832.9
726.553	60678.52
726.871	60486.34
727.189	60281.33
727.507	60086.24
727.824	59927.8
728.142	59788.79
728.46	59594.4
728.777	59487.3
729.095	59360.67
729.413	59206.35
729.73	59068.56
730.047	58938.3
730.365	58822.51
730.682	58718.38
730.999	58626.64
731.317	58547.49
731.634	58464.48
731.951	58349.13
732.268	58225.88
732.585	58084.3
732.902	57928.5
733.219	57759.45
733.536	57591.75
733.852	57466.83
734.169	57332.3
734.486	57180.88
734.802	57026.08
735.119	56910.4
735.435	56735.46
735.752	56574.33
736.068	56404.42
736.385	56231.79
736.701	56037.09
737.017	55803.12
737.333	55555.59
737.65	55254.93
737.966	54881.3
738.282	54493.67
738.598	54085.65
738.914	53638.08
739.23	53153.39
739.545	52639.37
739.861	52095.96
740.177	51541.63
740.493	50940.79
740.808	50368.75
741.124	49763.99
741.439	49178.81
741.755	48605.15
742.07	48079.8
742.386	47522.9
742.701	47021.03
743.016	46528.17
743.331	46057.35
743.647	45633.15
743.962	45241.09
744.277	44891.63
744.592	44616.83
744.907	44395.88
745.222	44226.55
745.537	44127.98
745.851	44093.05
746.166	44105.35
746.481	44159.16
746.795	44271.16
747.11	44435.1
747.424	44610.7
747.739	44776
748.053	44949.62
748.368	45104.19
748.682	45219.52
748.996	45355.27
749.311	45463.62
749.625	45559.6
749.939	45655.61
750.253	45717.18
750.567	45782.15
750.881	45847.6
751.195	45907.5
751.509	45970.71
751.822	46016.29
752.136	46065.22
752.45	46117.14
752.763	46182.6
753.077	46240.22
753.39	46277.57
753.704	46298.75
754.017	46313.2
754.331	46351.32
754.644	46358.67
754.957	46361.8
755.27	46374.59
755.584	46373.77
755.897	46380.63
756.21	46375.08
756.523	46353.53
756.836	46338.2
757.149	46261.82
757.461	46192.87
757.774	46110.36
758.087	45989.8
758.4	45852.7
758.712	45701.83
759.025	45540.58
759.337	45381.17
759.65	45221.33
759.962	45068.66
760.275	44909.51
760.587	44768.44
760.899	44625.39
761.211	44535.68
761.523	44459.34
761.836	44456.61
762.148	44466.74
762.46	44495.24
762.772	44559.47
763.083	44687.11
763.395	44830.03
763.707	45049.56
764.019	45267.92
764.33	45496.97
764.642	45756.62
764.954	46031.96
765.265	46302.85
765.577	46571.16
765.888	46816.99
766.199	47056.27
766.511	47278.17
766.822	47496.97
767.133	47671.14
767.444	47843.31
767.755	47932.02
768.066	47995.82
768.377	47987.13
768.688	47925.56
768.999	47833.52
769.31	47710.38
769.621	47526.31
769.931	47303.19
770.242	47041.15
770.553	46748.87
770.863	46413.09
771.174	46053.48
771.484	45667.32
771.794	45264.87
772.105	44855.41
772.415	44421.39
772.725	43976.07
773.035	43526.05
773.345	43075.22
773.656	42610.41
773.966	42137.87
774.276	41709.01
774.585	41280.88
774.895	40847.19
775.205	40463.73
775.515	40069.2
775.824	39675.41
776.134	39292.89
776.444	38933.04
776.753	38581.49
777.063	38240.08
777.372	37918.14
777.681	37595.97
777.991	37291.2
778.3	36990.77
778.609	36690.3
778.918	36410.93
779.228	36150.48
779.537	35887.64
779.846	35618.8
780.154	35362.93
780.463	35125.72
780.772	34878.78
781.081	34646.72
781.39	34448.55
781.698	34231.56
782.007	34028.67
782.316	33828.06
782.624	33609.3
782.932	33399.62
783.241	33199.3
783.549	33004.46
783.858	32833.18
784.166	32664.04
784.474	32486.26
784.782	32324.35
785.09	32172.77
785.398	32029.21
785.706	31885.19
786.014	31746.77
786.322	31610.45
786.63	31482.55
786.937	31357.14
787.245	31239.76
787.553	31112.02
787.86	30993.44
788.168	30871.51
788.475	30758.1
788.783	30662.55
789.09	30567.35
789.398	30467.27
789.705	30364.2
790.012	30262.3
790.319	30157.79
790.626	30055.62
790.933	29966.63
791.24	29877.23
791.547	29778.2
791.854	29684.59
792.161	29589.57
792.468	29488.27
792.774	29394.43
793.081	29303.21
793.388	29220.66
793.694	29112.96
794.001	29021.17
794.307	28891.85
794.614	28785.51
794.92	28661.1
795.226	28532.51
795.533	28414.05
795.839	28317.27
796.145	28204.12
796.451	28093.04
796.757	27987.39
797.063	27877.37
797.369	27763.01
797.675	27662.58
797.98	27565.65
798.286	27440.83
798.592	27331.27
798.898	27219.79
799.203	27107.47
799.509	26990.88
799.814	26865.13
800.12	26770.73
800.425	26660.71
800.73	26559.84
801.035	26446.6
801.341	26348.85
801.646	26244.07
801.951	26151.35
802.256	26051.04
802.561	25954.62
802.866	25862.41
803.171	25770.51
803.476	25687.27
803.78	25597.56
804.085	25490.86
804.39	25377.45
804.694	25287.27
804.999	25187.59
805.303	25095.86
805.608	25013.53
805.912	24937.06
806.216	24861.35
806.521	24793.02
806.825	24720.89
807.129	24647.91
807.433	24571.23
807.737	24499.6
808.041	24441.74
808.345	24384.91
808.649	24326.34
808.953	24281.9
809.257	24225.92
809.561	24169.95
809.864	24114.35
810.168	24080.3
810.471	24049.75
810.775	24023.83
811.078	24001.13
811.382	23978.03
811.685	23971.43
811.988	23958.92
812.292	23945.92
812.595	23945.94
812.898	23939.9
813.201	23950.59
813.504	23971.21
813.807	24004.88
814.11	24033.91
814.413	24059.14
814.716	24081.21
815.018	24127.37
815.321	24183.82
815.624	24266.36
815.926	24369.23
816.229	24496.6
816.531	24634.48
816.834	24795.95
817.136	24992.52
817.438	25202.05
817.74	25467.5
818.043	25778.88
818.345	26154.82
818.647	26609.83
818.949	27156.02
819.251	27787.18
819.553	28528.82
819.855	29393.78
820.156	30358.91
820.458	31441.49
820.76	32599.78
821.062	33813.27
821.363	35072.08
821.665	36399.84
821.966	37820.73
822.268	39263.71
822.569	40708.62
822.87	42182.17
823.171	43666.07
823.473	45194.56
823.774	46771.14
824.075	48297.69
824.376	49794.76
824.677	51261.28
824.978	52643.55
825.279	53932.42
825.58	55101.24
825.88	56139.73
826.181	57025.34
826.482	57811.4
826.782	58436.72
827.083	58955.89
827.383	59340.65
827.684	59561.36
827.984	59652.42
828.284	59582.02
828.585	59365.98
828.885	59059.4
829.185	58610.76
829.485	58065.45
829.785	57396.1
830.085	56567.37
830.385	55704.23
830.685	54773.13
830.985	53730.8
831.285	52657.34
831.584	51535.85
831.884	50392.62
832.183	49225.92
832.483	48020.4
832.782	46750.13
833.082	45471.44
833.381	44189.78
833.681	42953.36
833.98	41787.54
834.279	40654.17
834.578	39534.39
834.877	38498.21
835.176	37494.56
835.475	36565.3
835.774	35671.86
836.073	34803.77
836.372	33988.77
836.671	33168.39
836.969	32363.84
837.268	31621.57
837.567	30905.35
837.865	30219.29
838.164	29543.37
838.462	28883.52
838.761	28274.25
839.059	27697.46
839.357	27153.47
839.655	26616.36
839.953	26077.02
840.252	25552.67
840.55	25020.64
840.848	24517.5
841.146	24016.23
841.443	23518.56
841.741	23018.99
842.039	22509.96
842.337	22006.67
842.634	21536.95
842.932	21099.65
843.229	20673.16
843.527	20250.88
843.824	19813.29
844.122	19365.53
844.419	18939.61
844.716	18516.6
845.013	18103.9
845.311	17709.73
845.608	17335.05
845.905	16969.92
846.202	16613.5
846.499	16247.98
846.796	15888.8
847.092	15518.2
847.389	15155.4
847.686	14816.53
847.982	14495.02
848.279	14188.38
848.576	13895.68
848.872	13605.13
849.168	13315.55
849.465	13034.97
849.761	12747.96
850.057	12475.28
850.354	12214.26
850.65	11968.64
850.946	11741.5
851.242	11522.63
851.538	11300.75
851.834	11078.59
852.13	10868.31
852.425	10672.98
852.721	10492.96
853.017	10329.1
853.312	10179.55
853.608	10035.47
853.903	9893.73
854.199	9745.06
854.494	9618.68
854.79	9490.25
855.085	9357.02
855.38	9227.32
855.675	9098.48
855.971	8977.46
856.266	8874.35
856.561	8779.84
856.856	8684.63
857.151	8590.45
857.445	8491.93
857.74	8394.87
858.035	8300.51
858.33	8206.72
858.624	8120.71
858.919	8040.19
859.213	7951.22
859.508	7868.86
859.802	7780.49
860.096	7699.32
860.391	7634.86
860.685	7570.12
860.979	7509.01
861.273	7460.24
861.567	7401.9
861.861	7337.72
862.155	7283.66
862.449	7215.09
862.743	7148.09
863.037	7091.92
863.33	7036.21
863.624	6978.47
863.918	6934.13
864.211	6895.57
864.505	6862.48
864.798	6823.56
865.092	6777.52
865.385	6731.73
865.678	6682.02
865.971	6648.61
866.264	6616.24
866.558	6586.37
866.851	6553.04
867.144	6521.86
867.437	6485.36
867.729	6456.77
868.022	6438.04
868.315	6418.74
868.608	6405.01
868.9	6398.08
869.193	6376.2
869.485	6346.21
869.778	6322.46
870.07	6296.23
870.363	6273.97
870.655	6255.55
870.947	6246.51
871.239	6238.9
871.532	6243.02
871.824	6246.16
872.116	6245.58
872.408	6242.52
872.699	6231.66
872.991	6223.35
873.283	6221.62
873.575	6222.34
873.867	6227.51
874.158	6234.9
874.45	6233.4
874.741	6236.83
875.033	6237.11
875.324	6250.2
875.615	6273.19
875.907	6295.93
876.198	6311.68
876.489	6324.97
876.78	6329.24
877.071	6328.22
877.362	6331.49
877.653	6331.57
877.944	6341.82
878.235	6349.84
878.526	6355.95
878.816	6369.55
