Data from 20250702_urea_5M_MAYP1162681_11-43-23-240.txt Node
Date: Wed Jul 02 11:43:23 BST 2025
User: adleo
Spectrometer: MAYP116268
Trigger mode: 0
Integration Time (sec): 1.000000E0
Scans to average: 1
Electric dark correction enabled: true
Nonlinearity correction enabled: true
Boxcar width: 10
XAxis mode: Wavelengths
Number of Pixels in Spectrum: 2068
>>>>>Begin Spectral Data<<<<<
179.565	1014.1
179.642	1062.43
179.718	1094.51
179.795	1123.57
179.871	1151.29
179.948	1163.76
180.024	1179.87
180.101	1199
180.177	1211.46
180.254	1230.59
180.33	1249.09
180.407	1288.05
180.483	1368.91
180.56	1444.02
180.636	1514.32
180.712	1503.68
180.789	1513.61
180.865	1522.44
180.942	1529.27
181.018	1540.43
181.095	1549.98
181.171	1557.35
181.248	1554.92
181.324	1571.79
181.4	1579.24
181.477	1588.55
181.553	1601.95
181.63	1619.95
181.706	1635.25
181.782	1643.37
181.859	1644.08
181.935	1648.4
182.011	1647.41
182.088	1663.75
182.164	1680.81
182.24	1693.78
182.317	1702.47
182.393	1699.57
182.469	1714.11
182.546	1727.27
182.622	1730.6
182.698	1726.27
182.775	1736.58
182.851	1750.65
182.927	1744.94
183.003	1742.09
183.08	1737.63
183.156	1744.09
183.232	1741.38
183.308	1729.64
183.385	1733.35
183.461	1747.56
183.537	1750.93
183.613	1760.29
183.69	1752.45
183.766	1744.47
183.842	1749.93
183.918	1753.78
183.995	1764.47
184.071	1766.75
184.147	1762.71
184.223	1752.26
184.299	1762.29
184.375	1751.46
184.452	1756.35
184.528	1804.93
184.604	1812.87
184.68	1823.37
184.756	1831.69
184.832	1834.68
184.908	1838.58
184.985	1839.57
185.061	1826.41
185.137	1831.12
185.213	1821.28
185.289	1822.42
185.365	1815.48
185.441	1813.87
185.517	1824.9
185.593	1822.76
185.669	1819.15
185.745	1825.37
185.822	1841.33
185.898	1834.63
185.974	1843.61
186.05	1836.91
186.126	1800.17
186.202	1795.51
186.278	1790.19
186.354	1778.16
186.43	1785.2
186.506	1783.63
186.582	1783.72
186.658	1787.81
186.734	1773.41
186.81	1777.17
186.886	1778.07
186.962	1788.57
187.038	1785.53
187.114	1778.49
187.19	1786.86
187.266	1777.36
187.341	1779.73
187.417	1773.13
187.493	1772.94
187.569	1774.03
187.645	1769.42
187.721	1758.2
187.797	1764.76
187.873	1768.8
187.949	1767.61
188.025	1760.91
188.101	1762.29
188.176	1766.52
188.252	1761.72
188.328	1769.89
188.404	1765.14
188.48	1759.49
188.556	1752.69
188.632	1751.79
188.707	1751.07
188.783	1744.47
188.859	1741.76
188.935	1734.44
189.011	1740.28
189.086	1735.39
189.162	1727.5
189.238	1726.12
189.314	1725.13
189.39	1720.52
189.465	1715.34
189.541	1728.55
189.617	1714.49
189.693	1709.45
189.768	1713.49
189.844	1738.3
189.92	1729.23
189.996	1740.35
190.071	1750.19
190.147	1748.9
190.223	1758.5
190.298	1754.56
190.374	1743.73
190.45	1755.65
190.526	1761.21
190.601	1758.31
190.677	1759.79
190.753	1781.89
190.828	1784.93
190.904	1797.43
190.98	1811.79
191.055	1821.91
191.131	1815.31
191.207	1835.98
191.282	1847.76
191.358	1838.63
191.433	1824.32
191.509	1836.01
191.585	1833.82
191.66	1836.01
191.736	1844.14
191.811	1836.96
191.887	1851.32
191.963	1871.28
192.038	1876.65
192.114	1876.36
192.189	1879.4
192.265	1876.89
192.34	1861.43
192.416	1859.01
192.491	1855.25
192.567	1858.06
192.642	1857.96
192.718	1856.21
192.793	1844.66
192.869	1841.71
192.944	1843.61
193.02	1851.41
193.095	1855.45
193.171	1859.49
193.246	1855.92
193.322	1855.16
193.397	1856.02
193.473	1842.28
193.548	1827.3
193.624	1830.25
193.699	1828.07
193.775	1842.9
193.85	1842
193.925	1849.08
194.001	1850.84
194.076	1845.61
194.152	1833.34
194.227	1828.31
194.302	1821.18
194.378	1824.79
194.453	1821.13
194.529	1830.88
194.604	1816.9
194.679	1809.01
194.755	1794.09
194.83	1807.88
194.905	1804.27
194.981	1810.68
195.056	1806.26
195.131	1812.49
195.207	1812.4
195.282	1804.93
195.357	1786.82
195.433	1803.17
195.508	1790.33
195.583	1794.94
195.659	1807.11
195.734	1815.29
195.809	1813.72
195.884	1820.71
195.96	1821.18
196.035	1833.4
196.11	1828.31
196.185	1837.72
196.261	1839.81
196.336	1865.43
196.411	1852.31
196.486	1857.2
196.561	1851.5
196.637	1857.11
196.712	1871.99
196.787	1873.99
196.862	1886.35
196.937	1893.95
197.013	1898.32
197.088	1908.16
197.163	1926.71
197.238	1939.32
197.313	1938.13
197.388	1951.92
197.464	1977.83
197.539	1988.82
197.614	1984.97
197.689	1998.9
197.764	2015.35
197.839	2033.61
197.914	2027.38
197.989	2047.31
198.065	2059.01
198.14	2102.17
198.215	2124.81
198.29	2132.7
198.365	2145.79
198.44	2153.82
198.515	2177.23
198.59	2190.31
198.665	2213.29
198.74	2220.67
198.815	2224.57
198.89	2245.5
198.965	2271.49
199.04	2270.16
199.115	2282.86
199.19	2319.64
199.265	2320.93
199.34	2327.92
199.415	2358.97
199.49	2377.05
199.565	2383.23
199.64	2405.23
199.715	2401.75
199.79	2407.75
199.865	2415.65
199.94	2412.41
200.015	2442.12
200.09	2448.45
200.165	2453.93
200.24	2459.88
200.315	2499.05
200.39	2510.9
200.464	2515.19
200.539	2514.33
200.614	2527.99
200.689	2547.14
200.764	2551.28
200.839	2567.61
200.914	2573.32
200.989	2563.36
201.063	2577.22
201.138	2566.42
201.213	2567.75
201.288	2553.23
201.363	2560.23
201.438	2559.51
201.512	2573.79
201.587	2558.36
201.662	2561.46
201.737	2572.17
201.812	2579.51
201.886	2550.58
201.961	2559.82
202.036	2548.2
202.111	2548.59
202.186	2521.79
202.26	2510.89
202.335	2493.84
202.41	2488.84
202.485	2473.61
202.559	2456.66
202.634	2434.04
202.709	2439.66
202.784	2419.9
202.858	2418.43
202.933	2402.1
203.008	2398.34
203.082	2381.2
203.157	2379.01
203.232	2342.04
203.306	2325.28
203.381	2296.11
203.456	2271.55
203.53	2250.07
203.605	2233.85
203.68	2211.43
203.754	2206.96
203.829	2193.91
203.904	2175.55
203.978	2166.65
204.053	2168.36
204.127	2159.33
204.202	2160.8
204.277	2145.96
204.351	2140.25
204.426	2136.83
204.5	2127.31
204.575	2097.02
204.65	2106.87
204.724	2099.35
204.799	2106.67
204.873	2101.91
204.948	2103.76
205.022	2094.59
205.097	2087.73
205.171	2098.48
205.246	2105.24
205.32	2104.29
205.395	2100.62
205.469	2095.39
205.544	2097.92
205.618	2084.36
205.693	2093.3
205.767	2078.08
205.842	2098.87
205.916	2092.64
205.991	2080.13
206.065	2086.84
206.14	2099.68
206.214	2094.3
206.289	2090.78
206.363	2103.29
206.438	2102.81
206.512	2110.52
206.586	2129.4
206.661	2134.45
206.735	2116.38
206.81	2114.38
206.884	2129.69
206.958	2119.8
207.033	2132.02
207.107	2139.97
207.181	2168.71
207.256	2162.67
207.33	2181.51
207.405	2191.08
207.479	2210.96
207.553	2216.05
207.628	2201.83
207.702	2212.3
207.776	2206.54
207.851	2211.39
207.925	2224.06
207.999	2224.48
208.073	2222.63
208.148	2223.53
208.222	2213.06
208.296	2240.55
208.371	2258.69
208.445	2267.69
208.519	2293.19
208.593	2305.13
208.668	2302.85
208.742	2303.47
208.816	2306.27
208.89	2317.94
208.965	2313.27
209.039	2318.32
209.113	2337.16
209.187	2355.14
209.261	2351
209.336	2365.8
209.41	2381.22
209.484	2377.18
209.558	2397.89
209.632	2407.31
209.707	2417.69
209.781	2439.2
209.855	2456.11
209.929	2468.54
210.003	2472.64
210.077	2472.92
210.151	2514.52
210.226	2542.01
210.3	2567.99
210.374	2585.6
210.448	2588.69
210.522	2599.46
210.596	2609.55
210.67	2616.51
210.744	2656.09
210.818	2684.52
210.892	2705.76
210.966	2700.43
211.041	2718.15
211.115	2714.39
211.189	2735.97
211.263	2751.88
211.337	2755.02
211.411	2765.46
211.485	2762.17
211.559	2769.41
211.633	2767.69
211.707	2739.66
211.781	2746.62
211.855	2713.41
211.929	2708.13
212.003	2689.56
212.077	2698.14
212.151	2707.38
212.225	2714.05
212.299	2703.23
212.373	2689.75
212.447	2682.7
212.52	2707.95
212.594	2706.95
212.668	2713.33
212.742	2697.18
212.816	2689.89
212.89	2686.6
212.964	2684.79
213.038	2685.17
213.112	2696.99
213.186	2712.52
213.26	2693.14
213.333	2650.12
213.407	2652.12
213.481	2653.41
213.555	2664.79
213.629	2652.3
213.703	2635.48
213.777	2632.34
213.85	2615.95
213.924	2645.64
213.998	2647.92
214.072	2642.63
214.146	2632.2
214.219	2631.1
214.293	2629.53
214.367	2629.82
214.441	2638.54
214.515	2627.43
214.588	2610.1
214.662	2579.81
214.736	2560.61
214.81	2569.42
214.883	2583.08
214.957	2578.32
215.031	2571.18
215.105	2553.9
215.178	2547.04
215.252	2544.81
215.326	2532.52
215.4	2520
215.473	2483.89
215.547	2470.26
215.621	2461.64
215.694	2470.59
215.768	2457.02
215.842	2455.5
215.915	2452.5
215.989	2439.11
216.063	2445.59
216.136	2455.97
216.21	2472.92
216.284	2497.12
216.357	2509.74
216.431	2517.07
216.504	2542.56
216.578	2582.87
216.652	2612.43
216.725	2632.3
216.799	2663.94
216.873	2686.52
216.946	2721.62
217.02	2744.01
217.093	2767.5
217.167	2777.65
217.24	2796.19
217.314	2826.02
217.387	2853.99
217.461	2879.82
217.535	2927.07
217.608	2946.14
217.682	2984.77
217.755	3032.03
217.829	3061.55
217.902	3107.54
217.976	3154.52
218.049	3191.73
218.123	3222.28
218.196	3277.53
218.27	3323.97
218.343	3358.96
218.417	3414.86
218.49	3470.77
218.563	3542.53
218.637	3609.06
218.71	3694.61
218.784	3766.09
218.857	3840.61
218.931	3912.93
219.004	3982.26
219.077	4056.71
219.151	4136.96
219.224	4206.34
219.298	4278.32
219.371	4358.14
219.444	4417.63
219.518	4488.32
219.591	4565.1
219.665	4666.7
219.738	4743.9
219.811	4815.97
219.885	4910.1
219.958	5000.33
220.031	5075.65
220.105	5164.77
220.178	5246.94
220.251	5313.94
220.325	5400.71
220.398	5484.83
220.471	5568.66
220.544	5660.61
220.618	5736.43
220.691	5824.34
220.764	5911.58
220.838	6000.25
220.911	6091.6
220.984	6199.5
221.057	6302.58
221.131	6391.84
221.204	6454.31
221.277	6557.74
221.35	6677.59
221.424	6760.01
221.497	6843.06
221.57	6932.38
221.643	7022.47
221.716	7120.59
221.79	7209.48
221.863	7297.25
221.936	7385.34
222.009	7473.24
222.082	7569
222.155	7652.41
222.229	7750.11
222.302	7835.99
222.375	7920.15
222.448	8007.59
222.521	8090.08
222.594	8166.61
222.667	8241.83
222.74	8339.06
222.814	8417.06
222.887	8488.1
222.96	8582.66
223.033	8677.33
223.106	8765.15
223.179	8851.42
223.252	8935.86
223.325	9022.4
223.398	9103.91
223.471	9184.89
223.544	9267.06
223.617	9344.3
223.69	9428.75
223.763	9501.32
223.837	9588.34
223.91	9670.69
223.983	9730.26
224.056	9795.47
224.129	9871.13
224.202	9958.5
224.275	10024.73
224.348	10087.64
224.42	10152.28
224.493	10205.76
224.566	10265.16
224.639	10344.02
224.712	10405.5
224.785	10466.17
224.858	10530.39
224.931	10589.9
225.004	10646.89
225.077	10709.63
225.15	10753.81
225.223	10818.53
225.296	10902.91
225.369	10953.32
225.442	11005.84
225.514	11076.68
225.587	11141.16
225.66	11203.76
225.733	11264.77
225.806	11324.58
225.879	11386.55
225.952	11433.25
226.025	11499.62
226.097	11573.6
226.17	11628.65
226.243	11666.05
226.316	11717.67
226.389	11783.6
226.461	11843.85
226.534	11904.01
226.607	11959.19
226.68	12029.47
226.753	12083.21
226.825	12112.47
226.898	12173.35
226.971	12223.24
227.044	12275.88
227.117	12337.72
227.189	12394.65
227.262	12456.5
227.335	12508.9
227.407	12552.52
227.48	12611.42
227.553	12670.86
227.626	12710.92
227.698	12753.05
227.771	12808.63
227.844	12858.28
227.916	12895.84
227.989	12930.59
228.062	12972.87
228.134	13027.2
228.207	13072.27
228.28	13109
228.352	13142.75
228.425	13184.06
228.498	13241.62
228.57	13283.7
228.643	13334.51
228.716	13376.07
228.788	13410.58
228.861	13452.95
228.934	13510.85
229.006	13541.94
229.079	13573.37
229.151	13605.82
229.224	13635.08
229.296	13679.53
229.369	13738.29
229.442	13789.92
229.514	13823.71
229.587	13868.16
229.659	13895.3
229.732	13937.14
229.804	13984.05
229.877	14047.1
229.949	14096.56
230.022	14149.63
230.094	14184.29
230.167	14220.35
230.239	14247.59
230.312	14275.55
230.384	14326.02
230.457	14349.88
230.529	14395.82
230.602	14440.36
230.674	14479.94
230.747	14521.1
230.819	14564.63
230.892	14560.1
230.964	14593.84
231.037	14627.97
231.109	14661.86
231.181	14701.44
231.254	14716.82
231.326	14742.89
231.399	14765.84
231.471	14784.69
231.544	14783.87
231.616	14812.12
231.688	14834.96
231.761	14857.52
231.833	14890.3
231.905	14893.68
231.978	14927.71
232.05	14951.28
232.122	14970.9
232.195	14992.44
232.267	15028.84
232.339	15043.97
232.412	15085.19
232.484	15104.85
232.556	15130.74
232.629	15168.82
232.701	15201.11
232.773	15233.89
232.846	15261.66
232.918	15288.17
232.99	15312.7
233.062	15344.08
233.135	15380.09
233.207	15395.22
233.279	15426.27
233.351	15448.05
233.424	15468.64
233.496	15479.1
233.568	15523.92
233.64	15533.42
233.713	15557.52
233.785	15576.56
233.857	15599.26
233.929	15606.97
234.001	15635.89
234.074	15674.41
234.146	15675.03
234.218	15692.29
234.29	15705.88
234.362	15717.35
234.434	15721.88
234.507	15727.28
234.579	15735.62
234.651	15742.46
234.723	15761.41
234.795	15776.06
234.867	15791.1
234.939	15815.68
235.012	15834.48
235.084	15847.4
235.156	15865.04
235.228	15866.63
235.3	15877.57
235.372	15899.26
235.444	15925
235.516	15924.61
235.588	15925.58
235.66	15949.87
235.732	15954.83
235.804	16016.43
235.876	16032.82
235.948	16051.52
236.02	16054.41
236.092	16056.43
236.164	16064.87
236.236	16068.63
236.308	16078.89
236.38	16095.33
236.452	16096.92
236.524	16106.42
236.596	16125.94
236.668	16141.94
236.74	16154.95
236.812	16164.3
236.884	16165.8
236.956	16171.29
237.028	16164.98
237.1	16164.64
237.172	16173.8
237.244	16187.97
237.316	16162.62
237.388	16157.07
237.46	16159.05
237.532	16186.62
237.604	16186.52
237.675	16201.7
237.747	16212.93
237.819	16207.2
237.891	16204.64
237.963	16201.13
238.035	16195.44
238.107	16157.36
238.178	16166.62
238.25	16161.94
238.322	16171.1
238.394	16157.75
238.466	16148.88
238.538	16153.7
238.609	16153.94
238.681	16131.96
238.753	16115.29
238.825	16108.92
238.897	16108.44
238.968	16114.56
239.04	16102.75
239.112	16128.4
239.184	16110.42
239.255	16100.1
239.327	16102.37
239.399	16098.18
239.471	16114.13
239.542	16112.83
239.614	16126.18
239.686	16094.71
239.758	16095.52
239.829	16087.28
239.901	16097.5
239.973	16103.33
240.044	16100.49
240.116	16095.57
240.188	16090.03
240.259	16086.37
240.331	16069.69
240.403	16070.75
240.474	16041.45
240.546	16021.59
240.618	15992.19
240.689	15984.14
240.761	15982.11
240.833	15979.65
240.904	15961.39
240.976	15934.73
241.048	15926.88
241.119	15921.43
241.191	15917.24
241.262	15917.29
241.334	15891.26
241.405	15863.88
241.477	15840.36
241.549	15823.49
241.62	15809.85
241.692	15797.46
241.763	15798.96
241.835	15784.01
241.906	15763.91
241.978	15737.69
242.049	15743.14
242.121	15743.28
242.192	15736.73
242.264	15698.55
242.335	15665.54
242.407	15658.93
242.478	15635.84
242.55	15622.2
242.621	15591.5
242.693	15567.69
242.764	15549.71
242.836	15529.27
242.907	15521.75
242.979	15502.47
243.05	15489.12
243.122	15475.14
243.193	15459.04
243.264	15417.16
243.336	15402.02
243.407	15395.85
243.479	15404.29
243.55	15380.43
243.622	15352.52
243.693	15331.36
243.764	15336.52
243.836	15315.26
243.907	15297.57
243.978	15280.75
244.05	15267.2
244.121	15232.45
244.192	15233.22
244.264	15199.04
244.335	15183.57
244.407	15150.45
244.478	15139.9
244.549	15110.88
244.62	15074.73
244.692	15054.29
244.763	15043.11
244.834	15015.05
244.906	14986.03
244.977	14965.4
245.048	14950.46
245.119	14924.14
245.191	14893
245.262	14849.67
245.333	14852.85
245.405	14833.95
245.476	14823.59
245.547	14798.04
245.618	14795.1
245.689	14763.53
245.761	14746.03
245.832	14723.37
245.903	14708.91
245.974	14687.12
246.045	14670.73
246.117	14675.79
246.188	14642.1
246.259	14612.4
246.33	14589.31
246.401	14559.33
246.473	14527.81
246.544	14503.22
246.615	14495.07
246.686	14463.07
246.757	14456.17
246.828	14412.02
246.899	14388.93
246.97	14348.92
247.042	14322.07
247.113	14300.57
247.184	14296.28
247.255	14273.76
247.326	14256.12
247.397	14237.46
247.468	14220.88
247.539	14205.17
247.61	14169.54
247.681	14161.88
247.752	14150.98
247.823	14126.59
247.894	14110.59
247.965	14075.83
248.037	14051.68
248.108	14012.97
248.179	14003.04
248.25	13979.37
248.321	13969.05
248.392	13935.74
248.463	13930.68
248.534	13908.31
248.605	13896.17
248.675	13867.53
248.746	13837.45
248.817	13817.83
248.888	13798.21
248.959	13759.45
249.03	13735.59
249.101	13712.4
249.172	13682.8
249.243	13637.68
249.314	13621.53
249.385	13601.62
249.456	13591.74
249.527	13567.11
249.598	13554.33
249.669	13534.76
249.739	13517.41
249.81	13498.99
249.881	13469.83
249.952	13448.76
250.023	13422.05
250.094	13379.78
250.165	13352.69
250.235	13339.04
250.306	13319.33
250.377	13280.95
250.448	13260.47
250.519	13220.12
250.59	13209.37
250.66	13186.9
250.731	13181.89
250.802	13163.67
250.873	13151.66
250.944	13128.28
251.014	13105.29
251.085	13106.64
251.156	13084.13
251.227	13070.68
251.297	13059.3
251.368	13044.12
251.439	13030.09
251.51	13021.8
251.58	12991.67
251.651	12967.9
251.722	12955.37
251.792	12914.49
251.863	12897.28
251.934	12897.47
252.005	12902.01
252.075	12874.38
252.146	12858.33
252.217	12842.33
252.287	12829.21
252.358	12799.28
252.429	12797.54
252.499	12766.02
252.57	12736.37
252.641	12728.22
252.711	12709.66
252.782	12672.84
252.852	12677.42
252.923	12664.06
252.994	12642.71
253.064	12640.92
253.135	12617.16
253.205	12589.54
253.276	12586.89
253.347	12590.12
253.417	12550.11
253.488	12524.22
253.558	12499.54
253.629	12481.56
253.699	12471.29
253.77	12460.01
253.841	12435.62
253.911	12416.34
253.982	12399.95
254.052	12398.26
254.123	12376.72
254.193	12343.65
254.264	12362.35
254.334	12334.92
254.405	12296.55
254.475	12269.46
254.546	12244.3
254.616	12238.04
254.687	12225.84
254.757	12213.74
254.827	12187.42
254.898	12188.1
254.968	12169.2
255.039	12151.22
255.109	12142.84
255.18	12110.49
255.25	12067.69
255.321	12057.13
255.391	12028.5
255.461	12030.67
255.532	11985.6
255.602	11958.27
255.673	11929.64
255.743	11892.91
255.813	11849.39
255.884	11841.58
255.954	11833.58
256.024	11833.09
256.095	11811.21
256.165	11786.53
256.235	11772.46
256.306	11746.91
256.376	11728.55
256.446	11719.44
256.517	11707.58
256.587	11693.99
256.657	11686.42
256.728	11673.12
256.798	11658.8
256.868	11629.79
256.938	11608.58
257.009	11598.8
257.079	11598.12
257.149	11606.89
257.219	11575.81
257.29	11561.01
257.36	11528.62
257.43	11512.67
257.5	11476.38
257.571	11452.18
257.641	11435.56
257.711	11407.99
257.781	11397
257.852	11387.31
257.922	11345.82
257.992	11323.65
258.062	11309.24
258.132	11295.94
258.202	11270.88
258.273	11251.16
258.343	11259.5
258.413	11234.44
258.483	11208.9
258.553	11182.73
258.623	11154.68
258.693	11138.05
258.764	11134.01
258.834	11131.07
258.904	11120.9
258.974	11094.01
259.044	11077
259.114	11064.56
259.184	11049
259.254	11027.65
259.324	10987.51
259.394	10985.53
259.464	10991.46
259.535	10968.18
259.605	10943.41
259.675	10925.58
259.745	10910.07
259.815	10878.79
259.885	10852.67
259.955	10867.61
260.025	10836.58
260.095	10816.05
260.165	10806.37
260.235	10809.98
260.305	10790.08
260.375	10767.19
260.445	10779.24
260.515	10784.35
260.585	10779
260.655	10768.44
260.725	10760.3
260.795	10751.53
260.865	10749.46
260.934	10721.37
261.004	10718.91
261.074	10705.8
261.144	10710.33
261.214	10702.43
261.284	10690.77
261.354	10688.02
261.424	10661.71
261.494	10669.85
261.564	10662.82
261.634	10660.12
261.703	10627.59
261.773	10616.95
261.843	10599.99
261.913	10583.03
261.983	10545.49
262.053	10528.05
262.123	10506.17
262.192	10478.91
262.262	10475.87
262.332	10448.99
262.402	10438.29
262.472	10421.18
262.541	10389.87
262.611	10375.95
262.681	10365.01
262.751	10356.58
262.821	10347.18
262.89	10320.11
262.96	10307.15
263.03	10306.81
263.1	10292.79
263.169	10277.85
263.239	10267.69
263.309	10274.14
263.379	10257.14
263.448	10254.54
263.518	10242.06
263.588	10231.17
263.657	10239.36
263.727	10232.9
263.797	10222.02
263.867	10208.05
263.936	10174.08
264.006	10171.15
264.076	10158.24
264.145	10133.67
264.215	10112.13
264.285	10100.09
264.354	10069.75
264.424	10046.67
264.494	10020.46
264.563	9991.85
264.633	9996.23
264.702	9981.11
264.772	9945.12
264.842	9931.01
264.911	9915.21
264.981	9889.92
265.05	9873.54
265.12	9853.12
265.19	9838.57
265.259	9834.81
265.329	9823.45
265.398	9823.3
265.468	9831.39
265.537	9811.98
265.607	9807.02
265.676	9796.04
265.746	9786.98
265.815	9786.26
265.885	9768.2
265.955	9742.97
266.024	9732.56
266.094	9699.96
266.163	9699.86
266.232	9698.8
266.302	9682.28
266.371	9668.36
266.441	9660.46
266.51	9652.76
266.58	9634.55
266.649	9611.82
266.719	9609.27
266.788	9597.32
266.858	9588.08
266.927	9554.03
266.996	9547.04
267.066	9530.77
267.135	9513.62
267.205	9506.93
267.274	9495.37
267.343	9493.45
267.413	9489.59
267.482	9492.58
267.552	9497.73
267.621	9470.91
267.69	9446.97
267.76	9440.33
267.829	9431.37
267.898	9425.11
267.968	9408.36
268.037	9410.23
268.106	9406
268.176	9374.31
268.245	9367.61
268.314	9354.13
268.384	9357.6
268.453	9341.8
268.522	9335.74
268.592	9334.39
268.661	9314.45
268.73	9305.93
268.799	9291.82
268.869	9294.18
268.938	9268.61
269.007	9243
269.076	9235.73
269.146	9232.12
269.215	9226.77
269.284	9232.21
269.353	9210.26
269.422	9196.63
269.492	9171.07
269.561	9136.5
269.63	9131.49
269.699	9112.09
269.768	9105.69
269.838	9093.7
269.907	9093.12
269.976	9067.17
270.045	9040.98
270.114	9040.79
270.183	9034
270.253	9022.79
270.322	8995.78
270.391	8981.82
270.46	8984.56
270.529	8979.7
270.598	8981.72
270.667	8969.25
270.736	8945.76
270.806	8943.11
270.875	8946.19
270.944	8939.02
271.013	8959.09
271.082	8956.49
271.151	8948.07
271.22	8919.96
271.289	8907.44
271.358	8900.51
271.427	8903.69
271.496	8895.07
271.565	8876.34
271.634	8863.01
271.703	8869.61
271.772	8869.56
271.841	8862.68
271.91	8841.98
271.979	8834.76
272.048	8810.01
272.117	8806.64
272.186	8794.56
272.255	8795.19
272.324	8792.2
272.393	8785.75
272.462	8772.13
272.531	8763.8
272.6	8752.97
272.669	8754.61
272.738	8748.93
272.807	8734.68
272.876	8709.27
272.945	8734.74
273.013	8737.91
273.082	8745.76
273.151	8723.14
273.22	8722.94
273.289	8718.37
273.358	8729.3
273.427	8717.89
273.496	8719.38
273.564	8720.44
273.633	8721.6
273.702	8697.05
273.771	8687.33
273.84	8680.01
273.909	8679.05
273.977	8670.44
274.046	8661.29
274.115	8668.85
274.184	8648.3
274.253	8645.61
274.322	8654.94
274.39	8624.33
274.459	8610.71
274.528	8584.91
274.597	8577.41
274.665	8570.91
274.734	8571.44
274.803	8559.02
274.872	8555.84
274.94	8538.66
275.009	8577.42
275.078	8565.35
275.147	8568.67
275.215	8558.08
275.284	8567.03
275.353	8548.79
275.421	8530.74
275.49	8551.01
275.559	8537
275.627	8536.62
275.696	8527.67
275.765	8529.4
275.833	8523.24
275.902	8517.32
275.971	8527.81
276.039	8545.18
276.108	8545.91
276.177	8539.51
276.245	8532.24
276.314	8525.79
276.383	8532.14
276.451	8481.69
276.52	8478.7
276.588	8485.15
276.657	8489.43
276.725	8481.3
276.794	8485.92
276.863	8493.19
276.931	8470.9
277	8478.84
277.068	8485.19
277.137	8500.55
277.205	8494.82
277.274	8507.96
277.342	8514.6
277.411	8494.24
277.48	8483.13
277.548	8467.87
277.617	8466.28
277.685	8462.19
277.754	8465.03
277.822	8455.17
277.89	8461.52
277.959	8460.37
278.027	8445.02
278.096	8437.56
278.164	8454.74
278.233	8445.94
278.301	8440.07
278.37	8441.94
278.438	8429.29
278.507	8429
278.575	8407.87
278.643	8405.03
278.712	8386.46
278.78	8372.94
278.849	8378.76
278.917	8382.42
278.985	8384.73
279.054	8389.59
279.122	8398.73
279.191	8399.84
279.259	8400.03
279.327	8380.92
279.396	8388.67
279.464	8380.25
279.532	8386.32
279.601	8385.93
279.669	8380.16
279.737	8395.27
279.806	8397.58
279.874	8409.56
279.942	8409.46
280.011	8399.21
280.079	8408.17
280.147	8423.32
280.215	8432.56
280.284	8430.01
280.352	8418.99
280.42	8423.9
280.488	8414.08
280.557	8404.7
280.625	8399.74
280.693	8398.3
280.761	8398.64
280.83	8389.83
280.898	8412.01
280.966	8397.72
281.034	8370.58
281.102	8362.88
281.171	8348.54
281.239	8349.6
281.307	8332.23
281.375	8324.53
281.443	8349.31
281.512	8344.07
281.58	8347.34
281.648	8338.24
281.716	8337.76
281.784	8334.54
281.852	8331.41
281.92	8331.17
281.989	8336.18
282.057	8320.11
282.125	8360.77
282.193	8358.47
282.261	8351.15
282.329	8338.88
282.397	8341.05
282.465	8344.17
282.533	8355.77
282.601	8350.48
282.67	8333.83
282.738	8335.13
282.806	8342.92
282.874	8333.1
282.942	8339.22
283.01	8336.91
283.078	8335.7
283.146	8330.51
283.214	8339.55
283.282	8339.7
283.35	8351.01
283.418	8355.58
283.486	8361.16
283.554	8325.25
283.622	8328.33
283.69	8336.22
283.758	8334.01
283.826	8340.6
283.894	8347.24
283.962	8363.8
284.03	8377.51
284.098	8383.33
284.165	8376.16
284.233	8373.03
284.301	8359.03
284.369	8346.09
284.437	8340.03
284.505	8331.13
284.573	8348.49
284.641	8337.52
284.709	8343.44
284.777	8326.31
284.845	8324.63
284.912	8329.2
284.98	8331.99
285.048	8323.72
285.116	8322.71
285.184	8332.71
285.252	8329.06
285.319	8314.19
285.387	8303.6
285.455	8284.5
285.523	8279.98
285.591	8284.4
285.659	8283.83
285.726	8300.76
285.794	8291.43
285.862	8287.1
285.93	8288.4
285.997	8288.16
286.065	8280.46
286.133	8269.2
286.201	8267.37
286.269	8256.93
286.336	8250
286.404	8242.16
286.472	8250.58
286.539	8238.22
286.607	8223.16
286.675	8222.2
286.743	8225.42
286.81	8223.06
286.878	8238.02
286.946	8239.8
287.013	8235.19
287.081	8238.55
287.149	8220.08
287.216	8234.37
287.284	8228.16
287.352	8234.32
287.419	8227.25
287.487	8245.77
287.555	8249.33
287.622	8250
287.69	8249.23
287.758	8262.03
287.825	8252.75
287.893	8242.4
287.96	8242.55
288.028	8250.73
288.096	8255.87
288.163	8258.91
288.231	8253.32
288.298	8252.02
288.366	8262.85
288.433	8259.34
288.501	8252.7
288.569	8262.18
288.636	8254.86
288.704	8269.44
288.771	8278.44
288.839	8271.42
288.906	8261.31
288.974	8273.53
289.041	8275.07
289.109	8268.63
289.176	8274.59
289.244	8283.88
289.311	8297.25
289.379	8303.22
289.446	8307.69
289.514	8309.28
289.581	8311.25
289.649	8316.5
289.716	8315.87
289.783	8311.06
289.851	8330.45
289.918	8330.35
289.986	8334.78
290.053	8344.6
290.121	8343.49
290.188	8339.74
290.255	8360.09
290.323	8363.07
290.39	8355.56
290.458	8361.87
290.525	8374.28
290.592	8369.23
290.66	8370.43
290.727	8369.32
290.794	8385.25
290.862	8382.65
290.929	8383.28
290.996	8385.68
291.064	8383.42
291.131	8398.43
291.198	8412
291.266	8411.09
291.333	8416.09
291.4	8423.02
291.468	8435.2
291.535	8432.7
291.602	8435.44
291.669	8436.26
291.737	8441.89
291.804	8443.43
291.871	8452.81
291.938	8456.95
292.006	8480.58
292.073	8490.97
292.14	8503.44
292.207	8501.32
292.275	8505.79
292.342	8513.06
292.409	8533.27
292.476	8559.5
292.543	8550.6
292.611	8546.32
292.678	8564.27
292.745	8585.01
292.812	8594.78
292.879	8590.16
292.946	8597.09
293.014	8610.71
293.081	8615.61
293.148	8625.72
293.215	8640.3
293.282	8637.22
293.349	8651.42
293.416	8638.91
293.484	8661.53
293.551	8667.5
293.618	8687.18
293.685	8713.03
293.752	8709.03
293.819	8710.62
293.886	8696.52
293.953	8700.95
294.02	8713.22
294.087	8715.67
294.154	8708.89
294.221	8725.78
294.288	8726.79
294.356	8738.58
294.423	8741.23
294.49	8735.07
294.557	8747.1
294.624	8737.53
294.691	8760.24
294.758	8760.1
294.825	8764.96
294.892	8753.22
294.959	8754.18
295.026	8753.65
295.093	8745.95
295.16	8749.89
295.226	8750.71
295.293	8774.2
295.36	8788.3
295.427	8793.74
295.494	8803.76
295.561	8810.06
295.628	8827.64
295.695	8839.96
295.762	8842.32
295.829	8854.69
295.896	8872.45
295.963	8882.61
296.03	8899.69
296.096	8901.43
296.163	8914.47
296.23	8927.81
296.297	8943.69
296.364	8943.74
296.431	8954.14
296.498	8951.3
296.564	8972.28
296.631	8973.82
296.698	8965.49
296.765	8978.64
296.832	8973.82
296.899	8960.49
296.965	8986.92
297.032	8966.94
297.099	8983.79
297.166	8993.61
297.233	8990
297.299	8976.95
297.366	8971.27
297.433	8964.39
297.5	8974.45
297.566	8977.19
297.633	8973.82
297.7	8971.95
297.767	8974.84
297.833	8976.52
297.9	8974.88
297.967	8967.09
298.033	8982.15
298.1	9011.14
298.167	9001.56
298.234	9007.38
298.3	9021.34
298.367	9004.59
298.434	9013.69
298.5	9007.19
298.567	9004.59
298.634	9006.32
298.7	9024.32
298.767	9032.7
298.834	9055.95
298.9	9047.67
298.967	9042.33
299.033	9048.54
299.1	9060.29
299.167	9073.09
299.233	9067.8
299.3	9084.5
299.366	9093.74
299.433	9109.63
299.5	9082.24
299.566	9087.34
299.633	9103.61
299.699	9114.16
299.766	9117.72
299.832	9119.74
299.899	9124.56
299.965	9137.89
300.032	9131.64
300.099	9139.34
300.165	9138.62
300.232	9121.91
300.298	9118.11
300.365	9124.08
300.431	9135.2
300.498	9133.37
300.564	9129.13
300.631	9135.34
300.697	9148.73
300.763	9154.31
300.83	9141.22
300.896	9156.04
300.963	9170.06
301.029	9174.2
301.096	9174.29
301.162	9183.15
301.229	9177.85
301.295	9171.31
301.361	9172.22
301.428	9176.41
301.494	9169.09
301.561	9174.92
301.627	9188.4
301.693	9194.18
301.76	9201.4
301.826	9195.81
301.892	9205.3
301.959	9216.52
302.025	9216.37
302.092	9207.75
302.158	9204.57
302.224	9213.29
302.291	9199.52
302.357	9185.85
302.423	9179.54
302.49	9166.83
302.556	9178.34
302.622	9182.57
302.688	9195.86
302.755	9208.09
302.821	9217.58
302.887	9219.94
302.954	9221
303.02	9217.1
303.086	9226.87
303.152	9220.9
303.219	9213.29
303.285	9214.26
303.351	9218.73
303.417	9222.49
303.483	9218.01
303.55	9214.98
303.616	9215.41
303.682	9215.07
303.748	9216.47
303.815	9223.93
303.881	9232.46
303.947	9218.49
304.013	9219.12
304.079	9208.67
304.145	9192.49
304.212	9189.65
304.278	9190.61
304.344	9179.35
304.41	9172.32
304.476	9163.99
304.542	9156.14
304.608	9157.54
304.674	9139.63
304.741	9135.44
304.807	9138.71
304.873	9143.62
304.939	9162.69
305.005	9141.6
305.071	9143.43
305.137	9140.54
305.203	9125.33
305.269	9125.52
305.335	9136.16
305.401	9133.7
305.467	9129.03
305.533	9130.62
305.599	9139.24
305.666	9144.44
305.732	9150.89
305.798	9160.76
305.864	9184.26
305.93	9190.66
305.996	9196.83
306.062	9201.5
306.128	9194.71
306.194	9176.94
306.259	9173.52
306.325	9155.51
306.391	9165.87
306.457	9170.44
306.523	9171.55
306.589	9191.19
306.655	9185.8
306.721	9167.02
306.787	9152.1
306.853	9163.99
306.919	9143.82
306.985	9132.31
307.051	9122.01
307.117	9110.65
307.183	9101.31
307.248	9069.29
307.314	9074.3
307.38	9072.23
307.446	9075.31
307.512	9064.81
307.578	9073.81
307.644	9071.5
307.709	9071.46
307.775	9063.61
307.841	9063.32
307.907	9065.53
307.973	9041.94
308.039	9043.53
308.104	9053.54
308.17	9051.67
308.236	9040.98
308.302	9047.19
308.368	9036.64
308.433	9031.4
308.499	9033.8
308.565	9029.09
308.631	9031.97
308.696	9014.79
308.762	9004.68
308.828	8997.12
308.894	8980.71
308.959	8959.19
309.025	8943.83
309.091	8946.43
309.156	8942.39
309.222	8944.07
309.288	8929.73
309.354	8912.69
309.419	8904.7
309.485	8885.15
309.551	8889.63
309.616	8874.32
309.682	8871.58
309.748	8866.62
309.813	8872.49
309.879	8852.95
309.945	8842.26
310.01	8838.65
310.076	8834.18
310.141	8830.95
310.207	8817.14
310.273	8822.34
310.338	8825.13
310.404	8812.42
310.469	8798.7
310.535	8782.34
310.601	8755.19
310.666	8758.12
310.732	8767.75
310.797	8755.76
310.863	8743.78
310.928	8734.54
310.994	8737.72
311.059	8730.78
311.125	8729.53
311.191	8730.06
311.256	8722.94
311.322	8726.84
311.387	8705.18
311.453	9037.12
311.518	9002.71
311.584	9010.56
311.649	9014.75
311.715	9003.87
311.78	9010.46
311.846	8997.95
311.911	9006.57
311.976	9004.01
312.042	8989.86
312.107	8974.32
312.173	8966.38
312.238	8964.12
312.304	8961.56
312.369	8955.02
312.434	8942.46
312.5	8934.9
312.565	8905.35
312.631	8906.22
312.696	8891.06
312.761	8888.51
312.827	8549.73
312.892	8596.03
312.958	8581.3
313.023	8577.93
313.088	8582.17
313.154	8570.09
313.219	8560.27
313.284	8550.17
313.35	8552.14
313.415	8536.98
313.48	8532.36
313.546	8538.62
313.611	8543.58
313.676	8531.16
313.741	8517.01
313.807	8529.96
313.872	8530.73
313.937	8532.56
314.003	8543.14
314.068	8551.42
314.133	8560.32
314.198	8545.98
314.264	8519.94
314.329	8511.38
314.394	8503.24
314.459	8491.93
314.525	8500.79
314.59	8502.86
314.655	8489.91
314.72	8496.41
314.785	8499.97
314.851	8494.58
314.916	8474.51
314.981	8461.86
315.046	8458.35
315.111	8448.34
315.176	8432.03
315.242	8429.52
315.307	8426.83
315.372	8411.96
315.437	8398.48
315.502	8390.3
315.567	8401.08
315.632	8388.67
315.698	8386.74
315.763	8382.51
315.828	8378.03
315.893	8377.6
315.958	8370
316.023	8365.19
316.088	8338.96
316.153	8321.84
316.218	8312.22
316.283	8289.99
316.348	8277.34
316.413	8274.94
316.479	8258.73
316.544	8224.43
316.609	8200.62
316.674	8169.64
316.739	8139.33
316.804	8106.58
316.869	8071.32
316.934	8034.85
316.999	8001.96
317.064	7954.68
317.129	7911.97
317.194	7876.09
317.259	7822.84
317.324	7773.51
317.389	7727.49
317.454	7694.65
317.518	7660.37
317.583	7634.92
317.648	7616.9
317.713	7575.26
317.778	7515.25
317.843	7489.58
317.908	7452.14
317.973	7406.81
318.038	7373.45
318.103	7332.11
318.168	7301.98
318.233	7274.43
318.297	7222.58
318.362	7185.86
318.427	7147
318.492	7123.59
318.557	7078.38
318.622	7050.36
318.687	7028.79
318.751	6989.45
318.816	6949.48
318.881	6913.98
318.946	6860.41
319.011	6816.02
319.075	6777.11
319.14	6747.1
319.205	6701.8
319.27	6669.78
319.335	6629.49
319.399	6590.49
319.464	6558.42
319.529	6512.18
319.594	6472.66
319.658	6442.8
319.723	6400.32
319.788	6377.8
319.853	6319.23
319.917	6289.29
319.982	6240.14
320.047	6199.62
320.112	6171.89
320.176	6129.08
320.241	6093.43
320.306	6064.25
320.37	6021.6
320.435	5990.75
320.5	5956.93
320.564	5917.11
320.629	5877.16
320.694	5844.02
320.758	5800.57
320.823	5759.09
320.888	5726.24
320.952	5674.55
321.017	5634.27
321.082	5596.35
321.146	5557.37
321.211	5526.4
321.275	5486.23
321.34	5448.37
321.405	5405.13
321.469	5361.52
321.534	5317.78
321.598	5269.53
321.663	5237.99
321.727	5206.17
321.792	5155.68
321.857	5111.12
321.921	5077.2
321.986	5034.58
322.05	4980.67
322.115	4946.67
322.179	4902.28
322.244	4847.04
322.308	4818.94
322.373	4777.67
322.437	4739.52
322.502	4712.65
322.566	4668.52
322.631	4632.29
322.695	4587.88
322.76	4543.34
322.824	4504.1
322.889	4465.12
322.953	4426.09
323.018	4360.98
323.082	4301.73
323.146	4255.45
323.211	4203.14
323.275	4160.48
323.34	4119.19
323.404	4086.21
323.468	4042.85
323.533	4007.77
323.597	3963.06
323.662	3913.78
323.726	3879.61
323.79	3834.12
323.855	3772.18
323.919	3726.51
323.983	3684.27
324.048	3621.51
324.112	3745
324.177	3623.9
324.241	3435.21
324.305	3248.14
324.37	3067.18
324.434	2892.91
324.498	2854.03
324.562	2811.94
324.627	2752.92
324.691	2701.94
324.755	2642.08
324.82	2572.51
324.884	2495.28
324.948	2435.79
325.012	2345.16
325.077	2227.67
