Data from 20250702_urea_1.5M_MAYP1162681_11-42-02-245.txt Node
Date: Wed Jul 02 11:42:02 BST 2025
User: adleo
Spectrometer: MAYP116268
Trigger mode: 0
Integration Time (sec): 1.000000E0
Scans to average: 1
Electric dark correction enabled: true
Nonlinearity correction enabled: true
Boxcar width: 10
XAxis mode: Wavelengths
Number of Pixels in Spectrum: 2068
>>>>>Begin Spectral Data<<<<<
179.565	1028.63
179.642	1069.74
179.718	1103.3
179.795	1135.63
179.871	1162.19
179.948	1178.57
180.024	1191.97
180.101	1210.36
180.177	1221.88
180.254	1243.37
180.33	1261.34
180.407	1300.2
180.483	1380.82
180.56	1456.32
180.636	1526
180.712	1513.8
180.789	1520.4
180.865	1533.64
180.942	1539.72
181.018	1547.08
181.095	1556.39
181.171	1562.57
181.248	1563.85
181.324	1578.81
181.4	1581.85
181.477	1591.26
181.553	1600.62
181.63	1621.56
181.706	1634.58
181.782	1642.18
181.859	1637.62
181.935	1642.75
182.011	1638.66
182.088	1653.3
182.164	1670.26
182.24	1683.23
182.317	1690.07
182.393	1688.83
182.469	1699.1
182.546	1712.64
182.622	1717.1
182.698	1710.88
182.775	1720.33
182.851	1732.21
182.927	1722.85
183.003	1721.81
183.08	1718.34
183.156	1727.13
183.232	1724.56
183.308	1714.63
183.385	1721.05
183.461	1737.39
183.537	1736.87
183.613	1748.37
183.69	1740.95
183.766	1731.92
183.842	1738.1
183.918	1743.85
183.995	1753.83
184.071	1755.97
184.147	1751.02
184.223	1740.91
184.299	1752.83
184.375	1743.09
184.452	1749.37
184.528	1800.32
184.604	1808.4
184.68	1818.37
184.756	1823.94
184.832	1828.26
184.908	1833.06
184.985	1831.02
185.061	1816.67
185.137	1826.74
185.213	1817.81
185.289	1821.37
185.365	1815.77
185.441	1813.91
185.517	1825.04
185.593	1823.18
185.669	1821.09
185.745	1829.98
185.822	1844.99
185.898	1839.15
185.974	1848.7
186.05	1843.32
186.126	1809.06
186.202	1805.54
186.278	1802.12
186.354	1793.51
186.43	1797.51
186.506	1795.65
186.582	1797.27
186.658	1801.45
186.734	1784.39
186.81	1785.63
186.886	1784.68
186.962	1792.85
187.038	1789.67
187.114	1783.06
187.19	1788.28
187.266	1781.35
187.341	1779.83
187.417	1773.7
187.493	1773.51
187.569	1772.89
187.645	1767.04
187.721	1757.25
187.797	1762.67
187.873	1765.38
187.949	1760.44
188.025	1755.21
188.101	1758.86
188.176	1762.24
188.252	1761.57
188.328	1767.84
188.404	1769.55
188.48	1766.66
188.556	1762.43
188.632	1764.04
188.707	1763.99
188.783	1763.09
188.859	1757.39
188.935	1748.65
189.011	1754.92
189.086	1747.22
189.162	1742.19
189.238	1740.81
189.314	1736.29
189.39	1729.02
189.465	1722.37
189.541	1737.29
189.617	1726.74
189.693	1720.81
189.768	1725.51
189.844	1744.05
189.92	1734.88
189.996	1742.44
190.071	1748.38
190.147	1747.43
190.223	1751.75
190.298	1746.14
190.374	1733.65
190.45	1744.24
190.526	1750.7
190.601	1746.19
190.677	1748.56
190.753	1773.24
190.828	1777.9
190.904	1792.63
190.98	1810.6
191.055	1821.96
191.131	1814.54
191.207	1831.27
191.282	1840.3
191.358	1831.22
191.433	1819.05
191.509	1833.59
191.585	1828.36
191.66	1833.3
191.736	1839.39
191.811	1834.49
191.887	1848.18
191.963	1871.38
192.038	1877.04
192.114	1880.89
192.189	1887.21
192.265	1884.5
192.34	1863.1
192.416	1862.29
192.491	1856.35
192.567	1855.4
192.642	1857.35
192.718	1856.97
192.793	1844.94
192.869	1843.71
192.944	1846.32
193.02	1854.45
193.095	1859.58
193.171	1865.33
193.246	1863.72
193.322	1858.35
193.397	1859.2
193.473	1846.7
193.548	1829.58
193.624	1832.06
193.699	1827.92
193.775	1836.24
193.85	1836.67
193.925	1845.08
194.001	1842.56
194.076	1837.57
194.152	1828.45
194.227	1820.08
194.302	1810.58
194.378	1813.85
194.453	1813.05
194.529	1822.6
194.604	1811.81
194.679	1803.54
194.755	1789.14
194.83	1798.37
194.905	1798.94
194.981	1805.64
195.056	1800.41
195.131	1804.97
195.207	1805.64
195.282	1798.75
195.357	1784.92
195.433	1797.75
195.508	1790.66
195.583	1800.41
195.659	1815.29
195.734	1820.85
195.809	1823.51
195.884	1835.44
195.96	1837.05
196.035	1847.41
196.11	1845.08
196.185	1852.31
196.261	1856.68
196.336	1882.97
196.411	1871.6
196.486	1879.35
196.561	1873.22
196.637	1878.83
196.712	1896.23
196.787	1901.7
196.862	1913.11
196.937	1921
197.013	1925.18
197.088	1932.07
197.163	1947.86
197.238	1961
197.313	1962.09
197.388	1968.98
197.464	1993.53
197.539	2000.99
197.614	1995
197.689	2006.56
197.764	2022.68
197.839	2041.32
197.914	2034.57
197.989	2054.3
198.065	2063.1
198.14	2109.55
198.215	2135.61
198.29	2143.42
198.365	2153.89
198.44	2163.92
198.515	2190.85
198.59	2206.17
198.665	2227.67
198.74	2234.24
198.815	2233.33
198.89	2251.84
198.965	2281.25
199.04	2273.69
199.115	2288.91
199.19	2328.83
199.265	2330.59
199.34	2337.83
199.415	2367.07
199.49	2386.58
199.565	2395.24
199.64	2418.42
199.715	2414.89
199.79	2419.8
199.865	2425.03
199.94	2422.18
200.015	2450.98
200.09	2453.84
200.165	2461.03
200.24	2466.69
200.315	2504.24
200.39	2520.57
200.464	2526.19
200.539	2527
200.614	2543.23
200.689	2565.47
200.764	2569.14
200.839	2584.61
200.914	2588.08
200.989	2576.74
201.063	2592.22
201.138	2576.28
201.213	2576.85
201.288	2559.38
201.363	2563.38
201.438	2563.04
201.512	2576.75
201.587	2561.51
201.662	2566.51
201.737	2578.09
201.812	2584.94
201.886	2555.97
201.961	2563.26
202.036	2553.4
202.111	2550.16
202.186	2526.99
202.26	2510.36
202.335	2493.84
202.41	2488.79
202.485	2479.37
202.559	2460.18
202.634	2435.33
202.709	2445.7
202.784	2427.94
202.858	2427.51
202.933	2413.04
203.008	2408.33
203.082	2393.53
203.157	2392.86
203.232	2353.22
203.306	2334.65
203.381	2310.18
203.456	2290.96
203.53	2269.9
203.605	2254.06
203.68	2231.31
203.754	2224.56
203.829	2212.66
203.904	2190.97
203.978	2181.12
204.053	2182.02
204.127	2173.74
204.202	2172.36
204.277	2156.57
204.351	2151.05
204.426	2144.44
204.5	2133.5
204.575	2104.34
204.65	2111.72
204.724	2102.25
204.799	2110.04
204.873	2104.33
204.948	2098.53
205.022	2084.84
205.097	2076.94
205.171	2086.78
205.246	2097.49
205.32	2097.15
205.395	2095.58
205.469	2089.64
205.544	2094.78
205.618	2077.7
205.693	2090.26
205.767	2079.61
205.842	2098.16
205.916	2093.26
205.991	2083.32
206.065	2089.46
206.14	2099.82
206.214	2095.06
206.289	2094.73
206.363	2106.24
206.438	2109.62
206.512	2119.04
206.586	2138.82
206.661	2144.82
206.735	2128.37
206.81	2126.27
206.884	2139.64
206.958	2126.32
207.033	2142.11
207.107	2147.58
207.181	2177.61
207.256	2169.28
207.33	2184.98
207.405	2196.07
207.479	2212.3
207.553	2222.28
207.628	2207.69
207.702	2220.53
207.776	2215.11
207.851	2217.91
207.925	2231.29
207.999	2229.53
208.073	2226.48
208.148	2226.29
208.222	2215.63
208.296	2243.41
208.371	2260.65
208.445	2271.31
208.519	2299.23
208.593	2308.42
208.668	2303.7
208.742	2304.56
208.816	2306.18
208.89	2318.32
208.965	2316.46
209.039	2322.08
209.113	2335.07
209.187	2353.33
209.261	2349.86
209.336	2367.14
209.41	2380.42
209.484	2380.75
209.558	2399.03
209.632	2412.98
209.707	2425.88
209.781	2447.15
209.855	2463.63
209.929	2480.02
210.003	2485.5
210.077	2486.02
210.151	2531.3
210.226	2563.17
210.3	2590.33
210.374	2614.18
210.448	2622.38
210.522	2638.53
210.596	2655.3
210.67	2670.68
210.744	2717.33
210.818	2755.33
210.892	2783.83
210.966	2789.83
211.041	2813.51
211.115	2823.94
211.189	2857.78
211.263	2888.19
211.337	2909.35
211.411	2938.57
211.485	2950.21
211.559	2981.52
211.633	3005.82
211.707	3001.86
211.781	3038.32
211.855	3036.32
211.929	3059.82
212.003	3076.74
212.077	3117.16
212.151	3167.22
212.225	3213.4
212.299	3253.08
212.373	3286.29
212.447	3326.44
212.52	3403.24
212.594	3461.69
212.668	3528.62
212.742	3577.81
212.816	3634.17
212.89	3698.31
212.964	3767.14
213.038	3841.22
213.112	3930.28
213.186	4023.65
213.26	4088.2
213.333	4133.44
213.407	4225.07
213.481	4322.26
213.555	4429.55
213.629	4520.43
213.703	4609
213.777	4718.07
213.85	4814.24
213.924	4958.76
213.998	5083.23
214.072	5196.34
214.146	5308.01
214.219	5434.8
214.293	5557.5
214.367	5688.69
214.441	5835.41
214.515	5964.86
214.588	6092.35
214.662	6208.06
214.736	6340.67
214.81	6498.84
214.883	6661.6
214.957	6813.86
215.031	6964.56
215.105	7111.29
215.178	7262.23
215.252	7422.47
215.326	7567.41
215.4	7720.34
215.473	7848.18
215.547	8002.35
215.621	8169.44
215.694	8347.27
215.768	8509.53
215.842	8683.28
215.915	8859.4
215.989	9017.25
216.063	9192.07
216.136	9373.44
216.21	9557.94
216.284	9752.45
216.357	9941.19
216.431	10124.07
216.504	10314.58
216.578	10520.39
216.652	10712.31
216.725	10899.73
216.799	11091.71
216.873	11280.4
216.946	11470.41
217.02	11656.81
217.093	11837.93
217.167	12004.59
217.24	12178.01
217.314	12353.36
217.387	12521.34
217.461	12697.42
217.535	12889.74
217.608	13060.72
217.682	13241.05
217.755	13433.58
217.829	13599.21
217.902	13772.03
217.976	13948.94
218.049	14118.76
218.123	14277.21
218.196	14457.78
218.27	14620.61
218.343	14779.3
218.417	14949.99
218.49	15110.21
218.563	15285.28
218.637	15453.02
218.71	15638.16
218.784	15815.87
218.857	15986.6
218.931	16153.9
219.004	16311.41
219.077	16472.39
219.151	16633.32
219.224	16780.17
219.298	16923.99
219.371	17083.56
219.444	17225.98
219.518	17373.5
219.591	17520.44
219.665	17690.85
219.738	17835.33
219.811	17968.63
219.885	18110.07
219.958	18254.31
220.031	18387.66
220.105	18524.13
220.178	18659.94
220.251	18780.07
220.325	18905.03
220.398	19030.52
220.471	19162.85
220.544	19289.74
220.618	19400.67
220.691	19519.46
220.764	19646.83
220.838	19760.61
220.911	19862.39
220.984	19994.24
221.057	20109.85
221.131	20211.63
221.204	20282.28
221.277	20392.65
221.35	20523.59
221.424	20620.94
221.497	20711.35
221.57	20813.23
221.643	20914.98
221.716	21015.71
221.79	21100.48
221.863	21178.56
221.936	21267
222.009	21356.17
222.082	21445.73
222.155	21518.84
222.229	21610.09
222.302	21678.87
222.375	21758.21
222.448	21844.49
222.521	21911.15
222.594	21975.41
222.667	22038.94
222.74	22117.7
222.814	22181.58
222.887	22243.96
222.96	22327.65
223.033	22399.58
223.106	22462.1
223.179	22525.36
223.252	22575.79
223.325	22638.8
223.398	22699.35
223.471	22761.35
223.544	22803.01
223.617	22845.14
223.69	22905.02
223.763	22949.96
223.837	23008.16
223.91	23065.78
223.983	23102.28
224.056	23132.41
224.129	23176.14
224.202	23231.35
224.275	23271.18
224.348	23297.27
224.42	23321.96
224.493	23334.88
224.566	23371.67
224.639	23404.66
224.712	23428.14
224.785	23469.71
224.858	23487.07
224.931	23513.3
225.004	23532.74
225.077	23577.73
225.15	23586.85
225.223	23613.37
225.296	23654.61
225.369	23657.02
225.442	23668.11
225.514	23689.91
225.587	23719.86
225.66	23751.45
225.733	23774.31
225.806	23799.39
225.879	23822.34
225.952	23835.27
226.025	23867.1
226.097	23891.99
226.17	23914.56
226.243	23913.45
226.316	23921.26
226.389	23941.28
226.461	23963.7
226.534	23972.24
226.607	23974.56
226.68	24016.95
226.753	24024.62
226.825	24011.35
226.898	24044.87
226.971	24040.05
227.044	24053.8
227.117	24058.81
227.189	24067.35
227.262	24078.11
227.335	24075.02
227.407	24085.68
227.48	24104.44
227.553	24103.96
227.626	24104.49
227.698	24100.78
227.771	24108.54
227.844	24095.33
227.916	24102.42
227.989	24083.61
228.062	24080.66
228.134	24106.13
228.207	24094.12
228.28	24094.51
228.352	24098.56
228.425	24097.45
228.498	24120.7
228.57	24105.31
228.643	24119.45
228.716	24113.17
228.788	24106.37
228.861	24104.98
228.934	24101.7
229.006	24084.72
229.079	24090.84
229.151	24080.62
229.224	24064.7
229.296	24066.49
229.369	24089.25
229.442	24094.51
229.514	24092.58
229.587	24104.54
229.659	24072.37
229.732	24073.09
229.804	24073.91
229.877	24090.27
229.949	24095.86
230.022	24106.96
230.094	24108.36
230.167	24099.91
230.239	24078.6
230.312	24074.69
230.384	24094.37
230.457	24096.49
230.529	24107.34
230.602	24089.88
230.674	24078.02
230.747	24080.33
230.819	24086.17
230.892	24055.35
230.964	24049.9
231.037	24052.31
231.109	24041.89
231.181	24049.99
231.254	24034.51
231.326	24019.99
231.399	23996.65
231.471	23979.19
231.544	23942.05
231.616	23944.22
231.688	23936.16
231.761	23932.5
231.833	23920.82
231.905	23883.25
231.978	23864.1
232.05	23841.77
232.122	23838.4
232.195	23828.75
232.267	23831.64
232.339	23805.41
232.412	23810.66
232.484	23791.42
232.556	23774.11
232.629	23781.1
232.701	23763.4
232.773	23752.31
232.846	23735.96
232.918	23723.28
232.99	23702.39
233.062	23692.89
233.135	23686
233.207	23662.27
233.279	23652.96
233.351	23643.75
233.424	23626.97
233.496	23604.25
233.568	23614.77
233.64	23577.54
233.713	23552.66
233.785	23539.39
233.857	23532.06
233.929	23502.26
234.001	23503.81
234.074	23499.9
234.146	23472.02
234.218	23467.25
234.29	23442.66
234.362	23427.47
234.434	23397.09
234.507	23374.09
234.579	23350.36
234.651	23316.46
234.723	23297.08
234.795	23278.13
234.867	23257.05
234.939	23257.58
235.012	23247.75
235.084	23216.93
235.156	23214.96
235.228	23203.62
235.3	23183.47
235.372	23171.41
235.444	23167.99
235.516	23126.04
235.588	23104.97
235.66	23066.92
235.732	23037.75
235.804	23068.08
235.876	23054.97
235.948	23046.33
236.02	23023.14
236.092	22996.29
236.164	22978.98
236.236	22964.52
236.308	22943.01
236.38	22907.82
236.452	22877.83
236.524	22851.12
236.596	22838.19
236.668	22819.58
236.74	22794.56
236.812	22759.8
236.884	22732.61
236.956	22693.94
237.028	22660.48
237.1	22627.02
237.172	22629.63
237.244	22614.05
237.316	22558.36
237.388	22520.09
237.46	22474.96
237.532	22462.72
237.604	22437.65
237.675	22425.11
237.747	22392.04
237.819	22359.21
237.891	22345.67
237.963	22305.7
238.035	22266.56
238.107	22207.22
238.178	22182.78
238.25	22148.02
238.322	22150
238.394	22104.59
238.466	22069.35
238.538	22039.95
238.609	22017.43
238.681	21959.44
238.753	21916.06
238.825	21884.72
238.897	21851.18
238.968	21852.14
239.04	21811.36
239.112	21797.67
239.184	21754.29
239.255	21722.47
239.327	21690.03
239.399	21661.35
239.471	21638.89
239.542	21629.3
239.614	21622.65
239.686	21569.82
239.758	21552.61
239.829	21504.03
239.901	21480.84
239.973	21466
240.044	21443.39
240.116	21402.57
240.188	21371.58
240.259	21337.07
240.331	21304.63
240.403	21287.33
240.474	21235.7
240.546	21197.39
240.618	21147.07
240.689	21112.08
240.761	21089.14
240.833	21076.85
240.904	21035.74
240.976	20994.92
241.048	20960.41
241.119	20930.48
241.191	20907.34
241.262	20889.7
241.334	20862.37
241.405	20826.71
241.477	20783.58
241.549	20747.38
241.62	20721.84
241.692	20699.86
241.763	20677.5
241.835	20638.61
241.906	20601.07
241.978	20561.16
242.049	20543.48
242.121	20523.14
242.192	20508.2
242.264	20462.13
242.335	20402.66
242.407	20373.88
242.478	20340.15
242.55	20303.86
242.621	20261.11
242.693	20226.32
242.764	20181.21
242.836	20132.15
242.907	20109.07
242.979	20080.97
243.05	20057.79
243.122	20031.19
243.193	19986.37
243.264	19937.94
243.336	19909.22
243.407	19886.18
243.479	19862.33
243.55	19834.09
243.622	19806.04
243.693	19766.09
243.764	19747.54
243.836	19714.72
243.907	19679.59
243.978	19655.88
244.05	19629.09
244.121	19575.98
244.192	19545.67
244.264	19504.85
244.335	19477.1
244.407	19430.74
244.478	19399.56
244.549	19361.68
244.62	19309.01
244.692	19276.48
244.763	19249.45
244.834	19206.61
244.906	19161.89
244.977	19136.92
245.048	19110.23
245.119	19066.23
245.191	19022.33
245.262	18969.32
245.333	18949.99
245.405	18926.43
245.476	18888.7
245.547	18857.95
245.618	18846.19
245.689	18817.76
245.761	18787.88
245.832	18754.1
245.903	18723.36
245.974	18692.32
246.045	18657.68
246.117	18648.81
246.188	18609.24
246.259	18568.91
246.33	18533.63
246.401	18505.73
246.473	18458.65
246.544	18428.63
246.615	18402.27
246.686	18375.38
246.757	18360.87
246.828	18321.84
246.899	18296.68
246.97	18257.36
247.042	18219.19
247.113	18187.1
247.184	18177.07
247.255	18136.88
247.326	18097.41
247.397	18071.25
247.468	18042.43
247.539	18012.45
247.61	17962.72
247.681	17948.26
247.752	17929.52
247.823	17892.7
247.894	17861.86
247.965	17822.96
248.037	17772.99
248.108	17734.58
248.179	17700.65
248.25	17664.17
248.321	17639.02
248.392	17601.04
248.463	17587.21
248.534	17548.95
248.605	17523.94
248.675	17484.61
248.746	17463.94
248.817	17447.65
248.888	17424.42
248.959	17375.6
249.03	17351.41
249.101	17328.61
249.172	17292.42
249.243	17237.43
249.314	17219.11
249.385	17194.78
249.456	17167.45
249.527	17139.3
249.598	17118.39
249.669	17086.24
249.739	17066.34
249.81	17035.35
249.881	16989.66
249.952	16961.08
250.023	16935.3
250.094	16893.27
250.165	16857.27
250.235	16824.4
250.306	16795.78
250.377	16759.97
250.448	16736.01
250.519	16698.13
250.59	16681.31
250.66	16648.59
250.731	16643.81
250.802	16617.26
250.873	16593.5
250.944	16571.14
251.014	16542.31
251.085	16530.26
251.156	16504.05
251.227	16481.25
251.297	16471.56
251.368	16456.04
251.439	16439.03
251.51	16419.8
251.58	16388.37
251.651	16359.6
251.722	16344.47
251.792	16307.93
251.863	16276.36
251.934	16271.93
252.005	16266.34
252.075	16245.13
252.146	16236.65
252.217	16226.33
252.287	16215.49
252.358	16187.49
252.429	16181.56
252.499	16153.6
252.57	16129.74
252.641	16118.37
252.711	16088.97
252.782	16055.23
252.852	16042.41
252.923	16009.87
252.994	15988.04
253.064	15970.54
253.135	15936.03
253.205	15904.41
253.276	15894.15
253.347	15881.71
253.417	15845.37
253.488	15815.44
253.558	15781.41
253.629	15746.9
253.699	15712.29
253.77	15688.91
253.841	15661.49
253.911	15646.26
253.982	15628.57
254.052	15612.56
254.123	15583.35
254.193	15565.14
254.264	15563.98
254.334	15526.09
254.405	15496.64
254.475	15467.24
254.546	15443.72
254.616	15432.63
254.687	15419.66
254.757	15396.57
254.827	15376.33
254.898	15358.83
254.968	15327.55
255.039	15292.26
255.109	15286.82
255.18	15256.74
255.25	15211.77
255.321	15197.98
255.391	15151.18
255.461	15144.04
255.532	15093.48
255.602	15067.16
255.673	15022.14
255.743	14989.99
255.813	14956.44
255.884	14954.36
255.954	14938.22
256.024	14932.53
256.095	14910.11
256.165	14872.37
256.235	14854.44
256.306	14819.15
256.376	14806.62
256.446	14793.75
256.517	14782.42
256.587	14759.14
256.657	14750.27
256.728	14733.93
256.798	14707.42
256.868	14682.2
256.938	14649.76
257.009	14633.37
257.079	14625.66
257.149	14630.48
257.219	14595.63
257.29	14588.78
257.36	14533.93
257.43	14522.94
257.5	14482.49
257.571	14456.37
257.641	14446.82
257.711	14418.09
257.781	14408.69
257.852	14390.52
257.922	14358.61
257.992	14341.88
258.062	14315.51
258.132	14294.3
258.202	14268.85
258.273	14256.75
258.343	14258.05
258.413	14233.37
258.483	14220.98
258.553	14184.73
258.623	14158.26
258.693	14147.99
258.764	14131.17
258.834	14130.3
258.904	14109.38
258.974	14081.04
259.044	14060.4
259.114	14039.15
259.184	14018.18
259.254	13992.58
259.324	13947.6
259.394	13923.64
259.464	13913.38
259.535	13898.91
259.605	13873.89
259.675	13844.49
259.745	13822.27
259.815	13789.39
259.885	13765.48
259.955	13761.96
260.025	13733.66
260.095	13710.81
260.165	13687.72
260.235	13686.9
260.305	13662.03
260.375	13626.6
260.445	13633.92
260.515	13627.85
260.585	13621.53
260.655	13607.79
260.725	13596.18
260.795	13595.21
260.865	13602.73
260.934	13576.51
261.004	13563.83
261.074	13550.62
261.144	13554.04
261.214	13547.44
261.284	13528.93
261.354	13519.91
261.424	13497.3
261.494	13500.44
261.564	13485.69
261.634	13478.22
261.703	13439.75
261.773	13422.68
261.843	13415.4
261.913	13392.74
261.983	13359.72
262.053	13343.57
262.123	13317.45
262.192	13285.92
262.262	13273.72
262.332	13240.7
262.402	13221.52
262.472	13197.99
262.541	13163.04
262.611	13156.15
262.681	13125.78
262.751	13116.09
262.821	13091.5
262.89	13057.08
262.96	13040.65
263.03	13033.37
263.1	13008.15
263.169	12994.46
263.239	12984.15
263.309	12974.17
263.379	12957.97
263.448	12943.75
263.518	12922.93
263.588	12910.83
263.657	12915.36
263.727	12896.85
263.797	12880.12
263.867	12859.92
263.936	12837.94
264.006	12835.48
264.076	12808.29
264.145	12791.32
264.215	12767.56
264.285	12758.11
264.354	12731.4
264.424	12708.94
264.494	12683.44
264.563	12666.76
264.633	12661.94
264.702	12650.18
264.772	12614.36
264.842	12591.46
264.911	12578.26
264.981	12554.3
265.05	12538.1
265.12	12515.06
265.19	12499.15
265.259	12493.17
265.329	12492.6
265.398	12478.04
265.468	12474.66
265.537	12461.55
265.607	12449.74
265.676	12440.25
265.746	12429.3
265.815	12426.51
265.885	12404.72
265.955	12373.44
266.024	12355.36
266.094	12326.15
266.163	12320.61
266.232	12326.73
266.302	12311.54
266.371	12302.14
266.441	12277.66
266.51	12266.43
266.58	12253.84
266.649	12233.45
266.719	12227.04
266.788	12216.1
266.858	12208.68
266.927	12180.24
266.996	12169.73
267.066	12161.58
267.135	12139.6
267.205	12129.24
267.274	12110.1
267.343	12113.28
267.413	12103.74
267.482	12100.22
267.552	12094.34
267.621	12061.9
267.69	12022.18
267.76	12011.63
267.829	11996.3
267.898	11991.77
267.968	11972.97
268.037	11962.85
268.106	11960.97
268.176	11927.57
268.245	11906.69
268.314	11890.5
268.384	11882.3
268.453	11860.52
268.522	11843.98
268.592	11839.16
268.661	11823.4
268.73	11815.74
268.799	11789.04
268.869	11793.33
268.938	11765.76
269.007	11747.87
269.076	11737.8
269.146	11746.28
269.215	11736.93
269.284	11745.46
269.353	11730.67
269.422	11716.5
269.492	11697.84
269.561	11651.67
269.63	11646.95
269.699	11631.52
269.768	11620.87
269.838	11612.73
269.907	11606.08
269.976	11582.65
270.045	11555.47
270.114	11542.07
270.183	11535.66
270.253	11529.68
270.322	11502.21
270.391	11493.68
270.46	11489.97
270.529	11493.49
270.598	11481.82
270.667	11474.64
270.736	11447.41
270.806	11431.6
270.875	11431.65
270.944	11417.63
271.013	11442.4
271.082	11436.85
271.151	11428.81
271.22	11399.99
271.289	11388.9
271.358	11377.04
271.427	11378.73
271.496	11366.44
271.565	11354.44
271.634	11340.37
271.703	11365.09
271.772	11361.82
271.841	11346.01
271.91	11327.41
271.979	11307.55
272.048	11286.25
272.117	11282.01
272.186	11270.2
272.255	11275.5
272.324	11270.78
272.393	11270.83
272.462	11249.91
272.531	11238.29
272.6	11229.19
272.669	11231.6
272.738	11212.32
272.807	11211.35
272.876	11180.46
272.945	11204.32
273.013	11206.78
273.082	11202.63
273.151	11154.82
273.22	11144.17
273.289	11141.09
273.358	11150.49
273.427	11143.5
273.496	11146.58
273.564	11136.51
273.633	11135.31
273.702	11118.2
273.771	11107.02
273.84	11095.69
273.909	11100.99
273.977	11096.66
274.046	11088.56
274.115	11097.04
274.184	11086.05
274.253	11071.5
274.322	11081.09
274.39	11057.23
274.459	11042.54
274.528	11015.94
274.597	11010.59
274.665	11008.47
274.734	11015.36
274.803	10996.61
274.872	10991.26
274.94	10975.89
275.009	11021.1
275.078	11002.59
275.147	10993.29
275.215	10986.84
275.284	10995.7
275.353	10973.34
275.421	10949.68
275.49	10959.03
275.559	10948.33
275.627	10941.93
275.696	10936.62
275.765	10935.08
275.833	10926.31
275.902	10925.11
275.971	10942.45
276.039	10953.97
276.108	10952.24
276.177	10945.06
276.245	10937.3
276.314	10931.85
276.383	10934.26
276.451	10876.67
276.52	10877.92
276.588	10892.96
276.657	10894.5
276.725	10873.44
276.794	10879.61
276.863	10891.99
276.931	10863.51
277	10869.01
277.068	10873.49
277.137	10890.35
277.205	10889.29
277.274	10900.04
277.342	10909.34
277.411	10890.55
277.48	10876.96
277.548	10871.75
277.617	10871.85
277.685	10870.36
277.754	10872.09
277.822	10864.04
277.89	10877.87
277.959	10876.33
278.027	10857.1
278.096	10854.79
278.164	10885.87
278.233	10880.62
278.301	10869.44
278.37	10878.84
278.438	10861.44
278.507	10869.78
278.575	10850.12
278.643	10846.46
278.712	10825.3
278.78	10806.89
278.849	10815.09
278.917	10828
278.985	10826.75
279.054	10826.27
279.122	10840.38
279.191	10841.01
279.259	10837.88
279.327	10821.11
279.396	10830.84
279.464	10830.7
279.532	10832.77
279.601	10825.64
279.669	10820.77
279.737	10832.29
279.806	10835.85
279.874	10846.41
279.942	10842.74
280.011	10837.3
280.079	10847.76
280.147	10867.51
280.215	10874.55
280.284	10870.31
280.352	10858.79
280.42	10864.09
280.488	10857.92
280.557	10840.53
280.625	10839.03
280.693	10842.94
280.761	10846.89
280.83	10831.13
280.898	10834.84
280.966	10816.48
281.034	10785.79
281.102	10772.2
281.171	10766.66
281.239	10770.17
281.307	10764.63
281.375	10750.13
281.443	10772.83
281.512	10764.39
281.58	10772.3
281.648	10759.82
281.716	10758.37
281.784	10763.81
281.852	10758.23
281.92	10756.83
281.989	10767.91
282.057	10760.83
282.125	10797.45
282.193	10791.72
282.261	10790.08
282.329	10795.96
282.397	10801.21
282.465	10807.91
282.533	10823.23
282.601	10822.51
282.67	10806.65
282.738	10801.55
282.806	10821.83
282.874	10809.11
282.942	10811.38
283.01	10807.33
283.078	10808.87
283.146	10811.23
283.214	10816.1
283.282	10828.39
283.35	10837.88
283.418	10837.06
283.486	10836.43
283.554	10805.25
283.622	10805.64
283.69	10816.09
283.758	10803.37
283.826	10804.39
283.894	10812.19
283.962	10834.07
284.03	10843.56
284.098	10846.41
284.165	10838.17
284.233	10831.85
284.301	10831.32
284.369	10832.14
284.437	10829.06
284.505	10830.5
284.573	10840.86
284.641	10829.3
284.709	10825.93
284.777	10815.76
284.845	10824.67
284.912	10831.23
284.98	10834.74
285.048	10833.35
285.116	10832.96
285.184	10853.54
285.252	10857.73
285.319	10845.83
285.387	10831.95
285.455	10812.87
285.523	10824.19
285.591	10821.35
285.659	10819.13
285.726	10826.41
285.794	10807.57
285.862	10804.05
285.93	10798.51
285.997	10800.24
286.065	10791.28
286.133	10785.64
286.201	10777.93
286.269	10763.52
286.336	10752.88
286.404	10745.12
286.472	10750.42
286.539	10733.41
286.607	10715.34
286.675	10719.24
286.743	10726.13
286.81	10722.66
286.878	10737.02
286.946	10726.47
287.013	10729.99
287.081	10735.38
287.149	10729.07
287.216	10747.77
287.284	10739.53
287.352	10746.18
287.419	10738.32
287.487	10754.17
287.555	10761.84
287.622	10764
287.69	10767.52
287.758	10784.2
287.825	10781.35
287.893	10772.29
287.96	10780.48
288.028	10792.72
288.096	10794.84
288.163	10800.92
288.231	10790.7
288.298	10793.69
288.366	10805.98
288.433	10807.42
288.501	10801.4
288.569	10794.22
288.636	10786.85
288.704	10795.76
288.771	10799.71
288.839	10796.34
288.906	10794.07
288.974	10800.39
289.041	10800.72
289.109	10802.17
289.176	10808.29
289.244	10811.08
289.311	10825.11
289.379	10834.5
289.446	10841.49
289.514	10843.03
289.581	10845.88
289.649	10852.33
289.716	10854.84
289.783	10849.01
289.851	10865.05
289.918	10868.91
289.986	10882.4
290.053	10892.33
290.121	10889.82
290.188	10900.42
290.255	10925.82
290.323	10919.46
290.39	10914.21
290.458	10924.86
290.525	10933.82
290.592	10927.99
290.66	10937.24
290.727	10931.65
290.794	10944.71
290.862	10941.24
290.929	10939.36
290.996	10933.24
291.064	10942.06
291.131	10955.26
291.198	10967.89
291.266	10967.17
291.333	10968.42
291.4	10976.95
291.468	10995.07
291.535	11003.12
291.602	11004.95
291.669	11002.54
291.737	11014.68
291.804	11020.27
291.871	11033.86
291.938	11040.03
292.006	11071.36
292.073	11082.44
292.14	11104.66
292.207	11101.28
292.275	11104.51
292.342	11125.96
292.409	11162.49
292.476	11194.05
292.543	11187.4
292.611	11190.97
292.678	11208.9
292.745	11239.6
292.812	11251.6
292.879	11248.22
292.946	11259.4
293.014	11281.91
293.081	11290.83
293.148	11304.46
293.215	11319.11
293.282	11324.71
293.349	11336.27
293.416	11316.42
293.484	11331.21
293.551	11334.78
293.618	11355.6
293.685	11386.73
293.752	11379.7
293.819	11372.32
293.886	11363.12
293.953	11375.21
294.02	11391.74
294.087	11402.11
294.154	11395.16
294.221	11415.26
294.288	11424.18
294.356	11443.46
294.423	11447.12
294.49	11443.12
294.557	11462.5
294.624	11461.1
294.691	11482.16
294.758	11488.18
294.825	11509.63
294.892	11509.15
294.959	11509.2
295.026	11516.76
295.093	11511.94
295.16	11512.81
295.226	11519.95
295.293	11539.71
295.36	11545.92
295.427	11562.22
295.494	11578.94
295.561	11593.16
295.628	11608.63
295.695	11623.38
295.762	11622.17
295.829	11634.13
295.896	11655.19
295.963	11661.6
296.03	11673.7
296.096	11677.51
296.163	11687.96
296.23	11699.24
296.297	11710.81
296.364	11716.26
296.431	11728.4
296.498	11722.72
296.564	11748.07
296.631	11755.25
296.698	11750.57
296.765	11771.4
296.832	11757.22
296.899	11748.89
296.965	11765.23
297.032	11755.87
297.099	11767.88
297.166	11774.58
297.233	11777.47
297.299	11773.47
297.366	11777.95
297.433	11781.85
297.5	11786.67
297.566	11786.24
297.633	11786.19
297.7	11794.58
297.767	11803.11
297.833	11806.48
297.9	11819.16
297.967	11805.62
298.033	11823.31
298.1	11850.88
298.167	11847.6
298.234	11860.04
298.3	11866.64
298.367	11859.75
298.434	11867.46
298.5	11870.98
298.567	11877.24
298.634	11873.53
298.7	11891.32
298.767	11890.74
298.834	11901.15
298.9	11903.27
298.967	11909.39
299.033	11922.79
299.1	11938.75
299.167	11949.4
299.233	11948.53
299.3	11963.81
299.366	11989.21
299.433	11995.72
299.5	11973.4
299.566	11974.08
299.633	11986.37
299.699	12001.79
299.766	12003.82
299.832	12003.91
299.899	12009.55
299.965	12025.65
300.032	12028.21
300.099	12034.33
300.165	12043.54
300.232	12045.22
300.298	12054.67
300.365	12067.64
300.431	12069.18
300.498	12058.24
300.564	12066.72
300.631	12076.65
300.697	12087.74
300.763	12088.41
300.83	12086.63
300.896	12105.62
300.963	12120.85
301.029	12135.02
301.096	12136.37
301.162	12151.17
301.229	12148.38
301.295	12141.53
301.361	12139.8
301.428	12148.62
301.494	12143.27
301.561	12150.79
301.627	12157.92
301.693	12148.42
301.76	12157.73
301.826	12154.55
301.892	12171.42
301.959	12177.83
302.025	12179.8
302.092	12172.04
302.158	12177.06
302.224	12181.73
302.291	12164.52
302.357	12156.18
302.423	12143.07
302.49	12134.54
302.556	12138.2
302.622	12137.58
302.688	12144.42
302.755	12157.77
302.821	12162.88
302.887	12169.58
302.954	12165.92
303.02	12172.52
303.086	12186.21
303.152	12179.56
303.219	12173.63
303.285	12171.42
303.351	12182.65
303.417	12176.33
303.483	12168.67
303.55	12161.34
303.616	12162.88
303.682	12162.93
303.748	12164.09
303.815	12180.72
303.881	12189.54
303.947	12181.06
304.013	12186.07
304.079	12176
304.145	12156.62
304.212	12142.88
304.278	12130.98
304.344	12127.79
304.41	12116.9
304.476	12104.17
304.542	12098.82
304.608	12103.02
304.674	12085.66
304.741	12069.95
304.807	12075.54
304.873	12083.16
304.939	12096.22
305.005	12069.32
305.071	12067.35
305.137	12071.06
305.203	12038.86
305.269	12041.9
305.335	12049.37
305.401	12047.44
305.467	12049.22
305.533	12058.67
305.599	12072.6
305.666	12077.18
305.732	12076.55
305.798	12085.57
305.864	12106.2
305.93	12106.44
305.996	12105.09
306.062	12106.83
306.128	12103.45
306.194	12092.7
306.259	12088.46
306.325	12078.1
306.391	12092.61
306.457	12104.66
306.523	12093.42
306.589	12114.49
306.655	12099.74
306.721	12083.35
306.787	12068.12
306.853	12077.71
306.919	12060.07
306.985	12047.78
307.051	12044.31
307.117	12036.98
307.183	12029.99
307.248	12003.48
307.314	12004.11
307.38	12002.61
307.446	12009.46
307.512	11998.95
307.578	12000.54
307.644	11991.14
307.709	11989.98
307.775	11984.44
307.841	11976.34
307.907	11976.82
307.973	11958.17
308.039	11956.15
308.104	11960.24
308.17	11969.26
308.236	11951.18
308.302	11952.19
308.368	11946.51
308.433	11945.64
308.499	11943.28
308.565	11927.66
308.631	11931.8
308.696	11912.09
308.762	11898.98
308.828	11888.66
308.894	11874.16
308.959	11849.82
309.025	11844.9
309.091	11840.42
309.156	11833.62
309.222	11832.13
309.288	11825.33
309.354	11806.39
309.419	11798.92
309.485	11778.1
309.551	11767.2
309.616	11753.18
309.682	11745.66
309.748	11732.4
309.813	11719.63
309.879	11700.74
309.945	11685.12
310.01	11669.94
310.076	11661.6
310.141	11658.08
310.207	11642.75
310.273	11641.26
310.338	11643.04
310.404	11618.9
310.469	11601.16
310.535	11586.26
310.601	11553.59
310.666	11542.45
310.732	11544.33
310.797	11530.31
310.863	11523.85
310.928	11519.46
310.994	11521.15
311.059	11508.28
311.125	11502.26
311.191	11508.38
311.256	11493.39
311.322	11501.15
311.387	11489.05
311.453	11791.9
311.518	11762.4
311.584	11760.33
311.649	11757.92
311.715	11749
311.78	11752.33
311.846	11742.74
311.911	11741.78
311.976	11747.9
312.042	11732.57
312.107	11721.29
312.173	11718.98
312.238	11710.06
312.304	11704.52
312.369	11690.93
312.434	11680.66
312.5	11668.86
312.565	11637.05
312.631	11640.23
312.696	11622.92
312.761	11618.54
312.827	11310.78
312.892	11342.83
312.958	11336.61
313.023	11334.78
313.088	11329.76
313.154	11317.33
313.219	11303.93
313.284	11288.66
313.35	11279.35
313.415	11272.61
313.48	11267.98
313.546	11260.85
313.611	11266.44
313.676	11253.57
313.741	11241.38
313.807	11245.23
313.872	11247.02
313.937	11252.75
314.003	11264.17
314.068	11266.1
314.133	11263.79
314.198	11243.59
314.264	11216.22
314.329	11204.6
314.394	11195.4
314.459	11187.74
314.525	11200.27
314.59	11191.88
314.655	11182.48
314.72	11186.48
314.785	11186
314.851	11170.58
314.916	11154.63
314.981	11139.88
315.046	11119.84
315.111	11116.75
315.176	11102
315.242	11100.9
315.307	11096.61
315.372	11071.21
315.437	11059.45
315.502	11045.04
315.567	11053.43
315.632	11035.84
315.698	11031.4
315.763	11023.55
315.828	11009.72
315.893	10998.2
315.958	10989.86
316.023	10975.02
316.088	10950.35
316.153	10920.38
316.218	10906.16
316.283	10878.46
316.348	10853.01
316.413	10840.29
316.479	10809.89
316.544	10770.62
316.609	10729.04
316.674	10677.48
316.739	10633.78
316.804	10589.84
316.869	10550.09
316.934	10502.24
316.999	10465.19
317.064	10406.36
317.129	10351.48
317.194	10301.14
317.259	10238.8
317.324	10174.2
317.389	10122.99
317.454	10068.17
317.518	10025.2
317.583	9988.35
317.648	9948.03
317.713	9892.54
317.778	9824.53
317.843	9780.65
317.908	9728.73
317.973	9680.66
318.038	9644.74
318.103	9598.65
318.168	9548.8
318.233	9499.59
318.297	9436.21
318.362	9382.13
318.427	9325.46
318.492	9285.16
318.557	9231.23
318.622	9188.57
318.687	9154.92
318.751	9096.58
318.816	9048.67
318.881	9000.63
318.946	8932.89
319.011	8878.69
319.075	8825.98
319.14	8781.32
319.205	8724.38
319.27	8678.9
319.335	8617.01
319.399	8553.86
319.464	8502.9
319.529	8437.9
319.594	8387.18
319.658	8340.17
319.723	8287.1
319.788	8245.15
319.853	8175.34
319.917	8125.65
319.982	8059.16
320.047	8006.49
320.112	7964.02
320.176	7898.13
320.241	7845.8
320.306	7798.19
320.37	7739.1
320.435	7694.9
320.5	7646.63
320.564	7589.51
320.629	7529.65
320.694	7477.26
320.758	7421.5
320.823	7364.78
320.888	7318.26
320.952	7253.95
321.017	7196.57
321.082	7143.18
321.146	7089.46
321.211	7044.53
321.275	6985.92
321.34	6927.6
321.405	6864.38
321.469	6803.81
321.534	6751.57
321.598	6682.94
321.663	6633.85
321.727	6584.49
321.792	6518.75
321.857	6455.71
321.921	6401.46
321.986	6344.96
322.05	6277.39
322.115	6231.84
322.179	6169.22
322.244	6103.45
322.308	6052.01
322.373	5992.57
322.437	5930.78
322.502	5890.85
322.566	5825.84
322.631	5775.01
322.695	5722.31
322.76	5668.75
322.824	5619.89
322.889	5564.42
322.953	5507.35
323.018	5431.22
323.082	5361.54
323.146	5298.2
323.211	5235.73
323.275	5176.98
323.34	5117.44
323.404	5072.52
323.468	5008.8
323.533	4955.56
323.597	4899.36
323.662	4836.78
323.726	4788.52
323.79	4729.88
323.855	4651.54
323.919	4589.18
323.983	4534.38
324.048	4450.17
324.112	4523.56
324.177	4354.21
324.241	4119.07
324.305	3891.77
324.37	3666.34
324.434	3446.23
324.498	3389.85
324.562	3327.96
324.627	3253.94
324.691	3182.68
324.755	3098.17
324.82	3004.08
324.884	2907.45
324.948	2812.41
325.012	2693.84
325.077	2540
