Data from 20250702_urea_0.1M_MAYP1162681_11-47-57-206.txt Node
Date: Wed Jul 02 11:47:57 BST 2025
User: adleo
Spectrometer: MAYP116268
Trigger mode: 0
Integration Time (sec): 1.000000E0
Scans to average: 1
Electric dark correction enabled: true
Nonlinearity correction enabled: true
Boxcar width: 10
XAxis mode: Wavelengths
Number of Pixels in Spectrum: 2068
>>>>>Begin Spectral Data<<<<<
179.565	1023.35
179.642	1069.15
179.718	1103.16
179.795	1134.94
179.871	1160.55
179.948	1173.74
180.024	1189.61
180.101	1208.97
180.177	1220.73
180.254	1240.19
180.33	1256.89
180.407	1295.52
180.483	1375.86
180.56	1451.97
180.636	1521.7
180.712	1514.01
180.789	1523.13
180.865	1533
180.942	1540.12
181.018	1549.05
181.095	1560.55
181.171	1560.6
181.248	1563.11
181.324	1577.27
181.4	1581.74
181.477	1592.09
181.553	1602.96
181.63	1622.01
181.706	1635.03
181.782	1642.25
181.859	1640.87
181.935	1650.33
182.011	1647.29
182.088	1663.11
182.164	1678.74
182.24	1691.14
182.317	1698.6
182.393	1698.79
182.469	1712.33
182.546	1724.21
182.622	1728.53
182.698	1725.68
182.775	1738.32
182.851	1750.58
182.927	1743.92
183.003	1741.6
183.08	1735.33
183.156	1745.07
183.232	1742.12
183.308	1733.66
183.385	1740.64
183.461	1755.57
183.537	1752.14
183.613	1761.74
183.69	1754.42
183.766	1743.35
183.842	1751.86
183.918	1754.47
183.995	1765.68
184.071	1768.68
184.147	1765.35
184.223	1755.66
184.299	1767.02
184.375	1757.99
184.452	1763.6
184.528	1814.85
184.604	1826.96
184.68	1836.42
184.756	1844.59
184.832	1848.82
184.908	1853.15
184.985	1851.48
185.061	1840.46
185.137	1849.11
185.213	1839.7
185.289	1838.56
185.365	1834.33
185.441	1830.58
185.517	1844.22
185.593	1839.61
185.669	1835.62
185.745	1845.7
185.822	1860.8
185.898	1854.2
185.974	1860.75
186.05	1852.01
186.126	1816.78
186.202	1808.75
186.278	1806.75
186.354	1797.48
186.43	1801.24
186.506	1798.82
186.582	1801.34
186.658	1804.66
186.734	1786.84
186.81	1791.26
186.886	1795.92
186.962	1807.13
187.038	1804.33
187.114	1795.2
187.19	1804.8
187.266	1797.82
187.341	1797.39
187.417	1790.59
187.493	1788.93
187.569	1791.16
187.645	1785.75
187.721	1773.91
187.797	1778.61
187.873	1782.61
187.949	1776.81
188.025	1773.15
188.101	1774.48
188.176	1778.9
188.252	1775.19
188.328	1782.79
188.404	1783.08
188.48	1778.23
188.556	1773.19
188.632	1774.1
188.707	1774.52
188.783	1770.29
188.859	1763.69
188.935	1750.43
189.011	1755.42
189.086	1749.2
189.162	1741.73
189.238	1741.64
189.314	1738.12
189.39	1735.03
189.465	1731.28
189.541	1746.73
189.617	1731.05
189.693	1727.25
189.768	1728.67
189.844	1752.11
189.92	1744.23
189.996	1749.69
190.071	1758.05
190.147	1754.21
190.223	1761.72
190.298	1753.02
190.374	1741.04
190.45	1754.49
190.526	1762.47
190.601	1758.86
190.677	1761.47
190.753	1787.38
190.828	1791.28
190.904	1806.25
190.98	1819.7
191.055	1825.5
191.131	1815.9
191.207	1836.81
191.282	1846.69
191.358	1837.52
191.433	1822.69
191.509	1834.61
191.585	1834.89
191.66	1837.46
191.736	1845.92
191.811	1838.22
191.887	1855.29
191.963	1875.49
192.038	1880.29
192.114	1882.9
192.189	1885.94
192.265	1881.76
192.34	1861.7
192.416	1857.37
192.491	1851.43
192.567	1855.19
192.642	1859.51
192.718	1860.89
192.793	1850.43
192.869	1844.49
192.944	1849.43
193.02	1858.37
193.095	1864.31
193.171	1868.64
193.246	1868.35
193.322	1865.6
193.397	1864.98
193.473	1855.71
193.548	1837.79
193.624	1841.35
193.699	1837.74
193.775	1852.58
193.85	1853.19
193.925	1860.7
194.001	1861.75
194.076	1855.86
194.152	1844.25
194.227	1837.36
194.302	1829.81
194.378	1832.09
194.453	1829.81
194.529	1840.31
194.604	1824.06
194.679	1817.97
194.755	1800.91
194.83	1809.09
194.905	1807.48
194.981	1816.03
195.056	1805.81
195.131	1813.56
195.207	1811.61
195.282	1804.86
195.357	1788.13
195.433	1802.95
195.508	1794.11
195.583	1799.29
195.659	1813.75
195.734	1819.4
195.809	1815.93
195.884	1823.68
195.96	1826.29
196.035	1841.79
196.11	1839.31
196.185	1850.72
196.261	1853.48
196.336	1878.43
196.411	1866.88
196.486	1873.58
196.561	1869.44
196.637	1879.42
196.712	1894.92
196.787	1898.44
196.862	1912.65
196.937	1921.26
197.013	1923.11
197.088	1930.96
197.163	1952.21
197.238	1965.96
197.313	1964.49
197.388	1980.7
197.464	2005.91
197.539	2015.09
197.614	2008.48
197.689	2019.42
197.764	2035.35
197.839	2051.57
197.914	2048.05
197.989	2066.07
198.065	2078.53
198.14	2119.79
198.215	2138.62
198.29	2146.38
198.365	2158.32
198.44	2167.55
198.515	2191.53
198.59	2208.23
198.665	2231.87
198.74	2237.92
198.815	2238.2
198.89	2260.42
198.965	2285.22
199.04	2282.89
199.115	2297.4
199.19	2336.32
199.265	2337.04
199.34	2344.17
199.415	2374.89
199.49	2392.87
199.565	2405.2
199.64	2426.34
199.715	2424.43
199.79	2434.66
199.865	2441.95
199.94	2437.95
200.015	2464.52
200.09	2470.28
200.165	2476.28
200.24	2482.66
200.315	2520.97
200.39	2537.64
200.464	2542.97
200.539	2546.35
200.614	2560.11
200.689	2580.26
200.764	2585.74
200.839	2605.35
200.914	2610.78
200.989	2601.3
201.063	2616.92
201.138	2601.79
201.213	2600.69
201.288	2585.83
201.363	2594.83
201.438	2595.6
201.512	2611.59
201.587	2598.92
201.662	2603.64
201.737	2615.02
201.812	2622.5
201.886	2590.75
201.961	2599.47
202.036	2591.62
202.111	2589.38
202.186	2567.1
202.26	2555.05
202.335	2540.57
202.41	2536.52
202.485	2524.57
202.559	2510.58
202.634	2490.1
202.709	2505.52
202.784	2494.24
202.858	2498.38
202.933	2485.9
203.008	2487.47
203.082	2481.9
203.157	2489.57
203.232	2462.48
203.306	2455.86
203.381	2442.53
203.456	2439.34
203.53	2434.05
203.605	2433.9
203.68	2433.57
203.754	2448.27
203.829	2457.75
203.904	2465.18
203.978	2479.43
204.053	2514.68
204.127	2537.58
204.202	2571.98
204.277	2590.94
204.351	2627.72
204.426	2665.99
204.5	2701.21
204.575	2718.98
204.65	2780.45
204.724	2826.76
204.799	2891.08
204.873	2948.51
204.948	3008.12
205.022	3065.63
205.097	3129.11
205.171	3214.12
205.246	3297.13
205.32	3380.58
205.395	3462.61
205.469	3544.77
205.544	3640.64
205.618	3718.9
205.693	3828.85
205.767	3920.17
205.842	4046.58
205.916	4152.97
205.991	4260.73
206.065	4390
206.14	4530.47
206.214	4652.58
206.289	4779.41
206.363	4926.57
206.438	5068.24
206.512	5220.98
206.586	5383.71
206.661	5544.74
206.735	5675.73
206.81	5836.54
206.884	6013.31
206.958	6169.28
207.033	6355.34
207.107	6538.39
207.181	6746.48
207.256	6921.99
207.33	7120.72
207.405	7320.41
207.479	7523.86
207.553	7719.06
207.628	7889.3
207.702	8090.88
207.776	8283.11
207.851	8483.38
207.925	8698.35
207.999	8900.77
208.073	9106.3
208.148	9314.61
208.222	9506.82
208.296	9751.63
208.371	9980.75
208.445	10197.69
208.519	10445.56
208.593	10666.93
208.668	10881.82
208.742	11097.8
208.816	11312.94
208.89	11542.03
208.965	11756.12
209.039	11978.3
209.113	12210.6
209.187	12449.88
209.261	12669.57
209.336	12909.76
209.41	13153.13
209.484	13375
209.558	13617.99
209.632	13845.27
209.707	14078.19
209.781	14325.42
209.855	14555.98
209.929	14787.54
210.003	15011
210.077	15216.58
210.151	15469.54
210.226	15709.09
210.3	15950.71
210.374	16177.3
210.448	16393.61
210.522	16608.33
210.596	16823.33
210.67	17040.26
210.744	17286.35
210.818	17520.39
210.892	17731.81
210.966	17921.55
211.041	18130.42
211.115	18322.51
211.189	18541.11
211.263	18743.9
211.337	18936.38
211.411	19142.59
211.485	19327.6
211.559	19515.88
211.633	19710.48
211.707	19869.23
211.781	20062.87
211.855	20204.22
211.929	20391.84
212.003	20553.43
212.077	20741.54
212.151	20930.43
212.225	21104.37
212.299	21267.82
212.373	21422.05
212.447	21584.3
212.52	21773.83
212.594	21942.07
212.668	22111.85
212.742	22257.48
212.816	22418.79
212.89	22558.35
212.964	22703.67
213.038	22855.4
213.112	23026.33
213.186	23183.14
213.26	23312.4
213.333	23412.47
213.407	23554.52
213.481	23701.22
213.555	23849.61
213.629	23978.2
213.703	24096.71
213.777	24237.85
213.85	24346.04
213.924	24508.53
213.998	24632.66
214.072	24759.02
214.146	24862.94
214.219	24977.44
214.293	25088.94
214.367	25205.58
214.441	25345.33
214.515	25446.91
214.588	25535.37
214.662	25620.51
214.736	25701.54
214.81	25820.36
214.883	25941.08
214.957	26045.72
215.031	26128.41
215.105	26207.76
215.178	26287.18
215.252	26385.96
215.326	26456.51
215.4	26539.59
215.473	26587.84
215.547	26661.67
215.621	26725.95
215.694	26825.92
215.768	26890.29
215.842	26962.87
215.915	27026.19
215.989	27077.93
216.063	27152.17
216.136	27239.5
216.21	27304.9
216.284	27396.68
216.357	27467.51
216.431	27537.32
216.504	27605.15
216.578	27692.12
216.652	27775.75
216.725	27838.94
216.799	27901.14
216.873	27962.55
216.946	28024.3
217.02	28089.1
217.093	28159.95
217.167	28203
217.24	28242.78
217.314	28302.13
217.387	28352.33
217.461	28396.61
217.535	28458.38
217.608	28507.1
217.682	28552.2
217.755	28612.43
217.829	28654.92
217.902	28693.35
217.976	28727
218.049	28768.72
218.123	28795.46
218.196	28840.81
218.27	28880.89
218.343	28917.78
218.417	28963.66
218.49	29010.66
218.563	29056.74
218.637	29090.4
218.71	29160.42
218.784	29196.44
218.857	29234.74
218.931	29277.82
219.004	29318.82
219.077	29349.63
219.151	29389.38
219.224	29424.74
219.298	29465.41
219.371	29511.46
219.444	29537.14
219.518	29578.01
219.591	29608.43
219.665	29662.51
219.738	29678.91
219.811	29697.72
219.885	29730.95
219.958	29765.1
220.031	29798.58
220.105	29835.25
220.178	29857.98
220.251	29868.63
220.325	29908.15
220.398	29945.26
220.471	29977.04
220.544	30013.47
220.618	30044.62
220.691	30061.65
220.764	30077.96
220.838	30099.34
220.911	30103.5
220.984	30138.19
221.057	30150.14
221.131	30171.18
221.204	30156.62
221.277	30185.6
221.35	30224.59
221.424	30229.05
221.497	30234.32
221.57	30246.46
221.643	30245.11
221.716	30259.62
221.79	30260.59
221.863	30270.8
221.936	30272.25
222.009	30268.14
222.082	30266.79
222.155	30255.76
222.229	30272.64
222.302	30270.08
222.375	30266.01
222.448	30273.22
222.521	30269.79
222.594	30272.26
222.667	30257.31
222.74	30267.37
222.814	30262.97
222.887	30255.42
222.96	30263.01
223.033	30267.13
223.106	30259.77
223.179	30252.81
223.252	30244.24
223.325	30237.47
223.398	30222.22
223.471	30211.34
223.544	30204.42
223.617	30195.08
223.69	30191.74
223.763	30169.15
223.837	30170.79
223.91	30164.89
223.983	30148.05
224.056	30124.64
224.129	30110.85
224.202	30114.04
224.275	30097.25
224.348	30074.03
224.42	30064.3
224.493	30030.05
224.566	30005.96
224.639	29982.49
224.712	29964.93
224.785	29946.79
224.858	29928.99
224.931	29902.43
225.004	29869.39
225.077	29850.33
225.15	29821.41
225.223	29806.26
225.296	29797.85
225.369	29747.4
225.442	29708.55
225.514	29679.38
225.587	29659.94
225.66	29649.01
225.733	29630.92
225.806	29609.34
225.879	29592.51
225.952	29549.37
226.025	29542.74
226.097	29543.85
226.17	29527.41
226.243	29493.17
226.316	29465.55
226.389	29446.93
226.461	29427.63
226.534	29401.23
226.607	29377.97
226.68	29360.13
226.753	29333.58
226.825	29286.33
226.898	29277.24
226.971	29263.36
227.044	29236.91
227.117	29215.63
227.189	29172.5
227.262	29151.46
227.335	29129.41
227.407	29098.66
227.48	29080.57
227.553	29040.15
227.626	28991.16
227.698	28956.44
227.771	28912.45
227.844	28876.97
227.916	28849.79
227.989	28802.03
228.062	28778.73
228.134	28763.69
228.207	28728.88
228.28	28690.89
228.352	28658.6
228.425	28623.36
228.498	28591.01
228.57	28560.17
228.643	28530.74
228.716	28488.64
228.788	28439.33
228.861	28401.43
228.934	28373.01
229.006	28330.91
229.079	28296.11
229.151	28253.14
229.224	28206.46
229.296	28187.08
229.369	28188
229.442	28166.68
229.514	28139.38
229.587	28121.94
229.659	28073.03
229.732	28044.8
229.804	28018.42
229.877	28009.24
229.949	27994.01
230.022	27980.29
230.094	27951.01
230.167	27931.24
230.239	27901.77
230.312	27870.7
230.384	27864.66
230.457	27839.87
230.529	27820.35
230.602	27798.61
230.674	27785.18
230.747	27775.23
230.819	27763.15
230.892	27709.41
230.964	27672.55
231.037	27640.71
231.109	27593.46
231.181	27571.15
231.254	27533.95
231.326	27494.67
231.399	27464.38
231.471	27429.5
231.544	27368.24
231.616	27351.29
231.688	27315.15
231.761	27286.65
231.833	27249.8
231.905	27179.47
231.978	27142.52
232.05	27098.52
232.122	27069.25
232.195	27024.04
232.267	26994.23
232.339	26949.99
232.412	26918.55
232.484	26874.02
232.556	26846.74
232.629	26838.43
232.701	26810.27
232.773	26776.52
232.846	26750.97
232.918	26708.81
232.99	26667.81
233.062	26651.35
233.135	26605.37
233.207	26558.1
233.279	26520.97
233.351	26497.26
233.424	26470.76
233.496	26429.67
233.568	26415.43
233.64	26361.98
233.713	26332.62
233.785	26290.76
233.857	26257.79
233.929	26202.27
234.001	26192.08
234.074	26159.93
234.146	26103.16
234.218	26062.56
234.29	26021.28
234.362	25968.72
234.434	25921.51
234.507	25883.52
234.579	25826.56
234.651	25786.69
234.723	25749.04
234.795	25727.27
234.867	25674.37
234.939	25643.19
235.012	25602.7
235.084	25563.55
235.156	25532.52
235.228	25479.63
235.3	25435.61
235.372	25395.36
235.444	25375.87
235.516	25307.86
235.588	25269.79
235.66	25236.63
235.732	25193.01
235.804	25203.29
235.876	25162.71
235.948	25126.52
236.02	25088.16
236.092	25049.95
236.164	25012.79
236.236	24970.82
236.308	24912.39
236.38	24885.85
236.452	24834.27
236.524	24797.13
236.596	24766.82
236.668	24736.14
236.74	24695.13
236.812	24649.45
236.884	24613.6
236.956	24567.87
237.028	24520.74
237.1	24467.77
237.172	24439.59
237.244	24412.39
237.316	24339.24
237.388	24301.81
237.46	24268.04
237.532	24226.56
237.604	24179.44
237.675	24143.79
237.747	24105.11
237.819	24064.11
237.891	24017.62
237.963	23967.99
238.035	23918.36
238.107	23835.84
238.178	23798.75
238.25	23753.17
238.322	23733.25
238.394	23673.6
238.466	23629.33
238.538	23590.79
238.609	23550.77
238.681	23485.66
238.753	23425.24
238.825	23384.39
238.897	23346.05
238.968	23307.62
239.04	23259.4
239.112	23232.25
239.184	23173.27
239.255	23136.19
239.327	23098.39
239.399	23050.99
239.471	23026.02
239.542	22979.06
239.614	22964.26
239.686	22889.86
239.758	22856.35
239.829	22802.44
239.901	22770.58
239.973	22712.72
240.044	22660.27
240.116	22618.71
240.188	22569.63
240.259	22529.91
240.331	22477.69
240.403	22436.43
240.474	22380.31
240.546	22340.2
240.618	22285.34
240.689	22237.52
240.761	22186.8
240.833	22155.42
240.904	22111.5
240.976	22054.14
241.048	22020.11
241.119	21969.68
241.191	21942.5
241.262	21912.56
241.334	21864.45
241.405	21813.6
241.477	21775.86
241.549	21744.48
241.62	21709.53
241.692	21674.78
241.763	21646.1
241.835	21600.93
241.906	21559.92
241.978	21500.92
242.049	21460.14
242.121	21429.49
242.192	21399.56
242.264	21350.2
242.335	21286.97
242.407	21266.14
242.478	21229.27
242.55	21191.25
242.621	21146.95
242.693	21099.14
242.764	21055.38
242.836	21011.86
242.907	20979.81
242.979	20943.47
243.05	20908.24
243.122	20855.46
243.193	20815.27
243.264	20747.17
243.336	20707.94
243.407	20674.35
243.479	20659.5
243.55	20614.54
243.622	20564.42
243.693	20524.27
243.764	20490.87
243.836	20439.11
243.907	20374.83
243.978	20334.68
244.05	20297.04
244.121	20238.2
244.192	20212.18
244.264	20153.86
244.335	20115.7
244.407	20059.5
244.478	20026.83
244.549	19970.35
244.62	19934.88
244.692	19892.57
244.763	19855.99
244.834	19806.5
244.906	19763.9
244.977	19720.38
245.048	19697.88
245.119	19657.69
245.191	19609.35
245.262	19557.16
245.333	19540.97
245.405	19521.55
245.476	19477.02
245.547	19438.47
245.618	19413.89
245.689	19359.92
245.761	19325.22
245.832	19288.21
245.903	19254.53
245.974	19217.62
246.045	19184.99
246.117	19154.05
246.188	19109.91
246.259	19065
246.33	19027.85
246.401	18978.6
246.473	18922.07
246.544	18873.83
246.615	18839.76
246.686	18803.28
246.757	18777.35
246.828	18725.89
246.899	18685.94
246.97	18634.09
247.042	18580.06
247.113	18548.79
247.184	18540.31
247.255	18496.12
247.326	18453.76
247.397	18416.89
247.468	18374.73
247.539	18342.54
247.61	18285.82
247.681	18253.34
247.752	18230.49
247.823	18182.64
247.894	18157.19
247.965	18117
248.037	18080.86
248.108	18030.79
248.179	17988.72
248.25	17956
248.321	17929.64
248.392	17883.47
248.463	17871.37
248.534	17845.83
248.605	17811.62
248.675	17773.4
248.746	17744.73
248.817	17722.7
248.888	17698.56
248.959	17653.93
249.03	17631.33
249.101	17609.74
249.172	17579.77
249.243	17530.85
249.314	17515.81
249.385	17470.08
249.456	17441.4
249.527	17401.45
249.598	17381.65
249.669	17348.87
249.739	17312.49
249.81	17278.27
249.881	17235.76
249.952	17200.53
250.023	17165.5
250.094	17121.74
250.165	17073.54
250.235	17040.34
250.306	17004.92
250.377	16962.17
250.448	16936.05
250.519	16877.15
250.59	16858.07
250.66	16812.04
250.731	16796.28
250.802	16758.54
250.873	16736.52
250.944	16710.54
251.014	16677.86
251.085	16668.76
251.156	16644.8
251.227	16625.52
251.297	16608.37
251.368	16593.62
251.439	16575.4
251.51	16551.78
251.58	16512.07
251.651	16482.28
251.722	16455.05
251.792	16411.72
251.863	16375.53
251.934	16359.62
252.005	16359.24
252.075	16325.31
252.146	16308.68
252.217	16286.22
252.287	16264.63
252.358	16234.94
252.429	16228.53
252.499	16198.5
252.57	16168.62
252.641	16147.07
252.711	16116.61
252.782	16080.17
252.852	16066.68
252.923	16037.28
252.994	16013.85
253.064	16006.48
253.135	15972.35
253.205	15949.7
253.276	15935.48
253.347	15931.77
253.417	15896.49
253.488	15855.42
253.558	15822.31
253.629	15796.37
253.699	15777.43
253.77	15761.62
253.841	15733.62
253.911	15704.89
253.982	15673.27
254.052	15654.28
254.123	15634.04
254.193	15611.87
254.264	15623.43
254.334	15581.59
254.405	15540.58
254.475	15505.24
254.546	15469.62
254.616	15454.05
254.687	15434.44
254.757	15412.94
254.827	15384.02
254.898	15360.74
254.968	15342.8
255.039	15311.95
255.109	15297.88
255.18	15259.46
255.25	15212.08
255.321	15181.81
255.391	15139.29
255.461	15140.69
255.532	15084.87
255.602	15052.87
255.673	15015.56
255.743	14967.02
255.813	14918.81
255.884	14907.24
255.954	14890.52
256.024	14881.6
256.095	14857.84
256.165	14822.84
256.235	14799.27
256.306	14763.89
256.376	14742.24
256.446	14719.88
256.517	14700.31
256.587	14681.8
256.657	14668.97
256.728	14650.32
256.798	14636.68
256.868	14619.03
256.938	14588.09
257.009	14586.01
257.079	14564.75
257.149	14553.67
257.219	14514.67
257.29	14511.15
257.36	14472.49
257.43	14456.58
257.5	14418.21
257.571	14386.78
257.641	14369.43
257.711	14338.38
257.781	14330.33
257.852	14317.99
257.922	14281.31
257.992	14260.96
258.062	14235.71
258.132	14215.6
258.202	14189.09
258.273	14165.32
258.343	14156.55
258.413	14122.28
258.483	14092.29
258.553	14061.59
258.623	14037.05
258.693	14025.19
258.764	14013.77
258.834	14002.82
258.904	13983.83
258.974	13955.87
259.044	13933.36
259.114	13911.91
259.184	13893.06
259.254	13860.76
259.324	13815.88
259.394	13803.06
259.464	13800.98
259.535	13772.83
259.605	13746.32
259.675	13718.4
259.745	13703.36
259.815	13671.02
259.885	13639.15
259.955	13636.89
260.025	13615.72
260.095	13591.38
260.165	13575.42
260.235	13566.17
260.305	13540.52
260.375	13507.84
260.445	13505.33
260.515	13505.77
260.585	13503.21
260.655	13481.66
260.725	13474.91
260.795	13472.02
260.865	13467.83
260.934	13438.23
261.004	13421.26
261.074	13395.32
261.144	13392.43
261.214	13376.96
261.284	13362.4
261.354	13364.09
261.424	13338.34
261.494	13327.74
261.564	13306.48
261.634	13295.44
261.703	13261.31
261.773	13249.21
261.843	13232.77
261.913	13208.28
261.983	13166.49
262.053	13150.63
262.123	13131.59
262.192	13099.67
262.262	13081.16
262.332	13047.71
262.402	13025.34
262.472	13012.08
262.541	12975.59
262.611	12970.39
262.681	12946.28
262.751	12930.04
262.821	12904.1
262.89	12871.71
262.96	12858.02
263.03	12861.25
263.1	12840.76
263.169	12828.13
263.239	12811.88
263.309	12815.31
263.379	12805.28
263.448	12797.37
263.518	12778.33
263.588	12761.85
263.657	12751.53
263.727	12739.62
263.797	12725.4
263.867	12706.84
263.936	12676.04
264.006	12670.11
264.076	12651.12
264.145	12627.26
264.215	12606.67
264.285	12588.65
264.354	12554.23
264.424	12537.41
264.494	12502.89
264.563	12483.17
264.633	12477.87
264.702	12465.68
264.772	12425.47
264.842	12402.53
264.911	12384.36
264.981	12352.59
265.05	12335.96
265.12	12324
265.19	12307.76
265.259	12294.94
265.329	12283.66
265.398	12273.05
265.468	12283.8
265.537	12255.46
265.607	12249.53
265.676	12233.77
265.746	12230.87
265.815	12234.01
265.885	12212.75
265.955	12195.4
266.024	12167.73
266.094	12134.76
266.163	12133.41
266.232	12133.51
266.302	12114.85
266.371	12102.61
266.441	12078.56
266.51	12072.53
266.58	12046.02
266.649	12027.08
266.719	12022.21
266.788	12013.48
266.858	12013
266.927	11979.5
266.996	11960.51
267.066	11952.22
267.135	11925.52
267.205	11915.3
267.274	11900.64
267.343	11895.58
267.413	11878.71
267.482	11884.35
267.552	11876.93
267.621	11842.37
267.69	11810.03
267.76	11802.12
267.829	11793.06
267.898	11784.48
267.968	11758.5
268.037	11758.6
268.106	11746.41
268.176	11716.76
268.245	11701.53
268.314	11679.65
268.384	11674.49
268.453	11671.46
268.522	11658.87
268.592	11654.97
268.661	11636.13
268.73	11625.81
268.799	11606.15
268.869	11605.66
268.938	11579.3
269.007	11560.5
269.076	11554.96
269.146	11550.24
269.215	11542.28
269.284	11540.65
269.353	11528.36
269.422	11517.51
269.492	11494.33
269.561	11464.06
269.63	11456.01
269.699	11437.7
269.768	11424.4
269.838	11410.66
269.907	11404.68
269.976	11377.94
270.045	11353.98
270.114	11342.56
270.183	11323.81
270.253	11312.58
270.322	11288.2
270.391	11268.29
270.46	11271.91
270.529	11258.41
270.598	11250.99
270.667	11232.97
270.736	11213.5
270.806	11204.34
270.875	11203.42
270.944	11189.06
271.013	11208.24
271.082	11205.55
271.151	11200.05
271.22	11176.49
271.289	11161.21
271.358	11144.1
271.427	11132.49
271.496	11128.82
271.565	11115.04
271.634	11102.17
271.703	11123.67
271.772	11118.22
271.841	11106.27
271.91	11077.74
271.979	11077.5
272.048	11059.33
272.117	11060.83
272.186	11041.65
272.255	11038.37
272.324	11034.66
272.393	11030.32
272.462	11002.47
272.531	10988.97
272.6	10970.08
272.669	10976.44
272.738	10966.95
272.807	10964.4
272.876	10951.72
272.945	10964.93
273.013	10964.35
273.082	10973.89
273.151	10927.15
273.22	10925.8
273.289	10915.82
273.358	10924.54
273.427	10908.06
273.496	10914.23
273.564	10903.82
273.633	10906.33
273.702	10883.01
273.771	10867.34
273.84	10861.37
273.909	10859.3
273.977	10858.14
274.046	10849.8
274.115	10844.36
274.184	10831.59
274.253	10819.64
274.322	10821.04
274.39	10788.85
274.459	10775.26
274.528	10740.81
274.597	10739.07
274.665	10735.41
274.734	10742.97
274.803	10729.39
274.872	10717
274.94	10692.91
275.009	10713.97
275.078	10700.62
275.147	10706.74
275.215	10706.4
275.284	10710.55
275.353	10709.05
275.421	10686.41
275.49	10700.72
275.559	10692.24
275.627	10687.61
275.696	10679.9
275.765	10680.48
275.833	10677.54
275.902	10676.19
275.971	10687.75
276.039	10696.28
276.108	10692.81
276.177	10693.05
276.245	10685.06
276.314	10685.88
276.383	10693.83
276.451	10663.76
276.52	10667.13
276.588	10671.18
276.657	10668.96
276.725	10659.08
276.794	10655.8
276.863	10659.47
276.931	10639.47
277	10644.05
277.068	10651.27
277.137	10662.26
277.205	10656.96
277.274	10671.7
277.342	10674.84
277.411	10660.62
277.48	10649.88
277.548	10636.87
277.617	10632.87
277.685	10626.56
277.754	10629.3
277.822	10616.53
277.89	10633.3
277.959	10630.8
278.027	10617.36
278.096	10608.78
278.164	10628.73
278.233	10617.93
278.301	10611.29
278.37	10613.98
278.438	10600.78
278.507	10596.93
278.575	10576.59
278.643	10577.03
278.712	10555.01
278.78	10543.11
278.849	10552.6
278.917	10557.75
278.985	10558.48
279.054	10561.95
279.122	10571.87
279.191	10566.72
279.259	10570.09
279.327	10548.55
279.396	10549.37
279.464	10548.21
279.532	10556.21
279.601	10554.23
279.669	10548.55
279.737	10558.81
279.806	10559.2
279.874	10566.23
279.942	10563.78
280.011	10560.16
280.079	10566.62
280.147	10588.73
280.215	10592.11
280.284	10588.49
280.352	10578.81
280.42	10584.49
280.488	10577.03
280.557	10568.64
280.625	10571.97
280.693	10569.99
280.761	10573.12
280.83	10567.05
280.898	10576.64
280.966	10557.37
281.034	10527.3
281.102	10524.94
281.171	10524.26
281.239	10534.09
281.307	10530.58
281.375	10518.58
281.443	10538.91
281.512	10538.53
281.58	10547.54
281.648	10536.94
281.716	10536.84
281.784	10537.42
281.852	10535.3
281.92	10532.8
281.989	10545.52
282.057	10530.39
282.125	10566
282.193	10566.09
282.261	10563.44
282.329	10562.09
282.397	10565.23
282.465	10573.03
282.533	10587.97
282.601	10579.49
282.67	10562.77
282.738	10554.53
282.806	10569.75
282.874	10560.26
282.942	10556.74
283.01	10549.27
283.078	10556.02
283.146	10557.66
283.214	10566.57
283.282	10564.74
283.35	10578.81
283.418	10572.31
283.486	10575.49
283.554	10538.04
283.622	10536.26
283.69	10531.06
283.758	10526.53
283.826	10539.35
283.894	10544.84
283.962	10560.02
284.03	10564.69
284.098	10557.42
284.165	10558.67
284.233	10559.97
284.301	10554.62
284.369	10550.43
284.437	10539.25
284.505	10532.99
284.573	10538.58
284.641	10527.06
284.709	10534.29
284.777	10515.4
284.845	10522.34
284.912	10527.93
284.98	10535.64
285.048	10524.8
285.116	10532.12
285.184	10540.89
285.252	10539.97
285.319	10528.65
285.387	10514.34
285.455	10501.04
285.523	10516.07
285.591	10506.05
285.659	10504.85
285.726	10512.12
285.794	10499.31
285.862	10495.41
285.93	10495.6
285.997	10495.12
286.065	10488.9
286.133	10481.63
286.201	10477.67
286.269	10463.22
286.336	10454.79
286.404	10442.69
286.472	10455.37
286.539	10441.39
286.607	10422.94
286.675	10415.62
286.743	10427.61
286.81	10427.9
286.878	10443.18
286.946	10438.17
287.013	10440.04
287.081	10437.06
287.149	10431.47
287.216	10446.07
287.284	10443.13
287.352	10445.39
287.419	10439.18
287.487	10452.76
287.555	10457.05
287.622	10458.83
287.69	10465.24
287.758	10477.05
287.825	10474.73
287.893	10465.15
287.96	10464.23
288.028	10481.05
288.096	10485.29
288.163	10481.29
288.231	10471.41
288.298	10472.04
288.366	10481.96
288.433	10489.09
288.501	10482.54
288.569	10485.57
288.636	10484.66
288.704	10501.23
288.771	10512.46
288.839	10506.05
288.906	10499.98
288.974	10512.94
289.041	10510.73
289.109	10508.8
289.176	10515.31
289.244	10525.13
289.311	10537.9
289.379	10558.09
289.446	10556.45
289.514	10555.87
289.581	10568.45
289.649	10567.82
289.716	10567.68
289.783	10561.08
289.851	10577.7
289.918	10583.58
289.986	10595.24
290.053	10598.23
290.121	10599.82
290.188	10599.62
290.255	10628.34
290.323	10632.29
290.39	10626.61
290.458	10645.83
290.525	10658.36
290.592	10659.61
290.66	10666.55
290.727	10662.41
290.794	10672.04
290.862	10676.67
290.929	10686.31
290.996	10675.7
291.064	10689.53
291.131	10707.6
291.198	10722.35
291.266	10724.56
291.333	10728.9
291.4	10738.44
291.468	10760.17
291.535	10763.26
291.602	10769.81
291.669	10767.02
291.737	10778.44
291.804	10782.48
291.871	10791.78
291.938	10795.69
292.006	10825.71
292.073	10836.36
292.14	10843.78
292.207	10842.38
292.275	10846.38
292.342	10858.09
292.409	10895.01
292.476	10920.98
292.543	10912.26
292.611	10911.1
292.678	10924.59
292.745	10950.52
292.812	10955.87
292.879	10947.39
292.946	10951.15
293.014	10965.99
293.081	10975.87
293.148	10987.87
293.215	10996.64
293.282	10994.71
293.349	11013.21
293.416	10999.43
293.484	11016.73
293.551	11029.5
293.618	11048.39
293.685	11074.75
293.752	11071.28
293.819	11063.38
293.886	11051.81
293.953	11061.5
294.02	11076.49
294.087	11086.27
294.154	11075.43
294.221	11093.69
294.288	11104.1
294.356	11120.53
294.423	11130.7
294.49	11124.87
294.557	11136.1
294.624	11135.38
294.691	11153.98
294.758	11149.45
294.825	11154.75
294.892	11150.94
294.959	11155.09
295.026	11163.67
295.093	11159.47
295.16	11161.93
295.226	11163.67
295.293	11194.08
295.36	11199.67
295.427	11211.91
295.494	11227.28
295.561	11249.98
295.628	11268.54
295.695	11289.12
295.762	11292.2
295.829	11299.57
295.896	11316.39
295.963	11331
296.03	11345.55
296.096	11348.64
296.163	11368.97
296.23	11383.48
296.297	11394.37
296.364	11402.52
296.431	11404.83
296.498	11402.04
296.564	11430.86
296.631	11437.46
296.698	11416.06
296.765	11441.8
296.832	11440.59
296.899	11428.25
296.965	11438.04
297.032	11418.95
297.099	11434.32
297.166	11444.83
297.233	11440.3
297.299	11437.84
297.366	11432.98
297.433	11435.87
297.5	11453.41
297.566	11450.28
297.633	11455.48
297.7	11465.17
297.767	11464.4
297.833	11475.58
297.9	11479
297.967	11468.21
298.033	11486.91
298.1	11520.6
298.167	11510.28
298.234	11512.16
298.3	11523.63
298.367	11522.04
298.434	11531.35
298.5	11522.48
298.567	11518.62
298.634	11522.86
298.7	11543.25
298.767	11549.9
298.834	11565.66
298.9	11558.72
298.967	11559.78
299.033	11567.78
299.1	11584.36
299.167	11602.92
299.233	11592.6
299.3	11612.8
299.366	11622.63
299.433	11638.34
299.5	11616.85
299.566	11625.43
299.633	11645.72
299.699	11661.57
299.766	11667.5
299.832	11677.72
299.899	11687.84
299.965	11701.92
300.032	11700.71
300.099	11708.23
300.165	11717.53
300.232	11712.47
300.298	11717.29
300.365	11724.52
300.431	11729.29
300.498	11718.64
300.564	11719.61
300.631	11738.21
300.697	11748.43
300.763	11751.47
300.83	11739.95
300.896	11757.88
300.963	11771.9
301.029	11775.95
301.096	11773.64
301.162	11782.94
301.229	11776.09
301.295	11768.33
301.361	11771.76
301.428	11777.3
301.494	11764.96
301.561	11766.79
301.627	11772.77
301.693	11775.66
301.76	11785.54
301.826	11776.48
301.892	11791.47
301.959	11807.18
302.025	11810.36
302.092	11807.14
302.158	11815.47
302.224	11821.02
302.291	11809.79
302.357	11801.78
302.423	11791.76
302.49	11786.55
302.556	11792.68
302.622	11792.1
302.688	11800.72
302.755	11807.71
302.821	11817.26
302.887	11827.67
302.954	11825.21
303.02	11828.73
303.086	11832.25
303.152	11830.56
303.219	11836.63
303.285	11835.72
303.351	11838.51
303.417	11836.54
303.483	11825.21
303.55	11822.61
303.616	11825.31
303.682	11821.55
303.748	11823.04
303.815	11834.03
303.881	11844.35
303.947	11836.87
304.013	11839.43
304.079	11826.8
304.145	11809.98
304.212	11805.26
304.278	11798.36
304.344	11795.62
304.41	11783.37
304.476	11772.62
304.542	11764.38
304.608	11766.07
304.674	11753.54
304.741	11743.66
304.807	11740.96
304.873	11744.14
304.939	11752.09
305.005	11728.04
305.071	11734.11
305.137	11727.56
305.203	11702.98
305.269	11694.01
305.335	11693.58
305.401	11696.37
305.467	11697.39
305.533	11708.71
305.599	11710.06
305.666	11715.41
305.732	11712.71
305.798	11726.06
305.864	11752.57
305.93	11747.27
305.996	11745.15
306.062	11746.4
306.128	11741.49
306.194	11737.2
306.259	11730.21
306.325	11718.98
306.391	11724.76
306.457	11723.22
306.523	11724.42
306.589	11751.46
306.655	11747.03
306.721	11737.1
306.787	11721.97
306.853	11733.2
306.919	11714.16
306.985	11711.41
307.051	11701.97
307.117	11693.34
307.183	11687.07
307.248	11658.06
307.314	11664.8
307.38	11667.26
307.446	11666.92
307.512	11655.02
307.578	11649.14
307.644	11657
307.709	11652.51
307.775	11654.2
307.841	11650.2
307.907	11647.6
307.973	11627.83
308.039	11623.26
308.104	11627.21
308.17	11627.98
308.236	11608.17
308.302	11610.19
308.368	11596.99
308.433	11595.69
308.499	11588.75
308.565	11578.62
308.631	11582.77
308.696	11564.45
308.762	11544.12
308.828	11539.92
308.894	11526.86
308.959	11513.13
309.025	11498.14
309.091	11496.21
309.156	11478.09
309.222	11480.88
309.288	11465.7
309.354	11445.46
309.419	11441.55
309.485	11421.07
309.551	11421.41
309.616	11405.26
309.682	11394.18
309.748	11393.07
309.813	11378.13
309.879	11365.07
309.945	11346.66
310.01	11334.37
310.076	11331.77
310.141	11323.19
310.207	11305.6
310.273	11302.99
310.338	11301.26
310.404	11281.11
310.469	11265.79
310.535	11261.16
310.601	11237.45
310.666	11240.39
310.732	11248.29
310.797	11233.83
310.863	11222.07
310.928	11204.05
310.994	11206.6
311.059	11202.94
311.125	11192.53
311.191	11205.16
311.256	11196
311.322	11193.26
311.387	11175.14
311.453	11556.49
311.518	11536.2
311.584	11526.7
311.649	11523.62
311.715	11510.75
311.78	11514.32
311.846	11497.98
311.911	11500.15
311.976	11496.01
312.042	11480.15
312.107	11462.22
312.173	11452.54
312.238	11441.5
312.304	11440.97
312.369	11430.9
312.434	11421.65
312.5	11408.68
312.565	11380.49
312.631	11386.56
312.696	11381.74
312.761	11385.65
312.827	10991.24
312.892	11026.08
312.958	11026.32
313.023	11020.39
313.088	11014.42
313.154	10996.3
313.219	10988.97
313.284	10974.56
313.35	10965.84
313.415	10949.12
313.48	10941.8
313.546	10935.29
313.611	10945.94
313.676	10933.89
313.741	10923
313.807	10920.16
313.872	10924.35
313.937	10926.09
314.003	10929.99
314.068	10926.62
314.133	10922.95
314.198	10913.17
314.264	10881.56
314.329	10873.27
314.394	10871.1
314.459	10867.87
314.525	10886.47
314.59	10882.76
314.655	10868.84
314.72	10873.12
314.785	10872.45
314.851	10863.73
314.916	10846.38
314.981	10830.43
315.046	10817.42
315.111	10809.18
315.176	10795.74
315.242	10799.26
315.307	10799.26
315.372	10783.11
315.437	10769.43
315.502	10756.22
315.567	10761.24
315.632	10752.9
315.698	10754.54
315.763	10747.79
315.828	10734.35
315.893	10722.2
315.958	10714.98
316.023	10700.04
316.088	10676.29
316.153	10654.94
316.218	10640.34
316.283	10619.67
316.348	10592.5
316.413	10575.45
316.479	10550.39
316.544	10512.29
316.609	10470.22
316.674	10419.73
316.739	10374.35
316.804	10338.46
316.869	10299.43
316.934	10255.78
316.999	10216.33
317.064	10150.33
317.129	10097.86
317.194	10052.77
317.259	9996.55
317.324	9938.22
317.389	9887.99
317.454	9837.6
317.518	9794.88
317.583	9756.97
317.648	9725.57
317.713	9685.69
317.778	9623.13
317.843	9583.54
317.908	9530.82
317.973	9478.38
318.038	9435.71
318.103	9381.79
318.168	9334.74
318.233	9286.2
318.297	9215.91
318.362	9163.42
318.427	9112.68
318.492	9065.74
318.557	9002.87
318.622	8957.08
318.687	8912.17
318.751	8859.66
318.816	8815.23
318.881	8764.4
318.946	8696.78
319.011	8639.4
319.075	8583.67
319.14	8538.58
319.205	8474.67
319.27	8431.61
319.335	8373.97
319.399	8317.05
319.464	8281.78
319.529	8218.33
319.594	8166.94
319.658	8123.26
319.723	8066.21
319.788	8024.12
319.853	7962.65
319.917	7914.56
319.982	7849.63
320.047	7802.79
320.112	7761.05
320.176	7693.06
320.241	7643
320.306	7596.79
320.37	7533.38
320.435	7482.76
320.5	7435.84
320.564	7388.44
320.629	7331.97
320.694	7285.07
320.758	7232.39
320.823	7166.03
320.888	7120.86
320.952	7057.15
321.017	7006.17
321.082	6950.1
321.146	6896.77
321.211	6849.4
321.275	6797.73
321.34	6740.91
321.405	6683.61
321.469	6623.39
321.534	6571.64
321.598	6506.87
321.663	6462.06
321.727	6420.44
321.792	6362.64
321.857	6308.73
321.921	6257.18
321.986	6206.46
322.05	6139.04
322.115	6087.84
322.179	6033.44
322.244	5966.96
322.308	5921.67
322.373	5860.95
322.437	5810.01
322.502	5768.17
322.566	5707.7
322.631	5661.47
322.695	5610.32
322.76	5551.88
322.824	5504.85
322.889	5451.51
322.953	5396.84
323.018	5322.89
323.082	5252.89
323.146	5190.32
323.211	5126.75
323.275	5067.68
323.34	5012.22
323.404	4966.82
323.468	4908.26
323.533	4855.02
323.597	4801.23
323.662	4738.46
323.726	4691.79
323.79	4633.11
323.855	4558.62
323.919	4500.53
323.983	4442.77
324.048	4362.98
324.112	4445.13
324.177	4280.86
324.241	4051.41
324.305	3828.29
324.37	3606.74
324.434	3391.02
324.498	3335.94
324.562	3272.73
324.627	3200.5
324.691	3128.92
324.755	3046.82
324.82	2959.54
324.884	2866.47
324.948	2774.13
325.012	2658.04
325.077	2511.16
