Data from 20250702_urea_2M_MAYP1162681_11-36-52-265.txt Node
Date: Wed Jul 02 11:36:52 BST 2025
User: adleo
Spectrometer: MAYP116268
Trigger mode: 0
Integration Time (sec): 1.000000E0
Scans to average: 1
Electric dark correction enabled: true
Nonlinearity correction enabled: true
Boxcar width: 10
XAxis mode: Wavelengths
Number of Pixels in Spectrum: 2068
>>>>>Begin Spectral Data<<<<<
179.565	1021.27
179.642	1067.49
179.718	1101.93
179.795	1131.81
179.871	1160.62
179.948	1173.69
180.024	1192.42
180.101	1208.31
180.177	1219.26
180.254	1237.75
180.33	1257.47
180.407	1296.71
180.483	1376.24
180.56	1450.4
180.636	1518.71
180.712	1507.84
180.789	1514.86
180.865	1525.02
180.942	1532.29
181.018	1541.74
181.095	1553.76
181.171	1559.17
181.248	1560.31
181.324	1572.71
181.4	1579.84
181.477	1589.77
181.553	1600.74
181.63	1615.94
181.706	1632.94
181.782	1639.16
181.859	1640.26
181.935	1644.58
182.011	1641.16
182.088	1657.36
182.164	1674.85
182.24	1688.67
182.317	1696.41
182.393	1693.99
182.469	1707.01
182.546	1720.64
182.622	1726.63
182.698	1721.59
182.775	1732.28
182.851	1741.79
182.927	1738.41
183.003	1733.66
183.08	1728.34
183.156	1738.65
183.232	1736.7
183.308	1727.25
183.385	1735.23
183.461	1750.39
183.537	1750.1
183.613	1759.94
183.69	1750.01
183.766	1741.12
183.842	1749.01
183.918	1753.24
183.995	1765.59
184.071	1767.2
184.147	1760.55
184.223	1750.95
184.299	1762.08
184.375	1750.06
184.452	1758.71
184.528	1807.38
184.604	1819.73
184.68	1829.57
184.756	1835.18
184.832	1841.41
184.908	1844.35
184.985	1845.64
185.061	1832.38
185.137	1841.41
185.213	1832.38
185.289	1834.42
185.365	1827.01
185.441	1823.26
185.517	1834.43
185.593	1832.05
185.669	1829.96
185.745	1841.75
185.822	1852.96
185.898	1844.31
185.974	1855.66
186.05	1848.3
186.126	1810.41
186.202	1802.47
186.278	1797.77
186.354	1790.83
186.43	1793.68
186.506	1792.83
186.582	1789.93
186.658	1796.25
186.734	1776.96
186.81	1781.23
186.886	1783.94
186.962	1797.67
187.038	1793.02
187.114	1789.26
187.19	1796.34
187.266	1789.21
187.341	1786.17
187.417	1780.56
187.493	1781.37
187.569	1783.42
187.645	1778.19
187.721	1768.59
187.797	1776.38
187.873	1778.52
187.949	1771.87
188.025	1768.68
188.101	1773.24
188.176	1779.18
188.252	1774.29
188.328	1785.69
188.404	1785.07
188.48	1782.79
188.556	1773.62
188.632	1774.71
188.707	1774
188.783	1773.57
188.859	1770.53
188.935	1764.12
189.011	1770.05
189.086	1764.54
189.162	1756.84
189.238	1755.89
189.314	1754.18
189.39	1745.58
189.465	1741.02
189.541	1755.47
189.617	1739.84
189.693	1732.8
189.768	1737.6
189.844	1760.38
189.92	1750.26
189.996	1759.29
190.071	1766.32
190.147	1767.41
190.223	1777.82
190.298	1769.27
190.374	1757.1
190.45	1767.79
190.526	1773.97
190.601	1770.36
190.677	1770.07
190.753	1794.28
190.828	1796.46
190.904	1811.77
190.98	1828.64
191.055	1840.9
191.131	1837.15
191.207	1856.11
191.282	1863.66
191.358	1852.97
191.433	1839.65
191.509	1851.53
191.585	1845.64
191.66	1848.01
191.736	1855
191.811	1846.54
191.887	1861.18
191.963	1881.29
192.038	1884.09
192.114	1884.85
192.189	1888.7
192.265	1886.52
192.34	1864.55
192.416	1864.5
192.491	1858.65
192.567	1859.03
192.642	1858.27
192.718	1854.99
192.793	1842.02
192.869	1840.21
192.944	1844.73
193.02	1850.38
193.095	1852
193.171	1858.23
193.246	1857.75
193.322	1853.24
193.397	1854.61
193.473	1841.64
193.548	1824
193.624	1829.18
193.699	1828.61
193.775	1839.21
193.85	1841.3
193.925	1851.9
194.001	1849.96
194.076	1844.3
194.152	1834.89
194.227	1826.28
194.302	1817.3
194.378	1822.29
194.453	1817.97
194.529	1826.19
194.604	1814.83
194.679	1812.31
194.755	1795.97
194.83	1806.47
194.905	1805.43
194.981	1811.94
195.056	1805.91
195.131	1813.56
195.207	1811.28
195.282	1800.96
195.357	1786.32
195.433	1799.96
195.508	1791.93
195.583	1798.34
195.659	1808.94
195.734	1817.36
195.809	1819.26
195.884	1827.72
195.96	1830
196.035	1846.59
196.11	1844.02
196.185	1852.43
196.261	1854.95
196.336	1881.52
196.411	1871.01
196.486	1878.81
196.561	1872.49
196.637	1881.18
196.712	1892.88
196.787	1897.06
196.862	1908.09
196.937	1917.88
197.013	1922.06
197.088	1929.81
197.163	1949.98
197.238	1965.11
197.313	1962.97
197.388	1975.42
197.464	1999.87
197.539	2009.14
197.614	2001.63
197.689	2012.71
197.764	2027.79
197.839	2046
197.914	2042.24
197.989	2060.22
198.065	2072.21
198.14	2117.94
198.215	2141.96
198.29	2154.52
198.365	2165.7
198.44	2176.49
198.515	2200.38
198.59	2213.65
198.665	2234.87
198.74	2243.2
198.815	2244.11
198.89	2263.18
198.965	2288.89
199.04	2287.31
199.115	2301.44
199.19	2339.32
199.265	2340.75
199.34	2347.13
199.415	2376.89
199.49	2397.64
199.565	2405.06
199.64	2425.01
199.715	2422.53
199.79	2426.67
199.865	2433.29
199.94	2431.1
200.015	2459.33
200.09	2465
200.165	2469.43
200.24	2476.57
200.315	2509.16
200.39	2523.64
200.464	2529.83
200.539	2529.97
200.614	2544.44
200.689	2563.82
200.764	2566.68
200.839	2585.67
200.914	2590.62
200.989	2580.52
201.063	2592.19
201.138	2576.54
201.213	2575.49
201.288	2558.73
201.363	2562.97
201.438	2563.25
201.512	2578.67
201.587	2565.77
201.662	2569.24
201.737	2581.72
201.812	2587.63
201.886	2557.75
201.961	2566.09
202.036	2558.61
202.111	2556.14
202.186	2533.72
202.26	2518
202.335	2503.71
202.41	2494.9
202.485	2483.05
202.559	2465.1
202.634	2440.39
202.709	2450.95
202.784	2433.01
202.858	2431.53
202.933	2414.73
203.008	2405.83
203.082	2387.6
203.157	2389.74
203.232	2352.24
203.306	2333.53
203.381	2305.26
203.456	2286.93
203.53	2266.55
203.605	2247.04
203.68	2230
203.754	2221.3
203.829	2206.93
203.904	2188.66
203.978	2178.52
204.053	2177.43
204.127	2166.3
204.202	2165.96
204.277	2150.93
204.351	2145.98
204.426	2141.32
204.5	2137.61
204.575	2108.55
204.65	2117.64
204.724	2106.31
204.799	2112.59
204.873	2107.26
204.948	2105.64
205.022	2093.14
205.097	2087.85
205.171	2099.74
205.246	2104.26
205.32	2103.74
205.395	2105.5
205.469	2096.7
205.544	2103.37
205.618	2091.09
205.693	2102.18
205.767	2088.48
205.842	2104.61
205.916	2099.99
205.991	2089.48
206.065	2093
206.14	2107.74
206.214	2103.41
206.289	2096.32
206.363	2109.16
206.438	2115.3
206.512	2124.39
206.586	2143.93
206.661	2148.03
206.735	2130.72
206.81	2132.1
206.884	2145.13
206.958	2135.29
207.033	2148.79
207.107	2154.6
207.181	2180.15
207.256	2176.2
207.33	2192.85
207.405	2206.42
207.479	2223.16
207.553	2231.3
207.628	2217.08
207.702	2226.64
207.776	2222.6
207.851	2228.16
207.925	2238.06
207.999	2232.88
208.073	2228.12
208.148	2229.45
208.222	2217.55
208.296	2244.28
208.371	2256.71
208.445	2266.32
208.519	2289.83
208.593	2299.25
208.668	2295.63
208.742	2298.49
208.816	2296.58
208.89	2311.82
208.965	2310.44
209.039	2317.58
209.113	2330.71
209.187	2351.45
209.261	2349.12
209.336	2369.88
209.41	2384.39
209.484	2387.58
209.558	2406.67
209.632	2417.62
209.707	2428.23
209.781	2448.18
209.855	2463.65
209.929	2479.43
210.003	2483.42
210.077	2482.95
210.151	2527.84
210.226	2558.9
210.3	2587.78
210.374	2610.91
210.448	2612.82
210.522	2619.58
210.596	2630.87
210.67	2639.11
210.744	2680.52
210.818	2710.13
210.892	2726.77
210.966	2726.62
211.041	2743.54
211.115	2743.39
211.189	2769.02
211.263	2789.17
211.337	2801.7
211.411	2818.34
211.485	2816.95
211.559	2835.15
211.633	2846.58
211.707	2826.22
211.781	2839
211.855	2814.26
211.929	2815.36
212.003	2811.83
212.077	2834.96
212.151	2856.27
212.225	2884.49
212.299	2887.49
212.373	2894.64
212.447	2911.91
212.52	2959.97
212.594	2982.67
212.668	3018.33
212.742	3031.78
212.816	3054.87
212.89	3078.14
212.964	3107.34
213.038	3148
213.112	3197.44
213.186	3249.29
213.26	3270.66
213.333	3275.62
213.407	3326.99
213.481	3378.79
213.555	3440
213.629	3482.98
213.703	3529.16
213.777	3586.15
213.85	3637.6
213.924	3733.79
213.998	3799.98
214.072	3864.53
214.146	3927.81
214.219	4004.59
214.293	4085.18
214.367	4172.98
214.441	4273.03
214.515	4355.56
214.588	4426.94
214.662	4490.11
214.736	4570.45
214.81	4684.45
214.883	4800.53
214.957	4907.48
215.031	5010.89
215.105	5110.47
215.178	5216.4
215.252	5332.9
215.326	5436.53
215.4	5543.56
215.473	5627.2
215.547	5743.28
215.621	5866.89
215.694	6005.85
215.768	6123.99
215.842	6256.36
215.915	6384.08
215.989	6506.53
216.063	6646.1
216.136	6796.34
216.21	6946.95
216.284	7109.97
216.357	7258.22
216.431	7406.44
216.504	7562.87
216.578	7739.42
216.652	7900.85
216.725	8061.05
216.799	8227.9
216.873	8385.44
216.946	8555.02
217.02	8711.77
217.093	8866.79
217.167	9002.28
217.24	9154.13
217.314	9311.3
217.387	9467.01
217.461	9620.62
217.535	9788.5
217.608	9937.32
217.682	10099.36
217.755	10273.45
217.829	10420.14
217.902	10587.22
217.976	10755.57
218.049	10905.23
218.123	11047.86
218.196	11216.23
218.27	11364.32
218.343	11509.2
218.417	11666.31
218.49	11817.98
218.563	11988.55
218.637	12151.27
218.71	12329.03
218.784	12485.73
218.857	12652.65
218.931	12798.75
219.004	12958.31
219.077	13117.09
219.151	13275.64
219.224	13416.92
219.298	13557.01
219.371	13719.46
219.444	13846.77
219.518	13976.44
219.591	14125.78
219.665	14296.96
219.738	14435.88
219.811	14569.07
219.885	14708.09
219.958	14849.04
220.031	14979.62
220.105	15113.68
220.178	15240.74
220.251	15369.77
220.325	15498.32
220.398	15619.16
220.471	15751.14
220.544	15872.07
220.618	15977.63
220.691	16091.67
220.764	16220.31
220.838	16345.33
220.911	16444.91
220.984	16573.21
221.057	16688.21
221.131	16798.92
221.204	16873.33
221.277	16993.28
221.35	17123.6
221.424	17211.56
221.497	17311.56
221.57	17412.48
221.643	17511.47
221.716	17607.13
221.79	17685.73
221.863	17774.79
221.936	17864.48
222.009	17954.69
222.082	18041.72
222.155	18126.25
222.229	18224.08
222.302	18299.02
222.375	18371.64
222.448	18461.08
222.521	18539.92
222.594	18617.94
222.667	18675.67
222.74	18754.99
222.814	18816.44
222.887	18887.08
222.96	18973.15
223.033	19045.72
223.106	19119.7
223.179	19189.38
223.252	19253.37
223.325	19313.47
223.398	19377.85
223.471	19439.58
223.544	19484.49
223.617	19540.1
223.69	19594.08
223.763	19636
223.837	19691.13
223.91	19740.09
223.983	19765.39
224.056	19802.74
224.129	19856.72
224.202	19911.89
224.275	19948.71
224.348	19965.67
224.42	19988.66
224.493	20019.94
224.566	20054.68
224.639	20085
224.712	20104.32
224.785	20135.12
224.858	20166.49
224.931	20186.44
225.004	20208.7
225.077	20247.11
225.15	20251.31
225.223	20287.74
225.296	20334
225.369	20343.59
225.442	20364.17
225.514	20399.93
225.587	20430.34
225.66	20442.87
225.733	20479.4
225.806	20505.52
225.879	20535.88
225.952	20543.45
226.025	20558.73
226.097	20593.04
226.17	20613.28
226.243	20617.96
226.316	20635.31
226.389	20667.6
226.461	20687.41
226.534	20701.33
226.607	20714.15
226.68	20755.94
226.753	20762.2
226.825	20750.25
226.898	20777.67
226.971	20789
227.044	20801.38
227.117	20806.88
227.189	20823.02
227.262	20826.93
227.335	20837.67
227.407	20853.72
227.48	20880.76
227.553	20898.3
227.626	20896.38
227.698	20903.36
227.771	20925.29
227.844	20927.61
227.916	20929.73
227.989	20927.51
228.062	20933.29
228.134	20968.43
228.207	20971.27
228.28	20970.02
228.352	20972.24
228.425	20980.28
228.498	20997.68
228.57	20988.38
228.643	21005.97
228.716	21004.82
228.788	21007.13
228.861	21017.68
228.934	21031.08
229.006	21020.29
229.079	21032.96
229.151	21018.65
229.224	21007.37
229.296	21006.31
229.369	21033.06
229.442	21040.72
229.514	21031.23
229.587	21044.58
229.659	21019.23
229.732	21017.93
229.804	21034.94
229.877	21063.67
229.949	21067.42
230.022	21084.01
230.094	21092.15
230.167	21088.29
230.239	21088.29
230.312	21073.64
230.384	21091.38
230.457	21083.81
230.529	21084.44
230.602	21073.45
230.674	21082.99
230.747	21090.7
230.819	21105.79
230.892	21072.87
230.964	21070.12
231.037	21079.57
231.109	21067.86
231.181	21072.2
231.254	21066.32
231.326	21054.22
231.399	21042.31
231.471	21026.17
231.544	20981.83
231.616	20986.89
231.688	20969.73
231.761	20957.34
231.833	20946.98
231.905	20910.02
231.978	20901.77
232.05	20886.3
232.122	20878.4
232.195	20869.19
232.267	20867.65
232.339	20838.45
232.412	20841
232.484	20824.18
232.556	20807.22
232.629	20817.38
232.701	20811.46
232.773	20794.78
232.846	20777.19
232.918	20756.61
232.99	20749.82
233.062	20757.82
233.135	20747.26
233.207	20738.97
233.279	20728.95
233.351	20720.8
233.424	20697.14
233.496	20672.03
233.568	20683.36
233.64	20657.57
233.713	20635.69
233.785	20616.61
233.857	20613.86
233.929	20578.78
234.001	20573.76
234.074	20572.08
234.146	20541.67
234.218	20518.29
234.29	20500.56
234.362	20476.85
234.434	20445.71
234.507	20417.62
234.579	20383.35
234.651	20362.49
234.723	20342.97
234.795	20324.94
234.867	20302.49
234.939	20304.27
235.012	20285.72
235.084	20268.32
235.156	20247.79
235.228	20223.93
235.3	20203.84
235.372	20181.43
235.444	20179.74
235.516	20147.11
235.588	20127.98
235.66	20102.78
235.732	20069
235.804	20101.91
235.876	20093.04
235.948	20094.15
236.02	20069.43
236.092	20043.6
236.164	20017.87
236.236	19993.96
236.308	19967.46
236.38	19957.72
236.452	19926.16
236.524	19910.21
236.596	19897.73
236.668	19879.56
236.74	19864.76
236.812	19847.8
236.884	19823.75
236.956	19798.07
237.028	19761.93
237.1	19733.54
237.172	19725.2
237.244	19718.94
237.316	19658.89
237.388	19624.53
237.46	19577.79
237.532	19563.52
237.604	19538.51
237.675	19517.84
237.747	19506.8
237.819	19483
237.891	19456.2
237.963	19419.87
238.035	19388.02
238.107	19324.41
238.178	19312.65
238.25	19275.11
238.322	19270.19
238.394	19221.28
238.466	19192.12
238.538	19175.79
238.609	19150.68
238.681	19092.76
238.753	19057.72
238.825	19019.89
238.897	18998.88
238.968	18994.06
239.04	18962.07
239.112	18969.97
239.184	18938.94
239.255	18896.29
239.327	18871.08
239.399	18835.47
239.471	18820.05
239.542	18801.84
239.614	18790.32
239.686	18735.91
239.758	18718.66
239.829	18672.06
239.901	18671.05
239.973	18634.71
240.044	18614.33
240.116	18585.56
240.188	18567.63
240.259	18545.18
240.331	18512.21
240.403	18487.3
240.474	18439.16
240.546	18397.57
240.618	18333.57
240.689	18296.76
240.761	18274.39
240.833	18259.36
240.904	18226.93
240.976	18194.06
241.048	18163.56
241.119	18131.94
241.191	18115.9
241.262	18096.48
241.334	18060.53
241.405	18022.17
241.477	17996.29
241.549	17957.4
241.62	17924.58
241.692	17895.09
241.763	17866.03
241.835	17835.95
241.906	17799.52
241.978	17755.62
242.049	17741.88
242.121	17725.31
242.192	17709.64
242.264	17667.57
242.335	17614.03
242.407	17588.39
242.478	17548.1
242.55	17511.72
242.621	17482.03
242.693	17449.79
242.764	17413.79
242.836	17370.51
242.907	17345.16
242.979	17319.09
243.05	17287.09
243.122	17258.85
243.193	17234.9
243.264	17186.7
243.336	17156.05
243.407	17133.26
243.479	17125.69
243.55	17097.64
243.622	17070.94
243.693	17030.61
243.764	17010.17
243.836	16977.74
243.907	16946.36
243.978	16914.36
244.05	16889.59
244.121	16842.74
244.192	16806.3
244.264	16759.84
244.335	16738.16
244.407	16689
244.478	16656.46
244.549	16626.05
244.62	16580.12
244.692	16535.06
244.763	16507.92
244.834	16470.33
244.906	16438.33
244.977	16408.06
245.048	16386.13
245.119	16345.45
245.191	16308.44
245.262	16256.43
245.333	16234.7
245.405	16205.92
245.476	16181.53
245.547	16151.94
245.618	16131.02
245.689	16098.87
245.761	16074.73
245.832	16040.07
245.903	16025.27
245.974	15999.2
246.045	15962.81
246.117	15951
246.188	15909.69
246.259	15869.3
246.33	15835.56
246.401	15793.05
246.473	15743.69
246.544	15711.49
246.615	15685.61
246.686	15650.28
246.757	15633.41
246.828	15594.9
246.899	15575.86
246.97	15533.25
247.042	15495.17
247.113	15470.3
247.184	15474.64
247.255	15430.82
247.326	15405.56
247.397	15363.63
247.468	15327.43
247.539	15302.27
247.61	15255.32
247.681	15237.68
247.752	15228.47
247.823	15191.3
247.894	15166.96
247.965	15133.94
248.037	15094.66
248.108	15053.35
248.179	15026.74
248.25	14993.14
248.321	14966.73
248.392	14924.31
248.463	14911.34
248.534	14874.46
248.605	14852.48
248.675	14808.72
248.746	14795.75
248.817	14768.32
248.888	14746
248.959	14704.07
249.03	14679.05
249.101	14654.27
249.172	14621.2
249.243	14571.07
249.314	14562.73
249.385	14536.51
249.456	14522.96
249.527	14499.39
249.598	14480.49
249.669	14449.45
249.739	14430.7
249.81	14412.38
249.881	14374.97
249.952	14344.12
250.023	14324.55
250.094	14285.74
250.165	14248.82
250.235	14214.35
250.306	14185.57
250.377	14150.96
250.448	14132.79
250.519	14087.28
250.59	14079.33
250.66	14056.48
250.731	14041.44
250.802	14011.79
250.873	13982.58
250.944	13956.06
251.014	13919.62
251.085	13911.42
251.156	13891.47
251.227	13875.46
251.297	13863.84
251.368	13852.37
251.439	13840.95
251.51	13831.55
251.58	13795.54
251.651	13762.42
251.722	13747.18
251.792	13710.16
251.863	13686.54
251.934	13675.02
252.005	13678.54
252.075	13649.9
252.146	13634.28
252.217	13619.2
252.287	13603.91
252.358	13582.9
252.429	13574.85
252.499	13542.74
252.57	13516.61
252.641	13496.32
252.711	13472.7
252.782	13426.8
252.852	13425.26
252.923	13395.08
252.994	13364.47
253.064	13351.21
253.135	13323.93
253.205	13294.52
253.276	13290.33
253.347	13277.56
253.417	13245.06
253.488	13212.43
253.558	13188.47
253.629	13163.4
253.699	13151.78
253.77	13143.3
253.841	13120.26
253.911	13099.67
253.982	13080.92
254.052	13065.78
254.123	13045.2
254.193	13023.17
254.264	13043.42
254.334	13006.88
254.405	12977.57
254.475	12943.87
254.546	12924.59
254.616	12918.71
254.687	12895.91
254.757	12875.42
254.827	12851.27
254.898	12834.98
254.968	12814.49
255.039	12779.39
255.109	12759.05
255.18	12721.31
255.25	12671.27
255.321	12657.44
255.391	12617.86
255.461	12621.04
255.532	12570.76
255.602	12549.79
255.673	12510.56
255.743	12470.88
255.813	12429.14
255.884	12419.45
255.954	12406.38
256.024	12395.92
256.095	12375.34
256.165	12346.42
256.235	12331.67
256.306	12304.19
256.376	12292.91
256.446	12278.07
256.517	12265.24
256.587	12258.93
256.657	12236.81
256.728	12215.69
256.798	12192.07
256.868	12173.85
256.938	12137.75
257.009	12134.52
257.079	12118.95
257.149	12123.48
257.219	12085.26
257.29	12073.3
257.36	12032.81
257.43	12025.05
257.5	11984.76
257.571	11958.92
257.641	11955.07
257.711	11922.67
257.781	11914.24
257.852	11895.73
257.922	11862.18
257.992	11842.42
258.062	11816.49
258.132	11809.35
258.202	11790.56
258.273	11776.34
258.343	11770.17
258.413	11749.92
258.483	11728.19
258.553	11704.23
258.623	11665.48
258.693	11650.97
258.764	11643.31
258.834	11640.95
258.904	11614.29
258.974	11592.7
259.044	11569.47
259.114	11550.91
259.184	11531.39
259.254	11507.34
259.324	11470.14
259.394	11461.8
259.464	11460.98
259.535	11440.01
259.605	11414.28
259.675	11396.06
259.745	11375.43
259.815	11341.93
259.885	11317.02
259.955	11322.32
260.025	11292.68
260.095	11280.25
260.165	11267.91
260.235	11257.4
260.305	11228.39
260.375	11202.71
260.445	11204.01
260.515	11193.55
260.585	11184.2
260.655	11174.17
260.725	11171.23
260.795	11165.64
260.865	11161.69
260.934	11133.26
261.004	11124.49
261.074	11114.99
261.144	11114.46
261.214	11109.64
261.284	11093.65
261.354	11083.81
261.424	11051.67
261.494	11054.46
261.564	11038.61
261.634	11026.32
261.703	10991.62
261.773	10982.76
261.843	10978.52
261.913	10967.53
261.983	10940.11
262.053	10929.7
262.123	10903.68
262.192	10871.68
262.262	10860.46
262.332	10828.03
262.402	10817.76
262.472	10804.32
262.541	10771.55
262.611	10762.2
262.681	10741.19
262.751	10733.77
262.821	10712.76
262.89	10691.85
262.96	10675.18
263.03	10677.15
263.1	10667.9
263.169	10655.57
263.239	10646.17
263.309	10646.8
263.379	10631.04
263.448	10620.49
263.518	10606.08
263.588	10597.51
263.657	10597.84
263.727	10586.62
263.797	10573.32
263.867	10553.42
263.936	10524.7
264.006	10518.87
264.076	10494.64
264.145	10469.92
264.215	10451.52
264.285	10443.71
264.354	10410.95
264.424	10393.75
264.494	10363.4
264.563	10335.5
264.633	10341.04
264.702	10327.36
264.772	10286.89
264.842	10263.09
264.911	10255.48
264.981	10227.92
265.05	10216.21
265.12	10194.58
265.19	10185.04
265.259	10178.78
265.329	10170.49
265.398	10156.04
265.468	10165.19
265.537	10140.48
265.607	10133.69
265.676	10126.51
265.746	10119.09
265.815	10119.72
265.885	10106.04
265.955	10083.93
266.024	10071.64
266.094	10037.92
266.163	10041.44
266.232	10042.64
266.302	10034.16
266.371	10024.96
266.441	10014.94
266.51	10006.18
266.58	9994.57
266.649	9976.36
266.719	9971.88
266.788	9961.57
266.858	9964.85
266.927	9928.24
266.996	9928.48
267.066	9921.73
267.135	9897.7
267.205	9888.98
267.274	9874.38
267.343	9867.5
267.413	9854.2
267.482	9855.41
267.552	9853.29
267.621	9824.44
267.69	9799.34
267.76	9783.3
267.829	9768.85
267.898	9752.53
267.968	9725.27
268.037	9714.62
268.106	9706.87
268.176	9674.94
268.245	9657.12
268.314	9633.71
268.384	9633.23
268.453	9614.44
268.522	9601.44
268.592	9596.77
268.661	9582.85
268.73	9571.82
268.799	9556.65
268.869	9562.67
268.938	9529.63
269.007	9507.96
269.076	9494.96
269.146	9494.62
269.215	9489.81
269.284	9493.18
269.353	9483.55
269.422	9478.64
269.492	9454.61
269.561	9415.07
269.63	9409.68
269.699	9397.64
269.768	9391.77
269.838	9380.88
269.907	9376.74
269.976	9352.38
270.045	9329.6
270.114	9319.39
270.183	9303.74
270.253	9297.29
270.322	9265.66
270.391	9256.85
270.46	9258.44
270.529	9256.12
270.598	9254.01
270.667	9239.46
270.736	9215.77
270.806	9202.34
270.875	9198.78
270.944	9191.27
271.013	9211.15
271.082	9206.72
271.151	9200.61
271.22	9179.9
271.289	9168.83
271.358	9160.35
271.427	9158.77
271.496	9148.8
271.565	9137.63
271.634	9134.4
271.703	9146.3
271.772	9153.28
271.841	9140.38
271.91	9126.85
271.979	9117.7
272.048	9094.54
272.117	9093.43
272.186	9080.97
272.255	9080.77
272.324	9075.81
272.393	9072.73
272.462	9056.56
272.531	9049.48
272.6	9040.48
272.669	9039.27
272.738	9023.34
272.807	9014.14
272.876	8992.43
272.945	9014.91
273.013	9015.11
273.082	9017.42
273.151	8984.77
273.22	8979.14
273.289	8978.52
273.358	8981.4
273.427	8968.12
273.496	8966.24
273.564	8962.77
273.633	8969.13
273.702	8951.27
273.771	8939.62
273.84	8937.65
273.909	8938.99
273.977	8931.1
274.046	8916.47
274.115	8915.21
274.184	8901.83
274.253	8892.98
274.322	8900.15
274.39	8872.04
274.459	8857.88
274.528	8833.19
274.597	8821.49
274.665	8810.57
274.734	8812.4
274.803	8800.36
274.872	8795.6
274.94	8779.71
275.009	8820.6
275.078	8804.37
275.147	8796.72
275.215	8791.91
275.284	8791.19
275.353	8777.23
275.421	8761.01
275.49	8776.12
275.559	8768.03
275.627	8760.91
275.696	8749.31
275.765	8746.86
275.833	8743.88
275.902	8741.08
275.971	8748.11
276.039	8763.46
276.108	8768.95
276.177	8766.35
276.245	8760.48
276.314	8754.22
276.383	8756.29
276.451	8703.66
276.52	8701.98
276.588	8721.14
276.657	8727.87
276.725	8713.68
276.794	8712.67
276.863	8717.77
276.931	8696.88
277	8702.27
277.068	8711.32
277.137	8731.43
277.205	8727.92
277.274	8734.51
277.342	8739.42
277.411	8723.3
277.48	8708.09
277.548	8699.67
277.617	8699.14
277.685	8685.28
277.754	8691.54
277.822	8684.37
277.89	8695.44
277.959	8691.3
278.027	8665.17
278.096	8647.26
278.164	8678.02
278.233	8669.69
278.301	8659.92
278.37	8660.84
278.438	8649.77
278.507	8651.74
278.575	8626.04
278.643	8625.94
278.712	8611.27
278.78	8598.9
278.849	8608.47
278.917	8617.71
278.985	8612.42
279.054	8614.78
279.122	8628.88
279.191	8620.65
279.259	8614.1
279.327	8595.91
279.396	8609.48
279.464	8607.46
279.532	8627.05
279.601	8621.75
279.669	8615.26
279.737	8630.8
279.806	8637.25
279.874	8645.92
279.942	8645.48
280.011	8641.63
280.079	8646.64
280.147	8661.22
280.215	8665.84
280.284	8661.22
280.352	8643.66
280.42	8650.34
280.488	8637.06
280.557	8625.99
280.625	8633.36
280.693	8639.61
280.761	8639.23
280.83	8623.73
280.898	8632.49
280.966	8613.09
281.034	8579.83
281.102	8570.55
281.171	8562.12
281.239	8564
281.307	8550.67
281.375	8541.24
281.443	8568.38
281.512	8560.68
281.58	8567.32
281.648	8548.8
281.716	8546.2
281.784	8552.74
281.852	8546
281.92	8550.43
281.989	8561.64
282.057	8544.66
282.125	8576.33
282.193	8573.59
282.261	8574.93
282.329	8574.84
282.397	8572.14
282.465	8579.84
282.533	8596.25
282.601	8580.27
282.67	8564.97
282.738	8557.46
282.806	8567.38
282.874	8556.45
282.942	8556.84
283.01	8545.77
283.078	8559.53
283.146	8555.63
283.214	8561.89
283.282	8560.83
283.35	8571.27
283.418	8568.67
283.486	8573.29
283.554	8540.51
283.622	8536.52
283.69	8531.23
283.758	8526.89
283.826	8529.45
283.894	8537.19
283.962	8552.98
284.03	8569.1
284.098	8570.16
284.165	8569.82
284.233	8564.87
284.301	8555.1
284.369	8554.33
284.437	8550.24
284.505	8541
284.573	8559.33
284.641	8547.35
284.709	8555.48
284.777	8532.81
284.845	8535.7
284.912	8536.9
284.98	8536.86
285.048	8539.84
285.116	8541.77
285.184	8550.81
285.252	8552.4
285.319	8537.53
285.387	8529.06
285.455	8513.37
285.523	8519.39
285.591	8519.53
285.659	8522.47
285.726	8529.97
285.794	8515.44
285.862	8509.23
285.93	8510.63
285.997	8504.37
286.065	8499.27
286.133	8489.98
286.201	8494.07
286.269	8476.65
286.336	8465.59
286.404	8458.95
286.472	8464.05
286.539	8452.4
286.607	8441.34
286.675	8440.66
286.743	8446.48
286.81	8432.77
286.878	8446.87
286.946	8437.44
287.013	8436.38
287.081	8430.89
287.149	8420.5
287.216	8433.73
287.284	8431.56
287.352	8429.21
287.419	8420.88
287.487	8435.51
287.555	8441.14
287.622	8440.27
287.69	8449.56
287.758	8464
287.825	8466.98
287.893	8456.63
287.96	8461.93
288.028	8465.2
288.096	8463.08
288.163	8468.86
288.231	8465.05
288.298	8468.23
288.366	8479.35
288.433	8474.15
288.501	8471.7
288.569	8477.86
288.636	8473.33
288.704	8486.95
288.771	8491.76
288.839	8488.35
288.906	8478.58
288.974	8485.99
289.041	8481.61
289.109	8476.37
289.176	8485.42
289.244	8488.64
289.311	8496.63
289.379	8497.69
289.446	8506.73
289.514	8509.57
289.581	8506.69
289.649	8509.09
289.716	8510.05
289.783	8503.32
289.851	8523.67
289.918	8519.82
289.986	8528.63
290.053	8529.88
290.121	8527.91
290.188	8534.79
290.255	8562.08
290.323	8568.96
290.39	8564.72
290.458	8574.39
290.525	8587.58
290.592	8583.49
290.66	8584.4
290.727	8581.47
290.794	8598.31
290.862	8597.16
290.929	8601.87
290.996	8603.36
291.064	8612.36
291.131	8623.38
291.198	8634.12
291.266	8634.98
291.333	8640.32
291.4	8639.75
291.468	8656.64
291.535	8655.1
291.602	8656.5
291.669	8644.61
291.737	8637.97
291.804	8639.46
291.871	8651.68
291.938	8659
292.006	8686.05
292.073	8697.94
292.14	8710.69
292.207	8700.11
292.275	8705.3
292.342	8715.22
292.409	8737.99
292.476	8760.85
292.543	8748.96
292.611	8758.25
292.678	8773.03
292.745	8796.32
292.812	8810.33
292.879	8812.83
292.946	8815.77
293.014	8826.5
293.081	8836.23
293.148	8852.06
293.215	8867.75
293.282	8865.49
293.349	8876.03
293.416	8858.7
293.484	8870.21
293.551	8879.06
293.618	8901.97
293.685	8923.06
293.752	8915.17
293.819	8913.19
293.886	8900
293.953	8907.99
294.02	8910.93
294.087	8914.44
294.154	8903.9
294.221	8914.68
294.288	8912.76
294.356	8929.03
294.423	8936.06
294.49	8933.94
294.557	8952.52
294.624	8946.6
294.691	8964.51
294.758	8962.2
294.825	8971.3
294.892	8964.51
294.959	8965.09
295.026	8969.37
295.093	8962.87
295.16	8966.1
295.226	8969.22
295.293	8992.62
295.36	9001.96
295.427	9017.13
295.494	9032.92
295.561	9046.93
295.628	9067.3
295.695	9084.39
295.762	9090.31
295.829	9100.71
295.896	9112.65
295.963	9114.81
296.03	9122.08
296.096	9125.55
296.163	9130.99
296.23	9133.01
296.297	9144.61
296.364	9149.48
296.431	9156.79
296.498	9155.64
296.564	9174.89
296.631	9177.45
296.698	9166.95
296.765	9183.99
296.832	9169.69
296.899	9158.19
296.965	9171.96
297.032	9157.37
297.099	9170.61
297.166	9173.45
297.233	9172.39
297.299	9168.44
297.366	9174.94
297.433	9177.11
297.5	9187.22
297.566	9196.27
297.633	9203.88
297.7	9212.06
297.767	9211.29
297.833	9216.54
297.9	9219.57
297.967	9211.39
298.033	9224.73
298.1	9246.16
298.167	9240.76
298.234	9246.88
298.3	9254.72
298.367	9250.15
298.434	9254.44
298.5	9242.73
298.567	9239.03
298.634	9237.44
298.7	9252.6
298.767	9253.13
298.834	9268.69
298.9	9261.46
298.967	9254.82
299.033	9265.17
299.1	9272.88
299.167	9286.89
299.233	9286.5
299.3	9302.73
299.366	9324.59
299.433	9333.21
299.5	9319.29
299.566	9318.52
299.633	9338.75
299.699	9352.47
299.766	9351.27
299.832	9356.85
299.899	9373.37
299.965	9388.34
300.032	9385.65
300.099	9396.92
300.165	9399.61
300.232	9395.9
300.298	9397.45
300.365	9408.71
300.431	9412.81
300.498	9412.85
300.564	9417.14
300.631	9419.02
300.697	9424.41
300.763	9418.44
300.83	9415.21
300.896	9425.66
300.963	9439.39
301.029	9441.17
301.096	9445.5
301.162	9457.73
301.229	9448.3
301.295	9440.16
301.361	9447.81
301.428	9454.6
301.494	9438.86
301.561	9446.42
301.627	9448.54
301.693	9451.09
301.76	9453.4
301.826	9444.15
301.892	9456.34
301.959	9462.45
302.025	9466.93
302.092	9465.92
302.158	9473.63
302.224	9482.05
302.291	9474.01
302.357	9468.67
302.423	9465.87
302.49	9455.81
302.556	9466.07
302.622	9471.12
302.688	9479.98
302.755	9488.41
302.821	9490.58
302.887	9505.12
302.954	9497.9
303.02	9506.71
303.086	9512.63
303.152	9508.64
303.219	9504.88
303.285	9505.12
303.351	9511.14
303.417	9512.39
303.483	9501.03
303.55	9493.18
303.616	9487.69
303.682	9489.66
303.748	9484.08
303.815	9500.02
303.881	9502.91
303.947	9491.88
304.013	9489.33
304.079	9477.82
304.145	9458.36
304.212	9458.65
304.278	9444.4
304.344	9442.91
304.41	9429.08
304.476	9424.17
304.542	9419.36
304.608	9425.23
304.674	9415.22
304.741	9409.53
304.807	9405.05
304.873	9414.49
304.939	9424.89
305.005	9407.94
305.071	9407.94
305.137	9409.2
305.203	9376.4
305.269	9376.26
305.335	9385.21
305.401	9386.85
305.467	9385.74
305.533	9391.86
305.599	9400.33
305.666	9406.06
305.732	9405.34
305.798	9415.98
305.864	9436.31
305.93	9442.47
305.996	9441.36
306.062	9433.51
306.128	9427.3
306.194	9423.35
306.259	9424.46
306.325	9417.53
306.391	9428.99
306.457	9426.67
306.523	9435.54
306.589	9453.88
306.655	9445.17
306.721	9430.43
306.787	9415.84
306.853	9433.23
306.919	9417.38
306.985	9407.8
307.051	9405.15
307.117	9400.67
307.183	9393.07
307.248	9365.76
307.314	9368.07
307.38	9368.41
307.446	9377.51
307.512	9366.68
307.578	9363.3
307.644	9351.89
307.709	9346.98
307.775	9345.97
307.841	9343.08
307.907	9337.83
307.973	9328.63
308.039	9333.79
308.104	9342.02
308.17	9340.09
308.236	9319.39
308.302	9320.98
308.368	9310.72
308.433	9308.12
308.499	9303.26
308.565	9283.42
308.631	9289.92
308.696	9270.81
308.762	9255.16
308.828	9251.5
308.894	9236.24
308.959	9220.64
309.025	9215.15
309.091	9216.74
309.156	9202.92
309.222	9211.54
309.288	9191.75
309.354	9169.02
309.419	9165.7
309.485	9150.87
309.551	9150.05
309.616	9135.9
309.682	9131.23
309.748	9125.59
309.813	9118.71
309.879	9107.73
309.945	9101.38
310.01	9086.31
310.076	9092.09
310.141	9093.87
310.207	9075.72
310.273	9079.23
310.338	9082.89
310.404	9072.1
310.469	9060.69
310.535	9050.87
310.601	9024.3
310.666	9034.55
310.732	9042.83
310.797	9026.61
310.863	9011.49
310.928	9010.14
310.994	9010.57
311.059	9008.41
311.125	9005.42
311.191	9015.77
311.256	9009.9
311.322	9021.21
311.387	9002.06
311.453	9211.68
311.518	9186.94
311.584	9186.55
311.649	9188.09
311.715	9176.83
311.78	9177.26
311.846	9167.06
311.911	9177.94
311.976	9179
312.042	9159.98
312.107	9145.59
312.173	9134.08
312.238	9127.68
312.304	9119.55
312.369	9110.16
312.434	9098.08
312.5	9088.35
312.565	9053.26
312.631	9053.31
312.696	9040.41
312.761	9050.8
312.827	8824.19
312.892	8857.45
312.958	8857.26
313.023	8853.31
313.088	8853.98
313.154	8838.82
313.219	8825.01
313.284	8807.92
313.35	8807.29
313.415	8801.42
313.48	8797.23
313.546	8804.65
313.611	8811.43
313.676	8811
313.741	8805.8
313.807	8816.97
313.872	8817.02
313.937	8831.02
314.003	8840.84
314.068	8844.98
314.133	8841.33
314.198	8832.71
314.264	8809.12
314.329	8799.01
314.394	8794.15
314.459	8788.95
314.525	8800.5
314.59	8802.38
314.655	8796.36
314.72	8801.37
314.785	8798.58
314.851	8788.81
314.916	8770.38
314.981	8760.12
315.046	8743.18
315.111	8733.6
315.176	8715.6
315.242	8720.66
315.307	8714.3
315.372	8695
315.437	8681.72
315.502	8677.96
315.567	8682.34
315.632	8668.58
315.698	8667.57
315.763	8663.62
315.828	8655.1
315.893	8650.48
315.958	8644.56
316.023	8635.22
316.088	8617.22
316.153	8606.92
316.218	8604.04
316.283	8584.31
316.348	8564.87
316.413	8566.12
316.479	8551.25
316.544	8516.76
316.609	8484.23
316.674	8451.8
316.739	8414.32
316.804	8382.95
316.869	8342.34
316.934	8305.87
316.999	8274.31
317.064	8222.64
317.129	8173.81
317.194	8132.44
317.259	8081.25
317.324	8028.54
317.389	7978.47
317.454	7935.71
317.518	7895.74
317.583	7864.08
317.648	7839.41
317.713	7798.2
317.778	7740.82
317.843	7710.43
317.908	7673.99
317.973	7638.11
318.038	7604.26
318.103	7570.9
318.168	7538.3
318.233	7513.88
318.297	7465.47
318.362	7427.3
318.427	7391.83
318.492	7365.1
318.557	7321.47
318.622	7294.26
318.687	7268.94
318.751	7233.72
318.816	7196.52
318.881	7160.33
318.946	7105.93
319.011	7056.2
319.075	7018.49
319.14	6980.78
319.205	6931.39
319.27	6895.6
319.335	6846.42
319.399	6802.65
319.464	6770.33
319.529	6716.68
319.594	6668.56
319.658	6636.72
319.723	6596.57
319.788	6559.84
319.853	6504.52
319.917	6473.42
319.982	6416.09
320.047	6377.06
320.112	6348.35
320.176	6300.01
320.241	6261.65
320.306	6231.08
320.37	6186.22
320.435	6152.38
320.5	6117.25
320.564	6076.33
320.629	6038.57
320.694	6006.76
320.758	5966.51
320.823	5923.09
320.888	5895.03
320.952	5848.18
321.017	5808.84
321.082	5766.11
321.146	5729.42
321.211	5697.39
321.275	5654.96
321.34	5616.09
321.405	5573.27
321.469	5522.31
321.534	5478.65
321.598	5425.73
321.663	5390.02
321.727	5361.89
321.792	5312.05
321.857	5274.62
321.921	5237.53
321.986	5187.91
322.05	5131.34
322.115	5092.2
322.179	5048.13
322.244	4993.01
322.308	4959.63
322.373	4910.5
322.437	4872.67
322.502	4842.26
322.566	4799.64
322.631	4766.7
322.695	4726.16
322.76	4678.93
322.824	4648.68
322.889	4606.33
322.953	4566.48
323.018	4510.16
323.082	4447.64
323.146	4398.91
323.211	4345.09
323.275	4299.03
323.34	4256.63
323.404	4224.21
323.468	4180.07
323.533	4134.56
323.597	4089.79
323.662	4036.73
323.726	4000.07
323.79	3952.23
323.855	3893.04
323.919	3841.87
323.983	3793.08
324.048	3725.33
324.112	3840.92
324.177	3708.66
324.241	3513.9
324.305	3320.86
324.37	3129.58
324.434	2952.45
324.498	2910.28
324.562	2859.44
324.627	2802.56
324.691	2750.56
324.755	2684.92
324.82	2609.98
324.884	2534.59
324.948	2463.79
325.012	2376.68
325.077	2259.42
