Data from 20250702_reference_H2O_MAYP1162681_11-33-37-280.txt Node
Date: Wed Jul 02 11:33:37 BST 2025
User: adleo
Spectrometer: MAYP116268
Trigger mode: 0
Integration Time (sec): 1.000000E0
Scans to average: 1
Electric dark correction enabled: true
Nonlinearity correction enabled: true
Boxcar width: 10
XAxis mode: Wavelengths
Number of Pixels in Spectrum: 2068
>>>>>Begin Spectral Data<<<<<
179.565	1027.24
179.642	1073.4
179.718	1109.85
179.795	1139.74
179.871	1165.51
179.948	1178.78
180.024	1195.64
180.101	1215.84
180.177	1227.46
180.254	1249.14
180.33	1266.66
180.407	1306.61
180.483	1390.04
180.56	1464.48
180.636	1535.83
180.712	1523.82
180.789	1534.22
180.865	1546.09
180.942	1552.5
181.018	1559.33
181.095	1569.22
181.171	1573.63
181.248	1572.92
181.324	1586.51
181.4	1592.97
181.477	1604.61
181.553	1618.24
181.63	1637.57
181.706	1650.54
181.782	1657.71
181.859	1654.25
181.935	1659.8
182.011	1655.43
182.088	1669.74
182.164	1687.99
182.24	1700.81
182.317	1708.36
182.393	1705.75
182.469	1717.68
182.546	1730.84
182.622	1737.39
182.698	1733.16
182.775	1743.24
182.851	1756.4
182.927	1750.46
183.003	1745.14
183.08	1739.06
183.156	1745.61
183.232	1740.62
183.308	1732.93
183.385	1740.53
183.461	1757.68
183.537	1757.59
183.613	1768.71
183.69	1758.96
183.766	1749.79
183.842	1754.92
183.918	1761.57
183.995	1774.26
184.071	1776.59
184.147	1771.65
184.223	1761.43
184.299	1775.5
184.375	1765.81
184.452	1771.09
184.528	1818.86
184.604	1831.4
184.68	1842.42
184.756	1849.51
184.832	1855.83
184.908	1857.78
184.985	1858.77
185.061	1846.09
185.137	1855.69
185.213	1847.37
185.289	1851.22
185.365	1845.47
185.441	1846.13
185.517	1856.55
185.593	1853.55
185.669	1855.74
185.745	1867.62
185.822	1883.97
185.898	1877.98
185.974	1889.43
186.05	1887.76
186.126	1855.63
186.202	1856.16
186.278	1859.29
186.354	1856.73
186.43	1866.67
186.506	1872.61
186.582	1878.07
186.658	1893.9
186.734	1887.34
186.81	1900.74
186.886	1913.53
186.962	1935.02
187.038	1943.2
187.114	1948.76
187.19	1968.54
187.266	1972.21
187.341	1983.81
187.417	1990.94
187.493	2006.21
187.569	2026.04
187.645	2039.41
187.721	2045.45
187.797	2066.52
187.873	2088.78
187.949	2105.76
188.025	2126.61
188.101	2155.53
188.176	2191.74
188.252	2214.16
188.328	2253.22
188.404	2286.01
188.48	2316.81
188.556	2349.56
188.632	2386.94
188.707	2432
188.783	2469.87
188.859	2506.66
188.935	2541.48
189.011	2595.59
189.086	2635.41
189.162	2670.52
189.238	2709.91
189.314	2752.06
189.39	2792.41
189.465	2830.11
189.541	2887.49
189.617	2914.46
189.693	2949.63
189.768	2992.41
189.844	3060.77
189.92	3097.39
189.996	3154.25
190.071	3213.99
190.147	3268.97
190.223	3336.52
190.298	3391.45
190.374	3444.54
190.45	3521.03
190.526	3597.83
190.601	3663.34
190.677	3741.4
190.753	3846.23
190.828	3926.02
190.904	4023.34
190.98	4120.52
191.055	4213.23
191.131	4282.41
191.207	4379.5
191.282	4466.45
191.358	4534.3
191.433	4592.1
191.509	4672.91
191.585	4742.15
191.66	4808.57
191.736	4877.01
191.811	4924.16
191.887	4994.61
191.963	5074.44
192.038	5137.81
192.114	5199.61
192.189	5263.96
192.265	5321.22
192.34	5369.7
192.416	5447.21
192.491	5518
192.567	5595.05
192.642	5679.44
192.718	5775.18
192.793	5858.85
192.869	5955.42
192.944	6059.06
193.02	6167.57
193.095	6278.09
193.171	6385.91
193.246	6487.29
193.322	6588.25
193.397	6692.26
193.473	6781.29
193.548	6864.28
193.624	6967.2
193.699	7056.35
193.775	7154.54
193.85	7245.08
193.925	7330.47
194.001	7398.12
194.076	7464.1
194.152	7529.86
194.227	7593.81
194.302	7649.72
194.378	7718.47
194.453	7780.12
194.529	7855.72
194.604	7915.65
194.679	7973.95
194.755	8024.46
194.83	8110.87
194.905	8187.76
194.981	8281.1
195.056	8359.44
195.131	8449.91
195.207	8536.54
195.282	8619.46
195.357	8695.8
195.433	8800.78
195.508	8887.67
195.583	8991.63
195.659	9097.98
195.734	9196.34
195.809	9289.75
195.884	9387.04
195.96	9479.59
196.035	9586.44
196.11	9666.24
196.185	9754.95
196.261	9839.22
196.336	9947.97
196.411	10013.19
196.486	10087.18
196.561	10146.67
196.637	10217.76
196.712	10297.64
196.787	10368.51
196.862	10448.63
196.937	10524.94
197.013	10596.02
197.088	10666.41
197.163	10754.35
197.238	10842.78
197.313	10911.6
197.388	10991.59
197.464	11092.94
197.539	11167.92
197.614	11232.55
197.689	11320.89
197.764	11409.42
197.839	11510.39
197.914	11580.57
197.989	11671.76
198.065	11759.09
198.14	11879.83
198.215	11981.33
198.29	12071.37
198.365	12151.19
198.44	12232.51
198.515	12337.35
198.59	12430.14
198.665	12534.98
198.74	12611.24
198.815	12682.73
198.89	12772.77
198.965	12864.85
199.04	12928.09
199.115	13019.3
199.19	13122.41
199.265	13194.76
199.34	13270.3
199.415	13361.56
199.49	13447.46
199.565	13529.51
199.64	13621.82
199.715	13688.2
199.79	13762.78
199.865	13832.19
199.94	13910.58
200.015	14011.47
200.09	14086.43
200.165	14158.02
200.24	14228.25
200.315	14338.35
200.39	14419.53
200.464	14487.59
200.539	14560.62
200.614	14650.24
200.689	14734.02
200.764	14808.25
200.839	14903.65
200.914	14985.83
200.989	15050.62
201.063	15132.85
201.138	15190.79
201.213	15264.06
201.288	15324.12
201.363	15403.75
201.438	15481.5
201.512	15563.59
201.587	15620.27
201.662	15695.75
201.737	15779.91
201.812	15861.41
201.886	15907.35
201.961	15987.79
202.036	16062.6
202.111	16135.33
202.186	16183.04
202.26	16249.36
202.335	16306.82
202.41	16356.27
202.485	16404.95
202.559	16455.31
202.634	16503.56
202.709	16580
202.784	16631.42
202.858	16696.2
202.933	16750.52
203.008	16819.48
203.082	16869.9
203.157	16933.03
203.232	16962.77
203.306	17014.53
203.381	17054.43
203.456	17096.65
203.53	17142.34
203.605	17192.65
203.68	17240.6
203.754	17304.03
203.829	17349.81
203.904	17401.18
203.978	17469.96
204.053	17552.75
204.127	17621.86
204.202	17692.99
204.277	17752.75
204.351	17818.53
204.426	17894.29
204.5	17960.02
204.575	18000.79
204.65	18079.63
204.724	18157.94
204.799	18239.09
204.873	18303.67
204.948	18370.46
205.022	18443.56
205.097	18512.48
205.171	18591.51
205.246	18663.99
205.32	18725.57
205.395	18813.04
205.469	18879.97
205.544	18950.77
205.618	19001.65
205.693	19074.76
205.767	19138.37
205.842	19229.01
205.916	19296.24
205.991	19354.31
206.065	19428.96
206.14	19505
206.214	19573.24
206.289	19630.1
206.363	19706.53
206.438	19774
206.512	19850.77
206.586	19921.7
206.661	19988.55
206.735	20042.04
206.81	20127.97
206.884	20216.93
206.958	20268.06
207.033	20344.83
207.107	20428.64
207.181	20531.58
207.256	20599.29
207.33	20673.08
207.405	20760.56
207.479	20853.91
207.553	20932.95
207.628	20983.12
207.702	21061.68
207.776	21125.01
207.851	21196.58
207.925	21281.56
207.999	21353.81
208.073	21425.96
208.148	21499.85
208.222	21556.15
208.296	21659.1
208.371	21737.68
208.445	21818.27
208.519	21908.17
208.593	21986.64
208.668	22049.12
208.742	22121
208.816	22191.76
208.89	22273.62
208.965	22330.17
209.039	22397.43
209.113	22477.41
209.187	22562.49
209.261	22623.91
209.336	22709.63
209.41	22788.99
209.484	22852.78
209.558	22936.43
209.632	23013.72
209.707	23095.59
209.781	23202.2
209.855	23272.36
209.929	23350.25
210.003	23411.93
210.077	23472.06
210.151	23585.45
210.226	23677.08
210.3	23756.62
210.374	23831.8
210.448	23912.15
210.522	23982.33
210.596	24056.61
210.67	24124.95
210.744	24227.74
210.818	24326.09
210.892	24414.95
210.966	24474.86
211.041	24557.64
211.115	24621.41
211.189	24704.83
211.263	24780.96
211.337	24843.97
211.411	24932.85
211.485	24991.62
211.559	25068.28
211.633	25137.56
211.707	25170.04
211.781	25243.79
211.855	25287.36
211.929	25360.37
212.003	25396.61
212.077	25466.83
212.151	25541.16
212.225	25616.59
212.299	25672.97
212.373	25718.82
212.447	25768.25
212.52	25859.96
212.594	25917.84
212.668	25979.72
212.742	26037.84
212.816	26092
212.89	26138.2
212.964	26178.03
213.038	26233.12
213.112	26312.45
213.186	26387.43
213.26	26429.72
213.333	26441.35
213.407	26486.83
213.481	26530.24
213.555	26604.78
213.629	26656.06
213.703	26700.35
213.777	26740.82
213.85	26782.35
213.924	26872.18
213.998	26924.58
214.072	26977.14
214.146	27020.9
214.219	27068.42
214.293	27102.76
214.367	27148.98
214.441	27216.99
214.515	27275.25
214.588	27310.27
214.662	27327.47
214.736	27349.93
214.81	27398.18
214.883	27448.94
214.957	27484.49
215.031	27523.91
215.105	27538.59
215.178	27559.03
215.252	27587
215.326	27611.83
215.4	27630.82
215.473	27619.22
215.547	27643.72
215.621	27665.03
215.694	27701.61
215.768	27723.5
215.842	27745.82
215.915	27765.53
215.989	27768.04
216.063	27784.38
216.136	27815.35
216.21	27836.52
216.284	27883.44
216.357	27912.14
216.431	27929.34
216.504	27961.33
216.578	28010.09
216.652	28047.44
216.725	28071.7
216.799	28109.01
216.873	28134.23
216.946	28165.84
217.02	28188.4
217.093	28201.45
217.167	28202.08
217.24	28212.62
217.314	28230.88
217.387	28254.37
217.461	28266.5
217.535	28297.19
217.608	28300.87
217.682	28298.74
217.755	28320
217.829	28322.57
217.902	28344.17
217.976	28367.42
218.049	28385.06
218.123	28378
218.196	28401.35
218.27	28414.74
218.343	28425.9
218.417	28441.42
218.49	28446.69
218.563	28478.35
218.637	28505.85
218.71	28534.18
218.784	28550.86
218.857	28576.04
218.931	28583.68
219.004	28604.37
219.077	28619.84
219.151	28632.12
219.224	28660.97
219.298	28686.74
219.371	28713.72
219.444	28702.12
219.518	28707.14
219.591	28716.86
219.665	28767.63
219.738	28782.28
219.811	28787.93
219.885	28791.37
219.958	28813.56
220.031	28833.19
220.105	28852.33
220.178	28855.91
220.251	28865.73
220.325	28874.14
220.398	28881.24
220.471	28892.85
220.544	28912.72
220.618	28913.2
220.691	28920.16
220.764	28922.34
220.838	28919.1
220.911	28906.82
220.984	28936.6
221.057	28952.55
221.131	28963.04
221.204	28921.51
221.277	28933.45
221.35	28966.86
221.424	28967.1
221.497	28954.48
221.57	28945.39
221.643	28935.43
221.716	28933.55
221.79	28906.81
221.863	28899.66
221.936	28876.5
222.009	28860.02
222.082	28845.95
222.155	28826.22
222.229	28835.07
222.302	28823.03
222.375	28809.78
222.448	28808.53
222.521	28793.73
222.594	28775.8
222.667	28743.89
222.74	28744.28
222.814	28724.17
222.887	28691
222.96	28675.96
223.033	28675.38
223.106	28672.14
223.179	28654.16
223.252	28635.59
223.325	28632.07
223.398	28612.2
223.471	28606.64
223.544	28595.33
223.617	28588.56
223.69	28576.38
223.763	28546.89
223.837	28531.33
223.91	28518.18
223.983	28476.9
224.056	28441.57
224.129	28416.1
224.202	28398.17
224.275	28363.61
224.348	28334.23
224.42	28300.93
224.493	28253.08
224.566	28224.27
224.639	28197.21
224.712	28172.7
224.785	28143.17
224.858	28108.47
224.931	28084.26
225.004	28049.42
225.077	28021.1
225.15	27964.13
225.223	27940.26
225.296	27932.67
225.369	27887.1
225.442	27852.89
225.514	27840.47
225.587	27824.09
225.66	27812.4
225.733	27790.27
225.806	27781.09
225.879	27745.67
225.952	27709
226.025	27696.63
226.097	27676.68
226.17	27633.68
226.243	27578.27
226.316	27551.6
226.389	27530.25
226.461	27506.91
226.534	27479.18
226.607	27443.05
226.68	27434.21
226.753	27399.43
226.825	27336.04
226.898	27329.09
226.971	27294.21
227.044	27254.51
227.117	27210.16
227.189	27168.91
227.262	27143.02
227.335	27092.88
227.407	27045.51
227.48	27009.24
227.553	26975.24
227.626	26925.97
227.698	26898.34
227.771	26881.2
227.844	26838.6
227.916	26797.02
227.989	26745.69
228.062	26701.16
228.134	26693.63
228.207	26648.04
228.28	26595.51
228.352	26563.79
228.425	26517.67
228.498	26489.95
228.57	26448.81
228.643	26428.2
228.716	26385.71
228.788	26332.69
228.861	26296.39
228.934	26275.96
229.006	26246.61
229.079	26208.28
229.151	26178
229.224	26126.26
229.296	26095.6
229.369	26079.67
229.442	26068.08
229.514	26027.92
229.587	26010.2
229.659	25951.69
229.732	25921.47
229.804	25912.64
229.877	25898.35
229.949	25873.06
230.022	25854.86
230.094	25822.08
230.167	25789.55
230.239	25753.74
230.312	25735.69
230.384	25713.77
230.457	25681.1
230.529	25647.12
230.602	25613.53
230.674	25573.76
230.747	25546.35
230.819	25514.74
230.892	25447.18
230.964	25410.83
231.037	25371.41
231.109	25331.02
231.181	25302.69
231.254	25261.92
231.326	25211.83
231.399	25176.59
231.471	25135.24
231.544	25068.35
231.616	25046.69
231.688	25010.83
231.761	24971.9
231.833	24938.07
231.905	24891.9
231.978	24854.5
232.05	24815.14
232.122	24791.25
232.195	24744.98
232.267	24726.94
232.339	24676.43
232.412	24665.33
232.484	24612.07
232.556	24576.32
232.629	24560.5
232.701	24528.95
232.773	24484.86
232.846	24449.21
232.918	24402.99
232.99	24367.73
233.062	24341.58
233.135	24297.93
233.207	24236.96
233.279	24204.01
233.351	24149.22
233.424	24109.33
233.496	24058.59
233.568	24045.86
233.64	23994.24
233.713	23955.18
233.785	23908.44
233.857	23875.79
233.929	23815.36
234.001	23797.17
234.074	23773.06
234.146	23714.89
234.218	23672.31
234.29	23640.72
234.362	23589.41
234.434	23538.78
234.507	23481.1
234.579	23433.65
234.651	23388.12
234.723	23364.25
234.795	23328.14
234.867	23293.18
234.939	23268.44
235.012	23232.37
235.084	23188.3
235.156	23149.96
235.228	23106.71
235.3	23064.71
235.372	23030.43
235.444	22999.57
235.516	22929.85
235.588	22885.92
235.66	22846.19
235.732	22798.85
235.804	22805.89
235.876	22778.31
235.948	22754.16
236.02	22712.12
236.092	22663.96
236.164	22617.19
236.236	22573.66
236.308	22526.12
236.38	22485.72
236.452	22431.58
236.524	22398.18
236.596	22378.41
236.668	22338.11
236.74	22300.65
236.812	22258.37
236.884	22219.61
236.956	22186.01
237.028	22143.01
237.1	22100.02
237.172	22075.53
237.244	22050.7
237.316	21972.46
237.388	21931.96
237.46	21882.84
237.532	21866.31
237.604	21820.95
237.675	21802.11
237.747	21772.85
237.819	21726.62
237.891	21687.58
237.963	21639.38
238.035	21587.33
238.107	21500.08
238.178	21480.56
238.25	21430.92
238.322	21410.57
238.394	21352.11
238.466	21301.94
238.538	21264.25
238.609	21228.63
238.681	21162.07
238.753	21101.24
238.825	21053.53
238.897	20998.63
238.968	20969.76
239.04	20912.45
239.112	20890.86
239.184	20835.49
239.255	20778.37
239.327	20744.21
239.399	20704.44
239.471	20668.3
239.542	20630.56
239.614	20605.02
239.686	20526.71
239.758	20501.16
239.829	20444
239.901	20415.09
239.973	20382.22
240.044	20345.79
240.116	20292.97
240.188	20240.1
240.259	20203.38
240.331	20167.33
240.403	20141.55
240.474	20071.91
240.546	20025.7
240.618	19965.46
240.689	19912.59
240.761	19880.84
240.833	19845.9
240.904	19803.44
240.976	19757.9
241.048	19725.66
241.119	19692.6
241.191	19654.82
241.262	19627.11
241.334	19581.33
241.405	19536.32
241.477	19483.36
241.549	19444.86
241.62	19410.88
241.692	19392.43
241.763	19358.07
241.835	19307.23
241.906	19259.32
241.978	19217.4
242.049	19180.92
242.121	19151.86
242.192	19128.2
242.264	19070.66
242.335	19018.91
242.407	18982.19
242.478	18938.43
242.55	18887.4
242.621	18841.28
242.693	18804.75
242.764	18755.4
242.836	18712.27
242.907	18678.64
242.979	18641.97
243.05	18607.46
243.122	18579.9
243.193	18538.41
243.264	18478.79
243.336	18441.64
243.407	18407.47
243.479	18389.83
243.55	18354.95
243.622	18319.91
243.693	18278.03
243.764	18258.47
243.836	18215.96
243.907	18176.01
243.978	18144.11
244.05	18119.49
244.121	18061.17
244.192	18033.56
244.264	17984.02
244.335	17958.29
244.407	17905.37
244.478	17874.53
244.549	17822.68
244.62	17759.83
244.692	17713.43
244.763	17688.03
244.834	17645.14
244.906	17602.73
244.977	17567.4
245.048	17543.12
245.119	17501.24
245.191	17462.83
245.262	17403.21
245.333	17379.21
245.405	17345.57
245.476	17311.12
245.547	17275.93
245.618	17253.91
245.689	17217.91
245.761	17183.26
245.832	17135.16
245.903	17105.67
245.974	17068.61
246.045	17031.93
246.117	17009.81
246.188	16963.64
246.259	16924.79
246.33	16892.21
246.401	16854.14
246.473	16799
246.544	16753.07
246.615	16714.42
246.686	16663.33
246.757	16643.62
246.828	16599.57
246.899	16578.12
246.97	16522.84
247.042	16481.39
247.113	16446.35
247.184	16429.05
247.255	16396.9
247.326	16363.65
247.397	16328.37
247.468	16295.3
247.539	16260.22
247.61	16218.52
247.681	16197.12
247.752	16176.88
247.823	16136.83
247.894	16110.99
247.965	16066.46
248.037	16035.56
248.108	16000.18
248.179	15971.75
248.25	15930.3
248.321	15900.94
248.392	15849.56
248.463	15841.71
248.534	15807
248.605	15781.17
248.675	15743.62
248.746	15710.89
248.817	15683.13
248.888	15653.2
248.959	15606.15
249.03	15592.18
249.101	15567.69
249.172	15534.09
249.243	15479
249.314	15459.48
249.385	15434.36
249.456	15421.78
249.527	15383.85
249.598	15358.06
249.669	15331.02
249.739	15307.69
249.81	15277.23
249.881	15235.77
249.952	15205.16
250.023	15178.46
250.094	15135.27
250.165	15094.44
250.235	15066.1
250.306	15049.57
250.377	15021.7
250.448	15001.12
250.519	14945.59
250.59	14928.86
250.66	14892.23
250.731	14882.06
250.802	14843.5
250.873	14810.57
250.944	14773.12
251.014	14747.52
251.085	14737.11
251.156	14712.53
251.227	14698.31
251.297	14686.83
251.368	14667.89
251.439	14649.14
251.51	14630.92
251.58	14596.26
251.651	14563.81
251.722	14548.68
251.792	14500.33
251.863	14466.2
251.934	14446.92
252.005	14454.05
252.075	14426.91
252.146	14414.48
252.217	14397.41
252.287	14381.12
252.358	14349.01
252.429	14342.7
252.499	14304.28
252.57	14284.51
252.641	14268.89
252.711	14240.36
252.782	14199.29
252.852	14199.14
252.923	14172.68
252.994	14143.8
253.064	14128.81
253.135	14098.92
253.205	14064.74
253.276	14058.43
253.347	14045.51
253.417	14011.91
253.488	13980.77
253.558	13952.04
253.629	13923.31
253.699	13899.97
253.77	13882.76
253.841	13859.43
253.911	13832
253.982	13817.78
254.052	13800.14
254.123	13775.07
254.193	13744.65
254.264	13754.49
254.334	13714.14
254.405	13680.15
254.475	13651.28
254.546	13625
254.616	13616.76
254.687	13596.08
254.757	13566.82
254.827	13538.57
254.898	13524.06
254.968	13495.52
255.039	13459.17
255.109	13443.46
255.18	13414.73
255.25	13376.64
255.321	13361.94
255.391	13337.79
255.461	13330.08
255.532	13282.06
255.602	13256.22
255.673	13219.1
255.743	13181.94
255.813	13138.6
255.884	13124.52
255.954	13106.59
256.024	13104.66
256.095	13078.78
256.165	13051.97
256.235	13038.04
256.306	13005.02
256.376	12991.81
256.446	12982.65
256.517	12966.65
256.587	12959.03
256.657	12942.35
256.728	12924.28
256.798	12903.5
256.868	12875.25
256.938	12842.9
257.009	12831.62
257.079	12821.12
257.149	12830.08
257.219	12795.28
257.29	12782.17
257.36	12745.87
257.43	12730.49
257.5	12687.92
257.571	12660.21
257.641	12642.66
257.711	12614.12
257.781	12605.93
257.852	12592.57
257.922	12546.35
257.992	12525.43
258.062	12498.82
258.132	12477.22
258.202	12454.37
258.273	12440.01
258.343	12439.43
258.413	12417.88
258.483	12396
258.553	12356.86
258.623	12326.82
258.693	12312.22
258.764	12310.53
258.834	12297.52
258.904	12275.54
258.974	12251.53
259.044	12231.48
259.114	12217.16
259.184	12198.46
259.254	12177.64
259.324	12142.21
259.394	12130.78
259.464	12134.3
259.535	12112.03
259.605	12093.33
259.675	12069.71
259.745	12054.48
259.815	12020.45
259.885	11992.44
259.955	12002.86
260.025	11980.73
260.095	11960.54
260.165	11944.63
260.235	11933.21
260.305	11911.13
260.375	11885.25
260.445	11888.04
260.515	11887.27
260.585	11874.5
260.655	11862.16
260.725	11853.77
260.795	11838.35
260.865	11838.73
260.934	11805.38
261.004	11797.28
261.074	11771.54
261.144	11770.05
261.214	11752.7
261.284	11731.73
261.354	11728.21
261.424	11687.96
261.494	11687.53
261.564	11671.96
261.634	11659.91
261.703	11623.62
261.773	11614.9
261.843	11604.39
261.913	11582.17
261.983	11551.37
262.053	11537.73
262.123	11506.45
262.192	11476.96
262.262	11467.8
262.332	11433.63
262.402	11429.82
262.472	11402.54
262.541	11371.07
262.611	11363.41
262.681	11336.56
262.751	11333.38
262.821	11311.02
262.89	11285.48
262.96	11277.67
263.03	11277.67
263.1	11263.35
263.169	11249.19
263.239	11241.19
263.309	11245.14
263.379	11236.27
263.448	11214.25
263.518	11202.78
263.588	11187.93
263.657	11183.02
263.727	11171.93
263.797	11157.96
263.867	11135.21
263.936	11110.2
264.006	11111.07
264.076	11088.56
264.145	11070.2
264.215	11049.19
264.285	11042.16
264.354	11009.48
264.424	10981.87
264.494	10950.02
264.563	10931.22
264.633	10940.38
264.702	10921.34
264.772	10885.73
264.842	10865.49
264.911	10860.19
264.981	10826.17
265.05	10814.8
265.12	10798.99
265.19	10788.53
265.259	10779.96
265.329	10773.45
265.398	10760.68
265.468	10772.3
265.537	10752.44
265.607	10746.47
265.676	10731.87
265.746	10718.91
265.815	10724.25
265.885	10710.38
265.955	10683.83
266.024	10661.09
266.094	10622.06
266.163	10618.73
266.232	10618.49
266.302	10596.81
266.371	10584.96
266.441	10575.27
266.51	10570.93
266.58	10555.85
266.649	10531.09
266.719	10535.37
266.788	10519.96
266.858	10523.04
266.927	10479.58
266.996	10467.53
267.066	10461.27
267.135	10441.37
267.205	10436.41
267.274	10417.23
267.343	10420.12
267.413	10407.84
267.482	10409.29
267.552	10407.6
267.621	10381.73
267.69	10348.05
267.76	10336.44
267.829	10323.77
267.898	10313.12
267.968	10290.19
268.037	10284.22
268.106	10282.96
268.176	10255.11
268.245	10246.49
268.314	10230.59
268.384	10231.46
268.453	10218.26
268.522	10210.21
268.592	10208.62
268.661	10186.51
268.73	10183.04
268.799	10157.08
268.869	10164.78
268.938	10134.92
269.007	10117.28
269.076	10111.5
269.146	10114.44
269.215	10113.96
269.284	10115.79
269.353	10097.58
269.422	10086.84
269.492	10072.77
269.561	10034
269.63	10023.4
269.699	10002.4
269.768	9991.8
269.838	9981.25
269.907	9977.88
269.976	9950.8
270.045	9921.52
270.114	9920.03
270.183	9903.46
270.253	9900.61
270.322	9872.87
270.391	9866.32
270.46	9867.76
270.529	9859.19
270.598	9853.7
270.667	9841.99
270.736	9819.79
270.806	9812.75
270.875	9810.06
270.944	9793.15
271.013	9807.6
271.082	9802.35
271.151	9795.03
271.22	9763.39
271.289	9753.37
271.358	9743.5
271.427	9735.93
271.496	9731.21
271.565	9712
271.634	9700.29
271.703	9712.62
271.772	9714.07
271.841	9703.76
271.91	9686.23
271.979	9675.44
272.048	9650.88
272.117	9643.9
272.186	9627.14
272.255	9628.15
272.324	9627.04
272.393	9619.34
272.462	9603.44
272.531	9593.09
272.6	9584.42
272.669	9589.38
272.738	9576.61
272.807	9569.05
272.876	9554.61
272.945	9571.7
273.013	9573.34
273.082	9578.25
273.151	9538.66
273.22	9537.94
273.289	9529.42
273.358	9533.66
273.427	9521.18
273.496	9520.99
273.564	9516.32
273.633	9522.87
273.702	9501.2
273.771	9491.71
273.84	9486.22
273.909	9481.65
273.977	9474.47
274.046	9457.91
274.115	9461.08
274.184	9446.54
274.253	9436.38
274.322	9444.76
274.39	9418.66
274.459	9403.01
274.528	9376.91
274.597	9376.04
274.665	9366.17
274.734	9369.93
274.803	9359.96
274.872	9349.6
274.94	9338.77
275.009	9385.11
275.078	9371.43
275.147	9371.63
275.215	9363.73
275.284	9371.82
275.353	9365.8
275.421	9346.35
275.49	9360.7
275.559	9353.28
275.627	9344.23
275.696	9337.1
275.765	9325.98
275.833	9318.23
275.902	9316.93
275.971	9325.4
276.039	9332.63
276.108	9337.59
276.177	9338.02
276.245	9323.29
276.314	9322.8
276.383	9324.49
276.451	9266.64
276.52	9267.51
276.588	9279.45
276.657	9288.12
276.725	9277.14
276.794	9273.19
276.863	9283.06
276.931	9258.7
277	9263.95
277.068	9279.06
277.137	9294.62
277.205	9300.59
277.274	9313.39
277.342	9321.92
277.411	9306.22
277.48	9295.39
277.548	9282.29
277.617	9278
277.685	9272.32
277.754	9275.93
277.822	9269.05
277.89	9284.7
277.959	9277.62
278.027	9256.53
278.096	9242.91
278.164	9264.29
278.233	9258.32
278.301	9247.48
278.37	9253.41
278.438	9237.18
278.507	9233.57
278.575	9213.25
278.643	9208.14
278.712	9190.91
278.78	9174.73
278.849	9180.84
278.917	9186.67
278.985	9179.21
279.054	9182.34
279.122	9195.87
279.191	9197.17
279.259	9194.23
279.327	9173.76
279.396	9183.73
279.464	9183.83
279.532	9186.62
279.601	9177.52
279.669	9174.97
279.737	9187.53
279.806	9193.74
279.874	9210.98
279.942	9205.54
280.011	9199.04
280.079	9202.7
280.147	9219.46
280.215	9226.92
280.284	9225.33
280.352	9215.46
280.42	9220.56
280.488	9214.3
280.557	9209.63
280.625	9209.1
280.693	9207.61
280.761	9206.94
280.83	9191.53
280.898	9203.08
280.966	9185.8
281.034	9158.6
281.102	9147.86
281.171	9141.89
281.239	9147.62
281.307	9132.16
281.375	9126.53
281.443	9149.69
281.512	9144.06
281.58	9150.75
281.648	9136.79
281.716	9134.72
281.784	9130.96
281.852	9129.9
281.92	9120.76
281.989	9123.79
282.057	9110.21
282.125	9146.14
282.193	9143.39
282.261	9146.57
282.329	9144.98
282.397	9148.98
282.465	9156.15
282.533	9168.81
282.601	9154.56
282.67	9134.82
282.738	9125.72
282.806	9128.32
282.874	9115.61
282.942	9118.98
283.01	9112.04
283.078	9117.82
283.146	9118.88
283.214	9125.19
283.282	9125.72
283.35	9148.4
283.418	9146.57
283.486	9150.51
283.554	9112.04
283.622	9112.71
283.69	9108.96
283.758	9101.74
283.826	9105.78
283.894	9112.47
283.962	9130.58
284.03	9143.09
284.098	9144.73
284.165	9142.04
284.233	9145.31
284.301	9140.49
284.369	9132.6
284.437	9119.55
284.505	9114.45
284.573	9122.87
284.641	9116.9
284.709	9123.31
284.777	9097.4
284.845	9103.52
284.912	9107.23
284.98	9112.81
285.048	9111.22
285.116	9119.07
285.184	9122.2
285.252	9120.95
285.319	9107.32
285.387	9095.28
285.455	9082.33
285.523	9087.1
285.591	9082.43
285.659	9086.81
285.726	9091.48
285.794	9077.18
285.862	9076.22
285.93	9078.44
285.997	9078
286.065	9076.75
286.133	9072.18
286.201	9070.68
286.269	9056.58
286.336	9049.6
286.404	9050.03
286.472	9056.1
286.539	9036.12
286.607	9024.13
286.675	9026.87
286.743	9034.14
286.81	9027.88
286.878	9039.92
286.946	9032.22
287.013	9041.36
287.081	9040.74
287.149	9032.6
287.216	9051.38
287.284	9051.13
287.352	9047.38
287.419	9038.57
287.487	9041.94
287.555	9041.17
287.622	9040.5
287.69	9044.06
287.758	9050.94
287.825	9045.36
287.893	9035.58
287.96	9044.83
288.028	9053.2
288.096	9052.14
288.163	9051.95
288.231	9045.69
288.298	9044.15
288.366	9059.9
288.433	9055.52
288.501	9048.58
288.569	9049.02
288.636	9045.65
288.704	9054.94
288.771	9064.86
288.839	9057.39
288.906	9056.33
288.974	9070.06
289.041	9075.74
289.109	9071.55
289.176	9080.12
289.244	9083.63
289.311	9093.07
289.379	9099.62
289.446	9105.88
289.514	9108.24
289.581	9107.71
289.649	9109.49
289.716	9112.14
289.783	9106.7
289.851	9122.49
289.918	9122.2
289.986	9132.45
290.053	9137.56
290.121	9137.36
290.188	9138.08
290.255	9166.73
290.323	9167.79
290.39	9154.65
290.458	9155.08
290.525	9164.23
290.592	9162.83
290.66	9166.2
290.727	9166.54
290.794	9178.81
290.862	9176.07
290.929	9179.44
290.996	9182.67
291.064	9192.97
291.131	9202.21
291.198	9212.71
291.266	9210.01
291.333	9213.05
291.4	9217.14
291.468	9226.96
291.535	9222.29
291.602	9229.61
291.669	9226.48
291.737	9236.11
291.804	9242.08
291.871	9259.8
291.938	9274.92
292.006	9299.48
292.073	9308.97
292.14	9321.39
292.207	9315.76
292.275	9321.2
292.342	9333.09
292.409	9358.42
292.476	9385.58
292.543	9383.46
292.611	9382.26
292.678	9400.17
292.745	9422.22
292.812	9439.37
292.879	9437.59
292.946	9439.85
293.014	9455.98
293.081	9468.17
293.148	9475.2
293.215	9490.08
293.282	9487.28
293.349	9494.99
293.416	9471.2
293.484	9483.48
293.551	9486.03
293.618	9502.21
293.685	9528.46
293.752	9518.92
293.819	9520.61
293.886	9503.08
293.953	9510.35
294.02	9527.11
294.087	9535.15
294.154	9531.64
294.221	9543.34
294.288	9547.77
294.356	9575.07
294.423	9577.43
294.49	9566.65
294.557	9577.48
294.624	9571.75
294.691	9585.86
294.758	9577.92
294.825	9598.43
294.892	9597.76
294.959	9604.69
295.026	9616.83
295.093	9610.04
295.16	9616.15
295.226	9613.99
295.293	9637.83
295.36	9643.75
295.427	9652.27
295.494	9655.89
295.561	9662.77
295.628	9680.12
295.695	9693.26
295.762	9697.21
295.829	9706.75
295.896	9726.3
295.963	9739.36
296.03	9747.98
296.096	9753.32
296.163	9772.2
296.23	9785.59
296.297	9797.3
296.364	9798.69
296.431	9799.37
296.498	9795.08
296.564	9819.55
296.631	9824.22
296.698	9813.33
296.765	9835.39
296.832	9831.4
296.899	9829.52
296.965	9847.72
297.032	9827.35
297.099	9849.26
297.166	9847.34
297.233	9839.15
297.299	9827.3
297.366	9823.69
297.433	9825.95
297.5	9839.97
297.566	9840.07
297.633	9834.62
297.7	9835.01
297.767	9832.84
297.833	9843.49
297.9	9847.68
297.967	9839.78
298.033	9849.31
298.1	9876.1
298.167	9864.87
298.234	9868.29
298.3	9882.41
298.367	9878.51
298.434	9887.75
298.5	9878.22
298.567	9881.49
298.634	9885.68
298.7	9905.43
298.767	9918.15
298.834	9930.38
298.9	9927.44
298.967	9916.46
299.033	9927.64
299.1	9945.89
299.167	9959.38
299.233	9949.89
299.3	9965.45
299.366	9974.12
299.433	9994.69
299.5	9971.18
299.566	9977.2
299.633	9990.98
299.699	9993.58
299.766	9998.68
299.832	9997.67
299.899	10000.61
299.965	10012.03
300.032	10004.47
300.099	10009.96
300.165	10012.22
300.232	10012.17
300.298	10012.85
300.365	10032.16
300.431	10032.5
300.498	10023.4
300.564	10028.89
300.631	10040.45
300.697	10049.36
300.763	10056.1
300.83	10046.76
300.896	10059.23
300.963	10066.51
301.029	10072.58
301.096	10082.02
301.162	10086.31
301.229	10083.47
301.295	10074.12
301.361	10071.52
301.428	10080.19
301.494	10068.58
301.561	10062.7
301.627	10063.23
301.693	10068.24
301.76	10062.56
301.826	10057.31
301.892	10066.41
301.959	10070.65
302.025	10068.24
302.092	10068.15
302.158	10068.63
302.224	10067.86
302.291	10062.32
302.357	10059.67
302.423	10045.36
302.49	10029.94
302.556	10038.76
302.622	10043.96
302.688	10062.08
302.755	10079.47
302.821	10087.56
302.887	10101.58
302.954	10102.69
303.02	10111.4
303.086	10110.78
303.152	10115.02
303.219	10110.1
303.285	10118.25
303.351	10127.25
303.417	10129.71
303.483	10119.07
303.55	10111.84
303.616	10116.03
303.682	10117.33
303.748	10109.53
303.815	10125.96
303.881	10137.23
303.947	10125.09
304.013	10123.16
304.079	10111.41
304.145	10087.32
304.212	10082.7
304.278	10075.42
304.344	10068.87
304.41	10057.41
304.476	10047.87
304.542	10041.75
304.608	10046.66
304.674	10030.38
304.741	10025.18
304.807	10022.96
304.873	10030.48
304.939	10049.36
305.005	10029.95
305.071	10021.23
305.137	10024.84
305.203	10001.38
305.269	10000.22
305.335	10007.88
305.401	10008.61
305.467	10001.96
305.533	10013.42
305.599	10018.29
305.666	10017.66
305.732	10020.46
305.798	10028.89
305.864	10052.01
305.93	10054.27
305.996	10056.92
306.062	10049.7
306.128	10045.31
306.194	10034.24
306.259	10030.62
306.325	10016.99
306.391	10024.7
306.457	10036.21
306.523	10038.95
306.589	10063.23
306.655	10055.72
306.721	10040.64
306.787	10025.66
306.853	10044.45
306.919	10027.64
306.985	10021.09
307.051	10015.35
307.117	10009.96
307.183	10007.84
307.248	9982.31
307.314	9991.41
307.38	9990.79
307.446	10003.21
307.512	9990.45
307.578	9989.97
307.644	9980.53
307.709	9980.33
307.775	9979.37
307.841	9969.59
307.907	9966.32
307.973	9940.3
308.039	9935.97
308.104	9940.78
308.17	9946.42
308.236	9931.2
308.302	9937.17
308.368	9932.3
308.433	9931.68
308.499	9927.39
308.565	9911.35
308.631	9913.81
308.696	9891.12
308.762	9876.52
308.828	9868.48
308.894	9851.19
308.959	9837.8
309.025	9828.94
309.091	9822.87
309.156	9813.62
309.222	9814.1
309.288	9799.07
309.354	9782.99
309.419	9775.91
309.485	9759.92
309.551	9763.39
309.616	9744.22
309.682	9739.93
309.748	9731.4
309.813	9726.64
309.879	9712.04
309.945	9701.88
310.01	9694.37
310.076	9692.34
310.141	9688.59
310.207	9672.84
310.273	9679.39
310.338	9681.02
310.404	9667.97
310.469	9656.75
310.535	9644.81
310.601	9624.72
310.666	9627.61
310.732	9635.56
310.797	9621.21
310.863	9608.64
310.928	9592.99
310.994	9593.52
311.059	9580.56
311.125	9574.2
311.191	9585.96
311.256	9580.32
311.322	9583.02
311.387	9566.07
311.453	9888.99
311.518	9857.74
311.584	9852.68
311.649	9848.25
311.715	9837.75
311.78	9836.98
311.846	9825.57
311.911	9830.77
311.976	9832.74
312.042	9818.01
312.107	9795.33
312.173	9795.71
312.238	9789.89
312.304	9785.31
312.369	9775.34
312.434	9766.58
312.5	9760.51
312.565	9722.08
312.631	9724.58
312.696	9715.48
312.761	9713.27
312.827	9377.1
312.892	9413.36
312.958	9405.7
313.023	9398.43
313.088	9396.41
313.154	9380.47
313.219	9373.25
313.284	9362.51
313.35	9359.96
313.415	9353.27
313.48	9354.28
313.546	9350.23
313.611	9358.66
313.676	9350.81
313.741	9341.8
313.807	9344.84
313.872	9349.8
313.937	9355.24
314.003	9360.34
314.068	9354.81
314.133	9359.04
314.198	9348.31
314.264	9324.28
314.329	9317.05
314.394	9313.1
314.459	9309.49
314.525	9329.19
314.59	9318.83
314.655	9303.47
314.72	9296.25
314.785	9291.73
314.851	9283.64
314.916	9263.51
314.981	9245.31
315.046	9235.87
315.111	9224.99
315.176	9211.75
315.242	9203.13
315.307	9198.8
315.372	9182.33
315.437	9175.59
315.502	9158.93
315.567	9171.26
315.632	9160.23
315.698	9159.99
315.763	9159.7
315.828	9150.12
315.893	9142.03
315.958	9143.33
316.023	9129.32
316.088	9110.64
316.153	9090.52
316.218	9082.63
316.283	9065.25
316.348	9051.58
316.413	9041.52
316.479	9026.55
316.544	8999.69
316.609	8968.11
316.674	8933.79
316.739	8890.33
316.804	8851.44
316.869	8819.05
316.934	8771.68
316.999	8742.65
317.064	8688.22
317.129	8645.09
317.194	8606.55
317.259	8551.82
317.324	8494.99
317.389	8448.99
317.454	8413.19
317.518	8378.02
317.583	8341.59
317.648	8312.58
317.713	8270.38
317.778	8213.13
317.843	8182.14
317.908	8139.47
317.973	8100.17
318.038	8066.93
318.103	8029.27
318.168	7997.86
318.233	7957.51
318.297	7900.71
318.362	7849.01
318.427	7813.96
318.492	7773.56
318.557	7723.84
318.622	7693.44
318.687	7663.4
318.751	7624.99
318.816	7581.95
318.881	7541.9
318.946	7491.62
319.011	7448.97
319.075	7404.08
319.14	7363.75
319.205	7316.35
319.27	7273
319.335	7221.63
319.399	7178.9
319.464	7144.93
319.529	7090.82
319.594	7051.37
319.658	7020.53
319.723	6975.33
319.788	6934.54
319.853	6875.98
319.917	6836.84
319.982	6777.51
320.047	6733.52
320.112	6696.06
320.176	6645.2
320.241	6602.6
320.306	6565.48
320.37	6512.62
320.435	6475.12
320.5	6445.97
320.564	6400.36
320.629	6357.64
320.694	6323.51
320.758	6272.87
320.823	6228.38
320.888	6198.53
320.952	6144.78
321.017	6100.35
321.082	6063.31
321.146	6028.23
321.211	5994.7
321.275	5949.61
321.34	5901.65
321.405	5852.97
321.469	5805.88
321.534	5763.44
321.598	5711.65
321.663	5675.05
321.727	5646.67
321.792	5589.76
321.857	5537.78
321.921	5490.8
321.986	5441.11
322.05	5379.38
322.115	5341.42
322.179	5293.26
322.244	5231.03
322.308	5195.05
322.373	5145.51
322.437	5098.33
322.502	5059.6
322.566	5011.94
322.631	4970.9
322.695	4932.17
322.76	4886.54
322.824	4849.1
322.889	4803.34
322.953	4756.91
323.018	4691.66
323.082	4620.07
323.146	4572.56
323.211	4515.14
323.275	4469.59
323.34	4420.14
323.404	4382.89
323.468	4330.98
323.533	4283.63
323.597	4236.5
323.662	4182.84
323.726	4144.16
323.79	4095.25
323.855	4031.13
323.919	3977.07
323.983	3931.57
324.048	3861.6
324.112	3969.44
324.177	3830.46
324.241	3626.33
324.305	3427.36
324.37	3230.87
324.434	3045.19
324.498	2999.92
324.562	2948.88
324.627	2886.37
324.691	2832.92
324.755	2765.76
324.82	2688.11
324.884	2607.11
324.948	2531.08
325.012	2433.52
325.077	2307.28
