Data from 20250702_urea_1M_MAYP1162681_11-35-08-276.txt Node
Date: Wed Jul 02 11:35:08 BST 2025
User: adleo
Spectrometer: MAYP116268
Trigger mode: 0
Integration Time (sec): 1.000000E0
Scans to average: 1
Electric dark correction enabled: true
Nonlinearity correction enabled: true
Boxcar width: 10
XAxis mode: Wavelengths
Number of Pixels in Spectrum: 2068
>>>>>Begin Spectral Data<<<<<
179.565	1020.54
179.642	1062.34
179.718	1098.09
179.795	1131.23
179.871	1157.63
179.948	1171.38
180.024	1186.44
180.101	1205.59
180.177	1218.26
180.254	1237.6
180.33	1255.56
180.407	1295.43
180.483	1374.67
180.56	1449.74
180.636	1521.32
180.712	1511.11
180.789	1521.23
180.865	1529.68
180.942	1538.51
181.018	1545.63
181.095	1557.65
181.171	1563.12
181.248	1567.77
181.324	1581.88
181.4	1589.05
181.477	1599.55
181.553	1610.76
181.63	1628.05
181.706	1644.25
181.782	1651.75
181.859	1650.52
181.935	1653.56
182.011	1648.43
182.088	1665.82
182.164	1684.07
182.24	1696.08
182.317	1704.78
182.393	1701.83
182.469	1716.65
182.546	1728.86
182.622	1732.81
182.698	1729.19
182.775	1738.75
182.851	1749.86
182.927	1742.55
183.003	1737.65
183.08	1732.33
183.156	1742.02
183.232	1741.41
183.308	1730.1
183.385	1736.23
183.461	1755.09
183.537	1757.18
183.613	1769.16
183.69	1761.27
183.766	1750.38
183.842	1755.37
183.918	1760.6
183.995	1770.67
184.071	1772.57
184.147	1767.77
184.223	1756.14
184.299	1765.69
184.375	1756.24
184.452	1760.23
184.528	1808.71
184.604	1818.21
184.68	1828.38
184.756	1835.32
184.832	1839.12
184.908	1840.64
184.985	1840.6
185.061	1825.77
185.137	1836.56
185.213	1826.1
185.289	1828.24
185.365	1823.35
185.441	1821.54
185.517	1830.43
185.593	1827.34
185.669	1827.01
185.745	1835.94
185.822	1851.29
185.898	1845.49
185.974	1852.52
186.05	1848.29
186.126	1815.78
186.202	1810.41
186.278	1807.99
186.354	1798.91
186.43	1804.18
186.506	1804.18
186.582	1802.57
186.658	1807.03
186.734	1788.79
186.81	1792.54
186.886	1792.3
186.962	1803.04
187.038	1800.62
187.114	1796.53
187.19	1804.52
187.266	1795.77
187.341	1797.34
187.417	1793.16
187.493	1791.59
187.569	1795.58
187.645	1791.16
187.721	1779.04
187.797	1786.65
187.873	1789.26
187.949	1783.27
188.025	1779.04
188.101	1783.7
188.176	1786.45
188.252	1783.56
188.328	1790.54
188.404	1788.5
188.48	1786.02
188.556	1778.85
188.632	1781.51
188.707	1783.22
188.783	1779.18
188.859	1774.14
188.935	1764.07
189.011	1772.1
189.086	1765.45
189.162	1760.41
189.238	1757.56
189.314	1755.71
189.39	1747.48
189.465	1742.07
189.541	1758.08
189.617	1743.83
189.693	1739.08
189.768	1745.4
189.844	1766.17
189.92	1759.33
189.996	1771.45
190.071	1782.67
190.147	1782.43
190.223	1786.99
190.298	1777.44
190.374	1766.51
190.45	1776.96
190.526	1783.38
190.601	1777.11
190.677	1778.44
190.753	1798.5
190.828	1800.78
190.904	1814.38
190.98	1828.25
191.055	1836.14
191.131	1828.06
191.207	1845.88
191.282	1854.86
191.358	1846.78
191.433	1834.09
191.509	1847.2
191.585	1842.45
191.66	1840.59
191.736	1847.77
191.811	1840.69
191.887	1854.81
191.963	1876.2
192.038	1883.09
192.114	1884.9
192.189	1888.94
192.265	1888.51
192.34	1871.77
192.416	1872.25
192.491	1868.11
192.567	1871.01
192.642	1874.67
192.718	1874.86
192.793	1865.59
192.869	1860.74
192.944	1860.36
193.02	1867.35
193.095	1868.64
193.171	1872.11
193.246	1871.68
193.322	1868.3
193.397	1868.26
193.473	1856.51
193.548	1838.97
193.624	1839.11
193.699	1835.98
193.775	1851.53
193.85	1850.86
193.925	1855.9
194.001	1853.95
194.076	1847.63
194.152	1837.12
194.227	1828.71
194.302	1817.97
194.378	1820.01
194.453	1817.64
194.529	1830.52
194.604	1814.93
194.679	1809.42
194.755	1792.36
194.83	1804.82
194.905	1803.01
194.981	1811.99
195.056	1807.29
195.131	1814.99
195.207	1817.75
195.282	1810.29
195.357	1791.84
195.433	1805.91
195.508	1797.21
195.583	1802.77
195.659	1815.65
195.734	1825.92
195.809	1828.01
195.884	1838.42
195.96	1839.51
196.035	1853.96
196.11	1849.63
196.185	1860.8
196.261	1863.61
196.336	1890.98
196.411	1879.05
196.486	1885.42
196.561	1877.76
196.637	1884.75
196.712	1895.92
196.787	1895.92
196.862	1910.66
196.937	1917.74
197.013	1924.06
197.088	1932.81
197.163	1952.78
197.238	1965.72
197.313	1961.68
197.388	1970.81
197.464	1998.07
197.539	2007.05
197.614	1996.97
197.689	2008.48
197.764	2024.18
197.839	2040.3
197.914	2035.87
197.989	2051.9
198.065	2061.7
198.14	2107.29
198.215	2130.88
198.29	2143.53
198.365	2160.47
198.44	2169.79
198.515	2195.44
198.59	2208.62
198.665	2234.74
198.74	2242.4
198.815	2245.88
198.89	2265.76
198.965	2292.75
199.04	2288.18
199.115	2304.97
199.19	2345.27
199.265	2349.6
199.34	2358.55
199.415	2391.07
199.49	2410.68
199.565	2420.2
199.64	2442.47
199.715	2439.76
199.79	2445.42
199.865	2452.13
199.94	2444.9
200.015	2470.61
200.09	2475.56
200.165	2483.99
200.24	2483.99
200.315	2519.35
200.39	2533.25
200.464	2541.35
200.539	2544.73
200.614	2558.97
200.689	2576.82
200.764	2582.4
200.839	2597.68
200.914	2601.06
200.989	2591.53
201.063	2602.44
201.138	2589.63
201.213	2588.63
201.288	2571.68
201.363	2576.92
201.438	2574.82
201.512	2589.77
201.587	2577.05
201.662	2582.34
201.737	2589.87
201.812	2602.06
201.886	2573.27
201.961	2577.8
202.036	2565.23
202.111	2562.56
202.186	2537.67
202.26	2523.91
202.335	2507
202.41	2499.48
202.485	2485.01
202.559	2466.15
202.634	2445.2
202.709	2451.53
202.784	2436.11
202.858	2433.73
202.933	2416.07
203.008	2409.17
203.082	2394.6
203.157	2392.74
203.232	2353.39
203.306	2335.53
203.381	2305.3
203.456	2284.98
203.53	2267.07
203.605	2249.62
203.68	2228.53
203.754	2220.59
203.829	2207.02
203.904	2187.61
203.978	2179.19
204.053	2182.95
204.127	2170.86
204.202	2167.63
204.277	2150.6
204.351	2144.8
204.426	2140.56
204.5	2132.48
204.575	2104.27
204.65	2110.17
204.724	2103.56
204.799	2112.92
204.873	2108.83
204.948	2108.93
205.022	2099.08
205.097	2091.99
205.171	2108.07
205.246	2112.87
205.32	2112.73
205.395	2113.59
205.469	2103.08
205.544	2106.89
205.618	2090.14
205.693	2103.18
205.767	2092.1
205.842	2112.93
205.916	2107.37
205.991	2097.57
206.065	2103.95
206.14	2118.25
206.214	2117.35
206.289	2110.88
206.363	2121.44
206.438	2123.15
206.512	2128.43
206.586	2146.37
206.661	2154.65
206.735	2131.92
206.81	2133.49
206.884	2149.23
206.958	2134.34
207.033	2151.08
207.107	2158.27
207.181	2188.15
207.256	2181.06
207.33	2200.42
207.405	2212.28
207.479	2229.69
207.553	2239.11
207.628	2227.89
207.702	2236.26
207.776	2229.55
207.851	2234.31
207.925	2245.73
207.999	2244.59
208.073	2240.97
208.148	2241.93
208.222	2231.79
208.296	2261.85
208.371	2281.75
208.445	2291.65
208.519	2323.96
208.593	2337.38
208.668	2335.33
208.742	2337.48
208.816	2342.99
208.89	2354.33
208.965	2354.13
209.039	2363.99
209.113	2383.51
209.187	2404.06
209.261	2406.49
209.336	2427.48
209.41	2449.57
209.484	2455.38
209.558	2482
209.632	2504.18
209.707	2521.61
209.781	2546.94
209.855	2568.8
209.929	2592.45
210.003	2609.41
210.077	2618.89
210.151	2677.06
210.226	2722.1
210.3	2763.87
210.374	2801.12
210.448	2823.66
210.522	2854.17
210.596	2885.44
210.67	2917.52
210.744	2984.47
210.818	3043.05
210.892	3094.99
210.966	3119.88
211.041	3169.53
211.115	3202.77
211.189	3263.65
211.263	3324.63
211.337	3377.74
211.411	3435.78
211.485	3476.32
211.559	3539.47
211.633	3596.45
211.707	3627.32
211.781	3696.77
211.855	3733.9
211.929	3797.27
212.003	3857.06
212.077	3938.09
212.151	4028.21
212.225	4116.42
212.299	4191.06
212.373	4268.58
212.447	4355.67
212.52	4480.7
212.594	4583.41
212.668	4699.29
212.742	4791.11
212.816	4892.64
212.89	5001.21
212.964	5118.55
213.038	5241.28
213.112	5376.5
213.186	5516.24
213.26	5628.11
213.333	5719.61
213.407	5857.12
213.481	5998.21
213.555	6147.89
213.629	6281.18
213.703	6410.85
213.777	6559.03
213.85	6691.05
213.924	6878.07
213.998	7035.62
214.072	7182.41
214.146	7328.61
214.219	7485.37
214.293	7646.59
214.367	7814.03
214.441	7985.32
214.515	8143.05
214.588	8291.5
214.662	8431.46
214.736	8583.27
214.81	8757.1
214.883	8933.93
214.957	9093.43
215.031	9255.22
215.105	9409.31
215.178	9565.31
215.252	9734.77
215.326	9880.89
215.4	10045.79
215.473	10176.59
215.547	10332.3
215.621	10500.6
215.694	10676.8
215.768	10825.92
215.842	10980.93
215.915	11139.96
215.989	11288.43
216.063	11449.16
216.136	11623.33
216.21	11787.48
216.284	11964.41
216.357	12133.11
216.431	12296.55
216.504	12469.16
216.578	12656.18
216.652	12827.15
216.725	12997.89
216.799	13166.12
216.873	13335.36
216.946	13502.92
217.02	13656.21
217.093	13805.65
217.167	13934.94
217.24	14076.18
217.314	14229.86
217.387	14380.21
217.461	14518.84
217.535	14686.01
217.608	14823.2
217.682	14965.64
217.755	15119.26
217.829	15249.22
217.902	15390.93
217.976	15526.57
218.049	15661.15
218.123	15780.63
218.196	15922.63
218.27	16049.59
218.343	16165.41
218.417	16292.12
218.49	16411.41
218.563	16550.02
218.637	16677.5
218.71	16824.11
218.784	16944.79
218.857	17080.32
218.931	17205.43
219.004	17327.17
219.077	17440.95
219.151	17563.75
219.224	17673.15
219.298	17787.56
219.371	17909.19
219.444	18012.8
219.518	18120.61
219.591	18224.9
219.665	18354.19
219.738	18450.14
219.811	18552.98
219.885	18662.37
219.958	18782.17
220.031	18878.7
220.105	18969.58
220.178	19071.31
220.251	19152.61
220.325	19254
220.398	19340.65
220.471	19431
220.544	19528.2
220.618	19601.98
220.691	19684.44
220.764	19761.74
220.838	19838.89
220.911	19910.65
220.984	20003.32
221.057	20090.01
221.131	20167.22
221.204	20213.24
221.277	20298.01
221.35	20389.53
221.424	20450.11
221.497	20505.67
221.57	20565.24
221.643	20641.96
221.716	20714.88
221.79	20781.63
221.863	20836.38
221.936	20892.19
222.009	20941.64
222.082	20993.45
222.155	21039.14
222.229	21104.83
222.302	21169.75
222.375	21223.2
222.448	21284.8
222.521	21324.9
222.594	21366.59
222.667	21398.93
222.74	21450.99
222.814	21487.67
222.887	21509.31
222.96	21557.7
223.033	21597.75
223.106	21647.16
223.179	21678.68
223.252	21697.63
223.325	21722.74
223.398	21755.03
223.471	21779.33
223.544	21822.03
223.617	21849.99
223.69	21891.54
223.763	21899.4
223.837	21916.17
223.91	21948.47
223.983	21950.93
224.056	21968.71
224.129	21994.79
224.202	22028.58
224.275	22041.55
224.348	22053.41
224.42	22067.87
224.493	22065.89
224.566	22074.91
224.639	22088.98
224.712	22090.96
224.785	22113.91
224.858	22137.14
224.931	22141.34
225.004	22144.9
225.077	22152.42
225.15	22144.32
225.223	22145
225.296	22176.09
225.369	22166.26
225.442	22162.5
225.514	22171.75
225.587	22166.36
225.66	22168.33
225.733	22171.75
225.806	22170.4
225.879	22165.01
225.952	22161.49
226.025	22189.59
226.097	22207.62
226.17	22207.86
226.243	22197.93
226.316	22191.23
226.389	22168.86
226.461	22177.3
226.534	22181.59
226.607	22176.82
226.68	22189.45
226.753	22189.4
226.825	22165.78
226.898	22185.88
226.971	22173.63
227.044	22174.5
227.117	22167.27
227.189	22165.15
227.262	22166.93
227.335	22166.55
227.407	22164.62
227.48	22155.08
227.553	22141.63
227.626	22129.91
227.698	22130.34
227.771	22127.21
227.844	22112.12
227.916	22116.46
227.989	22084.94
228.062	22078.28
228.134	22075.97
228.207	22056.11
228.28	22037.17
228.352	22017.11
228.425	21993.54
228.498	21987.8
228.57	21967.22
228.643	21974.64
228.716	21958.3
228.788	21939.36
228.861	21921.48
228.934	21925.48
229.006	21918
229.079	21904.03
229.151	21886.43
229.224	21850.04
229.296	21836.3
229.369	21837.17
229.442	21830.76
229.514	21816.1
229.587	21811.38
229.659	21789.78
229.732	21787.66
229.804	21788.39
229.877	21796.58
229.949	21797.21
230.022	21793.35
230.094	21778.17
230.167	21757.68
230.239	21732.04
230.312	21719.7
230.384	21730.88
230.457	21708.32
230.529	21690.59
230.602	21669.57
230.674	21642.19
230.747	21625.47
230.819	21622.29
230.892	21573.32
230.964	21551.48
231.037	21541.89
231.109	21516.01
231.181	21504
231.254	21469.73
231.326	21445.49
231.399	21429.15
231.471	21411.7
231.544	21374.3
231.616	21358.54
231.688	21346.54
231.761	21318.53
231.833	21284.02
231.905	21235.2
231.978	21222.52
232.05	21203.2
232.122	21184.06
232.195	21164.88
232.267	21163.87
232.339	21137.36
232.412	21136.92
232.484	21112.25
232.556	21086.41
232.629	21075.42
232.701	21050.46
232.773	21032.14
232.846	21005.4
232.918	20973.34
232.99	20941.92
233.062	20927.03
233.135	20911.56
233.207	20869.05
233.279	20859.89
233.351	20844.42
233.424	20806.3
233.496	20763.22
233.568	20746.35
233.64	20698.39
233.713	20668.71
233.785	20633.09
233.857	20605.91
233.929	20567.35
234.001	20561.28
234.074	20548.03
234.146	20504.75
234.218	20472.32
234.29	20435.69
234.362	20404.7
234.434	20363.59
234.507	20336.8
234.579	20291.4
234.651	20251.69
234.723	20234.34
234.795	20208.17
234.867	20178.15
234.939	20170.68
235.012	20150.92
235.084	20125.86
235.156	20114.01
235.228	20082.01
235.3	20045.24
235.372	20016.18
235.444	19999.41
235.516	19940.86
235.588	19916.66
235.66	19892.04
235.732	19856.38
235.804	19879.56
235.876	19854.4
235.948	19844.38
236.02	19812.19
236.092	19783.85
236.164	19757.97
236.236	19720.87
236.308	19688.1
236.38	19654.51
236.452	19614.94
236.524	19589.64
236.596	19577.5
236.668	19555.24
236.74	19521.98
236.812	19500.2
236.884	19470.33
236.956	19434.91
237.028	19401.12
237.1	19356.79
237.172	19335.49
237.244	19327.83
237.316	19265.9
237.388	19221.13
237.46	19182.68
237.532	19157.28
237.604	19125.09
237.675	19103.89
237.747	19082.4
237.819	19044.9
237.891	19013.97
237.963	18968.96
238.035	18913.64
238.107	18838.65
238.178	18811.42
238.25	18780.73
238.322	18774.46
238.394	18728.68
238.466	18691.87
238.538	18661.41
238.609	18633.56
238.681	18586.62
238.753	18537.47
238.825	18508.41
238.897	18482.62
238.968	18458.43
239.04	18412.89
239.112	18397.91
239.184	18347.84
239.255	18300.61
239.327	18265.48
239.399	18240.66
239.471	18228.13
239.542	18217.19
239.614	18211.89
239.686	18159.51
239.758	18130.74
239.829	18081.15
239.901	18062.02
239.973	18026.65
240.044	18002.26
240.116	17965.35
240.188	17928.24
240.259	17900.29
240.331	17852.48
240.403	17820.97
240.474	17772.24
240.546	17732.1
240.618	17691.04
240.689	17654.75
240.761	17635.04
240.833	17622.37
240.904	17582.61
240.976	17538.9
241.048	17488.54
241.119	17447.81
241.191	17418.03
241.262	17396.59
241.334	17355.96
241.405	17317.94
241.477	17279.04
241.549	17245.6
241.62	17217.45
241.692	17189.02
241.763	17152.2
241.835	17131.33
241.906	17099.23
241.978	17054.17
242.049	17037.01
242.121	17000.19
242.192	16983.61
242.264	16934.5
242.335	16885.35
242.407	16861.68
242.478	16828.67
242.55	16810.98
242.621	16770.93
242.693	16738.01
242.764	16700.52
242.836	16659.12
242.907	16632.99
242.979	16610.82
243.05	16576.27
243.122	16541.13
243.193	16506.72
243.264	16462.09
243.336	16423.82
243.407	16400.88
243.479	16387.05
243.55	16354.08
243.622	16323.86
243.693	16284.58
243.764	16264.1
243.836	16221.39
243.907	16183.03
243.978	16146.78
244.05	16112.27
244.121	16069.09
244.192	16040.65
244.264	15997.75
244.335	15978.86
244.407	15924.15
244.478	15889.5
244.549	15855.23
244.62	15813.87
244.692	15786.4
244.763	15762.63
244.834	15722.1
244.906	15677.75
244.977	15649.12
245.048	15626.13
245.119	15588.15
245.191	15550.79
245.262	15502.3
245.333	15486.83
245.405	15456.18
245.476	15437.23
245.547	15408.94
245.618	15392.89
245.689	15363.77
245.761	15336.68
245.832	15298.6
245.903	15282.31
245.974	15248.57
246.045	15207.21
246.117	15189.86
246.188	15140.02
246.259	15101.36
246.33	15069.01
246.401	15033.2
246.473	14985.14
246.544	14945.04
246.615	14923.49
246.686	14886.61
246.757	14868.54
246.828	14822.31
246.899	14802.26
246.97	14746.34
247.042	14707
247.113	14672.73
247.184	14658.46
247.255	14616.81
247.326	14588.71
247.397	14556.37
247.468	14527.35
247.539	14510.09
247.61	14464.68
247.681	14453.11
247.752	14439.47
247.823	14400.04
247.894	14378.92
247.965	14335.68
248.037	14302.66
248.108	14261.25
248.179	14234.6
248.25	14203.7
248.321	14184.65
248.392	14138.57
248.463	14135.82
248.534	14104.44
248.605	14082.12
248.675	14045.77
248.746	14027.02
248.817	14000.51
248.888	13970.43
248.959	13923.62
249.03	13894.55
249.101	13870.45
249.172	13832.27
249.243	13779.14
249.314	13771.29
249.385	13750.75
249.456	13732.48
249.527	13699.31
249.598	13675.98
249.669	13655.35
249.739	13629.56
249.81	13601.94
249.881	13567.52
249.952	13538.5
250.023	13509.53
250.094	13479.54
250.165	13441.6
250.235	13408.58
250.306	13380.67
250.377	13349.05
250.448	13338.3
250.519	13291.29
250.59	13281.12
250.66	13258.13
250.731	13249.79
250.802	13220.14
250.873	13186.4
250.944	13170.3
251.014	13141.76
251.085	13142.38
251.156	13112.35
251.227	13101.84
251.297	13091.33
251.368	13072.44
251.439	13047.85
251.51	13034.88
251.58	12993.91
251.651	12967.44
251.722	12952.21
251.792	12909.98
251.863	12879.04
251.934	12868.53
252.005	12875.81
252.075	12850.5
252.146	12830.88
252.217	12815.26
252.287	12796.6
252.358	12774.72
252.429	12765.8
252.499	12738.08
252.57	12706.51
252.641	12692.82
252.711	12666.54
252.782	12626.73
252.852	12625.81
252.923	12608.51
252.994	12580.69
253.064	12573.56
253.135	12544.73
253.205	12514.46
253.276	12508.39
253.347	12506.36
253.417	12479.17
253.488	12456.18
253.558	12430.53
253.629	12410.39
253.699	12391.78
253.77	12372.59
253.841	12347.87
253.911	12329.64
253.982	12312.97
254.052	12304.14
254.123	12287.18
254.193	12255.17
254.264	12265.82
254.334	12230.92
254.405	12199.21
254.475	12175.68
254.546	12148.59
254.616	12140.16
254.687	12126.04
254.757	12114.71
254.827	12089.16
254.898	12065.74
254.968	12038.41
255.039	12012.33
255.109	11993.77
255.18	11959.31
255.25	11924.89
255.321	11913.66
255.391	11877.27
255.461	11874.76
255.532	11825.12
255.602	11799.38
255.673	11775.42
255.743	11747.51
255.813	11709.92
255.884	11699.12
255.954	11688.28
256.024	11690.25
256.095	11672.23
256.165	11646.15
256.235	11625.96
256.306	11602.53
256.376	11589.52
256.446	11575.49
256.517	11561.23
256.587	11546.33
256.657	11537.85
256.728	11524.6
256.798	11502.48
256.868	11482.62
256.938	11449.51
257.009	11445.31
257.079	11436.06
257.149	11436.06
257.219	11391.14
257.29	11376.78
257.36	11340.2
257.43	11328.54
257.5	11281.6
257.571	11255.53
257.641	11244.3
257.711	11212.01
257.781	11196.3
257.852	11187.43
257.922	11152.25
257.992	11128.15
258.062	11112.1
258.132	11097.55
258.202	11073.07
258.273	11052.3
258.343	11044.78
258.413	11026.47
258.483	11001.89
258.553	10972.54
258.623	10948.06
258.693	10940.35
258.764	10935.05
258.834	10929.7
258.904	10910.28
258.974	10890.72
259.044	10869.47
259.114	10854.14
259.184	10841.37
259.254	10825.95
259.324	10782.73
259.394	10768.95
259.464	10770.88
259.535	10751.31
259.605	10729.58
259.675	10706.79
259.745	10698.11
259.815	10668.63
259.885	10645.16
259.955	10651.62
260.025	10627
260.095	10608.88
260.165	10593.51
260.235	10589.12
260.305	10574.28
260.375	10545.28
260.445	10549.71
260.515	10551.25
260.585	10541.95
260.655	10529.09
260.725	10520.9
260.795	10517.09
260.865	10524.08
260.934	10501.04
261.004	10483.89
261.074	10462.79
261.144	10458.55
261.214	10449.64
261.284	10437.88
261.354	10434.56
261.424	10405.55
261.494	10402.56
261.564	10382.37
261.634	10375.44
261.703	10343.98
261.773	10327.93
261.843	10321.96
261.913	10300.42
261.983	10263.28
262.053	10255.09
262.123	10234.81
262.192	10205.33
262.262	10195.79
262.332	10167.7
262.402	10149.3
262.472	10140.48
262.541	10110.42
262.611	10108.06
262.681	10078.1
262.751	10068.03
262.821	10043.37
262.89	10022.12
262.96	10016.87
263.03	10017.45
263.1	10005.84
263.169	9992.64
263.239	9985.37
263.309	9980.02
263.379	9970.63
263.448	9963.31
263.518	9950.2
263.588	9932.96
263.657	9933.35
263.727	9922.22
263.797	9902.66
263.867	9888.98
263.936	9856.62
264.006	9853.58
264.076	9838.22
264.145	9824.58
264.215	9803.78
264.285	9804.98
264.354	9770.98
264.424	9745.79
264.494	9717.04
264.563	9696.23
264.633	9699.98
264.702	9684.52
264.772	9658.18
264.842	9643.01
264.911	9631.83
264.981	9606.3
265.05	9596.87
265.12	9580.83
265.19	9568.31
265.259	9564.07
265.329	9558.38
265.398	9549.52
265.468	9558.77
265.537	9536.18
265.607	9529.97
265.676	9528.38
265.746	9513.65
265.815	9517.21
265.885	9502.52
265.955	9478.69
266.024	9457.79
266.094	9418.69
266.163	9413.34
266.232	9409.92
266.302	9389.51
266.371	9379.49
266.441	9368.85
266.51	9365.72
266.58	9354.3
266.649	9339.33
266.719	9333.98
266.788	9323.53
266.858	9328.69
266.927	9297.14
266.996	9284.53
267.066	9270.66
267.135	9240.47
267.205	9234.5
267.274	9223.81
267.343	9226.8
267.413	9224.49
267.482	9232.96
267.552	9241.15
267.621	9221.74
267.69	9191.36
267.76	9183.23
267.829	9171.77
267.898	9158.14
267.968	9137.68
268.037	9130.46
268.106	9128.24
268.176	9106.05
268.245	9090.59
268.314	9071.72
268.384	9072.06
268.453	9063.1
268.522	9059.49
268.592	9063.34
268.661	9047.36
268.73	9033.88
268.799	9012.02
268.869	9009.09
268.938	8984.77
269.007	8965.18
269.076	8955.31
269.146	8959.74
269.215	8952.61
269.284	8958.15
269.353	8941.01
269.422	8931.68
269.492	8913.48
269.561	8881.95
269.63	8874.3
269.699	8855.91
269.768	8846.67
269.838	8835.4
269.907	8832.03
269.976	8813.6
270.045	8784.96
270.114	8780.92
270.183	8778.7
270.253	8769.27
270.322	8746.12
270.391	8726.82
270.46	8726.34
270.529	8715.31
270.598	8713.2
270.667	8704
270.736	8684.12
270.806	8673.01
270.875	8669.54
270.944	8657.17
271.013	8668.48
271.082	8665.6
271.151	8664.15
271.22	8639.75
271.289	8630.51
271.358	8614.82
271.427	8604.62
271.496	8601.49
271.565	8583.25
271.634	8565.25
271.703	8584.94
271.772	8586.34
271.841	8579.7
271.91	8556.5
271.979	8557.37
272.048	8530.95
272.117	8531.57
272.186	8516.8
272.255	8525.12
272.324	8521.56
272.393	8513.67
272.462	8498.41
272.531	8484.55
272.6	8474.88
272.669	8479.64
272.738	8464.1
272.807	8460.88
272.876	8451.97
272.945	8475.94
273.013	8477.1
273.082	8485.95
273.151	8448.12
273.22	8447.21
273.289	8441.63
273.358	8456.16
273.427	8443.36
273.496	8447.16
273.564	8441.82
273.633	8438.64
273.702	8416.56
273.771	8412.85
273.84	8409.96
273.909	8412.71
273.977	8417.9
274.046	8409.29
274.115	8411.5
274.184	8397.46
274.253	8391.01
274.322	8386.1
274.39	8351.89
274.459	8339.43
274.528	8313.3
274.597	8307.96
274.665	8302.43
274.734	8304.35
274.803	8291.6
274.872	8280.44
274.94	8264.47
275.009	8308.22
275.078	8296.39
275.147	8291.68
275.215	8277.96
275.284	8282.53
275.353	8266.85
275.421	8233.03
275.49	8246.31
275.559	8239.38
275.627	8233.9
275.696	8226.73
275.765	8230.34
275.833	8223.51
275.902	8220.19
275.971	8229.13
276.039	8241.64
276.108	8242.94
276.177	8241.93
276.245	8233.75
276.314	8233.37
276.383	8240.25
276.451	8187.54
276.52	8195.14
276.588	8213.37
276.657	8220.35
276.725	8216.02
276.794	8219.1
276.863	8231.89
276.931	8206.49
277	8213.47
277.068	8224.29
277.137	8238.15
277.205	8234.92
277.274	8253.92
277.342	8266.72
277.411	8250.13
277.48	8237.33
277.548	8227.47
277.617	8227.61
277.685	8220.49
277.754	8221.79
277.822	8214.86
277.89	8225.93
277.959	8215.2
278.027	8193.36
278.096	8185.66
278.164	8207.46
278.233	8196.01
278.301	8190.1
278.37	8200.87
278.438	8184.71
278.507	8190.86
278.575	8172.1
278.643	8172.29
278.712	8154.25
278.78	8137.99
278.849	8148.24
278.917	8159.45
278.985	8154.83
279.054	8159.69
279.122	8167.53
279.191	8163.44
279.259	8158.92
279.327	8140.2
279.396	8157.76
279.464	8157.14
279.532	8158.67
279.601	8150.54
279.669	8144.96
279.737	8159.11
279.806	8158.24
279.874	8171.18
279.942	8165.5
280.011	8153.96
280.079	8158.63
280.147	8169.35
280.215	8177.05
280.284	8176.14
280.352	8163.58
280.42	8177.34
280.488	8165.17
280.557	8159.88
280.625	8165.31
280.693	8162.67
280.761	8162.48
280.83	8144.77
280.898	8155.11
280.966	8140.97
281.034	8110.37
281.102	8103.93
281.171	8093.54
281.239	8097.39
281.307	8088.78
281.375	8079.78
281.443	8109.99
281.512	8110.04
281.58	8118.75
281.648	8103.74
281.716	8100.95
281.784	8099.6
281.852	8086.95
281.92	8084.69
281.989	8088.73
282.057	8076.37
282.125	8118.28
282.193	8116.16
282.261	8120.44
282.329	8118.27
282.397	8125.39
282.465	8135.69
282.533	8150.4
282.601	8141.7
282.67	8119.76
282.738	8109.81
282.806	8117.17
282.874	8099.03
282.942	8097.73
283.01	8093.88
283.078	8098.74
283.146	8092.82
283.214	8105.09
283.282	8107.16
283.35	8123.85
283.418	8122.55
283.486	8122.99
283.554	8085.12
283.622	8086.9
283.69	8082.62
283.758	8076.84
283.826	8073.33
283.894	8073.52
283.962	8087.86
284.03	8106.48
284.098	8114.32
284.165	8113.5
284.233	8114.37
284.301	8113.84
284.369	8104.22
284.437	8094.16
284.505	8092.14
284.573	8110.61
284.641	8090.7
284.709	8096.76
284.777	8079.92
284.845	8085.02
284.912	8089.93
284.98	8090.65
285.048	8084.49
285.116	8091.8
285.184	8100.65
285.252	8105.8
285.319	8098.25
285.387	8094.5
285.455	8077.32
285.523	8082.66
285.591	8082.61
285.659	8083.14
285.726	8093.77
285.794	8080.69
285.862	8083.05
285.93	8083.53
285.997	8075.69
286.065	8077.76
286.133	8066.84
286.201	8064
286.269	8059.38
286.336	8055.48
286.404	8056.59
286.472	8066.98
286.539	8048.08
286.607	8033.46
286.675	8033.7
286.743	8038.51
286.81	8031.05
286.878	8041.78
286.946	8032.64
287.013	8027.68
287.081	8029.46
287.149	8015.8
287.216	8038.02
287.284	8029.51
287.352	8033.4
287.419	8032.25
287.487	8045.29
287.555	8050.63
287.622	8047.26
287.69	8043.12
287.758	8054.04
287.825	8045.48
287.893	8031.67
287.96	8039.08
288.028	8047.64
288.096	8051.06
288.163	8055.1
288.231	8044.56
288.298	8044.9
288.366	8058.56
288.433	8059.43
288.501	8050.29
288.569	8052.36
288.636	8043.55
288.704	8052.31
288.771	8051.73
288.839	8045
288.906	8034.03
288.974	8045.09
289.041	8042.93
289.109	8037.16
289.176	8036.58
289.244	8045.48
289.311	8067.42
289.379	8073.04
289.446	8080.02
289.514	8076.41
289.581	8073.53
289.649	8077.52
289.716	8074.73
289.783	8065.2
289.851	8083.63
289.918	8084.54
289.986	8094.11
290.053	8095.41
290.121	8097.09
290.188	8098.78
290.255	8129.23
290.323	8127.5
290.39	8119.51
290.458	8129.9
290.525	8139.33
290.592	8136.78
290.66	8133.85
290.727	8123.31
290.794	8133.65
290.862	8134.04
290.929	8136.2
290.996	8144.86
291.064	8149.67
291.131	8164.2
291.198	8178.15
291.266	8176.04
291.333	8181.33
291.4	8185.99
291.468	8206.25
291.535	8206.3
291.602	8215.34
291.669	8203.55
291.737	8208.03
291.804	8210.53
291.871	8223.95
291.938	8237.04
292.006	8263.94
292.073	8276.2
292.14	8290.78
292.207	8290.06
292.275	8287.17
292.342	8299.54
292.409	8317.58
292.476	8342.8
292.543	8333.61
292.611	8336.2
292.678	8344.87
292.745	8364.59
292.812	8374.89
292.879	8365.55
292.946	8370.56
293.014	8384.18
293.081	8394.28
293.148	8407.8
293.215	8430.18
293.282	8429.07
293.349	8436.14
293.416	8422.67
293.484	8439.03
293.551	8443.21
293.618	8457.22
293.685	8488.69
293.752	8482.15
293.819	8480.65
293.886	8472.95
293.953	8479.64
294.02	8487.92
294.087	8501.39
294.154	8493.26
294.221	8507.22
294.288	8516.02
294.356	8531.18
294.423	8536.71
294.49	8523.68
294.557	8540.71
294.624	8525.26
294.691	8543.84
294.758	8543.89
294.825	8548.22
294.892	8544.27
294.959	8542.35
295.026	8550.62
295.093	8534.79
295.16	8538.93
295.226	8539.75
295.293	8562.08
295.36	8566.99
295.427	8579.31
295.494	8590.71
295.561	8602.31
295.628	8618.54
295.695	8637.21
295.762	8639.18
295.829	8645.01
295.896	8670.75
295.963	8676.19
296.03	8686.54
296.096	8687.4
296.163	8699.05
296.23	8714.31
296.297	8718.83
296.364	8722.01
296.431	8726.29
296.498	8727.59
296.564	8749.78
296.631	8753.1
296.698	8737.45
296.765	8757.19
296.832	8745.59
296.899	8730.71
296.965	8749.92
297.032	8736.58
297.099	8746.55
297.166	8756.7
297.233	8752.32
297.299	8743.32
297.366	8745.06
297.433	8748.14
297.5	8758.58
297.566	8762.53
297.633	8764.7
297.7	8775.96
297.767	8774.9
297.833	8775.33
297.9	8779.09
297.967	8762.24
298.033	8770.86
298.1	8798.78
298.167	8791.08
298.234	8799.88
298.3	8809.51
298.367	8801.76
298.434	8806.24
298.5	8793.43
298.567	8790.16
298.634	8794.01
298.7	8810.04
298.767	8813.6
298.834	8824.62
298.9	8822.94
298.967	8820.92
299.033	8829.48
299.1	8838.05
299.167	8848.98
299.233	8846.86
299.3	8853.21
299.366	8875.16
299.433	8889.89
299.5	8865.53
299.566	8868.37
299.633	8882
299.699	8892.39
299.766	8889.65
299.832	8897.11
299.899	8906.11
299.965	8923.93
300.032	8920.08
300.099	8925.76
300.165	8927.78
300.232	8927.73
300.298	8926.09
300.365	8936.54
300.431	8936.15
300.498	8930.67
300.564	8938.32
300.631	8952.14
300.697	8970.96
300.763	8967.49
300.83	8964.94
300.896	8978.27
300.963	8995.27
301.029	9002.34
301.096	9006.29
301.162	9019.29
301.229	9015.44
301.295	9004.56
301.361	9001.96
301.428	9002.49
301.494	8988.77
301.561	8993.29
301.627	8996.57
301.693	8998.3
301.76	8997.29
301.826	8993.34
301.892	9003.02
301.959	9009.76
302.025	9009.71
302.092	9003.31
302.158	9008.41
302.224	9010.05
302.291	8999.6
302.357	8987.28
302.423	8979.72
302.49	8972.59
302.556	8981.11
302.622	8976.83
302.688	8991.75
302.755	9003.12
302.821	9012.21
302.887	9024.78
302.954	9025.45
303.02	9032.24
303.086	9037.25
303.152	9034.94
303.219	9024.92
303.285	9026.61
303.351	9025.69
303.417	9020.21
303.483	9013.71
303.55	9007.02
303.616	9009.47
303.682	9011.97
303.748	9009.18
303.815	9021.12
303.881	9026.27
303.947	9015.44
304.013	9016.21
304.079	9003.02
304.145	8977.94
304.212	8970.09
304.278	8959.65
304.344	8950.6
304.41	8937.12
304.476	8932.74
304.542	8929.8
304.608	8937.5
304.674	8922.77
304.741	8926.53
304.807	8927.01
304.873	8934.71
304.939	8953.63
305.005	8932.98
305.071	8931.77
305.137	8930.38
305.203	8904.57
305.269	8899.09
305.335	8907.7
305.401	8904.43
305.467	8904.19
305.533	8916.18
305.599	8930.42
305.666	8941.88
305.732	8944.87
305.798	8952.81
305.864	8972.98
305.93	8972.26
305.996	8972.93
306.062	8978.08
306.128	8970.57
306.194	8962.87
306.259	8957.24
306.325	8947.85
306.391	8954.59
306.457	8964.12
306.523	8969.85
306.589	8990.41
306.655	8993.15
306.721	8978.03
306.787	8971.73
306.853	8987.81
306.919	8969.18
306.985	8961.57
307.051	8948.81
307.117	8940.05
307.183	8933.03
307.248	8898.12
307.314	8900.63
307.38	8906.31
307.446	8905.01
307.512	8895.38
307.578	8899.66
307.644	8896.25
307.709	8889.12
307.775	8892.25
307.841	8883.68
307.907	8875.02
307.973	8861.15
308.039	8849.84
308.104	8853.89
308.17	8845.46
308.236	8830.68
308.302	8836.89
308.368	8821.44
308.433	8821.01
308.499	8817.49
308.565	8806.71
308.631	8817.64
308.696	8797.38
308.762	8785.39
308.828	8780.96
308.894	8765.9
308.959	8747.32
309.025	8736.3
309.091	8739.57
309.156	8724.36
309.222	8725.08
309.288	8715.07
309.354	8697.6
309.419	8698.47
309.485	8682.63
309.551	8690.72
309.616	8676.95
309.682	8670.6
309.748	8667.09
309.813	8666.03
309.879	8656.79
309.945	8646.44
310.01	8634.46
310.076	8641.05
310.141	8634.41
310.207	8618.67
310.273	8617.03
310.338	8613.04
310.404	8598.65
310.469	8579.35
310.535	8575.21
310.601	8557.31
310.666	8564.62
310.732	8576.51
310.797	8563.9
310.863	8556.68
310.928	8549.51
310.994	8550.14
311.059	8547.49
311.125	8542
311.191	8546.19
311.256	8536.23
311.322	8543.59
311.387	8528.87
311.453	8860.13
311.518	8837.27
311.584	8839.53
311.649	8846.32
311.715	8842.28
311.78	8842.47
311.846	8834.53
311.911	8838.43
311.976	8838.09
312.042	8825.1
312.107	8804.26
312.173	8795.69
312.238	8784.05
312.304	8778.37
312.369	8768.55
312.434	8756.28
312.5	8751.28
312.565	8719.13
312.631	8721.59
312.696	8711.68
312.761	8711.92
312.827	8368.44
312.892	8399.71
312.958	8397.31
313.023	8389.75
313.088	8391.05
313.154	8383.55
313.219	8375.37
313.284	8363.58
313.35	8356.07
313.415	8348.66
313.48	8347.8
313.546	8355.49
313.611	8367.96
313.676	8361.08
313.741	8353.47
313.807	8361.37
313.872	8362.71
313.937	8367.38
314.003	8382.39
314.068	8384.9
314.133	8387.35
314.198	8378.01
314.264	8354.1
314.329	8342.26
314.394	8340.24
314.459	8332.69
314.525	8341.11
314.59	8336.73
314.655	8324.99
314.72	8329.94
314.785	8328.12
314.851	8312.63
314.916	8291.94
314.981	8276.35
315.046	8263.55
315.111	8256
315.176	8243.78
315.242	8248.88
315.307	8245.22
315.372	8218.61
315.437	8208.03
315.502	8196.48
315.567	8208.08
315.632	8191.86
315.698	8194.03
315.763	8191.91
315.828	8187.15
315.893	8186.33
315.958	8183.4
316.023	8176.18
316.088	8156.84
316.153	8138.52
316.218	8130.48
316.283	8115.33
316.348	8099.03
316.413	8096.91
316.479	8077
316.544	8045.79
316.609	8012.74
316.674	7980.76
316.739	7948.88
316.804	7916.8
316.869	7884.87
316.934	7844.66
316.999	7818.84
317.064	7766.95
317.129	7720.16
317.194	7680.06
317.259	7633.5
317.324	7585.81
317.389	7543.94
317.454	7507.45
317.518	7472.98
317.583	7451.34
317.648	7425.86
317.713	7390.58
317.778	7337.08
317.843	7312.08
317.908	7275.17
317.973	7237.01
318.038	7206.97
318.103	7174.25
318.168	7144.31
318.233	7117.5
318.297	7068.68
318.362	7035.86
318.427	7004.35
318.492	6980.8
318.557	6940.7
318.622	6913.74
318.687	6886.46
318.751	6849.57
318.816	6819.89
318.881	6786.51
318.946	6737.61
319.011	6695.44
319.075	6657.11
319.14	6620.33
319.205	6577.55
319.27	6547.68
319.335	6503.47
319.399	6468.37
319.464	6437.93
319.529	6386.33
319.594	6346.72
319.658	6318.84
319.723	6280.24
319.788	6254.28
319.853	6203.88
319.917	6174.56
319.982	6119.66
320.047	6085.59
320.112	6058.86
320.176	6010.78
320.241	5983
320.306	5952.63
320.37	5912.2
320.435	5879.58
320.5	5853.58
320.564	5815.31
320.629	5776.22
320.694	5749.08
320.758	5705.68
320.823	5665.69
320.888	5644.93
320.952	5594.74
321.017	5554.28
321.082	5514.92
321.146	5475.32
321.211	5436.6
321.275	5398.26
321.34	5362.37
321.405	5319.58
321.469	5273.53
321.534	5232.04
321.598	5180.77
321.663	5148.42
321.727	5119.53
321.792	5076.76
321.857	5034.98
321.921	5001.07
321.986	4958.31
322.05	4905.59
322.115	4872.75
322.179	4831.86
322.244	4775.18
322.308	4748.24
322.373	4705.3
322.437	4666
322.502	4639.91
322.566	4605.17
322.631	4568.51
322.695	4529.66
322.76	4488.43
322.824	4454.17
322.889	4409.61
322.953	4364.32
323.018	4304.77
323.082	4246.19
323.146	4197.91
323.211	4149.8
323.275	4104.86
323.34	4062.56
323.404	4026.1
323.468	3982.98
323.533	3942.26
323.597	3901.9
323.662	3854.5
323.726	3817.09
323.79	3772.94
323.855	3712.3
323.919	3662.63
323.983	3619.02
324.048	3556.21
324.112	3682.13
324.177	3560.8
324.241	3379.57
324.305	3199.76
324.37	3020.9
324.434	2847.21
324.498	2806.49
324.562	2758.43
324.627	2703.58
324.691	2651.83
324.755	2595
324.82	2525.84
324.884	2453.74
324.948	2386.21
325.012	2298.57
325.077	2192.44
