Data from 20250702_urea_1M_MAYP1162681_11-35-15-272.txt Node
Date: Wed Jul 02 11:35:15 BST 2025
User: adleo
Spectrometer: MAYP116268
Trigger mode: 0
Integration Time (sec): 1.000000E0
Scans to average: 1
Electric dark correction enabled: true
Nonlinearity correction enabled: true
Boxcar width: 10
XAxis mode: Wavelengths
Number of Pixels in Spectrum: 2068
>>>>>Begin Spectral Data<<<<<
179.565	1022.58
179.642	1069.08
179.718	1106.42
179.795	1137.94
179.871	1168.7
179.948	1183.97
180.024	1200.14
180.101	1216.89
180.177	1228.68
180.254	1247.72
180.33	1268.22
180.407	1307.8
180.483	1388.71
180.56	1463.3
180.636	1533.6
180.712	1522.25
180.789	1531.46
180.865	1541.38
180.942	1548.32
181.018	1557.29
181.095	1564.23
181.171	1570.74
181.248	1571.45
181.324	1585.75
181.4	1590.45
181.477	1596.39
181.553	1606.55
181.63	1625.79
181.706	1642.66
181.782	1649.45
181.859	1647.12
181.935	1649.5
182.011	1644.41
182.088	1659.81
182.164	1677.34
182.24	1689.88
182.317	1697.96
182.393	1696.06
182.469	1708.98
182.546	1721.52
182.622	1724.8
182.698	1723.52
182.775	1731.07
182.851	1743.47
182.927	1734.92
183.003	1733.12
183.08	1730.17
183.156	1739.58
183.232	1735.68
183.308	1725.42
183.385	1733.68
183.461	1749.08
183.537	1750.55
183.613	1762.81
183.69	1752.4
183.766	1742.66
183.842	1748.55
183.918	1752.5
183.995	1764.09
184.071	1767.61
184.147	1765.23
184.223	1756.35
184.299	1767.09
184.375	1756.73
184.452	1762.3
184.528	1812.3
184.604	1820.09
184.68	1828.98
184.756	1832.88
184.832	1837.06
184.908	1842.14
184.985	1840.72
185.061	1826.75
185.137	1835.4
185.213	1826.94
185.289	1829.79
185.365	1823.04
185.441	1822.14
185.517	1834.5
185.593	1830.13
185.669	1827.85
185.745	1836.31
185.822	1852.03
185.898	1842.86
185.974	1854.59
186.05	1846.37
186.126	1808.82
186.202	1805.97
186.278	1800.31
186.354	1794.13
186.43	1798.55
186.506	1792.85
186.582	1791.05
186.658	1799.55
186.734	1780.64
186.81	1781.21
186.886	1784.72
186.962	1794.08
187.038	1789.76
187.114	1787.1
187.19	1795.61
187.266	1787.1
187.341	1785.01
187.417	1777.83
187.493	1776.88
187.569	1778.36
187.645	1774.6
187.721	1764.29
187.797	1769.09
187.873	1776.17
187.949	1770.28
188.025	1763
188.101	1768.18
188.176	1774.36
188.252	1771.84
188.328	1779.25
188.404	1779.16
188.48	1774.12
188.556	1772.27
188.632	1771.65
188.707	1768.94
188.783	1764.85
188.859	1760.76
188.935	1752.97
189.011	1760.1
189.086	1755.68
189.162	1747.84
189.238	1745.27
189.314	1743.94
189.39	1740.14
189.465	1732.77
189.541	1747.27
189.617	1736.2
189.693	1733.06
189.768	1733.78
189.844	1750.23
189.92	1742.44
189.996	1749.94
190.071	1759.73
190.147	1758.4
190.223	1768.67
190.298	1761.82
190.374	1750.14
190.45	1759.87
190.526	1766.72
190.601	1761.4
190.677	1765.15
190.753	1789.11
190.828	1793.2
190.904	1806.41
190.98	1819.63
191.055	1831.41
191.131	1822.14
191.207	1841.49
191.282	1851.32
191.358	1845.34
191.433	1835.4
191.509	1845.61
191.585	1844.04
191.66	1845.94
191.736	1850.74
191.811	1843.52
191.887	1859.35
191.963	1881.74
192.038	1888.49
192.114	1889.3
192.189	1891.53
192.265	1887.44
192.34	1868.14
192.416	1867.71
192.491	1864.76
192.567	1865.95
192.642	1866.43
192.718	1869.85
192.793	1859.96
192.869	1850.84
192.944	1852.5
193.02	1858.35
193.095	1864.72
193.171	1868.71
193.246	1865.86
193.322	1865.76
193.397	1864.62
193.473	1851.74
193.548	1834.05
193.624	1836.95
193.699	1836.24
193.775	1851.74
193.85	1852.31
193.925	1860.87
194.001	1857.97
194.076	1850.55
194.152	1842.09
194.227	1834.01
194.302	1823.65
194.378	1825.69
194.453	1825.46
194.529	1837.62
194.604	1824.22
194.679	1818.85
194.755	1803.41
194.83	1814.44
194.905	1810.21
194.981	1818.48
195.056	1812.63
195.131	1817.67
195.207	1817.2
195.282	1809.5
195.357	1792
195.433	1806.88
195.508	1796.51
195.583	1803.45
195.659	1817.67
195.734	1823.99
195.809	1825.32
195.884	1834.87
195.96	1833.64
196.035	1847.47
196.11	1841.14
196.185	1853.6
196.261	1855.45
196.336	1881.78
196.411	1870.7
196.486	1879.35
196.561	1873.6
196.637	1881.02
196.712	1896.09
196.787	1899.56
196.862	1910.73
196.937	1920.38
197.013	1922.9
197.088	1932.69
197.163	1952.52
197.238	1965.84
197.313	1965.18
197.388	1976.02
197.464	2000.8
197.539	2012.11
197.614	2005.46
197.689	2019.15
197.764	2034.95
197.839	2051.92
197.914	2044.69
197.989	2061.62
198.065	2070.52
198.14	2114.25
198.215	2135.94
198.29	2146.79
198.365	2157.73
198.44	2168.29
198.515	2191.13
198.59	2204.4
198.665	2223.52
198.74	2230.76
198.815	2234.61
198.89	2253.98
198.965	2280.92
199.04	2279.01
199.115	2292.71
199.19	2330.83
199.265	2330.64
199.34	2337.49
199.415	2370.44
199.49	2394.43
199.565	2406.23
199.64	2426.46
199.715	2423.69
199.79	2429.69
199.865	2435.93
199.94	2431.41
200.015	2461.41
200.09	2469.17
200.165	2477.4
200.24	2488.5
200.315	2525.43
200.39	2537.86
200.464	2545.86
200.539	2546.81
200.614	2560.47
200.689	2580.86
200.764	2586.72
200.839	2605.85
200.914	2608.71
200.989	2598.03
201.063	2608.51
201.138	2592.52
201.213	2593.9
201.288	2578.28
201.363	2586.09
201.438	2586.81
201.512	2604.85
201.587	2591.27
201.662	2589.18
201.737	2597.32
201.812	2605.85
201.886	2572.25
201.961	2580.25
202.036	2569.78
202.111	2565.35
202.186	2539.03
202.26	2522.6
202.335	2504.07
202.41	2493.41
202.485	2480.32
202.559	2460.9
202.634	2435.71
202.709	2441.8
202.784	2424.95
202.858	2424.85
202.933	2406.91
203.008	2396.53
203.082	2376.97
203.157	2374.11
203.232	2340.61
203.306	2323.66
203.381	2292.34
203.456	2274.2
203.53	2253.48
203.605	2234.46
203.68	2216.37
203.754	2214.28
203.829	2201.95
203.904	2184.59
203.978	2179.97
204.053	2182.11
204.127	2171.88
204.202	2171.93
204.277	2158.56
204.351	2154.95
204.426	2147.1
204.5	2137.39
204.575	2110.53
204.65	2121.99
204.724	2113.66
204.799	2121.18
204.873	2118.42
204.948	2116.37
205.022	2106.29
205.097	2098.29
205.171	2112.23
205.246	2120.27
205.32	2117.28
205.395	2119.8
205.469	2113.28
205.544	2116.09
205.618	2100.97
205.693	2113.95
205.767	2101.45
205.842	2121.24
205.916	2113.06
205.991	2103.78
206.065	2112.44
206.14	2126.22
206.214	2121.32
206.289	2116.04
206.363	2127.12
206.438	2130.36
206.512	2138.02
206.586	2155
206.661	2162.04
206.735	2141.02
206.81	2140.98
206.884	2153.91
206.958	2140.69
207.033	2154.34
207.107	2161.48
207.181	2187.5
207.256	2180.84
207.33	2198.16
207.405	2207.68
207.479	2225.14
207.553	2231.46
207.628	2216.15
207.702	2227.61
207.776	2222.52
207.851	2226.23
207.925	2240.13
207.999	2237.95
208.073	2237.47
208.148	2238.28
208.222	2230.24
208.296	2259.92
208.371	2273.96
208.445	2284.86
208.519	2314.93
208.593	2326.69
208.668	2324.88
208.742	2333.26
208.816	2336.4
208.89	2355.02
208.965	2355.83
209.039	2364.68
209.113	2385.82
209.187	2408.55
209.261	2406.65
209.336	2425.64
209.41	2447.12
209.484	2451.78
209.558	2474.5
209.632	2491.02
209.707	2511.49
209.781	2537.87
209.855	2562.64
209.929	2586.9
210.003	2603.53
210.077	2610.05
210.151	2666.07
210.226	2709.83
210.3	2749.36
210.374	2786.42
210.448	2804.38
210.522	2833.46
210.596	2865.39
210.67	2895.38
210.744	2963.33
210.818	3024.62
210.892	3076.42
210.966	3103.74
211.041	3153.58
211.115	3190.35
211.189	3251.84
211.263	3308.62
211.337	3356.57
211.411	3413.66
211.485	3461.42
211.559	3522.65
211.633	3584.69
211.707	3619.95
211.781	3690.12
211.855	3723.85
211.929	3787.6
212.003	3844.86
212.077	3931.77
212.151	4020.3
212.225	4108.21
212.299	4184.01
212.373	4259.86
212.447	4347.61
212.52	4471.15
212.594	4567.97
212.668	4676.7
212.742	4772.89
212.816	4874.74
212.89	4984.2
212.964	5099.92
213.038	5219.88
213.112	5359.55
213.186	5497.63
213.26	5602.06
213.333	5689.95
213.407	5830.19
213.481	5972.72
213.555	6128.3
213.629	6258.58
213.703	6393.52
213.777	6545.64
213.85	6679.68
213.924	6863.81
213.998	7019.77
214.072	7170.21
214.146	7324.87
214.219	7489.12
214.293	7646.79
214.367	7815.27
214.441	7995.94
214.515	8153.96
214.588	8302.94
214.662	8441.18
214.736	8591.59
214.81	8771.62
214.883	8950.7
214.957	9109.33
215.031	9261.15
215.105	9407.68
215.178	9569.47
215.252	9740.09
215.326	9898.21
215.4	10056.42
215.473	10190.49
215.547	10345.04
215.621	10503.8
215.694	10677.25
215.768	10830.09
215.842	10993.68
215.915	11146.68
215.989	11286.24
216.063	11452.8
216.136	11626.35
216.21	11789.25
216.284	11970.23
216.357	12139.45
216.431	12310.75
216.504	12486.92
216.578	12680.84
216.652	12862.65
216.725	13031.41
216.799	13201.77
216.873	13364.89
216.946	13530.91
217.02	13684.2
217.093	13843.47
217.167	13980.8
217.24	14116.74
217.314	14272.11
217.387	14419.61
217.461	14572.37
217.535	14737.04
217.608	14867.96
217.682	15010.3
217.755	15172.41
217.829	15307.32
217.902	15447.93
217.976	15586.46
218.049	15718
218.123	15850.59
218.196	15984.11
218.27	16106.92
218.343	16218.16
218.417	16339.23
218.49	16463.39
218.563	16597.71
218.637	16726.01
218.71	16874.55
218.784	17003.28
218.857	17125.16
218.931	17244.35
219.004	17375.77
219.077	17490.95
219.151	17613.61
219.224	17731.2
219.298	17838.13
219.371	17956.64
219.444	18059.29
219.518	18174.08
219.591	18284.24
219.665	18403.8
219.738	18514.45
219.811	18615.46
219.885	18725.33
219.958	18838.82
220.031	18927.1
220.105	19030.81
220.178	19129.07
220.251	19209.26
220.325	19309.2
220.398	19404.76
220.471	19501.96
220.544	19591.21
220.618	19674.29
220.691	19757.76
220.764	19827.78
220.838	19908.98
220.911	19982.43
220.984	20075.77
221.057	20141.75
221.131	20213.75
221.204	20260.93
221.277	20337.84
221.35	20435.24
221.424	20495.72
221.497	20558.95
221.57	20632.49
221.643	20699.1
221.716	20766.57
221.79	20810.48
221.863	20864.45
221.936	20912.07
222.009	20957.57
222.082	21002.49
222.155	21050.34
222.229	21109.53
222.302	21165.53
222.375	21207.85
222.448	21256.58
222.521	21292.58
222.594	21341.79
222.667	21372.97
222.74	21424.16
222.814	21464.02
222.887	21492.99
222.96	21547.56
223.033	21590.79
223.106	21632.34
223.179	21676.78
223.252	21706.09
223.325	21757.95
223.398	21786.25
223.471	21823.03
223.544	21856.67
223.617	21894.27
223.69	21924.25
223.763	21935.63
223.837	21971.34
223.91	22006.53
223.983	22029.43
224.056	22045.19
224.129	22067.94
224.202	22099.9
224.275	22108.77
224.348	22114.17
224.42	22115.52
224.493	22115.18
224.566	22120.49
224.639	22140.06
224.712	22137.5
224.785	22141.41
224.858	22154.04
224.931	22181.27
225.004	22175.68
225.077	22191.3
225.15	22168.98
225.223	22173.75
225.296	22208.08
225.369	22198.68
225.442	22188.41
225.514	22181.76
225.587	22189.57
225.66	22190.92
225.733	22194.72
225.806	22202
225.879	22201.18
225.952	22199.21
226.025	22222.54
226.097	22245.39
226.17	22239.32
226.243	22218.88
226.316	22221.48
226.389	22212.61
226.461	22200.75
226.534	22209.82
226.607	22198.58
226.68	22219.75
226.753	22218.06
226.825	22183.78
226.898	22183.73
226.971	22184.17
227.044	22182.67
227.117	22189.62
227.189	22192.8
227.262	22202.58
227.335	22203.5
227.407	22197.67
227.48	22194.49
227.553	22175.25
227.626	22152.93
227.698	22152.59
227.771	22158.71
227.844	22131.67
227.916	22121.21
227.989	22092.09
228.062	22076.28
228.134	22093.25
228.207	22081.92
228.28	22073.2
228.352	22068.91
228.425	22059.46
228.498	22056.23
228.57	22031.89
228.643	22020.27
228.716	22001.57
228.788	21978.62
228.861	21956.93
228.934	21951.53
229.006	21935.14
229.079	21916.2
229.151	21900.68
229.224	21864.86
229.296	21846.88
229.369	21861.78
229.442	21864.28
229.514	21851.9
229.587	21839.51
229.659	21798.25
229.732	21779.98
229.804	21763.3
229.877	21771.59
229.949	21774.82
230.022	21775.78
230.094	21767.54
230.167	21753.75
230.239	21722.38
230.312	21713.99
230.384	21717.7
230.457	21705.36
230.529	21692.06
230.602	21673.79
230.674	21652
230.747	21654.56
230.819	21650.12
230.892	21609.68
230.964	21596.86
231.037	21589.1
231.109	21581.63
231.181	21567.17
231.254	21541.43
231.326	21518.25
231.399	21490.2
231.471	21451.35
231.544	21407.53
231.616	21400.21
231.688	21382.42
231.761	21359.29
231.833	21323.04
231.905	21276.62
231.978	21248.19
232.05	21224.57
232.122	21216.04
232.195	21201.82
232.267	21182.88
232.339	21157.87
232.412	21153.86
232.484	21116.51
232.556	21081.91
232.629	21066.24
232.701	21049.23
232.773	21021.9
232.846	21000.6
232.918	20978
232.99	20966.19
233.062	20948.64
233.135	20929.46
233.207	20891.39
233.279	20878.76
233.351	20861.51
233.424	20838.23
233.496	20809.6
233.568	20808.98
233.64	20764.15
233.713	20723.86
233.785	20691.86
233.857	20659.24
233.929	20618.7
234.001	20610.99
234.074	20602.95
234.146	20564.49
234.218	20535.33
234.29	20513.98
234.362	20484.78
234.434	20438.37
234.507	20391.96
234.579	20349.93
234.651	20312.73
234.723	20295.47
234.795	20274.56
234.867	20240.25
234.939	20218.56
235.012	20199.86
235.084	20168.49
235.156	20151.28
235.228	20120.54
235.3	20086.08
235.372	20060.2
235.444	20038.08
235.516	19986.61
235.588	19953.51
235.66	19926.66
235.732	19901.22
235.804	19920.4
235.876	19898.33
235.948	19881.36
236.02	19855.87
236.092	19822.09
236.164	19788.07
236.236	19738.87
236.308	19699.64
236.38	19675.83
236.452	19637.57
236.524	19601.23
236.596	19580.42
236.668	19554.92
236.74	19531.21
236.812	19505.82
236.884	19472.61
236.956	19441.92
237.028	19400.47
237.1	19367.27
237.172	19346.5
237.244	19320.33
237.316	19246.75
237.388	19203.23
237.46	19167.43
237.532	19155.19
237.604	19121.69
237.675	19106.47
237.747	19083.82
237.819	19048.3
237.891	19011.39
237.963	18978.38
238.035	18938.48
238.107	18864.6
238.178	18831.54
238.25	18797.28
238.322	18787.45
238.394	18750.83
238.466	18718.15
238.538	18697.77
238.609	18667.36
238.681	18614.79
238.753	18576.38
238.825	18553.68
238.897	18519.56
238.968	18507.32
239.04	18453.01
239.112	18446.12
239.184	18405.35
239.255	18370.22
239.327	18346.51
239.399	18314.13
239.471	18288.64
239.542	18266.52
239.614	18260.3
239.686	18202.52
239.758	18169.03
239.829	18122.23
239.901	18105.13
239.973	18063.3
240.044	18031.63
240.116	17998.43
240.188	17960.31
240.259	17920.55
240.331	17875.3
240.403	17850.63
240.474	17790.44
240.546	17748.41
240.618	17698.15
240.689	17661.52
240.761	17629.52
240.833	17610.3
240.904	17577.52
240.976	17540.27
241.048	17511.16
241.119	17480.75
241.191	17460.08
241.262	17445
241.334	17406.1
241.405	17366.63
241.477	17329.24
241.549	17295.21
241.62	17258.59
241.692	17239.36
241.763	17221.48
241.835	17182.2
241.906	17149.62
241.978	17112.7
242.049	17090.87
242.121	17071.06
242.192	17041.76
242.264	16999.49
242.335	16938.58
242.407	16912.74
242.478	16873.27
242.55	16836.69
242.621	16792.21
242.693	16766.33
242.764	16723.24
242.836	16690.08
242.907	16661.07
242.979	16637.31
243.05	16604.82
243.122	16574.89
243.193	16538.84
243.264	16477.39
243.336	16449.97
243.407	16423.99
243.479	16404.86
243.55	16382.35
243.622	16351.17
243.693	16317.33
243.764	16293.09
243.836	16259.44
243.907	16217.46
243.978	16185.41
244.05	16149.26
244.121	16104.78
244.192	16065.2
244.264	16015.42
244.335	15982.26
244.407	15935.74
244.478	15901.52
244.549	15869.71
244.62	15824.88
244.692	15785.99
244.763	15769.84
244.834	15738.03
244.906	15702.89
244.977	15683.42
245.048	15664.62
245.119	15622.88
245.191	15581.52
245.262	15535.01
245.333	15517.61
245.405	15487.58
245.476	15457.5
245.547	15427.71
245.618	15405.64
245.689	15377
245.761	15350.3
245.832	15317.91
245.903	15289.32
245.974	15258.14
246.045	15217.79
246.117	15211.38
246.188	15172.05
246.259	15127.51
246.33	15090.78
246.401	15050.43
246.473	14989.21
246.544	14949.88
246.615	14926.31
246.686	14888.9
246.757	14869
246.828	14824.7
246.899	14804.84
246.97	14764.2
247.042	14725.25
247.113	14698.69
247.184	14681.77
247.255	14648.65
247.326	14617.27
247.397	14588.93
247.468	14565.26
247.539	14543.81
247.61	14491.27
247.681	14471.41
247.752	14458.15
247.823	14418.43
247.894	14395.14
247.965	14364.92
248.037	14327.17
248.108	14285.96
248.179	14261.76
248.25	14231.49
248.321	14208.78
248.392	14168.43
248.463	14154.55
248.534	14133.77
248.605	14111.36
248.675	14084.27
248.746	14056.4
248.817	14038.18
248.888	14011.72
248.959	13965.39
249.03	13941.82
249.101	13913.62
249.172	13885.71
249.243	13836.39
249.314	13830.12
249.385	13805.92
249.456	13790.88
249.527	13762.01
249.598	13741.71
249.669	13715.01
249.739	13689.94
249.81	13667.86
249.881	13628.28
249.952	13602.44
250.023	13567.88
250.094	13522.85
250.165	13480.63
250.235	13458.88
250.306	13421.72
250.377	13387.88
250.448	13367.39
250.519	13321.11
250.59	13314.12
250.66	13279.17
250.731	13266.88
250.802	13232.07
250.873	13203.49
250.944	13178.61
251.014	13143.04
251.085	13132.82
251.156	13105.87
251.227	13103.55
251.297	13091.5
251.368	13077.38
251.439	13063.69
251.51	13063.59
251.58	13036.26
251.651	13013.12
251.722	13000.87
251.792	12961.88
251.863	12932.23
251.934	12922.83
252.005	12929.19
252.075	12905.33
252.146	12898.39
252.217	12886.87
252.287	12873.9
252.358	12848.98
252.429	12838.81
252.499	12811.28
252.57	12786.07
252.641	12773.49
252.711	12738.49
252.782	12700.26
252.852	12694.05
252.923	12664.45
252.994	12629.4
253.064	12616.87
253.135	12587.42
253.205	12554.16
253.276	12549.09
253.347	12546.49
253.417	12513.33
253.488	12473.94
253.558	12442.85
253.629	12416.77
253.699	12397.88
253.77	12383.22
253.841	12361.05
253.911	12339.21
253.982	12323.5
254.052	12309.57
254.123	12291.25
254.193	12266.67
254.264	12280.45
254.334	12250.23
254.405	12222.51
254.475	12189.54
254.546	12169.1
254.616	12163.75
254.687	12150.26
254.757	12140.91
254.827	12114.59
254.898	12097.24
254.968	12077.33
255.039	12050.24
255.109	12035.35
255.18	12004.64
255.25	11961.6
255.321	11950.17
255.391	11916.87
255.461	11915.23
255.532	11873.53
255.602	11850.54
255.673	11815.84
255.743	11781.47
255.813	11741.66
255.884	11729.18
255.954	11728.07
256.024	11726.96
256.095	11703.73
256.165	11669.6
256.235	11649.5
256.306	11623.48
256.376	11613.06
256.446	11607.33
256.517	11594.61
256.587	11583.18
256.657	11566.94
256.728	11548.19
256.798	11527.52
256.868	11503.71
256.938	11472.72
257.009	11453.49
257.079	11435.99
257.149	11440.47
257.219	11403.84
257.29	11396.86
257.36	11354.25
257.43	11336.71
257.5	11290.68
257.571	11269.86
257.641	11263.12
257.711	11236.22
257.781	11226.97
257.852	11211.74
257.922	11173.28
257.992	11149.19
258.062	11131.88
258.132	11115.31
258.202	11099.79
258.273	11076.71
258.343	11076.32
258.413	11054.3
258.483	11037.38
258.553	11012.52
258.623	10984.42
258.693	10971.22
258.764	10964.86
258.834	10972.66
258.904	10953.29
258.974	10932.04
259.044	10906.69
259.114	10890.93
259.184	10869.92
259.254	10846.89
259.324	10817.25
259.394	10807.66
259.464	10803.91
259.535	10774.51
259.605	10753.65
259.675	10732.45
259.745	10723.68
259.815	10697.12
259.885	10677.27
259.955	10689.56
260.025	10662.29
260.095	10649.62
260.165	10642.2
260.235	10633.04
260.305	10603.27
260.375	10574.07
260.445	10581.53
260.515	10583.32
260.585	10574.45
260.655	10559.61
260.725	10556.96
260.795	10543.18
260.865	10538.12
260.934	10517.6
261.004	10516.3
261.074	10493.65
261.144	10484.69
261.214	10472.55
261.284	10459.73
261.354	10454.48
261.424	10423.21
261.494	10426.53
261.564	10409.04
261.634	10398.15
261.703	10366.11
261.773	10357.3
261.843	10352.63
261.913	10331.52
261.983	10297.37
262.053	10281.23
262.123	10259.98
262.192	10227.46
262.262	10216.48
262.332	10186.08
262.402	10177.55
262.472	10159.24
262.541	10134.63
262.611	10131.36
262.681	10103.85
262.751	10086.07
262.821	10060.25
262.89	10027.93
262.96	10012.18
263.03	10015.55
263.1	9994.98
263.169	9984.81
263.239	9973.64
263.309	9971.28
263.379	9958.75
263.448	9942.57
263.518	9932.36
263.588	9922.29
263.657	9918.49
263.727	9913.67
263.797	9900.95
263.867	9880.63
263.936	9857.84
264.006	9851.39
264.076	9830.29
264.145	9819.74
264.215	9804.86
264.285	9803.22
264.354	9782.03
264.424	9764.98
264.494	9731.75
264.563	9715.42
264.633	9710.75
264.702	9696.44
264.772	9659.02
264.842	9640.52
264.911	9637.39
264.981	9617.21
265.05	9607.24
265.12	9597.66
265.19	9593.23
265.259	9591.06
265.329	9580.99
265.398	9565.82
265.468	9577.91
265.537	9568.71
265.607	9558.55
265.676	9555.66
265.746	9550.8
265.815	9551.67
265.885	9537.32
265.955	9516.13
266.024	9495.47
266.094	9468.74
266.163	9471.58
266.232	9477.17
266.302	9460.56
266.371	9448.09
266.441	9424.68
266.51	9417.17
266.58	9396.03
266.649	9366.8
266.719	9361.7
266.788	9353.51
266.858	9354.23
266.927	9320.04
266.996	9308.2
267.066	9297.7
267.135	9270.25
267.205	9261.2
267.274	9249.02
267.343	9248.2
267.413	9239.25
267.482	9240.55
267.552	9241.37
267.621	9215.84
267.69	9183.1
267.76	9178.43
267.829	9168.47
267.898	9164.04
267.968	9137.46
268.037	9134.43
268.106	9133.23
268.176	9109.39
268.245	9093.94
268.314	9078.68
268.384	9078.29
268.453	9066.74
268.522	9057.68
268.592	9062.16
268.661	9038.43
268.73	9030.63
268.799	9006.46
268.869	9009.78
268.938	8981.33
269.007	8962.17
269.076	8953.46
269.146	8958.75
269.215	8950.47
269.284	8957.94
269.353	8942.87
269.422	8933.82
269.492	8916.64
269.561	8877.65
269.63	8875.1
269.699	8866.24
269.768	8853.19
269.838	8845.54
269.907	8839.95
269.976	8819.5
270.045	8782.49
270.114	8779.45
270.183	8763.47
270.253	8762.61
270.322	8730.12
270.391	8723.24
270.46	8725.36
270.529	8720.25
270.598	8713.47
270.667	8699.22
270.736	8678.14
270.806	8671.78
270.875	8672.26
270.944	8657.3
271.013	8673.03
271.082	8662.16
271.151	8653.44
271.22	8630.2
271.289	8621.44
271.358	8606.62
271.427	8606.04
271.496	8609.98
271.565	8596.65
271.634	8596.27
271.703	8621.3
271.772	8634.24
271.841	8621.64
271.91	8603.93
271.979	8593.53
272.048	8572.12
272.117	8574.62
272.186	8556.38
272.255	8563.02
272.324	8558.74
272.393	8554.41
272.462	8546.75
272.531	8541.22
272.6	8531.45
272.669	8539.82
272.738	8528.27
272.807	8524.95
272.876	8504.41
272.945	8522.26
273.013	8525.2
273.082	8520
273.151	8473.36
273.22	8465.04
273.289	8463.21
273.358	8465.28
273.427	8459.46
273.496	8464.89
273.564	8457.05
273.633	8459.74
273.702	8433.76
273.771	8429.72
273.84	8427.45
273.909	8420.33
273.977	8411.91
274.046	8399.69
274.115	8396.47
274.184	8377.03
274.253	8369.52
274.322	8371.93
274.39	8343.2
274.459	8324.77
274.528	8302.79
274.597	8295.86
274.665	8289.99
274.734	8294.9
274.803	8289.07
274.872	8280.46
274.94	8266.32
275.009	8309.11
275.078	8292.85
275.147	8297.95
275.215	8289.77
275.284	8293.28
275.353	8281.06
275.421	8265.42
275.49	8280.15
275.559	8277.07
275.627	8279.09
275.696	8269.71
275.765	8268.6
275.833	8258.35
275.902	8261.72
275.971	8270.62
276.039	8287.36
276.108	8292.32
276.177	8288.95
276.245	8276.15
276.314	8270
276.383	8272.55
276.451	8220.66
276.52	8226.82
276.588	8238.56
276.657	8243.37
276.725	8238.46
276.794	8241.54
276.863	8252.12
276.931	8236.49
277	8234.99
277.068	8238.17
277.137	8254.96
277.205	8263
277.274	8276.37
277.342	8279.78
277.411	8259.68
277.48	8244.28
277.548	8240.58
277.617	8237.5
277.685	8234.47
277.754	8240.58
277.822	8231.87
277.89	8244.53
277.959	8237.07
278.027	8217.29
278.096	8202.57
278.164	8222.69
278.233	8213.5
278.301	8203.97
278.37	8202.77
278.438	8188.58
278.507	8189.3
278.575	8165.82
278.643	8157.55
278.712	8147.93
278.78	8135.61
278.849	8147.3
278.917	8157.93
278.985	8150.57
279.054	8157.11
279.122	8165.53
279.191	8161.87
279.259	8155.81
279.327	8132.62
279.396	8147.83
279.464	8139.89
279.532	8147.63
279.601	8140.27
279.669	8142.1
279.737	8145.27
279.806	8147.77
279.874	8160.33
279.942	8156.87
280.011	8154.61
280.079	8158.6
280.147	8171.78
280.215	8177.89
280.284	8175.24
280.352	8162.88
280.42	8160.57
280.488	8154.22
280.557	8148.74
280.625	8145.8
280.693	8150.13
280.761	8156
280.83	8138.97
280.898	8151.81
280.966	8137.14
281.034	8111.16
281.102	8100.34
281.171	8101.74
281.239	8106.31
281.307	8093.22
281.375	8089.23
281.443	8109.96
281.512	8108.38
281.58	8116.36
281.648	8104.1
281.716	8101.59
281.784	8100.25
281.852	8098.56
281.92	8094.19
281.989	8100.49
282.057	8090.15
282.125	8126.19
282.193	8124.79
282.261	8131.24
282.329	8125.08
282.397	8133.26
282.465	8138.55
282.533	8151.15
282.601	8140.28
282.67	8125.9
282.738	8126.62
282.806	8137.2
282.874	8126.61
282.942	8127.1
283.01	8117.86
283.078	8124.64
283.146	8124.3
283.214	8136.57
283.282	8142.1
283.35	8156.34
283.418	8160.91
283.486	8169.96
283.554	8136.71
283.622	8142.48
283.69	8135.41
283.758	8133.15
283.826	8132.52
283.894	8143.06
283.962	8161.73
284.03	8177.89
284.098	8180.39
284.165	8177.22
284.233	8174.04
284.301	8164.18
284.369	8155.76
284.437	8145.76
284.505	8138.59
284.573	8152.11
284.641	8141.19
284.709	8142.77
284.777	8123.1
284.845	8120.55
284.912	8116.65
284.98	8121.17
285.048	8109.39
285.116	8117.28
285.184	8131.56
285.252	8130.46
285.319	8114.1
285.387	8098.75
285.455	8082.4
285.523	8089.18
285.591	8089.61
285.659	8093.7
285.726	8105.34
285.794	8100.73
285.862	8097.74
285.93	8100.53
285.997	8097.21
286.065	8091.2
286.133	8083.6
286.201	8086.05
286.269	8078.26
286.336	8078.5
286.404	8071.57
286.472	8081.43
286.539	8061.76
286.607	8047.43
286.675	8052.57
286.743	8054.06
286.81	8050.6
286.878	8063.83
286.946	8056.13
287.013	8050.89
287.081	8045.17
287.149	8034.73
287.216	8044.25
287.284	8040.84
287.352	8043.24
287.419	8041.85
287.487	8058.88
287.555	8063.59
287.622	8060.8
287.69	8064.65
287.758	8070.71
287.825	8070.42
287.893	8060.37
287.96	8066.67
288.028	8073.88
288.096	8069.51
288.163	8081.15
288.231	8072.25
288.298	8067.77
288.366	8081.29
288.433	8078.02
288.501	8075.57
288.569	8078.07
288.636	8076.29
288.704	8089.13
288.771	8091.54
288.839	8080.57
288.906	8074.51
288.974	8082.16
289.041	8079.37
289.109	8066.96
289.176	8072.64
289.244	8071.96
289.311	8083.75
289.379	8091.49
289.446	8096.54
289.514	8098.37
289.581	8093.71
289.649	8098.13
289.716	8103.71
289.783	8096.25
289.851	8119.34
289.918	8115.64
289.986	8124.92
290.053	8128.77
290.121	8130.17
290.188	8134.11
290.255	8163.6
290.323	8157.44
290.39	8155.13
290.458	8159.9
290.525	8171.92
290.592	8174.23
290.66	8173.94
290.727	8166
290.794	8181.21
290.862	8174.81
290.929	8182.6
290.996	8188.38
291.064	8200.26
291.131	8210.41
291.198	8220.13
291.266	8219.94
291.333	8220.47
291.4	8226.96
291.468	8243.61
291.535	8241.06
291.602	8240.19
291.669	8227.92
291.737	8235.91
291.804	8231.82
291.871	8251.02
291.938	8255.25
292.006	8276.23
292.073	8295.14
292.14	8311.06
292.207	8301.49
292.275	8307.17
292.342	8314.96
292.409	8334.3
292.476	8356.34
292.543	8347.78
292.611	8349.17
292.678	8368.42
292.745	8398.4
292.812	8409.13
292.879	8402.29
292.946	8405.76
293.014	8422.7
293.081	8432.27
293.148	8437.03
293.215	8453.97
293.282	8446.42
293.349	8462.01
293.416	8446.13
293.484	8456.23
293.551	8460.56
293.618	8478.37
293.685	8500.69
293.752	8491.84
293.819	8486.93
293.886	8477.07
293.953	8482.74
294.02	8493.76
294.087	8490.73
294.154	8485.05
294.221	8497.42
294.288	8497.42
294.356	8516.77
294.423	8519.27
294.49	8524.37
294.557	8539.82
294.624	8532.26
294.691	8555.46
294.758	8553.77
294.825	8560.46
294.892	8552.67
294.959	8552.47
295.026	8559.5
295.093	8556.27
295.16	8563.11
295.226	8568.35
295.293	8587.08
295.36	8592.22
295.427	8602.09
295.494	8614.17
295.561	8619.95
295.628	8634.49
295.695	8656.05
295.762	8657.59
295.829	8672.84
295.896	8681.36
295.963	8687.19
296.03	8699.36
296.096	8697.82
296.163	8707.54
296.23	8724.97
296.297	8737.58
296.364	8744.26
296.431	8746.38
296.498	8740.22
296.564	8758.61
296.631	8761.35
296.698	8749.85
296.765	8769.43
296.832	8761.06
296.899	8755.77
296.965	8772.56
297.032	8759.42
297.099	8772.66
297.166	8782.53
297.233	8778.63
297.299	8771.79
297.366	8772.47
297.433	8772.9
297.5	8784.02
297.566	8789.65
297.633	8789.89
297.7	8794.95
297.767	8794.9
297.833	8802.36
297.9	8806.16
297.967	8799.9
298.033	8808.52
298.1	8830.76
298.167	8819.54
298.234	8829.7
298.3	8836.63
298.367	8830.13
298.434	8832.3
298.5	8820.17
298.567	8817.14
298.634	8815.02
298.7	8834.17
298.767	8845.44
298.834	8864.93
298.9	8860.26
298.967	8849.53
299.033	8858.39
299.1	8877.89
299.167	8886.65
299.233	8879.96
299.3	8893.91
299.366	8908.11
299.433	8922.89
299.5	8902.82
299.566	8913.6
299.633	8922.36
299.699	8933.1
299.766	8933.39
299.832	8942.73
299.899	8945.37
299.965	8953.17
300.032	8947.16
300.099	8950.67
300.165	8950.91
300.232	8947.35
300.298	8947.93
300.365	8959.77
300.431	8953.32
300.498	8941.23
300.564	8948.16
300.631	8964.72
300.697	8976.42
300.763	8973.48
300.83	8968.86
300.896	8981.38
300.963	8987.49
301.029	8993.85
301.096	8997.75
301.162	9012.33
301.229	9013.78
301.295	9012.91
301.361	9019.07
301.428	9024.56
301.494	9009.83
301.561	9013.63
301.627	9017.15
301.693	9022.88
301.76	9029.18
301.826	9029.62
301.892	9039.97
301.959	9047.19
302.025	9043.53
302.092	9040.35
302.158	9047.77
302.224	9056.67
302.291	9046.52
302.357	9042.52
302.423	9031.88
302.49	9020.28
302.556	9025.04
302.622	9016.14
302.688	9023.6
302.755	9036.84
302.821	9045.41
302.887	9048.73
302.954	9045.55
303.02	9042.38
303.086	9049.5
303.152	9046.37
303.219	9043.34
303.285	9045.46
303.351	9049.21
303.417	9046.42
303.483	9037.03
303.55	9026.15
303.616	9017.54
303.682	9024.18
303.748	9017.25
303.815	9030.53
303.881	9042.76
303.947	9028.46
304.013	9035.06
304.079	9027.93
304.145	9006.89
304.212	9006.65
304.278	9011.76
304.344	9002.75
304.41	8989.28
304.476	8978.78
304.542	8974.93
304.608	8971.8
304.674	8953.51
304.741	8950.43
304.807	8956.92
304.873	8961.5
304.939	8982.68
305.005	8970.55
305.071	8962.94
305.137	8966.89
305.203	8946.77
305.269	8938.68
305.335	8949.56
305.401	8946.19
305.467	8944.22
305.533	8944.41
305.599	8951.73
305.666	8950.62
305.732	8955.58
305.798	8974.93
305.864	8995.2
305.93	8996.02
305.996	9004.3
306.062	9006.85
306.128	9001.02
306.194	8990.14
306.259	8990.91
306.325	8973.82
306.391	8983.93
306.457	8992.74
306.523	8996.59
306.589	9016.95
306.655	9008.96
306.721	8987.88
306.787	8967.37
306.853	8972.81
306.919	8960.68
306.985	8949.61
307.051	8947.54
307.117	8948.02
307.183	8940.75
307.248	8912.45
307.314	8917.31
307.38	8917.6
307.446	8921.64
307.512	8913.07
307.578	8922.89
307.644	8913.36
307.709	8917.4
307.775	8910.71
307.841	8903.59
307.907	8903.44
307.973	8886.21
308.039	8884.33
308.104	8898.29
308.17	8904.26
308.236	8893.96
308.302	8899.3
308.368	8888.47
308.433	8886.45
308.499	8876.05
308.565	8862.81
308.631	8862.04
308.696	8842.69
308.762	8829.65
308.828	8831.48
308.894	8818.58
308.959	8793.79
309.025	8785.61
309.091	8784.6
309.156	8772.56
309.222	8773.48
309.288	8759.57
309.354	8739.06
309.419	8735.26
309.485	8713.22
309.551	8713.12
309.616	8699.98
309.682	8697.62
309.748	8691.61
309.813	8689.2
309.879	8679.72
309.945	8669.13
310.01	8667.3
310.076	8667.83
310.141	8656.67
310.207	8634.38
310.273	8633.95
310.338	8634.14
310.404	8620.52
310.469	8602.28
310.535	8600.26
310.601	8579.52
310.666	8581.92
310.732	8588.37
310.797	8580.91
310.863	8574.8
310.928	8572.59
310.994	8580.14
311.059	8570.76
311.125	8571.33
311.191	8574.94
311.256	8558.44
311.322	8559.5
311.387	8542.99
311.453	8922.69
311.518	8901.52
311.584	8904.31
311.649	8905.51
311.715	8893.14
311.78	8897.23
311.846	8886.46
311.911	8885.78
311.976	8889.92
312.042	8873.37
312.107	8862.49
312.173	8858.83
312.238	8858.06
312.304	8850.41
312.369	8842.04
312.434	8833.33
312.5	8825.82
312.565	8800.8
312.631	8808.45
312.696	8803.44
312.761	8803.68
312.827	8414.46
312.892	8448.34
312.958	8443.91
313.023	8442.66
313.088	8444.29
313.154	8429.57
313.219	8422.11
313.284	8415.18
313.35	8405.03
313.415	8399.4
313.48	8394.83
313.546	8393.82
313.611	8400.51
313.676	8388.91
313.741	8380.44
313.807	8386.22
313.872	8383.62
313.937	8381.6
314.003	8385.98
314.068	8385.69
314.133	8388.86
314.198	8377.75
314.264	8363.84
314.329	8353.11
314.394	8344.74
314.459	8343.73
314.525	8361.77
314.59	8359.03
314.655	8344.4
314.72	8350.99
314.785	8346.13
314.851	8337.14
314.916	8310.1
314.981	8288.79
315.046	8281.76
315.111	8269.45
315.176	8254.29
315.242	8256.89
315.307	8259.49
315.372	8241.54
315.437	8228.94
315.502	8217.34
315.567	8226.82
315.632	8208.1
315.698	8205.26
315.763	8198.62
315.828	8184.29
315.893	8171.97
315.958	8170.72
316.023	8168.51
316.088	8153.11
316.153	8136.32
316.218	8129.83
316.283	8120.5
316.348	8106.7
316.413	8104.87
316.479	8087.51
316.544	8060.72
316.609	8031.81
316.674	7996.51
316.739	7962.89
316.804	7936.59
316.869	7905.09
316.934	7869.49
316.999	7839.05
317.064	7792.65
317.129	7753.41
317.194	7719.41
317.259	7679.4
317.324	7626.42
317.389	7578.73
317.454	7538.29
317.518	7504.11
317.583	7480.4
317.648	7461.75
317.713	7425.22
317.778	7365.99
317.843	7340.9
317.908	7304.76
317.973	7268.66
318.038	7238.91
318.103	7212.01
318.168	7178.8
318.233	7148.19
318.297	7100.28
318.362	7065.3
318.427	7028.26
318.492	7002.41
318.557	6960.66
318.622	6927.75
318.687	6908.01
318.751	6873.09
318.816	6843.69
318.881	6808.15
318.946	6755.5
319.011	6707.56
319.075	6670.06
319.14	6637.36
319.205	6591.64
319.27	6557.32
319.335	6513.19
319.399	6475.88
319.464	6442.75
319.529	6391.97
319.594	6356.63
319.658	6327.45
319.723	6286.27
319.788	6260.49
319.853	6207.02
319.917	6176.84
319.982	6130.53
320.047	6091.13
320.112	6064.64
320.176	6016.42
320.241	5987.25
320.306	5961.24
320.37	5923.49
320.435	5897.92
320.5	5868.52
320.564	5830.34
320.629	5792.89
320.694	5764.74
320.758	5721.72
320.823	5682.98
320.888	5658.96
320.952	5609.76
321.017	5567.77
321.082	5532.25
321.146	5494.81
321.211	5461.5
321.275	5420.86
321.34	5380.65
321.405	5340.59
321.469	5294.39
321.534	5256.35
321.598	5207.96
321.663	5173.36
321.727	5139.53
321.792	5088.75
321.857	5045.5
321.921	5009.63
321.986	4967.92
322.05	4910.18
322.115	4874.36
322.179	4832.94
322.244	4781.82
322.308	4749.94
322.373	4709.68
322.437	4671.96
322.502	4648.55
322.566	4608.73
322.631	4578.44
322.695	4537.25
322.76	4495.77
322.824	4460.32
322.889	4420.19
322.953	4378.77
323.018	4318.02
323.082	4261.21
323.146	4212.79
323.211	4169.09
323.275	4126.58
323.34	4087.58
323.404	4054.8
323.468	4015.22
323.533	3969.58
323.597	3927.64
323.662	3881.62
323.726	3846.78
323.79	3799.25
323.855	3734.92
323.919	3691.69
323.983	3644.88
324.048	3583.64
324.112	3707.23
324.177	3587.56
324.241	3398.58
324.305	3215.04
324.37	3035.33
324.434	2861.83
324.498	2823.67
324.562	2776.97
324.627	2723.45
324.691	2668.54
324.755	2611.71
324.82	2540.29
324.884	2473.92
324.948	2405.97
325.012	2317.51
325.077	2203.94
