Data from 20250702_urea_1.5M_MAYP1162681_11-41-59-258.txt Node
Date: Wed Jul 02 11:41:59 BST 2025
User: adleo
Spectrometer: MAYP116268
Trigger mode: 0
Integration Time (sec): 1.000000E0
Scans to average: 1
Electric dark correction enabled: true
Nonlinearity correction enabled: true
Boxcar width: 10
XAxis mode: Wavelengths
Number of Pixels in Spectrum: 2068
>>>>>Begin Spectral Data<<<<<
179.565	1011.81
179.642	1059.35
179.718	1093.29
179.795	1125.87
179.871	1154.44
179.948	1168.72
180.024	1184.96
180.101	1205.2
180.177	1218.02
180.254	1237.63
180.33	1256.23
180.407	1294.72
180.483	1374.06
180.56	1451.16
180.636	1520.23
180.712	1509.83
180.789	1519.71
180.865	1529.87
180.942	1537.99
181.018	1544.45
181.095	1553.52
181.171	1557.51
181.248	1557.84
181.324	1573.99
181.4	1579.12
181.477	1587.44
181.553	1600.07
181.63	1619.74
181.706	1632.04
181.782	1638.59
181.859	1635.55
181.935	1639.12
182.011	1636.22
182.088	1651.42
182.164	1665.73
182.24	1679.45
182.317	1687.15
182.393	1682.11
182.469	1695.27
182.546	1707.48
182.622	1714.37
182.698	1711.62
182.775	1725.44
182.851	1737.56
182.927	1728.63
183.003	1725.68
183.08	1720.74
183.156	1725.97
183.232	1722.45
183.308	1712.76
183.385	1720.17
183.461	1737.42
183.537	1741.64
183.613	1753.24
183.69	1745.16
183.766	1734.61
183.842	1738.65
183.918	1743.11
183.995	1755.51
184.071	1759.98
184.147	1753.57
184.223	1743.16
184.299	1754.43
184.375	1742.69
184.452	1750.2
184.528	1802.16
184.604	1811.47
184.68	1821.35
184.756	1827.86
184.832	1832.14
184.908	1836.61
184.985	1834.99
185.061	1821.83
185.137	1827.53
185.213	1819.07
185.289	1823.83
185.365	1818.69
185.441	1817.51
185.517	1829.3
185.593	1829.87
185.669	1824.73
185.745	1835.81
185.822	1850.82
185.898	1845.4
185.974	1853.9
186.05	1844.16
186.126	1807.08
186.202	1801.24
186.278	1799.81
186.354	1792.63
186.43	1796.06
186.506	1794.82
186.582	1797.24
186.658	1802.42
186.734	1786.12
186.81	1786.41
186.886	1789.31
186.962	1802.57
187.038	1801.52
187.114	1793.91
187.19	1799.24
187.266	1791.54
187.341	1792.3
187.417	1785.27
187.493	1782.37
187.569	1782.13
187.645	1780.75
187.721	1770.91
187.797	1779.04
187.873	1781.61
187.949	1777.14
188.025	1772.39
188.101	1773.38
188.176	1774.91
188.252	1770.25
188.328	1775.95
188.404	1776.57
188.48	1770.44
188.556	1762.12
188.632	1759.51
188.707	1761.65
188.783	1756.46
188.859	1753.04
188.935	1743.87
189.011	1750.57
189.086	1747.15
189.162	1741.07
189.238	1737.74
189.314	1734.89
189.39	1728.33
189.465	1722.49
189.541	1737.65
189.617	1725.39
189.693	1722.49
189.768	1724.73
189.844	1747.02
189.92	1739.32
189.996	1747.26
190.071	1755.39
190.147	1756.29
190.223	1766.84
190.298	1759.47
190.374	1752.16
190.45	1763.18
190.526	1769.93
190.601	1766.22
190.677	1768.74
190.753	1793.56
190.828	1795.79
190.904	1807.24
190.98	1822.55
191.055	1831.49
191.131	1821.03
191.207	1838.85
191.282	1846.07
191.358	1839.42
191.433	1827.86
191.509	1839.74
191.585	1836.74
191.66	1839.6
191.736	1846.82
191.811	1839.31
191.887	1855.19
191.963	1873.97
192.038	1879.05
192.114	1879.81
192.189	1882.19
192.265	1879.34
192.34	1860.32
192.416	1859.32
192.491	1855.85
192.567	1854.28
192.642	1855.37
192.718	1857.7
192.793	1847.72
192.869	1844.92
192.944	1846.34
193.02	1852.71
193.095	1857.42
193.171	1862.17
193.246	1859.94
193.322	1856.56
193.397	1857.09
193.473	1843.82
193.548	1827.8
193.624	1829.8
193.699	1827.56
193.775	1841.16
193.85	1839.64
193.925	1846.39
194.001	1844.39
194.076	1838.5
194.152	1831.27
194.227	1826.28
194.302	1816.11
194.378	1818.63
194.453	1816.35
194.529	1827.81
194.604	1812.74
194.679	1809.37
194.755	1792.88
194.83	1803.1
194.905	1799.54
194.981	1803.39
195.056	1793.98
195.131	1798.54
195.207	1798.49
195.282	1791.08
195.357	1775.53
195.433	1790.22
195.508	1781.62
195.583	1791.22
195.659	1805.29
195.734	1811.18
195.809	1808.28
195.884	1818.21
195.96	1819.59
196.035	1834.66
196.11	1830.24
196.185	1843.16
196.261	1844.11
196.336	1870.87
196.411	1859.84
196.486	1863.41
196.561	1860.37
196.637	1872.91
196.712	1888.46
196.787	1891.41
196.862	1905.81
196.937	1915.65
197.013	1920.12
197.088	1930.86
197.163	1947.75
197.238	1962.16
197.313	1960.12
197.388	1974
197.464	1997.44
197.539	2007.1
197.614	1998.44
197.689	2010.05
197.764	2022.08
197.839	2036.49
197.914	2032.54
197.989	2052.42
198.065	2069.4
198.14	2112.51
198.215	2133.34
198.29	2142.43
198.365	2153.09
198.44	2162.55
198.515	2185.91
198.59	2200.66
198.665	2224.07
198.74	2231.12
198.815	2229.16
198.89	2253.95
198.965	2279.27
199.04	2277.32
199.115	2292.12
199.19	2331.61
199.265	2333.94
199.34	2341.51
199.415	2373.31
199.49	2390.87
199.565	2397.25
199.64	2413
199.715	2412.34
199.79	2418.62
199.865	2426.05
199.94	2425.14
200.015	2451.95
200.09	2457.05
200.165	2461.52
200.24	2465.76
200.315	2501.45
200.39	2518.59
200.464	2519.64
200.539	2520.59
200.614	2538.35
200.689	2557.87
200.764	2560.16
200.839	2579.2
200.914	2587.53
200.989	2576.72
201.063	2591.1
201.138	2576.35
201.213	2579.16
201.288	2562.59
201.363	2565.11
201.438	2562.4
201.512	2578.87
201.587	2564.15
201.662	2566.01
201.737	2577.48
201.812	2581.01
201.886	2551.13
201.961	2557.61
202.036	2549.66
202.111	2548.75
202.186	2521.29
202.26	2507.43
202.335	2491.67
202.41	2482.57
202.485	2465.39
202.559	2451.54
202.634	2427.92
202.709	2437.2
202.784	2418.25
202.858	2415.3
202.933	2401.45
203.008	2399.4
203.082	2380.55
203.157	2378.08
203.232	2340.73
203.306	2323.02
203.381	2296.27
203.456	2277.85
203.53	2259.75
203.605	2240.06
203.68	2220.21
203.754	2213.83
203.829	2202.22
203.904	2183.9
203.978	2173.2
204.053	2177.24
204.127	2165.97
204.202	2164.4
204.277	2149.03
204.351	2144.66
204.426	2139.85
204.5	2133.38
204.575	2101.8
204.65	2108.84
204.724	2102.51
204.799	2111.54
204.873	2105.88
204.948	2106.83
205.022	2094.66
205.097	2085.66
205.171	2099.36
205.246	2105.36
205.32	2103.41
205.395	2102.6
205.469	2095.51
205.544	2101.65
205.618	2086.57
205.693	2097.28
205.767	2087.05
205.842	2107.13
205.916	2101.28
205.991	2092.86
206.065	2095.67
206.14	2108.12
206.214	2106.93
206.289	2099.84
206.363	2109.74
206.438	2112.16
206.512	2119.16
206.586	2137.28
206.661	2146.56
206.735	2128.87
206.81	2130.77
206.884	2145.47
206.958	2134.34
207.033	2150.55
207.107	2156.74
207.181	2185.86
207.256	2178.58
207.33	2195.76
207.405	2205.42
207.479	2223.5
207.553	2227.45
207.628	2214.08
207.702	2225.6
207.776	2217.65
207.851	2221.84
207.925	2236.97
207.999	2235.97
208.073	2233.59
208.148	2236.16
208.222	2224.31
208.296	2250.9
208.371	2264.66
208.445	2276.42
208.519	2298.49
208.593	2304.2
208.668	2302.49
208.742	2302.82
208.816	2303.68
208.89	2313.77
208.965	2310.2
209.039	2316.1
209.113	2336.85
209.187	2355.59
209.261	2352.83
209.336	2372.01
209.41	2387.72
209.484	2385.39
209.558	2405.77
209.632	2420.09
209.707	2431.85
209.781	2453.32
209.855	2467.32
209.929	2480.57
210.003	2486.28
210.077	2488.33
210.151	2538.8
210.226	2569.1
210.3	2595.93
210.374	2622.26
210.448	2633.59
210.522	2651.22
210.596	2667.51
210.67	2682.38
210.744	2730.55
210.818	2767.03
210.892	2795.34
210.966	2802.43
211.041	2829.16
211.115	2836.17
211.189	2866.72
211.263	2893.6
211.337	2913.23
211.411	2945.37
211.485	2961.87
211.559	2987.6
211.633	3012.28
211.707	3006.27
211.781	3038.24
211.855	3036.81
211.929	3058.74
212.003	3068.65
212.077	3110.6
212.151	3157.12
212.225	3198.2
212.299	3229.71
212.373	3267.36
212.447	3309.23
212.52	3386.85
212.594	3441.28
212.668	3511.18
212.742	3557.73
212.816	3612.22
212.89	3676.8
212.964	3740.07
213.038	3817.03
213.112	3908.46
213.186	4000.5
213.26	4062.47
213.333	4114.25
213.407	4209.09
213.481	4304.75
213.555	4414.94
213.629	4505.59
213.703	4594.86
213.777	4703.68
213.85	4793.73
213.924	4931.55
213.998	5051.42
214.072	5167.52
214.146	5281.53
214.219	5403.96
214.293	5533.12
214.367	5677.08
214.441	5820.05
214.515	5955.73
214.588	6081.26
214.662	6196.44
214.736	6331.5
214.81	6492.06
214.883	6654.45
214.957	6801.96
215.031	6952.12
215.105	7089.52
215.178	7236.61
215.252	7400.59
215.326	7547.49
215.4	7705.63
215.473	7834.43
215.547	7981.65
215.621	8144.47
215.694	8324.99
215.768	8481.9
215.842	8648.77
215.915	8813.15
215.989	8972.54
216.063	9145.33
216.136	9325.55
216.21	9505.37
216.284	9694.87
216.357	9883.23
216.431	10062.89
216.504	10253.2
216.578	10454.47
216.652	10651.92
216.725	10840.59
216.799	11030.59
216.873	11216.34
216.946	11411.31
217.02	11591.1
217.093	11779.2
217.167	11952.18
217.24	12124.88
217.314	12307.89
217.387	12487.38
217.461	12661.48
217.535	12858.2
217.608	13026.48
217.682	13204.2
217.755	13395.23
217.829	13567.85
217.902	13744.24
217.976	13919.65
218.049	14087.26
218.123	14250.67
218.196	14436.6
218.27	14609.6
218.343	14764.28
218.417	14932.9
218.49	15094.62
218.563	15268.92
218.637	15438.98
218.71	15614.04
218.784	15778.16
218.857	15951.58
218.931	16118.74
219.004	16279.19
219.077	16432.41
219.151	16586.4
219.224	16736.1
219.298	16888.11
219.371	17037.8
219.444	17174.34
219.518	17316.12
219.591	17465.52
219.665	17632.85
219.738	17764.17
219.811	17890.05
219.885	18039.06
219.958	18175.59
220.031	18306.09
220.105	18450.09
220.178	18583.91
220.251	18698.51
220.325	18830.84
220.398	18954.02
220.471	19078.45
220.544	19205.33
220.618	19315.88
220.691	19439.1
220.764	19554.76
220.838	19669.89
220.911	19781.26
220.984	19910.41
221.057	20031.81
221.131	20140.09
221.204	20220.38
221.277	20343.03
221.35	20468
221.424	20558.46
221.497	20668.2
221.57	20766.61
221.643	20864.39
221.716	20963.39
221.79	21054.29
221.863	21144.7
221.936	21225.29
222.009	21310.6
222.082	21400.39
222.155	21491.78
222.229	21590.11
222.302	21673.98
222.375	21747.1
222.448	21832.13
222.521	21901.54
222.594	21959.24
222.667	22023.35
222.74	22101.87
222.814	22157.21
222.887	22220.07
222.96	22299.33
223.033	22371.01
223.106	22439.85
223.179	22505.13
223.252	22558.79
223.325	22613.46
223.398	22664.95
223.471	22726.56
223.544	22770.58
223.617	22811.03
223.69	22854.32
223.763	22890
223.837	22938.41
223.91	22991.64
223.983	23020.23
224.056	23042.7
224.129	23090.82
224.202	23131.51
224.275	23163.87
224.348	23196.75
224.42	23218.59
224.493	23246.75
224.566	23264.45
224.639	23300.28
224.712	23313.78
224.785	23338.13
224.858	23371.7
224.931	23396.15
225.004	23415.43
225.077	23454.78
225.15	23474.46
225.223	23501.08
225.296	23546.65
225.369	23551.04
225.442	23559.29
225.514	23571.49
225.587	23601.58
225.66	23627.33
225.733	23655.88
225.806	23678.55
225.879	23695.33
225.952	23707.48
226.025	23727.16
226.097	23767.34
226.17	23771.73
226.243	23778.82
226.316	23795.41
226.389	23809.1
226.461	23818.7
226.534	23830.23
226.607	23830.56
226.68	23861.05
226.753	23875.85
226.825	23867.7
226.898	23899.19
226.971	23908.31
227.044	23938.65
227.117	23954.8
227.189	23956.35
227.262	23964.64
227.335	23976.31
227.407	23987.12
227.48	24001.06
227.553	24001.83
227.626	23992.08
227.698	24004
227.771	24018.56
227.844	24011.95
227.916	24011.62
227.989	24007.81
228.062	24014.17
228.134	24034.29
228.207	24027.48
228.28	24011.52
228.352	24004.53
228.425	23993.24
228.498	24002.45
228.57	23985.52
228.643	23985.57
228.716	23982.05
228.788	23971.2
228.861	23958.13
228.934	23967
229.006	23964.2
229.079	23954.99
229.151	23942.07
229.224	23923.35
229.296	23925.43
229.369	23942.79
229.442	23954.03
229.514	23942.5
229.587	23938.11
229.659	23916.55
229.732	23907.87
229.804	23929.96
229.877	23947.81
229.949	23958.32
230.022	23970.91
230.094	23988.33
230.167	23998.07
230.239	23995.75
230.312	23997.88
230.384	24012.97
230.457	24000.14
230.529	23992.57
230.602	23988.52
230.674	23988.38
230.747	24000.91
230.819	24003.37
230.892	23980.85
230.964	23970.77
231.037	23969.42
231.109	23965.56
231.181	23969.66
231.254	23960.3
231.326	23933.29
231.399	23915.4
231.471	23896.97
231.544	23859.74
231.616	23834.9
231.688	23817.73
231.761	23800.18
231.833	23780.79
231.905	23753.35
231.978	23742.69
232.05	23728.27
232.122	23722
232.195	23700.39
232.267	23691.81
232.339	23676.86
232.412	23667.74
232.484	23660.84
232.556	23645.99
232.629	23653.76
232.701	23645.17
232.773	23631.57
232.846	23610.74
232.918	23598.54
232.99	23588.6
233.062	23588.32
233.135	23578.77
233.207	23552.1
233.279	23556.05
233.351	23546.17
233.424	23517.19
233.496	23488.01
233.568	23487.43
233.64	23444.61
233.713	23440.03
233.785	23429.52
233.857	23400.88
233.929	23372.67
234.001	23360.42
234.074	23360.18
234.146	23310.22
234.218	23290.54
234.29	23276.17
234.362	23258.33
234.434	23214.89
234.507	23185.81
234.579	23151.62
234.651	23126.74
234.723	23116.18
234.795	23091.16
234.867	23068.06
234.939	23069.94
235.012	23061.12
235.084	23047.47
235.156	23057.5
235.228	23022.25
235.3	22988.11
235.372	22958.99
235.444	22943.03
235.516	22904.41
235.588	22877.07
235.66	22857.16
235.732	22825.72
235.804	22849.79
235.876	22834.55
235.948	22840.63
236.02	22815.22
236.092	22797.72
236.164	22776.55
236.236	22745.84
236.308	22714.79
236.38	22692.23
236.452	22647.83
236.524	22626.37
236.596	22609.55
236.668	22590.36
236.74	22565.43
236.812	22548.66
236.884	22533.13
236.956	22515.39
237.028	22473.74
237.1	22439.95
237.172	22434.74
237.244	22417.87
237.316	22350.56
237.388	22322.65
237.46	22279.64
237.532	22264.8
237.604	22231.1
237.675	22208.15
237.747	22184.24
237.819	22150.98
237.891	22125.82
237.963	22096.03
238.035	22055.34
238.107	21993.16
238.178	21960.52
238.25	21924.18
238.322	21914.88
238.394	21878.24
238.466	21844.35
238.538	21836.02
238.609	21819.82
238.681	21781.16
238.753	21744.38
238.825	21721.2
238.897	21693.82
238.968	21682.06
239.04	21650
239.112	21648.12
239.184	21616.45
239.255	21580.98
239.327	21544.15
239.399	21512.1
239.471	21489.26
239.542	21464.67
239.614	21452.72
239.686	21401.39
239.758	21384.18
239.829	21330.97
239.901	21309.38
239.973	21281.9
240.044	21247.92
240.116	21214.76
240.188	21169.36
240.259	21132.88
240.331	21089.45
240.403	21064.15
240.474	21013.06
240.546	20970.74
240.618	20908.14
240.689	20868.76
240.761	20837.39
240.833	20826.49
240.904	20792.08
240.976	20761.38
241.048	20736.32
241.119	20707.98
241.191	20694.39
241.262	20677.04
241.334	20636.9
241.405	20595.69
241.477	20559.02
241.549	20522.15
241.62	20482
241.692	20464.17
241.763	20456.12
241.835	20417.43
241.906	20384.08
241.978	20333.38
242.049	20309.96
242.121	20290.39
242.192	20274.15
242.264	20229.81
242.335	20180.37
242.407	20150.97
242.478	20109.86
242.55	20075.26
242.621	20030.73
242.693	19983.8
242.764	19939.75
242.836	19909.97
242.907	19885.68
242.979	19858.45
243.05	19827.51
243.122	19801.68
243.193	19764.82
243.264	19709.59
243.336	19683.47
243.407	19651.66
243.479	19646.89
243.55	19615.42
243.622	19591.81
243.693	19560.58
243.764	19541.98
243.836	19501.17
243.907	19463.87
243.978	19432.93
244.05	19398.71
244.121	19354.28
244.192	19333.71
244.264	19295.15
244.335	19260.12
244.407	19219.54
244.478	19187.4
244.549	19151.79
244.62	19115.02
244.692	19074.16
244.763	19044.13
244.834	19003.41
244.906	18973.82
244.977	18939.47
245.048	18920.96
245.119	18875.52
245.191	18823.28
245.262	18774.46
245.333	18766.85
245.405	18748.25
245.476	18731.62
245.547	18702.08
245.618	18681.31
245.689	18644.69
245.761	18619.05
245.832	18584.79
245.903	18556.31
245.974	18521.32
246.045	18489.23
246.117	18466.87
246.188	18433.47
246.259	18394.49
246.33	18359.5
246.401	18312.46
246.473	18262.83
246.544	18219.22
246.615	18203.12
246.686	18163.56
246.757	18141.29
246.828	18094.79
246.899	18068.28
246.97	18013.88
247.042	17976.67
247.113	17943.28
247.184	17930.99
247.255	17886.02
247.326	17858.7
247.397	17836.19
247.468	17808.2
247.539	17778.56
247.61	17731.19
247.681	17701.35
247.752	17679.48
247.823	17640.87
247.894	17616.63
247.965	17580.63
248.037	17544.3
248.108	17491.62
248.179	17471.33
248.25	17439.24
248.321	17416.44
248.392	17364.83
248.463	17355.91
248.534	17322.99
248.605	17304.83
248.675	17268.3
248.746	17243.04
248.817	17217.31
248.888	17185.26
248.959	17136.44
249.03	17109.69
249.101	17073.69
249.172	17044.44
249.243	16995.57
249.314	16982.02
249.385	16950.5
249.456	16931.8
249.527	16904.33
249.598	16872.52
249.669	16841.63
249.739	16823.08
249.81	16795.08
249.881	16759.41
249.952	16729.96
250.023	16700.8
250.094	16659.84
250.165	16624.99
250.235	16598.39
250.306	16572.51
250.377	16530.05
250.448	16511.97
250.519	16467.2
250.59	16466.77
250.66	16433.32
250.731	16419.05
250.802	16388.35
250.873	16357.79
250.944	16333.36
251.014	16301.21
251.085	16302.12
251.156	16278.94
251.227	16257.59
251.297	16242.41
251.368	16234.26
251.439	16208.38
251.51	16190.98
251.58	16161.05
251.651	16126.2
251.722	16105.24
251.792	16057.18
251.863	16030.29
251.934	16016.89
252.005	16013.03
252.075	15986.28
252.146	15971.44
252.217	15958.52
252.287	15943.29
252.358	15921.45
252.429	15915.28
252.499	15883.86
252.57	15862.6
252.641	15846.41
252.711	15824.52
252.782	15775.7
252.852	15761.14
252.923	15740.9
252.994	15718.73
253.064	15708.46
253.135	15683.97
253.205	15654.33
253.276	15652.79
253.347	15644.83
253.417	15613.84
253.488	15586.75
253.558	15550.36
253.629	15522.84
253.699	15497.97
253.77	15478.97
253.841	15456.42
253.911	15427.98
253.982	15405.13
254.052	15387.25
254.123	15364.88
254.193	15338.95
254.264	15358.33
254.334	15329.36
254.405	15284.72
254.475	15249.97
254.546	15213.04
254.616	15194.49
254.687	15179.59
254.757	15158.82
254.827	15131.1
254.898	15110.71
254.968	15083.23
255.039	15054.07
255.109	15044.91
255.18	15013.73
255.25	14973.96
255.321	14952.51
255.391	14917.41
255.461	14915.29
255.532	14866.71
255.602	14840.63
255.673	14801.34
255.743	14763.74
255.813	14716.02
255.884	14711.83
255.954	14703.34
256.024	14702.52
256.095	14679.67
256.165	14652.01
256.235	14636.92
256.306	14610.02
256.376	14593.29
256.446	14582.45
256.517	14569.29
256.587	14546.92
256.657	14530.38
256.728	14511.1
256.798	14494.91
256.868	14473.5
256.938	14436.72
257.009	14421.15
257.079	14399.89
257.149	14404.81
257.219	14371.07
257.29	14359.16
257.36	14315.05
257.43	14302.81
257.5	14260.15
257.571	14241.2
257.641	14221.73
257.711	14187.07
257.781	14172.89
257.852	14153.22
257.922	14117.26
257.992	14093.06
258.062	14080.58
258.132	14067.95
258.202	14045.29
258.273	14019.12
258.343	14007.45
258.413	13987.16
258.483	13963.15
258.553	13936.59
258.623	13901.59
258.693	13881.87
258.764	13868.86
258.834	13860.81
258.904	13833.96
258.974	13811.44
259.044	13790.52
259.114	13772.44
259.184	13754.03
259.254	13730.94
259.324	13698.06
259.394	13681.53
259.464	13675.79
259.535	13637.13
259.605	13614.37
259.675	13581.88
259.745	13562.94
259.815	13534.54
259.885	13508.66
259.955	13519.7
260.025	13487.64
260.095	13465.42
260.165	13444.11
260.235	13443.68
260.305	13427.33
260.375	13390.99
260.445	13390.55
260.515	13382.31
260.585	13372.23
260.655	13351.21
260.725	13345
260.795	13329.52
260.865	13322.58
260.934	13292.31
261.004	13293.61
261.074	13269.55
261.144	13267.58
261.214	13265.17
261.284	13250.61
261.354	13246.12
261.424	13222.36
261.494	13230.31
261.564	13216.77
261.634	13202.79
261.703	13163.69
261.773	13148.41
261.843	13136.5
261.913	13111.77
261.983	13076.44
262.053	13070.03
262.123	13044.62
262.192	13014.49
262.262	13010.97
262.332	12992.7
262.402	12981.13
262.472	12960.45
262.541	12922.71
262.611	12924.93
262.681	12890.46
262.751	12879.66
262.821	12858.88
262.89	12828.37
262.96	12809.33
263.03	12804.46
263.1	12794.82
263.169	12775.25
263.239	12768.45
263.309	12776.6
263.379	12761.27
263.448	12747.1
263.518	12725.11
263.588	12717.88
263.657	12713.79
263.727	12703.47
263.797	12673.58
263.867	12654.25
263.936	12620.75
264.006	12622.82
264.076	12597.32
264.145	12585.03
264.215	12565.94
264.285	12557.6
264.354	12516.48
264.424	12495.52
264.494	12466.59
264.563	12450.68
264.633	12461.39
264.702	12448.03
264.772	12410.72
264.842	12391.06
264.911	12380.69
264.981	12351.72
265.05	12332.83
265.12	12308.87
265.19	12293.11
265.259	12284.86
265.329	12279.42
265.398	12270.79
265.468	12271.75
265.537	12246.98
265.607	12234.1
265.676	12223.74
265.746	12211.83
265.815	12214.49
265.885	12189.9
265.955	12166
266.024	12139.97
266.094	12104.3
266.163	12092.39
266.232	12087.95
266.302	12077.69
266.371	12068
266.441	12052.72
266.51	12042.45
266.58	12027.08
266.649	12001
266.719	12000.42
266.788	11986.39
266.858	11983.5
266.927	11948.89
266.996	11940.12
267.066	11930.43
267.135	11899.73
267.205	11887.44
267.274	11872.16
267.343	11877.6
267.413	11855.19
267.482	11855.63
267.552	11846.76
267.621	11817.36
267.69	11784.97
267.76	11770.51
267.829	11756.87
267.898	11749.78
267.968	11727.8
268.037	11716.81
268.106	11705.97
268.176	11678.59
268.245	11669.91
268.314	11652.95
268.384	11650.97
268.453	11635.89
268.522	11624.94
268.592	11625.47
268.661	11602.87
268.73	11588.75
268.799	11555.68
268.869	11564.84
268.938	11531.06
269.007	11513.66
269.076	11502.14
269.146	11503.92
269.215	11493.03
269.284	11496.11
269.353	11475.58
269.422	11465.12
269.492	11447.72
269.561	11408.25
269.63	11401.6
269.699	11374.66
269.768	11359.82
269.838	11350.56
269.907	11346.76
269.976	11317.79
270.045	11290.18
270.114	11287.09
270.183	11274.7
270.253	11272.87
270.322	11244.34
270.391	11242.9
270.46	11245.31
270.529	11241.93
270.598	11237.11
270.667	11230.22
270.736	11203.23
270.806	11202.85
270.875	11207.28
270.944	11199.71
271.013	11225.64
271.082	11217.3
271.151	11216.2
271.22	11191.96
271.289	11175.14
271.358	11163.43
271.427	11159.28
271.496	11156.87
271.565	11146.32
271.634	11139.96
271.703	11157.21
271.772	11159.96
271.841	11146.37
271.91	11119.91
271.979	11115.57
272.048	11094.17
272.117	11087.19
272.186	11067.77
272.255	11053.69
272.324	11043.09
272.393	11038.61
272.462	11014.76
272.531	11001.84
272.6	10984.88
272.669	10992.15
272.738	10977.79
272.807	10967.34
272.876	10947.15
272.945	10961.22
273.013	10954.23
273.082	10959.48
273.151	10923.68
273.22	10922.66
273.289	10913.07
273.358	10921.46
273.427	10908.11
273.496	10908.26
273.564	10903.15
273.633	10908.54
273.702	10899.68
273.771	10889.75
273.84	10882.62
273.909	10884.06
273.977	10879.78
274.046	10877.56
274.115	10877.22
274.184	10869.95
274.253	10860.5
274.322	10868.36
274.39	10840.79
274.459	10821.76
274.528	10790.39
274.597	10780.46
274.665	10773.72
274.734	10773.96
274.803	10764.8
274.872	10755.74
274.94	10737.19
275.009	10783.84
275.078	10770.4
275.147	10769.1
275.215	10761.49
275.284	10762.16
275.353	10749.05
275.421	10726.07
275.49	10731.71
275.559	10722.55
275.627	10717.54
275.696	10711.33
275.765	10716.1
275.833	10703.23
275.902	10708.05
275.971	10717.69
276.039	10729.25
276.108	10735.47
276.177	10737.25
276.245	10725.16
276.314	10720.1
276.383	10732.29
276.451	10672.72
276.52	10673.88
276.588	10676.81
276.657	10686.02
276.725	10679.95
276.794	10681.63
276.863	10693.25
276.931	10673.39
277	10678.84
277.068	10684.52
277.137	10698.59
277.205	10691.17
277.274	10709.39
277.342	10718.83
277.411	10702.02
277.48	10693.58
277.548	10682.55
277.617	10678.84
277.685	10682.31
277.754	10684.62
277.822	10675.99
277.89	10691.08
277.959	10685.78
278.027	10673.39
278.096	10660.96
278.164	10678.26
278.233	10670.46
278.301	10661.73
278.37	10670.26
278.438	10649.78
278.507	10649.11
278.575	10628.01
278.643	10625.69
278.712	10609.17
278.78	10592.49
278.849	10603.04
278.917	10609.21
278.985	10603.04
279.054	10609.31
279.122	10620.3
279.191	10619.09
279.259	10614.18
279.327	10595.24
279.396	10610.75
279.464	10610.47
279.532	10615.04
279.601	10616.05
279.669	10616.58
279.737	10631.04
279.806	10631.47
279.874	10649.35
279.942	10650.84
280.011	10650.02
280.079	10656.19
280.147	10670.36
280.215	10675.08
280.284	10670.36
280.352	10662.46
280.42	10672.19
280.488	10668.43
280.557	10654.79
280.625	10659.27
280.693	10658.5
280.761	10658.26
280.83	10642.6
280.898	10646.7
280.966	10635.66
281.034	10602.27
281.102	10591.82
281.171	10584.3
281.239	10590.28
281.307	10576.49
281.375	10563.87
281.443	10585.22
281.512	10580.74
281.58	10589.79
281.648	10577.99
281.716	10581.84
281.784	10581.7
281.852	10568.35
281.92	10564.35
281.989	10581.07
282.057	10565.94
282.125	10602.81
282.193	10602.95
282.261	10605.22
282.329	10602.04
282.397	10597.89
282.465	10603.58
282.533	10616.44
282.601	10609.65
282.67	10591.2
282.738	10586.52
282.806	10601.46
282.874	10591.34
282.942	10595.29
283.01	10580.16
283.078	10589.12
283.146	10588.4
283.214	10600.54
283.282	10606.47
283.35	10613.84
283.418	10599.63
283.486	10600.2
283.554	10566.57
283.622	10565.12
283.69	10564.16
283.758	10560.35
283.826	10568.4
283.894	10583.19
283.962	10605.89
284.03	10616.25
284.098	10622.17
284.165	10622.75
284.233	10614.95
284.301	10606.85
284.369	10592.78
284.437	10590.9
284.505	10585.02
284.573	10595.91
284.641	10584.4
284.709	10591.87
284.777	10581.46
284.845	10588.93
284.912	10598.27
284.98	10602.76
285.048	10599.91
285.116	10610.32
285.184	10624.25
285.252	10629.55
285.319	10614.18
285.387	10596.68
285.455	10587.09
285.523	10586.81
285.591	10579.96
285.659	10586.08
285.726	10601.69
285.794	10593.89
285.862	10593.7
285.93	10594.61
285.997	10590.13
286.065	10583.39
286.133	10573.46
286.201	10569.17
286.269	10557.32
286.336	10545.75
286.404	10530.77
286.472	10539.54
286.539	10511.5
286.607	10497.77
286.675	10497.86
286.743	10501.86
286.81	10493.19
286.878	10506.87
286.946	10504.8
287.013	10505.48
287.081	10503.4
287.149	10484.8
287.216	10501.04
287.284	10500.7
287.352	10500.37
287.419	10495.69
287.487	10505.04
287.555	10512.65
287.622	10505.67
287.69	10510.05
287.758	10519.11
287.825	10522.82
287.893	10510.58
287.96	10523.44
288.028	10527.54
288.096	10529.47
288.163	10530.43
288.231	10529.56
288.298	10526.24
288.366	10538.82
288.433	10543.83
288.501	10536.7
288.569	10545.71
288.636	10545.95
288.704	10558.62
288.771	10568.64
288.839	10562.67
288.906	10556.69
288.974	10566.67
289.041	10571.34
289.109	10567.2
289.176	10583.48
289.244	10590.32
289.311	10605.94
289.379	10620.29
289.446	10629.74
289.514	10630.46
289.581	10636.29
289.649	10644.1
289.716	10652.24
289.783	10644.34
289.851	10659.13
289.918	10662.07
289.986	10675.66
290.053	10679.99
290.121	10673.54
290.188	10675.13
290.255	10704.67
290.323	10709.15
290.39	10697.58
290.458	10709.48
290.525	10723.36
290.592	10722.64
290.66	10726.06
290.727	10721.82
290.794	10730.11
290.862	10734.78
290.929	10737.91
290.996	10738.44
291.064	10739.6
291.131	10749.28
291.198	10764.08
291.266	10767.02
291.333	10776.41
291.4	10782.29
291.468	10804.84
291.535	10808.31
291.602	10816.89
291.669	10811.93
291.737	10820.46
291.804	10830.14
291.871	10846.04
291.938	10852.89
292.006	10879.15
292.073	10893.13
292.14	10906.14
292.207	10902.57
292.275	10905.03
292.342	10914.76
292.409	10939.34
292.476	10970.04
292.543	10956.45
292.611	10957.02
292.678	10975.43
292.745	10991.58
292.812	11002.42
292.879	10994.85
292.946	11009.31
293.014	11028.97
293.081	11041.89
293.148	11055.62
293.215	11066.03
293.282	11061.11
293.349	11076.15
293.416	11056.54
293.484	11073.45
293.551	11089.5
293.618	11108.1
293.685	11134.8
293.752	11134.94
293.819	11138.8
293.886	11124.58
293.953	11139.76
294.02	11160.92
294.087	11170.41
294.154	11169.16
294.221	11182.9
294.288	11188.97
294.356	11201.4
294.423	11205.31
294.49	11200.25
294.557	11215.86
294.624	11216.73
294.691	11237.74
294.758	11241.69
294.825	11253.79
294.892	11248.87
294.959	11250.03
295.026	11257.98
295.093	11249.3
295.16	11257.79
295.226	11259.57
295.293	11288.49
295.36	11293.35
295.427	11302.08
295.494	11317.5
295.561	11331.81
295.628	11348.64
295.695	11366.76
295.762	11376.25
295.829	11384.01
295.896	11397.89
295.963	11402.13
296.03	11409.75
296.096	11420.2
296.163	11430.37
296.23	11449.12
296.297	11461.46
296.364	11461.32
296.431	11472.79
296.498	11473.41
296.564	11495.87
296.631	11507.29
296.698	11493.56
296.765	11517.08
296.832	11507.29
296.899	11496.16
296.965	11519.44
297.032	11506.57
297.099	11523.78
297.166	11529.85
297.233	11528.6
297.299	11530.52
297.366	11537.56
297.433	11542.19
297.5	11545.51
297.566	11551.2
297.633	11545.18
297.7	11554.09
297.767	11554.82
297.833	11558.77
297.9	11571.97
297.967	11558.43
298.033	11570.72
298.1	11600.27
298.167	11596.07
298.234	11606.24
298.3	11612.61
298.367	11607.5
298.434	11618.82
298.5	11612.22
298.567	11609.76
298.634	11616.94
298.7	11627.45
298.767	11635.98
298.834	11658.54
298.9	11663.89
298.967	11658.54
299.033	11676.71
299.1	11685.63
299.167	11705.97
299.233	11703.84
299.3	11715.75
299.366	11734.11
299.433	11744.19
299.5	11725.68
299.566	11732.47
299.633	11751.37
299.699	11767.85
299.766	11767.76
299.832	11770.65
299.899	11780.87
299.965	11798.51
300.032	11794.02
300.099	11808.58
300.165	11808.39
300.232	11803.23
300.298	11801.98
300.365	11812.34
300.431	11812.82
300.498	11810.75
300.564	11813.21
300.631	11825.35
300.697	11837.89
300.763	11840.39
300.83	11840.15
300.896	11852.64
300.963	11863.58
301.029	11861.75
301.096	11866.08
301.162	11874.81
301.229	11879.87
301.295	11869.94
301.361	11868.16
301.428	11873.94
301.494	11857.26
301.561	11862.76
301.627	11870.37
301.693	11871.05
301.76	11877.41
301.826	11872.16
301.892	11884.74
301.959	11893.75
302.025	11893.94
302.092	11891.05
302.158	11896.59
302.224	11898.62
302.291	11897.51
302.357	11885.85
302.423	11880.98
302.49	11869.7
302.556	11879.58
302.622	11872.74
302.688	11885.8
302.755	11894.91
302.821	11902.57
302.887	11916.79
302.954	11916.36
303.02	11918.48
303.086	11927.35
303.152	11926.57
303.219	11925.27
303.285	11930.38
303.351	11943.11
303.417	11940.17
303.483	11931.01
303.55	11916.65
303.616	11912.89
303.682	11908.26
303.748	11909.51
303.815	11926.19
303.881	11933.66
303.947	11924.41
304.013	11923.64
304.079	11909.75
304.145	11896.21
304.212	11890.43
304.278	11883.44
304.344	11879.63
304.41	11865.99
304.476	11851.67
304.542	11844.68
304.608	11849.6
304.674	11827.67
304.741	11814.61
304.807	11812.53
304.873	11811.76
304.939	11832.73
305.005	11819.14
305.071	11812.82
305.137	11813.3
305.203	11781.3
305.269	11775.71
305.335	11791.23
305.401	11789.54
305.467	11792.05
305.533	11792.96
305.599	11803.71
305.666	11806.32
305.732	11805.21
305.798	11811.57
305.864	11839.82
305.93	11846.9
305.996	11845.84
306.062	11853.17
306.128	11847
306.194	11839.43
306.259	11837.89
306.325	11827.52
306.391	11829.07
306.457	11842.32
306.523	11844.92
306.589	11870.47
306.655	11865.89
306.721	11836.01
306.787	11824.25
306.853	11833.93
306.919	11827.14
306.985	11814.75
307.051	11807.42
307.117	11801.01
307.183	11798.56
307.248	11771.56
307.314	11773.54
307.38	11777.69
307.446	11773.4
307.512	11761.15
307.578	11762.31
307.644	11754.12
307.709	11752.04
307.775	11749.92
307.841	11745.15
307.907	11739.75
307.973	11717.58
308.039	11718.74
308.104	11728.76
308.17	11730.26
308.236	11713
308.302	11714.01
308.368	11701.77
308.433	11696.9
308.499	11686.2
308.565	11674.01
308.631	11675.65
308.696	11645.62
308.762	11630.44
308.828	11630.39
308.894	11615.4
308.959	11589.81
309.025	11578.82
309.091	11576.65
309.156	11571.45
309.222	11565.13
309.288	11552.41
309.354	11534.38
309.419	11528.94
309.485	11509.37
309.551	11505.99
309.616	11489.99
309.682	11476.59
309.748	11471.87
309.813	11466.33
309.879	11452.54
309.945	11435.92
310.01	11426.37
310.076	11426.66
310.141	11413.7
310.207	11390.37
310.273	11388.15
310.338	11395.86
310.404	11378.42
310.469	11358.85
310.535	11342.85
310.601	11320.49
310.666	11325.11
310.732	11332.1
310.797	11313.84
310.863	11298.12
310.928	11293.02
310.994	11293.93
311.059	11292.1
311.125	11284.24
311.191	11287.14
311.256	11280.73
311.322	11287.86
311.387	11269.74
311.453	11569.94
311.518	11549.7
311.584	11544.39
311.649	11547.38
311.715	11534.8
311.78	11538.85
311.846	11524.54
311.911	11517.12
311.976	11514.66
312.042	11493.98
312.107	11478.61
312.173	11463.48
312.238	11461.74
312.304	11450.75
312.369	11439.04
312.434	11418.9
312.5	11408.54
312.565	11381.16
312.631	11382.85
312.696	11367.67
312.761	11360.59
312.827	11049.79
312.892	11078.94
312.958	11077.4
313.023	11071.18
313.088	11072.1
313.154	11056.97
313.219	11049.5
313.284	11049.26
313.35	11043.38
313.415	11029.02
313.48	11024.68
313.546	11029.69
313.611	11027.77
313.676	11017.26
313.741	11004.63
313.807	11013.12
313.872	11009.98
313.937	11005.84
314.003	11012.92
314.068	11013.36
314.133	11013.26
314.198	11001.21
314.264	10983.82
314.329	10973.79
314.394	10966.32
314.459	10954.95
314.525	10967.33
314.59	10952.54
314.655	10935.87
314.72	10934.71
314.785	10935.19
314.851	10927.58
314.916	10912.26
314.981	10905.12
315.046	10895.92
315.111	10889.41
315.176	10876.02
315.242	10877.9
315.307	10874.14
315.372	10850.04
315.437	10843.25
315.502	10834.82
315.567	10843.54
315.632	10819.97
315.698	10811.16
315.763	10800.36
315.828	10784.41
315.893	10773.57
315.958	10771.35
316.023	10763.45
316.088	10740.85
316.153	10716.33
316.218	10702.16
316.283	10672.29
316.348	10648.29
316.413	10635
316.479	10607.15
316.544	10567.26
316.609	10527.65
316.674	10488.82
316.739	10443.1
316.804	10392.61
316.869	10348
316.934	10294.95
316.999	10252.22
317.064	10193.4
317.129	10144.21
317.194	10098.06
317.259	10041.41
317.324	9985.01
317.389	9926.58
317.454	9874.46
317.518	9828.12
317.583	9782.84
317.648	9747.83
317.713	9696.63
317.778	9626.17
317.843	9584.12
317.908	9531.15
317.973	9479.14
318.038	9437.2
318.103	9392.03
318.168	9351.44
318.233	9306.17
318.297	9246.23
318.362	9195.86
318.427	9153.31
318.492	9109.34
318.557	9050.14
318.622	9006.9
318.687	8966.85
318.751	8914.82
318.816	8872.21
318.881	8827.06
318.946	8763.24
319.011	8702.16
319.075	8645.22
319.14	8596.33
319.205	8540.85
319.27	8493.79
319.335	8439.94
319.399	8388.35
319.464	8339.81
319.529	8272.89
319.594	8217.89
319.658	8172.87
319.723	8119.08
319.788	8068.29
319.853	7997.58
319.917	7955.11
319.982	7889.36
320.047	7835.97
320.112	7796.54
320.176	7728.73
320.241	7678.04
320.306	7628.33
320.37	7575.73
320.435	7530.92
320.5	7490.4
320.564	7434.06
320.629	7378.35
320.694	7324.91
320.758	7265.21
320.823	7209.03
320.888	7168.14
320.952	7104.38
321.017	7046.05
321.082	6987.82
321.146	6939.34
321.211	6895.63
321.275	6839.81
321.34	6785.3
321.405	6728.14
321.469	6660.91
321.534	6610.59
321.598	6543.51
321.663	6502.68
321.727	6459.09
321.792	6393.22
321.857	6335.42
321.921	6287.61
321.986	6232.66
322.05	6167.79
322.115	6119.9
322.179	6063.91
322.244	5997.51
322.308	5955.58
322.373	5897.11
322.437	5848.67
322.502	5808.6
322.566	5753.11
322.631	5704.05
322.695	5648.58
322.76	5594.07
322.824	5552.98
322.889	5495.61
322.953	5441.13
323.018	5360.99
323.082	5287.1
323.146	5231.44
323.211	5167.57
323.275	5108.16
323.34	5048.06
323.404	5004.48
323.468	4944.71
323.533	4890.65
323.597	4834.13
323.662	4774.66
323.726	4729.32
323.79	4670.59
323.855	4594.66
323.919	4532.11
323.983	4477.12
324.048	4397.04
324.112	4475.22
324.177	4306.02
324.241	4076.24
324.305	3850.23
324.37	3630.41
324.434	3414.7
324.498	3358.12
324.562	3294.11
324.627	3222.48
324.691	3157.55
324.755	3074.53
324.82	2982.64
324.884	2888.39
324.948	2795.17
325.012	2673.69
325.077	2525.28
