Data from 20250702_urea_0.1M_MAYP1162681_11-47-50-215.txt Node
Date: Wed Jul 02 11:47:50 BST 2025
User: adleo
Spectrometer: MAYP116268
Trigger mode: 0
Integration Time (sec): 1.000000E0
Scans to average: 1
Electric dark correction enabled: true
Nonlinearity correction enabled: true
Boxcar width: 10
XAxis mode: Wavelengths
Number of Pixels in Spectrum: 2068
>>>>>Begin Spectral Data<<<<<
179.565	1013.91
179.642	1060.85
179.718	1099.72
179.795	1131.19
179.871	1159.8
179.948	1172.98
180.024	1188.72
180.101	1205.48
180.177	1216.6
180.254	1236.57
180.33	1257.64
180.407	1298.21
180.483	1379.54
180.56	1455.42
180.636	1526.67
180.712	1514.75
180.789	1525.53
180.865	1535.78
180.942	1542.29
181.018	1553.11
181.095	1565.32
181.171	1569.36
181.248	1569.36
181.324	1582.09
181.4	1587.22
181.477	1595.06
181.553	1607.31
181.63	1624.84
181.706	1638.95
181.782	1647.45
181.859	1644.22
181.935	1647.5
182.011	1642.75
182.088	1655.72
182.164	1672.45
182.24	1684.99
182.317	1694.44
182.393	1691.49
182.469	1703.89
182.546	1719.38
182.622	1724.9
182.698	1724.14
182.775	1733.12
182.851	1746.85
182.927	1739.34
183.003	1737.72
183.08	1733.16
183.156	1741.86
183.232	1741.29
183.308	1733.59
183.385	1740.72
183.461	1757.16
183.537	1759.06
183.613	1770.37
183.69	1762.48
183.766	1750.45
183.842	1754.87
183.918	1759.01
183.995	1771.5
184.071	1774.55
184.147	1766.09
184.223	1754.73
184.299	1763.67
184.375	1755.69
184.452	1760.58
184.528	1810.54
184.604	1817.62
184.68	1827.36
184.756	1834.35
184.832	1837.44
184.908	1840.86
184.985	1840.1
185.061	1827.98
185.137	1832.07
185.213	1821.76
185.289	1825.56
185.365	1822
185.441	1818.57
185.517	1826.51
185.593	1823.8
185.669	1823.09
185.745	1833.64
185.822	1849.22
185.898	1840.67
185.974	1846.94
186.05	1840.95
186.126	1803.35
186.202	1798.03
186.278	1796.65
186.354	1787.76
186.43	1794.8
186.506	1792.99
186.582	1792.75
186.658	1798.65
186.734	1784.63
186.81	1787.38
186.886	1787.34
186.962	1798.55
187.038	1799.03
187.114	1796.65
187.19	1801.59
187.266	1790.95
187.341	1790.09
187.417	1783.01
187.493	1783.44
187.569	1786.91
187.645	1780.59
187.721	1773.03
187.797	1779.68
187.873	1782.63
187.949	1774.22
188.025	1767.85
188.101	1771.79
188.176	1775.4
188.252	1770.8
188.328	1776.69
188.404	1776.16
188.48	1772.03
188.556	1763.81
188.632	1763.95
188.707	1762.33
188.783	1760
188.859	1758.53
188.935	1749.5
189.011	1756.25
189.086	1748.03
189.162	1740.38
189.238	1738.29
189.314	1735.3
189.39	1733.11
189.465	1727.31
189.541	1745.61
189.617	1733.68
189.693	1727.46
189.768	1732.16
189.844	1756.22
189.92	1750.28
189.996	1758.64
190.071	1769.81
190.147	1770.48
190.223	1778.08
190.298	1772.95
190.374	1759.55
190.45	1767.1
190.526	1773.95
190.601	1770.34
190.677	1774.56
190.753	1799.72
190.828	1802.95
190.904	1814.64
190.98	1824.72
191.055	1833.6
191.131	1825.38
191.207	1839.11
191.282	1848.47
191.358	1839.11
191.433	1823.99
191.509	1836.15
191.585	1832.35
191.66	1833.21
191.736	1841.43
191.811	1833.01
191.887	1845.66
191.963	1869.38
192.038	1876.22
192.114	1877.93
192.189	1880.31
192.265	1876.51
192.34	1858.68
192.416	1858.1
192.491	1854.25
192.567	1857.49
192.642	1859.67
192.718	1860.96
192.793	1852.97
192.869	1849.22
192.944	1850.12
193.02	1855.68
193.095	1858.39
193.171	1864
193.246	1863.15
193.322	1857.78
193.397	1858.06
193.473	1845.46
193.548	1829.87
193.624	1835.24
193.699	1837.76
193.775	1851.74
193.85	1853.64
193.925	1857.87
194.001	1857.11
194.076	1849.89
194.152	1839.76
194.227	1833.3
194.302	1824.31
194.378	1828.02
194.453	1826.41
194.529	1838.95
194.604	1827.59
194.679	1821.04
194.755	1803.55
194.83	1814.2
194.905	1813.87
194.981	1818.24
195.056	1813.54
195.131	1819.19
195.207	1815.1
195.282	1802.7
195.357	1783.16
195.433	1797.85
195.508	1791
195.583	1798.04
195.659	1812.77
195.734	1821.61
195.809	1821.85
195.884	1827.74
195.96	1827.17
196.035	1841.1
196.11	1836.01
196.185	1846.94
196.261	1851.55
196.336	1877.65
196.411	1865
196.486	1871.13
196.561	1868.75
196.637	1876.12
196.712	1889.62
196.787	1893.81
196.862	1910.49
196.937	1922.85
197.013	1925.7
197.088	1932.74
197.163	1953.57
197.238	1968.51
197.313	1969.41
197.388	1979.64
197.464	2007.46
197.539	2016.11
197.614	2010.03
197.689	2022.91
197.764	2033.8
197.839	2048.55
197.914	2046.5
197.989	2065.81
198.065	2076.75
198.14	2120.72
198.215	2147.31
198.29	2158.25
198.365	2167.24
198.44	2172.9
198.515	2196.69
198.59	2211.3
198.665	2234.47
198.74	2237.94
198.815	2238.56
198.89	2255.97
198.965	2283.92
199.04	2281.2
199.115	2296.9
199.19	2335.4
199.265	2336.92
199.34	2350.53
199.415	2382.39
199.49	2400.76
199.565	2410.04
199.64	2431.89
199.715	2430.69
199.79	2434.88
199.865	2443.45
199.94	2445.36
200.015	2472.07
200.09	2475.4
200.165	2481.97
200.24	2488.97
200.315	2525.37
200.39	2538.37
200.464	2547.94
200.539	2548.89
200.614	2562.89
200.689	2584.32
200.764	2590.56
200.839	2607.94
200.914	2610.37
200.989	2599.46
201.063	2611.27
201.138	2597.13
201.213	2597.27
201.288	2578.56
201.363	2584.04
201.438	2580.75
201.512	2593.99
201.587	2581.32
201.662	2587.27
201.737	2598.37
201.812	2608.23
201.886	2584.35
201.961	2595.55
202.036	2584.4
202.111	2583.02
202.186	2559.99
202.26	2548.22
202.335	2531.22
202.41	2528.83
202.485	2519.26
202.559	2505.55
202.634	2489.12
202.709	2504.31
202.784	2493.12
202.858	2502.11
202.933	2491.4
203.008	2494.97
203.082	2488.69
203.157	2499.26
203.232	2472.75
203.306	2468.27
203.381	2450.6
203.456	2440.36
203.53	2434.21
203.605	2433.79
203.68	2436.79
203.754	2451.01
203.829	2457.92
203.904	2467.16
203.978	2483.98
204.053	2515.85
204.127	2537.99
204.202	2570.1
204.277	2594.01
204.351	2629.13
204.426	2661.44
204.5	2698.8
204.575	2717.15
204.65	2774.17
204.724	2822.01
204.799	2882.85
204.873	2936.33
204.948	2999.27
205.022	3056.25
205.097	3118.82
205.171	3204.16
205.246	3284.94
205.32	3366.04
205.395	3451.55
205.469	3526.29
205.544	3620.89
205.618	3698.75
205.693	3812.48
205.767	3903.28
205.842	4024.82
205.916	4129.86
205.991	4239.28
206.065	4364.23
206.14	4495.65
206.214	4622.97
206.289	4748.77
206.363	4892.34
206.438	5035.35
206.512	5180.94
206.586	5343.9
206.661	5501.83
206.735	5637.59
206.81	5794.89
206.884	5969.77
206.958	6128.77
207.033	6315.79
207.107	6494.85
207.181	6699.32
207.256	6869.94
207.33	7072.9
207.405	7269.21
207.479	7469.03
207.553	7662.69
207.628	7839.55
207.702	8048.58
207.776	8232.13
207.851	8435.78
207.925	8650.62
207.999	8846.45
208.073	9056.44
208.148	9266.04
208.222	9458.1
208.296	9694.63
208.371	9918.54
208.445	10138.75
208.519	10371.88
208.593	10596.46
208.668	10810.62
208.742	11035.8
208.816	11249.68
208.89	11471.26
208.965	11677.77
209.039	11907.95
209.113	12141.6
209.187	12373.51
209.261	12589.39
209.336	12828.75
209.41	13061.9
209.484	13283.15
209.558	13525.61
209.632	13751.06
209.707	13979.69
209.781	14231.55
209.855	14465.04
209.929	14696.89
210.003	14921.66
210.077	15140.45
210.151	15398.71
210.226	15635.37
210.3	15860.79
210.374	16092.35
210.448	16305.72
210.522	16521.79
210.596	16730.29
210.67	16938.45
210.744	17191.72
210.818	17420.5
210.892	17639.01
210.966	17831.26
211.041	18046.73
211.115	18234.1
211.189	18439.98
211.263	18638
211.337	18821.9
211.411	19019.68
211.485	19203.38
211.559	19404.97
211.633	19586.32
211.707	19729.78
211.781	19924.2
211.855	20070.94
211.929	20247.13
212.003	20412
212.077	20598.04
212.151	20788.36
212.225	20972.23
212.299	21127.1
212.373	21275.6
212.447	21434.32
212.52	21614.54
212.594	21774.82
212.668	21945.46
212.742	22102.42
212.816	22254.12
212.89	22407.32
212.964	22557.07
213.038	22699.39
213.112	22846.74
213.186	23010.15
213.26	23149.1
213.333	23256.97
213.407	23396.41
213.481	23526.56
213.555	23668.48
213.629	23795.41
213.703	23919.08
213.777	24051.83
213.85	24166.34
213.924	24334.16
213.998	24456.06
214.072	24576.72
214.146	24686.09
214.219	24809.7
214.293	24929.55
214.367	25056.88
214.441	25181.86
214.515	25293.48
214.588	25400.08
214.662	25478.5
214.736	25558.56
214.81	25666.27
214.883	25767.24
214.957	25873.32
215.031	25968.59
215.105	26052.04
215.178	26143.04
215.252	26220.81
215.326	26287.19
215.4	26362.6
215.473	26409.34
215.547	26484.03
215.621	26562.84
215.694	26650.44
215.768	26711.09
215.842	26773.72
215.915	26834.91
215.989	26885.87
216.063	26942.04
216.136	27018.94
216.21	27089.98
216.284	27174.74
216.357	27239.37
216.431	27305.02
216.504	27382.99
216.578	27475.99
216.652	27551.49
216.725	27614.73
216.799	27681.84
216.873	27738.12
216.946	27807.4
217.02	27857.26
217.093	27912.25
217.167	27960.33
217.24	28003.1
217.314	28051.22
217.387	28104.52
217.461	28157.3
217.535	28225.1
217.608	28274.06
217.682	28314.66
217.755	28387.84
217.829	28426.8
217.902	28477.64
217.976	28515
218.049	28541.69
218.123	28574.18
218.196	28618.84
218.27	28660.13
218.343	28695.51
218.417	28754.01
218.49	28787.8
218.563	28844.17
218.637	28888.21
218.71	28936.18
218.784	28987.57
218.857	29034.42
218.931	29066.77
219.004	29100.03
219.077	29133.54
219.151	29166.91
219.224	29198
219.298	29219.91
219.371	29268.32
219.444	29298.4
219.518	29338.34
219.591	29377.99
219.665	29422.15
219.738	29450.34
219.811	29460.35
219.885	29496.73
219.958	29536.53
220.031	29552.88
220.105	29591.19
220.178	29618.57
220.251	29641.64
220.325	29665.29
220.398	29688.7
220.471	29720.77
220.544	29744.57
220.618	29752.26
220.691	29774.75
220.764	29800.82
220.838	29813.16
220.911	29821.72
220.984	29857.95
221.057	29883.83
221.131	29900.04
221.204	29895.15
221.277	29920.36
221.35	29965.88
221.424	29983.59
221.497	29984.5
221.57	30006.08
221.643	30011.88
221.716	30027.32
221.79	30015.37
221.863	30006.03
221.936	30014.25
222.009	30026.88
222.082	30029.4
222.155	30038.98
222.229	30045.85
222.302	30036.85
222.375	30033.03
222.448	30037.09
222.521	30026.44
222.594	30014.3
222.667	30000.27
222.74	30005.35
222.814	29988.9
222.887	29981.16
222.96	29981.89
223.033	29980.82
223.106	29973.52
223.179	29967.57
223.252	29956.59
223.325	29951.46
223.398	29959.78
223.471	29950.49
223.544	29920.64
223.617	29920.5
223.69	29913.05
223.763	29900.52
223.837	29901.29
223.91	29904.29
223.983	29879.86
224.056	29857.37
224.129	29848.81
224.202	29837.78
224.275	29806.19
224.348	29795.84
224.42	29768.99
224.493	29728.12
224.566	29705.28
224.639	29693.19
224.712	29668.23
224.785	29644.72
224.858	29633.45
224.931	29603.08
225.004	29573.23
225.077	29561.68
225.15	29508.43
225.223	29485.79
225.296	29479.99
225.369	29443.04
225.442	29409.72
225.514	29389.02
225.587	29372.04
225.66	29356.08
225.733	29341.48
225.806	29324.41
225.879	29294.91
225.952	29255.4
226.025	29249.45
226.097	29228.12
226.17	29198.96
226.243	29149.5
226.316	29123.87
226.389	29101.53
226.461	29076.77
226.534	29059.85
226.607	29029.97
226.68	29028.62
226.753	28992.06
226.825	28943.47
226.898	28927.8
226.971	28892.12
227.044	28857.75
227.117	28825.45
227.189	28788.42
227.262	28765.07
227.335	28738.33
227.407	28705.07
227.48	28681.87
227.553	28650.78
227.626	28620.81
227.698	28589.77
227.771	28571.16
227.844	28539.36
227.916	28498.99
227.989	28463.56
228.062	28428.91
228.134	28417.55
228.207	28389.46
228.28	28356.5
228.352	28336.15
228.425	28311.45
228.498	28294.73
228.57	28261.24
228.643	28241.96
228.716	28211.75
228.788	28174.97
228.861	28131.81
228.934	28113.26
229.006	28084.02
229.079	28048.35
229.151	28009.21
229.224	27968.62
229.296	27942.82
229.369	27930.93
229.442	27921.07
229.514	27883.09
229.587	27856.13
229.659	27814.29
229.732	27784.47
229.804	27773.12
229.877	27757.22
229.949	27720.79
230.022	27704.89
230.094	27684.6
230.167	27645.27
230.239	27602.85
230.312	27574.3
230.384	27572.37
230.457	27540.43
230.529	27512.41
230.602	27480.58
230.674	27442.61
230.747	27425.03
230.819	27411.98
230.892	27348.94
230.964	27312.66
231.037	27281.08
231.109	27244.08
231.181	27203.89
231.254	27162.06
231.326	27116.95
231.399	27067.29
231.471	27027.06
231.544	26970.69
231.616	26943.93
231.688	26918.19
231.761	26890.04
231.833	26848.31
231.905	26788.23
231.978	26758
232.05	26711.98
232.122	26665.33
232.195	26633.46
232.267	26601.06
232.339	26536.4
232.412	26519.98
232.484	26484.88
232.556	26453.54
232.629	26447.75
232.701	26422.3
232.773	26392.27
232.846	26353.5
232.918	26321.59
232.99	26299.33
233.062	26280.35
233.135	26233.43
233.207	26177.81
233.279	26140.88
233.351	26109.21
233.424	26077.35
233.496	26031.73
233.568	26021.31
233.64	25984.72
233.713	25942.87
233.785	25903.77
233.857	25880.79
233.929	25834.89
234.001	25802.69
234.074	25776.43
234.146	25708.47
234.218	25667.34
234.29	25622.99
234.362	25579.85
234.434	25530.62
234.507	25468.41
234.579	25414.69
234.651	25377
234.723	25354.27
234.795	25324.01
234.867	25276.86
234.939	25239.47
235.012	25202.69
235.084	25146.18
235.156	25108.35
235.228	25063.14
235.3	25023.77
235.372	24982.8
235.444	24944.73
235.516	24879.79
235.588	24830.96
235.66	24790.19
235.732	24740.83
235.804	24744.16
235.876	24715.65
235.948	24692.73
236.02	24655.64
236.092	24610.34
236.164	24564.75
236.236	24513.71
236.308	24459.49
236.38	24418.15
236.452	24370.77
236.524	24328.47
236.596	24309.94
236.668	24282.11
236.74	24248.2
236.812	24204.74
236.884	24158.77
236.956	24111.6
237.028	24068.39
237.1	24020.83
237.172	23989
237.244	23963.87
237.316	23892.28
237.388	23837.45
237.46	23777.35
237.532	23744.12
237.604	23698.64
237.675	23676.7
237.747	23640.96
237.819	23591.25
237.891	23554.31
237.963	23504.49
238.035	23449.52
238.107	23368.26
238.178	23320.52
238.25	23264.78
238.322	23234.69
238.394	23185.12
238.466	23137.53
238.538	23100.31
238.609	23062.41
238.681	23000.74
238.753	22945.96
238.825	22895.67
238.897	22854.16
238.968	22820.5
239.04	22770.07
239.112	22749.29
239.184	22679.52
239.255	22629
239.327	22590.24
239.399	22544.77
239.471	22511.46
239.542	22477.47
239.614	22461.61
239.686	22401.88
239.758	22379.66
239.829	22330.91
239.901	22308.88
239.973	22267.43
240.044	22232.67
240.116	22186.68
240.188	22150.09
240.259	22104.63
240.331	22055.8
240.403	22015.31
240.474	21952.4
240.546	21904.64
240.618	21835.32
240.689	21795.89
240.761	21760.56
240.833	21736.55
240.904	21687.44
240.976	21641.84
241.048	21598.36
241.119	21558.4
241.191	21531.26
241.262	21495.88
241.334	21456.89
241.405	21396.59
241.477	21345.16
241.549	21289.4
241.62	21248.33
241.692	21200.47
241.763	21167.31
241.835	21130.88
241.906	21095.26
241.978	21045.33
242.049	21015.11
242.121	20983.01
242.192	20947.73
242.264	20881.66
242.335	20824.6
242.407	20794.18
242.478	20739.77
242.55	20693.31
242.621	20635.09
242.693	20578.8
242.764	20530.66
242.836	20479.09
242.907	20434.8
242.979	20399.76
243.05	20365.21
243.122	20330.75
243.193	20292.68
243.264	20225.69
243.336	20182.27
243.407	20148.25
243.479	20130.03
243.55	20083.33
243.622	20050.71
243.693	20010.85
243.764	19987.29
243.836	19935.05
243.907	19881.7
243.978	19841.95
244.05	19808.89
244.121	19757.61
244.192	19726.53
244.264	19669.86
244.335	19623.64
244.407	19570.54
244.478	19535.45
244.549	19487.79
244.62	19437.63
244.692	19398.69
244.763	19374.45
244.834	19326.79
244.906	19266.26
244.977	19233.3
245.048	19209.45
245.119	19157.26
245.191	19105.74
245.262	19038.13
245.333	19010.95
245.405	18976.64
245.476	18949.27
245.547	18908.7
245.618	18880.22
245.689	18839.3
245.761	18804.65
245.832	18767.07
245.903	18741.81
245.974	18707.41
246.045	18668.81
246.117	18640.38
246.188	18582.69
246.259	18527.08
246.33	18485.73
246.401	18450.94
246.473	18384.87
246.544	18339.72
246.615	18309.84
246.686	18264.78
246.757	18253.89
246.828	18209.41
246.899	18180.45
246.97	18120.79
247.042	18074.57
247.113	18036.31
247.184	18010.43
247.255	17972.17
247.326	17934.34
247.397	17902.05
247.468	17863.16
247.539	17829.23
247.61	17780.08
247.681	17765.57
247.752	17746.49
247.823	17705.43
247.894	17670.58
247.965	17641.86
248.037	17591.36
248.108	17538.63
248.179	17505.43
248.25	17463.12
248.321	17436.51
248.392	17390.63
248.463	17376.13
248.534	17340.71
248.605	17317.09
248.675	17282.34
248.746	17245.14
248.817	17204.66
248.888	17165.86
248.959	17116.03
249.03	17093.14
249.101	17065.81
249.172	17024.22
249.243	16972.75
249.314	16957.03
249.385	16931.25
249.456	16904.45
249.527	16873.47
249.598	16848.21
249.669	16828.5
249.739	16806.28
249.81	16772.54
249.881	16728.3
249.952	16695.48
250.023	16669.6
250.094	16621.74
250.165	16583.76
250.235	16559.47
250.306	16544.68
250.377	16511.76
250.448	16492.14
250.519	16439.56
250.59	16415.32
250.66	16370.78
250.731	16357.33
250.802	16318.34
250.873	16282.34
250.944	16242.77
251.014	16212.69
251.085	16203.82
251.156	16174.86
251.227	16144.49
251.297	16124.83
251.368	16107.33
251.439	16091.09
251.51	16070.32
251.58	16034.07
251.651	15992.81
251.722	15975.7
251.792	15920.13
251.863	15889.71
251.934	15863.97
252.005	15861.37
252.075	15821.75
252.146	15811.77
252.217	15796.35
252.287	15776.3
252.358	15745.79
252.429	15748.73
252.499	15709.64
252.57	15677.54
252.641	15652.71
252.711	15627.31
252.782	15587.4
252.852	15585.33
252.923	15550.19
252.994	15520.31
253.064	15498.18
253.135	15468.2
253.205	15429.25
253.276	15420.92
253.347	15397.83
253.417	15365.53
253.488	15324.17
253.558	15298.05
253.629	15270.38
253.699	15243.72
253.77	15226.57
253.841	15193.21
253.911	15158.89
253.982	15141.92
254.052	15123.22
254.123	15106.3
254.193	15084.13
254.264	15089.04
254.334	15043.83
254.405	15010.47
254.475	14973.6
254.546	14956.97
254.616	14951.62
254.687	14928.38
254.757	14910.88
254.827	14886.06
254.898	14863.21
254.968	14845.47
255.039	14813.95
255.109	14802.04
255.18	14765.55
255.25	14717.15
255.321	14708.04
255.391	14665.09
255.461	14652.65
255.532	14600.83
255.602	14564.34
255.673	14516.77
255.743	14477.43
255.813	14429.42
255.884	14416.26
255.954	14399.87
256.024	14391.77
256.095	14362.51
256.165	14329.92
256.235	14301.67
256.306	14275.79
256.376	14266.29
256.446	14237.18
256.517	14218.76
256.587	14191.81
256.657	14172.48
256.728	14157.54
256.798	14124.47
256.868	14100.32
256.938	14067.64
257.009	14057.42
257.079	14040.11
257.149	14044.64
257.219	14008.34
257.29	13993.45
257.36	13946.25
257.43	13933.62
257.5	13887.54
257.571	13857.31
257.641	13838.85
257.711	13813.2
257.781	13793.58
257.852	13768.52
257.922	13736.55
257.992	13713.37
258.062	13690.08
258.132	13671.28
258.202	13642.89
258.273	13629.44
258.343	13629.92
258.413	13606.3
258.483	13590.44
258.553	13555.97
258.623	13516.59
258.693	13494.32
258.764	13491.18
258.834	13491.38
258.904	13467.9
258.974	13442.64
259.044	13419.45
259.114	13407.74
259.184	13387.1
259.254	13372.64
259.324	13333.07
259.394	13321.93
259.464	13318.55
259.535	13294.74
259.605	13267.46
259.675	13246.25
259.745	13228.75
259.815	13191.68
259.885	13166.51
259.955	13163.47
260.025	13139.61
260.095	13122.31
260.165	13106.11
260.235	13092.23
260.305	13060.07
260.375	13031.39
260.445	13024.45
260.515	13025.32
260.585	13006.37
260.655	12979.28
260.725	12962.31
260.795	12953.92
260.865	12949.25
260.934	12926.25
261.004	12921.05
261.074	12904.08
261.144	12894.24
261.214	12882.24
261.284	12858.91
261.354	12854.81
261.424	12827.38
261.494	12825.6
261.564	12801.3
261.634	12790.02
261.703	12754.45
261.773	12748.9
261.843	12735.45
261.913	12711.69
261.983	12668.79
262.053	12657.99
262.123	12640.44
262.192	12604.29
262.262	12593.68
262.332	12564.13
262.402	12547.65
262.472	12525.33
262.541	12484.4
262.611	12469.75
262.681	12442.9
262.751	12435.48
262.821	12406.27
262.89	12372.76
262.96	12356.18
263.03	12362.98
263.1	12348.37
263.169	12337.24
263.239	12328.17
263.309	12324.9
263.379	12316.75
263.448	12303.25
263.518	12290.04
263.588	12272.79
263.657	12272.35
263.727	12261.8
263.797	12242.71
263.867	12216.01
263.936	12180.24
264.006	12183.76
264.076	12166.02
264.145	12140.38
264.215	12111.89
264.285	12109.77
264.354	12082.1
264.424	12057.9
264.494	12018.04
264.563	12003.29
264.633	12003.77
264.702	11979.96
264.772	11939.66
264.842	11916.09
264.911	11905.54
264.981	11876.95
265.05	11864.42
265.12	11846.15
265.19	11832.99
265.259	11820.03
265.329	11811.93
265.398	11808.08
265.468	11808.56
265.537	11784.8
265.607	11785.81
265.676	11779.01
265.746	11763.3
265.815	11760.12
265.885	11748.31
265.955	11732.6
266.024	11707.24
266.094	11669.12
266.163	11665.74
266.232	11669.31
266.302	11652.39
266.371	11638.85
266.441	11618.46
266.51	11611.62
266.58	11595.38
266.649	11565.15
266.719	11563.56
266.788	11554.36
266.858	11552.04
266.927	11514.26
266.996	11506.26
267.066	11481.39
267.135	11462.21
267.205	11451.94
267.274	11434.59
267.343	11432.33
267.413	11420.76
267.482	11416.81
267.552	11412.85
267.621	11386.2
267.69	11357.33
267.76	11345.57
267.829	11332.13
267.898	11318.54
267.968	11296.56
268.037	11293.04
268.106	11285.91
268.176	11253.81
268.245	11239.88
268.314	11216.03
268.384	11215.11
268.453	11203.5
268.522	11196.6
268.592	11188.99
268.661	11170.63
268.73	11163.4
268.799	11136.32
268.869	11137.23
268.938	11109.28
269.007	11093.57
269.076	11078.77
269.146	11080.85
269.215	11070.53
269.284	11078.29
269.353	11064.7
269.422	11050.63
269.492	11024.95
269.561	10990.97
269.63	10987.26
269.699	10962.25
269.768	10952.08
269.838	10943.65
269.907	10935.17
269.976	10915.51
270.045	10888.62
270.114	10887.18
270.183	10871.95
270.253	10859.95
270.322	10825.83
270.391	10807.33
270.46	10802.22
270.529	10805.93
270.598	10792.15
270.667	10779
270.736	10743.82
270.806	10735.48
270.875	10731.58
270.944	10720.5
271.013	10737.65
271.082	10733.22
271.151	10731.14
271.22	10703.1
271.289	10689.32
271.358	10675.88
271.427	10667.49
271.496	10658.68
271.565	10635.02
271.634	10627.74
271.703	10644.27
271.772	10650.92
271.841	10649.52
271.91	10626.3
271.979	10601.19
272.048	10581.68
272.117	10586.01
272.186	10578.5
272.255	10576.23
272.324	10572.62
272.393	10567.85
272.462	10550.89
272.531	10533.11
272.6	10528
272.669	10530.26
272.738	10522.31
272.807	10516.48
272.876	10494.37
272.945	10515.47
273.013	10514.7
273.082	10512.68
273.151	10479.24
273.22	10469.99
273.289	10458.96
273.358	10470.81
273.427	10461.61
273.496	10459.78
273.564	10446.72
273.633	10445.13
273.702	10429.08
273.771	10423.25
273.84	10416.61
273.909	10417.14
273.977	10414
274.046	10397.77
274.115	10399.69
274.184	10379.65
274.253	10370.55
274.322	10383.6
274.39	10349.44
274.459	10340.29
274.528	10315.24
274.597	10304.59
274.665	10307.24
274.734	10312.49
274.803	10297.6
274.872	10293.89
274.94	10274.09
275.009	10297.75
275.078	10282.14
275.147	10274.58
275.215	10265.72
275.284	10270.73
275.353	10254.49
275.421	10230.6
275.49	10240.91
275.559	10233.39
275.627	10231.27
275.696	10221.2
275.765	10219.23
275.833	10219.56
275.902	10211.9
275.971	10216.62
276.039	10229.25
276.108	10231.32
276.177	10229.44
276.245	10220.43
276.314	10213.59
276.383	10222.21
276.451	10187.38
276.52	10188.44
276.588	10200.48
276.657	10203.23
276.725	10191.86
276.794	10196.68
276.863	10207.85
276.931	10190.17
277	10186.94
277.068	10191.13
277.137	10206.65
277.205	10195.08
277.274	10208.04
277.342	10218.35
277.411	10206.5
277.48	10191.23
277.548	10177.84
277.617	10181.07
277.685	10173.89
277.754	10183.72
277.822	10170.56
277.89	10179.91
277.959	10173.7
278.027	10155.73
278.096	10144.6
278.164	10165.99
278.233	10156.21
278.301	10151.78
278.37	10158.28
278.438	10151.06
278.507	10150.72
278.575	10128.13
278.643	10128.46
278.712	10109.48
278.78	10091.47
278.849	10098.84
278.917	10112.66
278.985	10107.41
279.054	10105.48
279.122	10114.06
279.191	10109.43
279.259	10111.5
279.327	10095.75
279.396	10109.48
279.464	10108.08
279.532	10118.25
279.601	10112.9
279.669	10106.01
279.737	10114.01
279.806	10112.71
279.874	10119.98
279.942	10117.86
280.011	10118.83
280.079	10126.87
280.147	10145.37
280.215	10150.43
280.284	10146.81
280.352	10131.4
280.42	10140.5
280.488	10130.77
280.557	10129.38
280.625	10129.62
280.693	10128.41
280.761	10131.54
280.83	10111.36
280.898	10115.31
280.966	10094.16
281.034	10066.99
281.102	10061.26
281.171	10054.51
281.239	10057.07
281.307	10051.14
281.375	10047.91
281.443	10065.06
281.512	10061.4
281.58	10062.03
281.648	10050.76
281.716	10046.23
281.784	10049.75
281.852	10036.84
281.92	10034.72
281.989	10042.33
282.057	10027.44
282.125	10065.94
282.193	10065.46
282.261	10071.48
282.329	10067.57
282.397	10069.93
282.465	10072.87
282.533	10081.25
282.601	10071.09
282.67	10056.98
282.738	10051.48
282.806	10055.34
282.874	10044.79
282.942	10047.53
283.01	10044.35
283.078	10046.38
283.146	10051.48
283.214	10059.38
283.282	10058.37
283.35	10068.3
283.418	10054.57
283.486	10066.03
283.554	10025.56
283.622	10019.35
283.69	10015.54
283.758	10014.05
283.826	10023.68
283.894	10031.01
283.962	10048.93
284.03	10061.69
284.098	10060.97
284.165	10059.38
284.233	10061.45
284.301	10057.79
284.369	10049.5
284.437	10043.19
284.505	10040.88
284.573	10049.55
284.641	10032.84
284.709	10045.89
284.777	10030.81
284.845	10041.36
284.912	10043.48
284.98	10047.24
285.048	10044.54
285.116	10057.64
285.184	10075.08
285.252	10075.66
285.319	10063.91
285.387	10061.45
285.455	10047.91
285.523	10049.12
285.591	10047.29
285.659	10043.72
285.726	10050.03
285.794	10035.1
285.862	10030.72
285.93	10028.99
285.997	10020.89
286.065	10018.97
286.133	10003.98
286.201	9997.72
286.269	9989.24
286.336	9975.66
286.404	9977.15
286.472	9985.68
286.539	9958.99
286.607	9938.52
286.675	9932.69
286.743	9937.46
286.81	9928.5
286.878	9933.46
286.946	9930.96
287.013	9928.74
287.081	9932.55
287.149	9918.53
287.216	9934.14
287.284	9927.97
287.352	9933.75
287.419	9933.99
287.487	9951.72
287.555	9961.93
287.622	9964.92
287.69	9966.51
287.758	9981.05
287.825	9969.54
287.893	9957.93
287.96	9967.08
288.028	9977.87
288.096	9982.98
288.163	9989.1
288.231	9973.73
288.298	9981.82
288.366	9991.94
288.433	9994.93
288.501	9987.03
288.569	9991.75
288.636	9986.11
288.704	10005.67
288.771	10012.37
288.839	10007.89
288.906	9998.83
288.974	10007.89
289.041	10015.16
289.109	10010.34
289.176	10018.68
289.244	10027.25
289.311	10037.51
289.379	10048.73
289.446	10051
289.514	10052.73
289.581	10054.8
289.649	10063.38
289.716	10062.03
289.783	10059.14
289.851	10064.87
289.918	10064.2
289.986	10076.72
290.053	10085.05
290.121	10077.35
290.188	10076.72
290.255	10096.76
290.323	10092.23
290.39	10085.15
290.458	10089.63
290.525	10103.12
290.592	10098.49
290.66	10104.95
290.727	10103.17
290.794	10116.46
290.862	10111.26
290.929	10109.81
290.996	10105.67
291.064	10114.29
291.131	10130.87
291.198	10144.21
291.266	10152.06
291.333	10161.46
291.4	10172.3
291.468	10189.06
291.535	10190.7
291.602	10193.21
291.669	10195.47
291.737	10205.59
291.804	10208.91
291.871	10223.22
291.938	10235.46
292.006	10263.06
292.073	10280.41
292.14	10296.35
292.207	10292.4
292.275	10307.67
292.342	10324.1
292.409	10347.61
292.476	10375.13
292.543	10370.93
292.611	10375.27
292.678	10387.46
292.745	10411.5
292.812	10413.14
292.879	10410.39
292.946	10415.4
293.014	10438.43
293.081	10445.37
293.148	10459.1
293.215	10476.2
293.282	10472.98
293.349	10479.91
293.416	10460.98
293.484	10469.75
293.551	10486.32
293.618	10510.32
293.685	10531.52
293.752	10526.6
293.819	10533.54
293.886	10522.56
293.953	10533.83
294.02	10541.73
294.087	10551.13
294.154	10547.51
294.221	10564.47
294.288	10567.8
294.356	10591.07
294.423	10597.48
294.49	10595.84
294.557	10608.95
294.624	10605
294.691	10631.35
294.758	10635.69
294.825	10645.47
294.892	10640.31
294.959	10639.16
295.026	10642.19
295.093	10634.77
295.16	10641.33
295.226	10639.45
295.293	10664.21
295.36	10669.51
295.427	10686.76
295.494	10705.75
295.561	10714.66
295.628	10735.19
295.695	10755.77
295.762	10762.27
295.829	10773.94
295.896	10788.01
295.963	10800.97
296.03	10815.13
296.096	10814.56
296.163	10830.36
296.23	10848.77
296.297	10863.8
296.364	10869.1
296.431	10876.48
296.498	10880.72
296.564	10903.89
296.631	10910.3
296.698	10899.32
296.765	10915.7
296.832	10904.86
296.899	10895.94
296.965	10911.65
297.032	10898.69
297.099	10916.52
297.166	10922.93
297.233	10922.35
297.299	10917.34
297.366	10917.1
297.433	10920.57
297.5	10932.61
297.566	10932.76
297.633	10932.81
297.7	10940.04
297.767	10935.8
297.833	10943.84
297.9	10942.59
297.967	10927.84
298.033	10940.62
298.1	10965.77
298.167	10962.25
298.234	10973.05
298.3	10982.11
298.367	10975.65
298.434	10981.09
298.5	10978.64
298.567	10975.31
298.634	10972.61
298.7	10987.94
298.767	10992.08
298.834	11006.44
298.9	11002.92
298.967	10996.03
299.033	11007.26
299.1	11013.77
299.167	11031.98
299.233	11029.19
299.3	11051.69
299.366	11068.75
299.433	11083.59
299.5	11062.1
299.566	11068.32
299.633	11085.76
299.699	11097.23
299.766	11103.79
299.832	11111.16
299.899	11113.09
299.965	11119.64
300.032	11114.97
300.099	11130.68
300.165	11137.52
300.232	11132.94
300.298	11133.71
300.365	11148.36
300.431	11159.11
300.498	11159.59
300.564	11165.18
300.631	11173.09
300.697	11178.87
300.763	11181.91
300.83	11178.2
300.896	11193.23
300.963	11200.75
301.029	11198.82
301.096	11204.99
301.162	11211.21
301.229	11204.27
301.295	11199.98
301.361	11207.64
301.428	11215.3
301.494	11197.57
301.561	11199.74
301.627	11208.6
301.693	11215.64
301.76	11221.13
301.826	11206.15
301.892	11217.28
301.959	11223.54
302.025	11224.6
302.092	11221.33
302.158	11227.69
302.224	11231.3
302.291	11226.68
302.357	11221.42
302.423	11218.92
302.49	11207.4
302.556	11224.03
302.622	11230.48
302.688	11237.14
302.755	11244.56
302.821	11249.95
302.887	11265.23
302.954	11263.98
303.02	11266.73
303.086	11265.38
303.152	11261.38
303.219	11261.13
303.285	11263.64
303.351	11264.03
303.417	11266.2
303.483	11253.04
303.55	11245.95
303.616	11248.27
303.682	11242
303.748	11239.11
303.815	11255.74
303.881	11265.04
303.947	11247.21
304.013	11244.37
304.079	11236.41
304.145	11222.87
304.212	11221.81
304.278	11213.71
304.344	11208.46
304.41	11193.57
304.476	11189.18
304.542	11183.16
304.608	11189.47
304.674	11174.73
304.741	11171.4
304.807	11170.73
304.873	11183.06
304.939	11195.98
305.005	11172.8
305.071	11170.82
305.137	11168.12
305.203	11138.29
305.269	11131.93
305.335	11142.82
305.401	11137.62
305.467	11135.4
305.533	11144.56
305.599	11149.86
305.666	11157.09
305.732	11151.35
305.798	11156.7
305.864	11180.85
305.93	11181.33
305.996	11173.91
306.062	11176.32
306.128	11171.26
306.194	11160.12
306.259	11160.9
306.325	11155.06
306.391	11167.35
306.457	11178.92
306.523	11181.62
306.589	11204.32
306.655	11197.18
306.721	11182.34
306.787	11175.35
306.853	11188.99
306.919	11170.29
306.985	11164.17
307.051	11155.69
307.117	11159.74
307.183	11162.05
307.248	11134.44
307.314	11139.5
307.38	11145.23
307.446	11149.28
307.512	11139.45
307.578	11141.42
307.644	11136.8
307.709	11133.62
307.775	11132.75
307.841	11126.29
307.907	11121.81
307.973	11103.26
308.039	11106.2
308.104	11106.2
308.17	11105.57
308.236	11086.77
308.302	11091.26
308.368	11082.92
308.433	11083.93
308.499	11074
308.565	11061.33
308.631	11063.26
308.696	11040.03
308.762	11025.43
308.828	11017.28
308.894	10998.83
308.959	10977.96
309.025	10965.34
309.091	10955.6
309.156	10946.49
309.222	10943.89
309.288	10933.67
309.354	10914.21
309.419	10906.4
309.485	10894.3
309.551	10895.32
309.616	10875.56
309.682	10862.6
309.748	10853.15
309.813	10839.13
309.879	10830.12
309.945	10817.16
310.01	10801.06
310.076	10805.35
310.141	10796.63
310.207	10781.21
310.273	10784.05
310.338	10788.15
310.404	10769.16
310.469	10753.4
310.535	10736.15
310.601	10716.59
310.666	10718.81
310.732	10727
310.797	10713.41
310.863	10703.29
310.928	10694.42
310.994	10697.07
311.059	10693.12
311.125	10683.63
311.191	10692.35
311.256	10675.05
311.322	10675.97
311.387	10661.23
311.453	10984.89
311.518	10958.97
311.584	10955.02
311.649	10960.75
311.715	10945.24
311.78	10946.3
311.846	10939.22
311.911	10942.25
311.976	10941.77
312.042	10922.4
312.107	10900.48
312.173	10887.13
312.238	10875.42
312.304	10867.42
312.369	10853.55
312.434	10845.98
312.5	10838.61
312.565	10799.25
312.631	10803.53
312.696	10791.59
312.761	10792.65
312.827	10451.97
312.892	10484.4
312.958	10479.29
313.023	10466.09
313.088	10462.57
313.154	10451.49
313.219	10438.19
313.284	10434.77
313.35	10426.92
313.415	10417.81
313.48	10412.32
313.546	10422.24
313.611	10427.21
313.676	10418.87
313.741	10410.54
313.807	10414.15
313.872	10420.85
313.937	10425.86
314.003	10433.81
314.068	10428.6
314.133	10431.98
314.198	10417.81
314.264	10397
314.329	10387.22
314.394	10385.48
314.459	10382.59
314.525	10388.56
314.59	10387.5
314.655	10368.91
314.72	10372.81
314.785	10375.36
314.851	10368.72
314.916	10345.16
314.981	10330.17
315.046	10317.94
315.111	10311.62
315.176	10297.46
315.242	10290.71
315.307	10291.82
315.372	10270.72
315.437	10264.22
315.502	10245.96
315.567	10258.19
315.632	10242.25
315.698	10232.23
315.763	10232.08
315.828	10222.98
315.893	10220.52
315.958	10210.6
316.023	10197.11
316.088	10172.83
316.153	10147.25
316.218	10135.64
316.283	10109
316.348	10088.73
316.413	10081.4
316.479	10061.99
316.544	10017.68
316.609	9980.2
316.674	9939.26
316.739	9899
316.804	9857.77
316.869	9821.79
316.934	9773.29
316.999	9735.33
317.064	9685.73
317.129	9625.14
317.194	9578.71
317.259	9521.97
317.324	9468.14
317.389	9415.7
317.454	9374.28
317.518	9331.77
317.583	9300.66
317.648	9269.26
317.713	9222.99
317.778	9151.35
317.843	9110.57
317.908	9065.22
317.973	9020.26
318.038	8982.08
318.103	8936.21
318.168	8899.72
318.233	8856.39
318.297	8799.84
318.362	8753.68
318.427	8702.18
318.492	8666.76
318.557	8610.74
318.622	8566.23
318.687	8526.72
318.751	8476.49
318.816	8426.1
318.881	8386.55
318.946	8320.77
319.011	8267.89
319.075	8218.82
319.14	8176.54
319.205	8127.03
319.27	8083.69
319.335	8028.48
319.399	7975.42
319.464	7932.71
319.529	7870.33
319.594	7817.24
319.658	7776.22
319.723	7721.45
319.788	7680.87
319.853	7614.99
319.917	7571.53
319.982	7510.91
320.047	7464.08
320.112	7427.84
320.176	7363.53
320.241	7312.95
320.306	7269.12
320.37	7216.3
320.435	7172.66
320.5	7132.34
320.564	7079.34
320.629	7030.53
320.694	6989.88
320.758	6937.66
320.823	6886.74
320.888	6847.64
320.952	6789.52
321.017	6733.95
321.082	6686.74
321.146	6640.02
321.211	6598.19
321.275	6548.07
321.34	6494.64
321.405	6434.3
321.469	6376.64
321.534	6333.98
321.598	6274.79
321.663	6232.31
321.727	6194.29
321.792	6135.6
321.857	6085.16
321.921	6031.19
321.986	5978.28
322.05	5910.59
322.115	5862.48
322.179	5806.61
322.244	5743.4
322.308	5703.41
322.373	5648.71
322.437	5596.92
322.502	5561.1
322.566	5505.72
322.631	5463.49
322.695	5416.33
322.76	5371.53
322.824	5326.34
322.889	5273.59
322.953	5219.46
323.018	5146.39
323.082	5074.73
323.146	5014.78
323.211	4950.5
323.275	4899.55
323.34	4848.8
323.404	4805.49
323.468	4752.63
323.533	4704.53
323.597	4647.4
323.662	4586.05
323.726	4540.35
323.79	4484.18
323.855	4406.32
323.919	4350.5
323.983	4295.05
324.048	4215.67
324.112	4302.32
324.177	4145.67
324.241	3921.92
324.305	3704.49
324.37	3490.98
324.434	3283.25
324.498	3232.22
324.562	3173.11
324.627	3103.98
324.691	3034.1
324.755	2956.74
324.82	2868.13
324.884	2773.68
324.948	2687.55
325.012	2578.2
325.077	2440.57
