Data from 20250702_urea_1M_MAYP1162681_11-35-10-274.txt Node
Date: Wed Jul 02 11:35:10 BST 2025
User: adleo
Spectrometer: MAYP116268
Trigger mode: 0
Integration Time (sec): 1.000000E0
Scans to average: 1
Electric dark correction enabled: true
Nonlinearity correction enabled: true
Boxcar width: 10
XAxis mode: Wavelengths
Number of Pixels in Spectrum: 2068
>>>>>Begin Spectral Data<<<<<
179.565	1027.76
179.642	1079.3
179.718	1115.77
179.795	1145.82
179.871	1172.52
179.948	1184.55
180.024	1199.39
180.101	1215.95
180.177	1229.15
180.254	1247.9
180.33	1267.06
180.407	1306.78
180.483	1386.93
180.56	1461.66
180.636	1532.44
180.712	1521.28
180.789	1527.97
180.865	1538.75
180.942	1545.21
181.018	1552.61
181.095	1564.3
181.171	1568.58
181.248	1566.82
181.324	1579.27
181.4	1587.67
181.477	1596.32
181.553	1609.09
181.63	1629.95
181.706	1648.72
181.782	1652.7
181.859	1649.95
181.935	1652.99
182.011	1648.86
182.088	1665.34
182.164	1683.02
182.24	1694.99
182.317	1703.49
182.393	1705.54
182.469	1718.98
182.546	1731.81
182.622	1734.99
182.698	1729.43
182.775	1738.99
182.851	1749.15
182.927	1742.69
183.003	1738.13
183.08	1734.47
183.156	1741.84
183.232	1738.27
183.308	1724.3
183.385	1734.37
183.461	1752.14
183.537	1754.19
183.613	1765.5
183.69	1754.8
183.766	1746.25
183.842	1752.14
183.918	1754.85
183.995	1764.26
184.071	1767.44
184.147	1761.79
184.223	1753.33
184.299	1764.74
184.375	1755.9
184.452	1763.84
184.528	1814.85
184.604	1822.92
184.68	1832
184.756	1839.27
184.832	1845.55
184.908	1851.53
184.985	1848.35
185.061	1835.99
185.137	1844.17
185.213	1833.86
185.289	1835.14
185.365	1826.21
185.441	1826.68
185.517	1839.9
185.593	1835.95
185.669	1832.1
185.745	1838.38
185.822	1853.06
185.898	1848.3
185.974	1857.81
186.05	1849.53
186.126	1812.5
186.202	1807.7
186.278	1803.52
186.354	1794.68
186.43	1796.3
186.506	1793.97
186.582	1795.35
186.658	1799.1
186.734	1782.23
186.81	1784.08
186.886	1789.64
186.962	1804.9
187.038	1799.24
187.114	1792.16
187.19	1799.67
187.266	1791.64
187.341	1791.73
187.417	1787.07
187.493	1788.5
187.569	1789.4
187.645	1786.12
187.721	1776.9
187.797	1782.6
187.873	1788.5
187.949	1784.08
188.025	1779.28
188.101	1781.08
188.176	1784.08
188.252	1779.94
188.328	1785.5
188.404	1786.4
188.48	1781.6
188.556	1773.14
188.632	1774.05
188.707	1775.14
188.783	1773.48
188.859	1770.48
188.935	1764.35
189.011	1770.29
189.086	1761.03
189.162	1752.24
189.238	1748.91
189.314	1745.39
189.39	1740.74
189.465	1732.71
189.541	1749.29
189.617	1734.85
189.693	1731.71
189.768	1736.13
189.844	1757.1
189.92	1749.83
189.996	1756.48
190.071	1766.8
190.147	1765.61
190.223	1773.93
190.298	1765.04
190.374	1751.4
190.45	1763.18
190.526	1770.64
190.601	1766.22
190.677	1766.98
190.753	1792.28
190.828	1795.89
190.904	1807.77
190.98	1822.98
191.055	1831.25
191.131	1819.75
191.207	1840.71
191.282	1848.12
191.358	1839.33
191.433	1827.34
191.509	1841.17
191.585	1838.7
191.66	1837.84
191.736	1845.64
191.811	1836.51
191.887	1850.01
191.963	1872.92
192.038	1877.67
192.114	1876.58
192.189	1880.34
192.265	1878.91
192.34	1858.7
192.416	1857.04
192.491	1855.14
192.567	1856.28
192.642	1861.08
192.718	1864.98
192.793	1853.14
192.869	1850.72
192.944	1853.14
193.02	1860.98
193.095	1862.89
193.171	1869.16
193.246	1870.78
193.322	1868.4
193.397	1868.59
193.473	1858.84
193.548	1842.06
193.624	1845.06
193.699	1845.96
193.775	1860.32
193.85	1861.27
193.925	1870.11
194.001	1870.35
194.076	1862.03
194.152	1851.86
194.227	1842.92
194.302	1832.51
194.378	1835.98
194.453	1832.7
194.529	1843.07
194.604	1827.29
194.679	1822.53
194.755	1806
194.83	1815.56
194.905	1811.66
194.981	1820.74
195.056	1813.18
195.131	1818.5
195.207	1818.27
195.282	1809.85
195.357	1791.36
195.433	1804.57
195.508	1794.35
195.583	1801.2
195.659	1817.41
195.734	1823.3
195.809	1825.68
195.884	1832.43
195.96	1832.33
196.035	1844.4
196.11	1841.12
196.185	1855.95
196.261	1858.14
196.336	1885.66
196.411	1871.87
196.486	1879
196.561	1873.53
196.637	1879.85
196.712	1894.12
196.787	1896.59
196.862	1908.66
196.937	1919.93
197.013	1925.44
197.088	1934.48
197.163	1952.5
197.238	1966.06
197.313	1967.58
197.388	1978.42
197.464	2005.91
197.539	2017.94
197.614	2013.81
197.689	2025.08
197.764	2035.07
197.839	2051.52
197.914	2046.71
197.989	2065.5
198.065	2077.82
198.14	2122.74
198.215	2148.47
198.29	2158.37
198.365	2168.27
198.44	2180.2
198.515	2204.9
198.59	2220.08
198.665	2245.01
198.74	2253.96
198.815	2252.34
198.89	2272.47
198.965	2298.6
199.04	2294.84
199.115	2307.87
199.19	2347.42
199.265	2349.56
199.34	2360.89
199.415	2393.03
199.49	2409.01
199.565	2418.2
199.64	2436.1
199.715	2431.43
199.79	2437.05
199.865	2443.66
199.94	2443.81
200.015	2468.23
200.09	2471.18
200.165	2476.18
200.24	2484.47
200.315	2518.02
200.39	2533.73
200.464	2538.4
200.539	2542.16
200.614	2557.87
200.689	2576.16
200.764	2579.11
200.839	2595.68
200.914	2598.44
200.989	2586.67
201.063	2600.34
201.138	2586.44
201.213	2589.68
201.288	2573.59
201.363	2581.01
201.438	2580.87
201.512	2594.2
201.587	2580.53
201.662	2585.06
201.737	2594.87
201.812	2599.58
201.886	2568.8
201.961	2578.28
202.036	2567.95
202.111	2564.04
202.186	2537.39
202.26	2524.39
202.335	2506.48
202.41	2501.05
202.485	2487.68
202.559	2471.49
202.634	2448.78
202.709	2456.01
202.784	2438.97
202.858	2439.02
202.933	2420.21
203.008	2415.93
203.082	2397.7
203.157	2395.98
203.232	2360.2
203.306	2342.2
203.381	2311.73
203.456	2295.41
203.53	2271.78
203.605	2254.94
203.68	2233.47
203.754	2231.95
203.829	2219.86
203.904	2202.88
203.978	2191.45
204.053	2194.36
204.127	2183.94
204.202	2183.32
204.277	2169.24
204.351	2164.72
204.426	2157.15
204.5	2150.92
204.575	2118.53
204.65	2123.82
204.724	2119.25
204.799	2124.43
204.873	2120.72
204.948	2120.53
205.022	2108.88
205.097	2104.73
205.171	2116.15
205.246	2122.38
205.32	2115.25
205.395	2112.68
205.469	2103.74
205.544	2111.12
205.618	2099.04
205.693	2111.45
205.767	2098.9
205.842	2117.98
205.916	2108.65
205.991	2101.95
206.065	2105.28
206.14	2119.82
206.214	2117.87
206.289	2112.54
206.363	2119.87
206.438	2120.72
206.512	2128.15
206.586	2143.46
206.661	2151.41
206.735	2131.58
206.81	2136.06
206.884	2152.6
206.958	2141.43
207.033	2154.65
207.107	2157.69
207.181	2184.96
207.256	2178.35
207.33	2194.9
207.405	2205
207.479	2225.41
207.553	2234.11
207.628	2221.65
207.702	2231.07
207.776	2226.93
207.851	2226.65
207.925	2245.54
207.999	2245.21
208.073	2243.69
208.148	2250.02
208.222	2238.26
208.296	2267.13
208.371	2280.8
208.445	2289.98
208.519	2317.48
208.593	2331.24
208.668	2330.66
208.742	2331.71
208.816	2336.9
208.89	2354.13
208.965	2356.09
209.039	2364.04
209.113	2381.56
209.187	2403.68
209.261	2402.15
209.336	2424.91
209.41	2448.66
209.484	2452.28
209.558	2474.19
209.632	2492.04
209.707	2509.99
209.781	2535.99
209.855	2561.66
209.929	2584.02
210.003	2602.41
210.077	2615.98
210.151	2673.72
210.226	2716.85
210.3	2757.72
210.374	2792.63
210.448	2813.55
210.522	2844.68
210.596	2876.19
210.67	2909.56
210.744	2974.08
210.818	3035.22
210.892	3086.73
210.966	3115.63
211.041	3164.13
211.115	3204.15
211.189	3263.16
211.263	3317.5
211.337	3371.23
211.411	3428.47
211.485	3475.32
211.559	3536.5
211.633	3592.82
211.707	3625.26
211.781	3698.92
211.855	3736.09
211.929	3799.41
212.003	3855.14
212.077	3936.85
212.151	4023.99
212.225	4113.21
212.299	4192.36
212.373	4273.47
212.447	4361.9
212.52	4480.6
212.594	4578.76
212.668	4687.98
212.742	4783.39
212.816	4887.11
212.89	4994.72
212.964	5107.94
213.038	5227.85
213.112	5362.15
213.186	5498.92
213.26	5602.38
213.333	5693.36
213.407	5828.99
213.481	5965.18
213.555	6118.93
213.629	6256.7
213.703	6390.15
213.777	6534.35
213.85	6665.32
213.924	6844.36
213.998	6995.09
214.072	7144.99
214.146	7294.49
214.219	7459.95
214.293	7618.24
214.367	7780.47
214.441	7950.55
214.515	8106.06
214.588	8256.77
214.662	8394.13
214.736	8552.48
214.81	8735.49
214.883	8917.67
214.957	9076.78
215.031	9240.76
215.105	9391.77
215.178	9548.56
215.252	9715.13
215.326	9871.17
215.4	10031.69
215.473	10160.08
215.547	10317.99
215.621	10484.89
215.694	10665.04
215.768	10809.59
215.842	10974.05
215.915	11136.06
215.989	11283.04
216.063	11449.45
216.136	11627.24
216.21	11806.91
216.284	11980.56
216.357	12151.28
216.431	12308.8
216.504	12479.62
216.578	12670.45
216.652	12842.77
216.725	13002.13
216.799	13175.38
216.873	13342.69
216.946	13507.65
217.02	13666.29
217.093	13826.91
217.167	13960.68
217.24	14099.9
217.314	14251.21
217.387	14395.44
217.461	14535.47
217.535	14697.39
217.608	14828.27
217.682	14966.75
217.755	15115.26
217.829	15248.83
217.902	15385.34
217.976	15518.09
218.049	15657.29
218.123	15774.51
218.196	15918.29
218.27	16048.48
218.343	16166.47
218.417	16300.07
218.49	16433.14
218.563	16573.44
218.637	16690.37
218.71	16839.87
218.784	16967.25
218.857	17098.05
218.931	17223.21
219.004	17348.28
219.077	17483.65
219.151	17604.23
219.224	17715.89
219.298	17829
219.371	17948.18
219.444	18047.69
219.518	18164.56
219.591	18273.23
219.665	18407.88
219.738	18518.38
219.811	18620.16
219.885	18726.61
219.958	18810.12
220.031	18889.25
220.105	18992.28
220.178	19095.6
220.251	19168.61
220.325	19269.09
220.398	19363.97
220.471	19456.69
220.544	19551
220.618	19621.31
220.691	19711.52
220.764	19794.12
220.838	19874.36
220.911	19947.18
220.984	20041.53
221.057	20130.45
221.131	20201.29
221.204	20234.3
221.277	20300.81
221.35	20396.57
221.424	20461.29
221.497	20544.18
221.57	20619.51
221.643	20688.09
221.716	20764.52
221.79	20829.59
221.863	20893.3
221.936	20948.44
222.009	21000.01
222.082	21052.2
222.155	21100.2
222.229	21166.57
222.302	21214.09
222.375	21261.18
222.448	21309.24
222.521	21347.46
222.594	21385.44
222.667	21415.22
222.74	21463.76
222.814	21502.8
222.887	21529.45
222.96	21578.42
223.033	21621.42
223.106	21658.53
223.179	21699.31
223.252	21724.77
223.325	21760.39
223.398	21785.79
223.471	21814.81
223.544	21843.82
223.617	21882.82
223.69	21908.61
223.763	21921.14
223.837	21962.26
223.91	21987.76
223.983	22002.9
224.056	22020.92
224.129	22037.12
224.202	22076.55
224.275	22098.14
224.348	22112.75
224.42	22118.05
224.493	22112.65
224.566	22117.81
224.639	22150.01
224.712	22144.57
224.785	22156.18
224.858	22156.57
224.931	22160.33
225.004	22169.49
225.077	22180.53
225.15	22158.16
225.223	22161.49
225.296	22192.68
225.369	22176.43
225.442	22173.54
225.514	22181.69
225.587	22195.28
225.66	22205.69
225.733	22201.69
225.806	22208.68
225.879	22207.33
225.952	22204.05
226.025	22223.19
226.097	22245.22
226.17	22228.59
226.243	22215.43
226.316	22208.2
226.389	22218.66
226.461	22226.66
226.534	22224.35
226.607	22223.05
226.68	22243.63
226.753	22247.44
226.825	22221.84
226.898	22230.9
226.971	22217.89
227.044	22219.53
227.117	22211.52
227.189	22210.75
227.262	22226.28
227.335	22225.02
227.407	22221.89
227.48	22216.06
227.553	22212.2
227.626	22185.06
227.698	22182.55
227.771	22177.44
227.844	22159.51
227.916	22152.52
227.989	22112.41
228.062	22098.39
228.134	22097.86
228.207	22079.01
228.28	22056.54
228.352	22041.46
228.425	22029.84
228.498	22029.26
228.57	22008.24
228.643	22007.81
228.716	21993.2
228.788	21959.17
228.861	21946.73
228.934	21943.17
229.006	21930.68
229.079	21910.29
229.151	21890.33
229.224	21857.75
229.296	21839.39
229.369	21849.94
229.442	21843.05
229.514	21827.58
229.587	21817.74
229.659	21792.58
229.732	21779.71
229.804	21778.41
229.877	21783.81
229.949	21764.67
230.022	21766.26
230.094	21748.91
230.167	21723.46
230.239	21687.31
230.312	21664.03
230.384	21664.13
230.457	21639.93
230.529	21629.66
230.602	21608.36
230.674	21589.46
230.747	21586.23
230.819	21581.12
230.892	21528.25
230.964	21511.04
231.037	21503.38
231.109	21484.87
231.181	21470.26
231.254	21442.79
231.326	21419.7
231.399	21390.2
231.471	21364.32
231.544	21326.87
231.616	21315.59
231.688	21296.31
231.761	21279.69
231.833	21266
231.905	21216.11
231.978	21202.9
232.05	21182.76
232.122	21171
232.195	21147.43
232.267	21139.77
232.339	21111.62
232.412	21109.93
232.484	21076.15
232.556	21055.18
232.629	21044.63
232.701	21030.89
232.773	21013.68
232.846	20982.94
232.918	20959.61
232.99	20951.66
233.062	20934.02
233.135	20911.75
233.207	20878.74
233.279	20862.21
233.351	20847.31
233.424	20825.24
233.496	20790.25
233.568	20776.95
233.64	20732.03
233.713	20705.77
233.785	20668.56
233.857	20649.33
233.929	20608.95
234.001	20598.05
234.074	20584.75
234.146	20542.97
234.218	20514.05
234.29	20486.63
234.362	20452.03
234.434	20408.61
234.507	20365.47
234.579	20323.59
234.651	20293.04
234.723	20278.97
234.795	20246.49
234.867	20212.22
234.939	20189.24
235.012	20161.96
235.084	20128.56
235.156	20105.96
235.228	20075.17
235.3	20037.29
235.372	20005.14
235.444	19983.84
235.516	19938.35
235.588	19905.34
235.66	19876.86
235.732	19830.21
235.804	19853.34
235.876	19839.85
235.948	19829.73
236.02	19795.13
236.092	19769.25
236.164	19728.87
236.236	19694.6
236.308	19663.52
236.38	19643.23
236.452	19605.93
236.524	19577.07
236.596	19564.87
236.668	19542.47
236.74	19516.44
236.812	19491.34
236.884	19461.94
236.956	19432.01
237.028	19382.67
237.1	19337.85
237.172	19319.54
237.244	19315.68
237.316	19241.81
237.388	19203.11
237.46	19157.62
237.532	19142.39
237.604	19101.24
237.675	19090.3
237.747	19062.45
237.819	19028.38
237.891	18988.86
237.963	18948.96
238.035	18906.36
238.107	18838.6
238.178	18811.42
238.25	18777.4
238.322	18764.49
238.394	18722.13
238.466	18689.26
238.538	18666.76
238.609	18639.77
238.681	18588.02
238.753	18540.5
238.825	18508.65
238.897	18474.91
238.968	18458.05
239.04	18423.06
239.112	18425.38
239.184	18382.29
239.255	18350.78
239.327	18324.85
239.399	18296.71
239.471	18286.59
239.542	18263.17
239.614	18243.36
239.686	18191.12
239.758	18159.07
239.829	18124.04
239.901	18106.07
239.973	18073.15
240.044	18048.53
240.116	18019.13
240.188	17988.67
240.259	17947.13
240.331	17903.13
240.403	17876.19
240.474	17833.88
240.546	17783.62
240.618	17720.87
240.689	17684.25
240.761	17644.05
240.833	17624.44
240.904	17575.28
240.976	17524.05
241.048	17487.57
241.119	17463.28
241.191	17434.46
241.262	17411.14
241.334	17367.04
241.405	17333.21
241.477	17302.9
241.549	17264.1
241.62	17232.87
241.692	17204.73
241.763	17185.21
241.835	17159.91
241.906	17124.97
241.978	17072.05
242.049	17059.52
242.121	17030.36
242.192	17008.19
242.264	16962.36
242.335	16913.35
242.407	16902.41
242.478	16875.75
242.55	16843.85
242.621	16802.59
242.693	16765.19
242.764	16730.06
242.836	16695.89
242.907	16666.88
242.979	16632.22
243.05	16602.87
243.122	16566.82
243.193	16527.54
243.264	16478.96
243.336	16439.87
243.407	16411.82
243.479	16401.75
243.55	16361.36
243.622	16331.23
243.693	16294.08
243.764	16273.93
243.836	16222.89
243.907	16184.28
243.978	16141.82
244.05	16115.45
244.121	16070.43
244.192	16056.7
244.264	16009.8
244.335	15977.89
244.407	15922.08
244.478	15892.77
244.549	15856.29
244.62	15822.74
244.692	15798.74
244.763	15770.54
244.834	15740.08
244.906	15705.95
244.977	15674.28
245.048	15659.82
245.119	15623
245.191	15582.22
245.262	15529.78
245.333	15510.06
245.405	15469.77
245.476	15442.2
245.547	15408.26
245.618	15382.43
245.689	15340.78
245.761	15313.88
245.832	15276.24
245.903	15257
245.974	15220.81
246.045	15190.63
246.117	15166.96
246.188	15121.17
246.259	15080.1
246.33	15044.77
246.401	15005.39
246.473	14962.49
246.544	14919.68
246.615	14900.69
246.686	14863.14
246.757	14853.55
246.828	14821.39
246.899	14812.19
246.97	14766.06
247.042	14726.72
247.113	14698.04
247.184	14686.04
247.255	14653.55
247.326	14623.76
247.397	14592.76
247.468	14564.66
247.539	14534.34
247.61	14489.7
247.681	14469.07
247.752	14452.68
247.823	14413.1
247.894	14389.09
247.965	14351.01
248.037	14320.35
248.108	14279.04
248.179	14252.38
248.25	14218.49
248.321	14192.08
248.392	14146.09
248.463	14143.29
248.534	14119.67
248.605	14103.04
248.675	14067.18
248.746	14042.59
248.817	14022.01
248.888	13998.53
248.959	13959.44
249.03	13935.82
249.101	13916
249.172	13882.98
249.243	13836.9
249.314	13828.8
249.385	13805.18
249.456	13790.14
249.527	13756.68
249.598	13730.89
249.669	13707.85
249.739	13678.92
249.81	13659.88
249.881	13621.03
249.952	13591.62
250.023	13562.12
250.094	13522.11
250.165	13491.26
250.235	13460.35
250.306	13429.36
250.377	13390.26
250.448	13364.42
250.519	13329.04
250.59	13315.69
250.66	13286.28
250.731	13272.4
250.802	13242.41
250.873	13215.03
250.944	13185.77
251.014	13154.44
251.085	13149.62
251.156	13127.63
251.227	13119.15
251.297	13101.75
251.368	13084.2
251.439	13071.57
251.51	13059.42
251.58	13024.47
251.651	12994.01
251.722	12986.92
251.792	12953.08
251.863	12933.65
251.934	12919
252.005	12918.95
252.075	12890.22
252.146	12876.34
252.217	12867.13
252.287	12854.35
252.358	12827.07
252.429	12821.77
252.499	12804.89
252.57	12781.9
252.641	12762.67
252.711	12733.69
252.782	12695.66
252.852	12690.17
252.923	12660.04
252.994	12638.01
253.064	12623.3
253.135	12596.26
253.205	12558.9
253.276	12545.6
253.347	12540.1
253.417	12516.15
253.488	12479.99
253.558	12456.9
253.629	12428.17
253.699	12406.67
253.77	12387.1
253.841	12362.91
253.911	12346.18
253.982	12314.8
254.052	12298.89
254.123	12283.13
254.193	12265
254.264	12275.7
254.334	12246.73
254.405	12215.4
254.475	12185.37
254.546	12166.09
254.616	12144.02
254.687	12130.95
254.757	12123.24
254.827	12091.23
254.898	12072.2
254.968	12050.22
255.039	12019.9
255.109	12015.22
255.18	11984.13
255.25	11934.44
255.321	11919.98
255.391	11881.71
255.461	11885.66
255.532	11836.69
255.602	11817.41
255.673	11775.04
255.743	11748.82
255.813	11702.93
255.884	11696.18
255.954	11678.69
256.024	11677.58
256.095	11669.58
256.165	11635.17
256.235	11618.78
256.306	11593.23
256.376	11587.45
256.446	11579.59
256.517	11568.12
256.587	11556.17
256.657	11535.49
256.728	11528.02
256.798	11515.11
256.868	11486.62
256.938	11457.13
257.009	11447.49
257.079	11425.61
257.149	11424.79
257.219	11387.63
257.29	11380.98
257.36	11343.05
257.43	11329.17
257.5	11285.21
257.571	11266.37
257.641	11261.55
257.711	11227.52
257.781	11216.15
257.852	11193.16
257.922	11157.35
257.992	11134.03
258.062	11108.53
258.132	11101.45
258.202	11084.58
258.273	11060.87
258.343	11059.04
258.413	11039.23
258.483	11019.52
258.553	10992.39
258.623	10966.61
258.693	10946.95
258.764	10945.55
258.834	10940.4
258.904	10923.92
258.974	10899.01
259.044	10873.42
259.114	10857.03
259.184	10839.73
259.254	10823.59
259.324	10793.57
259.394	10779.11
259.464	10771.65
259.535	10756.47
259.605	10731.51
259.675	10705.58
259.745	10689.06
259.815	10664.05
259.885	10635.43
259.955	10644.68
260.025	10623.09
260.095	10606.76
260.165	10590.47
260.235	10575.68
260.305	10553.9
260.375	10531.98
260.445	10537.13
260.515	10535.49
260.585	10528.65
260.655	10514.34
260.725	10503.4
260.795	10490.69
260.865	10492.76
260.934	10473
261.004	10458.31
261.074	10441.11
261.144	10439.95
261.214	10434.8
261.284	10417.88
261.354	10410.9
261.424	10384.69
261.494	10377.12
261.564	10363.34
261.634	10361.61
261.703	10329.76
261.773	10319.6
261.843	10307.75
261.913	10287.03
261.983	10249.5
262.053	10239.63
262.123	10221.8
262.192	10193.67
262.262	10193.09
262.332	10165.87
262.402	10161.82
262.472	10147.95
262.541	10117.03
262.611	10106.47
262.681	10079.69
262.751	10067.41
262.821	10053.77
262.89	10026.36
262.96	10027.52
263.03	10030.7
263.1	10015.04
263.169	10005.31
263.239	9995.49
263.309	9998.95
263.379	9993.37
263.448	9988.5
263.518	9974.05
263.588	9961.81
263.657	9963.36
263.727	9956.85
263.797	9938.55
263.867	9915.19
263.936	9884.84
264.006	9885.9
264.076	9871.55
264.145	9860.13
264.215	9840.53
264.285	9833.83
264.354	9804.22
264.424	9778.11
264.494	9749.02
264.563	9731.53
264.633	9736.59
264.702	9723.68
264.772	9690.01
264.842	9670.41
264.911	9659.04
264.981	9631.3
265.05	9614.16
265.12	9595.33
265.19	9579.24
265.259	9577.17
265.329	9571.58
265.398	9559.4
265.468	9569.37
265.537	9547.36
265.607	9539.7
265.676	9537.05
265.746	9529.68
265.815	9533.34
265.885	9517.07
265.955	9496.7
266.024	9471.22
266.094	9438.96
266.163	9431.98
266.232	9432.89
266.302	9421.24
266.371	9403.95
266.441	9390.18
266.51	9387.92
266.58	9370.97
266.649	9345.06
266.719	9341.4
266.788	9334.47
266.858	9341.11
266.927	9304.85
266.996	9296.38
267.066	9281.93
267.135	9259.16
267.205	9246.97
267.274	9235.51
267.343	9234.79
267.413	9225.12
267.482	9237.97
267.552	9238.6
267.621	9219.82
267.69	9185.83
267.76	9174.75
267.829	9173.41
267.898	9161.99
267.968	9138.02
268.037	9132.87
268.106	9130.89
268.176	9102.53
268.245	9082.99
268.314	9063.34
268.384	9062.28
268.453	9051.88
268.522	9045.38
268.592	9041.49
268.661	9020.64
268.73	9013.85
268.799	8992.48
268.869	8999.31
268.938	8969.99
269.007	8951.03
269.076	8937.93
269.146	8938.89
269.215	8927.1
269.284	8928.4
269.353	8916.61
269.422	8907.08
269.492	8894.03
269.561	8861.11
269.63	8856.44
269.699	8843.01
269.768	8838.39
269.838	8830.11
269.907	8826.88
269.976	8806.47
270.045	8785.2
270.114	8782.36
270.183	8770.18
270.253	8762.34
270.322	8731.63
270.391	8722.44
270.46	8726.91
270.529	8731.39
270.598	8727.92
270.667	8717.67
270.736	8693.61
270.806	8688.07
270.875	8687.25
270.944	8675.22
271.013	8690.04
271.082	8684.32
271.151	8677.63
271.22	8650.1
271.289	8638.16
271.358	8626.9
271.427	8619.44
271.496	8613.14
271.565	8599.47
271.634	8585.61
271.703	8607.32
271.772	8614.15
271.841	8598.8
271.91	8575.56
271.979	8560.88
272.048	8541.34
272.117	8538.64
272.186	8527.86
272.255	8528.49
272.324	8525.17
272.393	8519.78
272.462	8510.11
272.531	8497.69
272.6	8487.05
272.669	8496.48
272.738	8484.55
272.807	8479.83
272.876	8464.82
272.945	8486
273.013	8486.96
273.082	8493.02
273.151	8456.73
273.22	8445.09
273.289	8444.75
273.358	8458.8
273.427	8448.41
273.496	8445.43
273.564	8441.91
273.633	8443.31
273.702	8426.13
273.771	8420.79
273.84	8415.5
273.909	8406.74
273.977	8409.48
274.046	8396.78
274.115	8398.32
274.184	8383.89
274.253	8378.07
274.322	8388.51
274.39	8356.17
274.459	8345.92
274.528	8319.94
274.597	8312.87
274.665	8316.77
274.734	8318.64
274.803	8302.95
274.872	8298.53
274.94	8286.84
275.009	8328.76
275.078	8310.48
275.147	8301.49
275.215	8294.08
275.284	8301.58
275.353	8293.21
275.421	8270.6
275.49	8293.36
275.559	8275.65
275.627	8268.68
275.696	8257.47
275.765	8252.8
275.833	8242.41
275.902	8234.57
275.971	8242.7
276.039	8255.4
276.108	8252.03
276.177	8250.49
276.245	8241.16
276.314	8233.41
276.383	8242.75
276.451	8195.14
276.52	8200.24
276.588	8216.74
276.657	8223.86
276.725	8212.8
276.794	8214.58
276.863	8222.61
276.931	8195.57
277	8206.16
277.068	8217.7
277.137	8228.81
277.205	8221.55
277.274	8242.52
277.342	8254.12
277.411	8236.13
277.48	8225.88
277.548	8215.58
277.617	8217.89
277.685	8209.47
277.754	8211.11
277.822	8200.24
277.89	8214.63
277.959	8211.79
278.027	8196.78
278.096	8184.36
278.164	8208.76
278.233	8199.67
278.301	8190.77
278.37	8199.62
278.438	8185.14
278.507	8194.95
278.575	8170.47
278.643	8173.4
278.712	8161.47
278.78	8150.5
278.849	8160.7
278.917	8168.16
278.985	8161.18
279.054	8158.78
279.122	8172.1
279.191	8172.87
279.259	8173.45
279.327	8147.9
279.396	8161.08
279.464	8156.46
279.532	8161.51
279.601	8150.69
279.669	8147.37
279.737	8159.73
279.806	8155.5
279.874	8165.74
279.942	8161.89
280.011	8160.93
280.079	8167.04
280.147	8181.09
280.215	8183.35
280.284	8180.51
280.352	8165.26
280.42	8176.66
280.488	8167.19
280.557	8156.56
280.625	8155.64
280.693	8152.9
280.761	8154.87
280.83	8142.7
280.898	8152.99
280.966	8137.6
281.034	8113.35
281.102	8106.14
281.171	8096.61
281.239	8104.79
281.307	8097.1
281.375	8080.07
281.443	8102.96
281.512	8098.63
281.58	8099.93
281.648	8090.07
281.716	8090.84
281.784	8095.41
281.852	8089.45
281.92	8093.3
281.989	8102.92
282.057	8095.75
282.125	8132.41
282.193	8130.92
282.261	8125.39
282.329	8118.42
282.397	8121.01
282.465	8122.22
282.533	8139.44
282.601	8133.04
282.67	8115.58
282.738	8110.14
282.806	8122.21
282.874	8114.9
282.942	8121.39
283.01	8114.61
283.078	8122.02
283.146	8116.1
283.214	8124.57
283.282	8127.89
283.35	8139.1
283.418	8137.9
283.486	8138.09
283.554	8106.81
283.622	8110.8
283.69	8112.92
283.758	8110.47
283.826	8114.8
283.894	8126.68
283.962	8138.13
284.03	8152.71
284.098	8153.28
284.165	8149.72
284.233	8150.3
284.301	8145.87
284.369	8133.56
284.437	8126.73
284.505	8119.66
284.573	8138.9
284.641	8126.05
284.709	8127.21
284.777	8110.51
284.845	8113.35
284.912	8114.8
284.98	8113.54
285.048	8104.31
285.116	8110.27
285.184	8119.22
285.252	8119.99
285.319	8106.67
285.387	8096.47
285.455	8080.26
285.523	8089.59
285.591	8081.12
285.659	8078.48
285.726	8085.31
285.794	8072.56
285.862	8071.02
285.93	8069.53
285.997	8063.9
286.065	8056.79
286.133	8048.9
286.201	8047.74
286.269	8031.48
286.336	8027.39
286.404	8022.15
286.472	8038.36
286.539	8024.27
286.607	8010.8
286.675	8014.99
286.743	8021.09
286.81	8016.91
286.878	8028.5
286.946	8014.36
287.013	8016.96
287.081	8019.94
287.149	8008.01
287.216	8026.19
287.284	8017.53
287.352	8019.75
287.419	8014.79
287.487	8028.26
287.555	8040.67
287.622	8041.1
287.69	8050.92
287.758	8062.94
287.825	8060.68
287.893	8043.75
287.96	8048.65
288.028	8060.92
288.096	8061.06
288.163	8064
288.231	8057.84
288.298	8051.2
288.366	8068.23
288.433	8068.14
288.501	8062.36
288.569	8066.16
288.636	8056.64
288.704	8074.72
288.771	8082.28
288.839	8073.14
288.906	8069.29
288.974	8071.41
289.041	8069.72
289.109	8063.33
289.176	8069.34
289.244	8077.13
289.311	8091.23
289.379	8094.79
289.446	8099.26
289.514	8097.96
289.581	8094.69
289.649	8092
289.716	8106.19
289.783	8097
289.851	8116.1
289.918	8113.84
289.986	8121.63
290.053	8127.88
290.121	8129.47
290.188	8121.92
290.255	8150.83
290.323	8151.84
290.39	8145.49
290.458	8147.75
290.525	8160.83
290.592	8154.68
290.66	8151.55
290.727	8141.4
290.794	8153.62
290.862	8147.75
290.929	8148.42
290.996	8151.26
291.064	8163.48
291.131	8164.83
291.198	8178.44
291.266	8179.69
291.333	8184.12
291.4	8193.16
291.468	8215.68
291.535	8210.72
291.602	8221.79
291.669	8217.17
291.737	8218.37
291.804	8223.23
291.871	8236.27
291.938	8238.82
292.006	8264.23
292.073	8277.65
292.14	8290.2
292.207	8281.54
292.275	8292.47
292.342	8303.92
292.409	8326.44
292.476	8349.2
292.543	8348.62
292.611	8356.32
292.678	8374.51
292.745	8398.37
292.812	8409.05
292.879	8399.38
292.946	8402.61
293.014	8414.2
293.081	8415.93
293.148	8424.69
293.215	8434.12
293.282	8429.21
293.349	8447.02
293.416	8427.43
293.484	8442.3
293.551	8455.39
293.618	8480.07
293.685	8501.54
293.752	8498.6
293.819	8497.11
293.886	8482.58
293.953	8489.51
294.02	8494.22
294.087	8495.47
294.154	8486.62
294.221	8494.37
294.288	8500.82
294.356	8517.13
294.423	8521.65
294.49	8522.28
294.557	8543.79
294.624	8540.18
294.691	8566.41
294.758	8562.89
294.825	8573.82
294.892	8565.78
294.959	8567.32
295.026	8569.2
295.093	8554.04
295.16	8552.5
295.226	8552.78
295.293	8578.05
295.36	8579.98
295.427	8591.1
295.494	8602.65
295.561	8610.83
295.628	8631
295.695	8641.73
295.762	8644.43
295.829	8652.37
295.896	8668.39
295.963	8667.05
296.03	8673.01
296.096	8675.08
296.163	8683.26
296.23	8698.09
296.297	8713.49
296.364	8713.01
296.431	8720.76
296.498	8725.23
296.564	8744.53
296.631	8750.16
296.698	8737.4
296.765	8753.82
296.832	8741.3
296.899	8728.64
296.965	8747.56
297.032	8729.65
297.099	8741.06
297.166	8748.62
297.233	8748.18
297.299	8736.49
297.366	8741.93
297.433	8755.07
297.5	8771.24
297.566	8767.73
297.633	8767.2
297.7	8764.6
297.767	8763.59
297.833	8768.93
297.9	8766.28
297.967	8756.51
298.033	8769.37
298.1	8799.07
298.167	8793.29
298.234	8799.84
298.3	8811.15
298.367	8806.96
298.434	8817.07
298.5	8811.49
298.567	8803.88
298.634	8803.26
298.7	8822.8
298.767	8820.63
298.834	8824.92
298.9	8812.25
298.967	8812.16
299.033	8815.58
299.1	8835.26
299.167	8851.68
299.233	8846.53
299.3	8864.14
299.366	8881.32
299.433	8891.63
299.5	8866.21
299.566	8870.4
299.633	8886.76
299.699	8896.39
299.766	8893.55
299.832	8898.12
299.899	8906.16
299.965	8924.79
300.032	8921.86
300.099	8930.09
300.165	8940.39
300.232	8941.35
300.298	8943.66
300.365	8953.96
300.431	8959.07
300.498	8947.9
300.564	8954.3
300.631	8967.06
300.697	8983.23
300.763	8983.72
300.83	8977.75
300.896	8988.77
300.963	8997.48
301.029	9005.33
301.096	9002.87
301.162	9012.16
301.229	9003.98
301.295	8992.72
301.361	8993.49
301.428	9001.52
301.494	8987.9
301.561	8989.25
301.627	8988.29
301.693	8980.34
301.76	8983.95
301.826	8981.69
301.892	8991.32
301.959	8996.86
302.025	8994.11
302.092	8986.31
302.158	8992.81
302.224	8997.14
302.291	8988.72
302.357	8980.92
302.423	8972.3
302.49	8969.66
302.556	8978.76
302.622	8976.97
302.688	8994.88
302.755	9001.09
302.821	9012.21
302.887	9017.22
302.954	9012.31
303.02	9021.22
303.086	9034.16
303.152	9032.34
303.219	9027.57
303.285	9030.41
303.351	9033.54
303.417	9034.41
303.483	9023.05
303.55	9013.9
303.616	9013.37
303.682	9014.33
303.748	9016.21
303.815	9029.31
303.881	9039.94
303.947	9029.93
304.013	9033.45
304.079	9023.67
304.145	9008.31
304.212	9000.28
304.278	8996.76
304.344	8995.03
304.41	8984.05
304.476	8973.37
304.542	8966.58
304.608	8969.37
304.674	8961.38
304.741	8954.11
304.807	8952.52
304.873	8958.78
304.939	8972.5
305.005	8954.78
305.071	8953.43
305.137	8953.15
305.203	8923.54
305.269	8915.64
305.335	8922.67
305.401	8917.95
305.467	8914.63
305.533	8921.95
305.599	8928.79
305.666	8937.21
305.732	8943.08
305.798	8954.4
305.864	8979.91
305.93	8987.04
305.996	8989.54
306.062	8983.67
306.128	8980.06
306.194	8966.19
306.259	8960.95
306.325	8948.77
306.391	8957.62
306.457	8964.99
306.523	8969.32
306.589	8997.1
306.655	8991.13
306.721	8976.11
306.787	8967.54
306.853	8983.28
306.919	8966.77
306.985	8956.71
307.051	8946.17
307.117	8936.25
307.183	8925.08
307.248	8897.55
307.314	8896.2
307.38	8888.5
307.446	8894.37
307.512	8885.66
307.578	8894.47
307.644	8891.14
307.709	8898.65
307.775	8897.64
307.841	8890.71
307.907	8888.55
307.973	8869.48
308.039	8871.6
308.104	8874.82
308.17	8878.96
308.236	8863.8
308.302	8872.12
308.368	8861.25
308.433	8863.37
308.499	8860.81
308.565	8854.56
308.631	8854.85
308.696	8837.85
308.762	8829.67
308.828	8826.98
308.894	8810.32
308.959	8794.39
309.025	8779.95
309.091	8772.25
309.156	8765.22
309.222	8764.5
309.288	8757.23
309.354	8739.14
309.419	8729.12
309.485	8715.17
309.551	8712.09
309.616	8696.01
309.682	8687.15
309.748	8679.74
309.813	8672.14
309.879	8659.29
309.945	8645.86
310.01	8640.37
310.076	8640.47
310.141	8637.34
310.207	8628.58
310.273	8627.86
310.338	8626.9
310.404	8616.55
310.469	8605.63
310.535	8592.39
310.601	8569.63
310.666	8566.74
310.732	8571.94
310.797	8563.95
310.863	8557.69
310.928	8551.58
310.994	8546.24
311.059	8543.16
311.125	8541.96
311.191	8547.15
311.256	8538.01
311.322	8540.37
311.387	8522.04
311.453	8855.55
311.518	8835.25
311.584	8828.99
311.649	8834.33
311.715	8825.29
311.78	8829.18
311.846	8818.45
311.911	8823.12
311.976	8828.9
312.042	8812.82
312.107	8799.97
312.173	8793.38
312.238	8783.85
312.304	8779.43
312.369	8773.65
312.434	8761.57
312.5	8751.86
312.565	8724.47
312.631	8728.95
312.696	8726.3
312.761	8729.43
312.827	8388.69
312.892	8416.6
312.958	8407.46
313.023	8408.33
313.088	8406.02
313.154	8393.36
313.219	8377.68
313.284	8368.05
313.35	8365.6
313.415	8355.02
313.48	8354.58
313.546	8353.96
313.611	8359.63
313.676	8352.03
313.741	8350.11
313.807	8363.1
313.872	8367.43
313.937	8371.76
314.003	8377.68
314.068	8372.34
314.133	8377.92
314.198	8363.34
314.264	8346.35
314.329	8339.66
314.394	8329.03
314.459	8325.42
314.525	8338.84
314.59	8340
314.655	8332.25
314.72	8331.92
314.785	8334.95
314.851	8326.57
314.916	8311.76
314.981	8297.42
315.046	8286.5
315.111	8275.29
315.176	8257.73
315.242	8263.55
315.307	8258.98
315.372	8237.71
315.437	8227.85
315.502	8221.98
315.567	8231.99
315.632	8219.57
315.698	8216.4
315.763	8218.9
315.828	8207.93
315.893	8202.69
315.958	8198.17
316.023	8183.4
316.088	8165.26
316.153	8145.25
316.218	8135.29
316.283	8113.99
316.348	8098.84
316.413	8096.19
316.479	8078.83
316.544	8046.85
316.609	8015.05
316.674	7984.18
316.739	7949.75
316.804	7923.54
316.869	7884.05
316.934	7849.13
316.999	7817.2
317.064	7770.17
317.129	7722.6
317.194	7690.63
317.259	7643.07
317.324	7599.22
317.389	7564.03
317.454	7528.16
317.518	7496.77
317.583	7473.79
317.648	7454.46
317.713	7422.83
317.778	7368.7
317.843	7335.73
317.908	7297.57
317.973	7262.92
318.038	7236.48
318.103	7205.59
318.168	7171.56
318.233	7144.65
318.297	7094.05
318.362	7057.87
318.427	7020.65
318.492	6995.18
318.557	6950.94
318.622	6925.23
318.687	6900.49
318.751	6860.58
318.816	6833.24
318.881	6799.77
318.946	6751.29
319.011	6706.34
319.075	6665.66
319.14	6630.99
319.205	6592.48
319.27	6564.54
319.335	6520.75
319.399	6480.94
319.464	6452.86
319.529	6401.98
319.594	6359.44
319.658	6338.13
319.723	6299.3
319.788	6272.23
319.853	6213.44
319.917	6180.28
319.982	6131.67
320.047	6092.6
320.112	6067.22
320.176	6017.46
320.241	5985.89
320.306	5952.11
320.37	5912.01
320.435	5881.4
320.5	5851.23
320.564	5813.77
320.629	5770.52
320.694	5738.87
320.758	5697.53
320.823	5653.18
320.888	5630.36
320.952	5587.78
321.017	5543.15
321.082	5507.14
321.146	5478
321.211	5451.4
321.275	5415.89
321.34	5371.04
321.405	5329.92
321.469	5282.34
321.534	5239.08
321.598	5186.14
321.663	5152.59
321.727	5122.6
321.792	5078.96
321.857	5036.04
321.921	4996.53
321.986	4955.31
322.05	4904.79
322.115	4867.4
322.179	4829.05
322.244	4774.67
322.308	4742.84
322.373	4700.47
322.437	4659.41
322.502	4624.79
322.566	4581.09
322.631	4543.43
322.695	4507.75
322.76	4466.37
322.824	4434.6
322.889	4398.44
322.953	4359
323.018	4300.11
323.082	4238.1
323.146	4188.52
323.211	4138.99
323.275	4098.31
323.34	4059.02
323.404	4018.78
323.468	3974.67
323.533	3932.61
323.597	3891.92
323.662	3843.32
323.726	3808.63
323.79	3765.15
323.855	3709.96
323.919	3665.3
323.983	3624.65
324.048	3564.09
324.112	3691.12
324.177	3568.07
324.241	3379.47
324.305	3197.52
324.37	3017.09
324.434	2848.89
324.498	2809.39
324.562	2765.42
324.627	2711.61
324.691	2660.97
324.755	2605.68
324.82	2541.29
324.884	2472.14
324.948	2406.22
325.012	2320.31
325.077	2207.19
