Data from 20250702_urea_2M_MAYP1162681_11-36-44-266.txt Node
Date: Wed Jul 02 11:36:44 BST 2025
User: adleo
Spectrometer: MAYP116268
Trigger mode: 0
Integration Time (sec): 1.000000E0
Scans to average: 1
Electric dark correction enabled: true
Nonlinearity correction enabled: true
Boxcar width: 10
XAxis mode: Wavelengths
Number of Pixels in Spectrum: 2068
>>>>>Begin Spectral Data<<<<<
179.565	1012.76
179.642	1060.43
179.718	1096.02
179.795	1127.3
179.871	1154.08
179.948	1166.85
180.024	1183.46
180.101	1202.55
180.177	1213.43
180.254	1233.05
180.33	1249.42
180.407	1288.47
180.483	1369.52
180.56	1444.68
180.636	1514.04
180.712	1500.88
180.789	1510.52
180.865	1521.01
180.942	1533.41
181.018	1542
181.095	1552.07
181.171	1558.34
181.248	1557.91
181.324	1571.45
181.4	1577.72
181.477	1587.13
181.553	1599.33
181.63	1618.43
181.706	1630.92
181.782	1638.62
181.859	1637.48
181.935	1644.27
182.011	1640.33
182.088	1656.39
182.164	1673.3
182.24	1686.37
182.317	1697.1
182.393	1696.1
182.469	1708.93
182.546	1718.67
182.622	1726.32
182.698	1722.66
182.775	1731.17
182.851	1743.8
182.927	1737.15
183.003	1733.3
183.08	1727.79
183.156	1735.92
183.232	1732.35
183.308	1723.28
183.385	1730.17
183.461	1746.94
183.537	1746.47
183.613	1758.96
183.69	1749.08
183.766	1740.76
183.842	1747.08
183.918	1752.59
183.995	1761.53
184.071	1762.72
184.147	1758.2
184.223	1743.66
184.299	1756.69
184.375	1748.94
184.452	1755.5
184.528	1803.79
184.604	1815.24
184.68	1826.74
184.756	1835.39
184.832	1839.67
184.908	1843.09
184.985	1843.99
185.061	1829.26
185.137	1839.24
185.213	1826.94
185.289	1828.84
185.365	1823.56
185.441	1820.99
185.517	1831.41
185.593	1828.75
185.669	1827.98
185.745	1835.59
185.822	1852.36
185.898	1842.42
185.974	1849.17
186.05	1842.8
186.126	1809.58
186.202	1802.74
186.278	1800.55
186.354	1790.33
186.43	1796.99
186.506	1797.51
186.582	1795.28
186.658	1800.74
186.734	1783.3
186.81	1787.72
186.886	1789.29
186.962	1799.03
187.038	1796.7
187.114	1787.86
187.19	1796.41
187.266	1786.29
187.341	1788.1
187.417	1782.97
187.493	1783.39
187.569	1788.2
187.645	1781.21
187.721	1769.04
187.797	1774.46
187.873	1775.88
187.949	1769.95
188.025	1762.29
188.101	1763.05
188.176	1769.37
188.252	1765.52
188.328	1771.32
188.404	1771.27
188.48	1767.85
188.556	1761.1
188.632	1760.1
188.707	1764.62
188.783	1757.63
188.859	1756.35
188.935	1744.8
189.011	1751.69
189.086	1746.61
189.162	1738.05
189.238	1735.01
189.314	1734.3
189.39	1729.59
189.465	1724.22
189.541	1739.76
189.617	1727.41
189.693	1723.09
189.768	1726.32
189.844	1747.85
189.92	1743.82
189.996	1749.66
190.071	1758.5
190.147	1757.5
190.223	1766.01
190.298	1756.74
190.374	1748.81
190.45	1759.92
190.526	1768.48
190.601	1763.15
190.677	1764.72
190.753	1789.11
190.828	1795.2
190.904	1807.89
190.98	1821.05
191.055	1828.85
191.131	1820.67
191.207	1839.11
191.282	1849.47
191.358	1839.54
191.433	1825.7
191.509	1833.49
191.585	1832.21
191.66	1834.44
191.736	1843.04
191.811	1836.67
191.887	1852.51
191.963	1873.94
192.038	1878.98
192.114	1877.6
192.189	1880.27
192.265	1879.03
192.34	1857.11
192.416	1855.45
192.491	1850.41
192.567	1852.78
192.642	1856.83
192.718	1857.82
192.793	1845.8
192.869	1843.42
192.944	1846.61
193.02	1854.02
193.095	1856.54
193.171	1861.77
193.246	1863.53
193.322	1859.63
193.397	1859.96
193.473	1847.46
193.548	1830.44
193.624	1833.48
193.699	1833.39
193.775	1848.22
193.85	1847.98
193.925	1857.58
194.001	1856.3
194.076	1850.22
194.152	1839.66
194.227	1832.53
194.302	1824.88
194.378	1829.78
194.453	1825.55
194.529	1836.81
194.604	1822.79
194.679	1817.47
194.755	1799.84
194.83	1804.88
194.905	1804.6
194.981	1812.63
195.056	1803.18
195.131	1808.88
195.207	1806.93
195.282	1798.85
195.357	1779.03
195.433	1793.67
195.508	1784.11
195.583	1789.58
195.659	1804.69
195.734	1813.2
195.809	1812.25
195.884	1817.62
195.96	1817.43
196.035	1829.41
196.11	1825.75
196.185	1839.25
196.261	1843.14
196.336	1872.9
196.411	1865.43
196.486	1869.62
196.561	1863.96
196.637	1874.36
196.712	1886.35
196.787	1890.91
196.862	1904.89
196.937	1916.34
197.013	1921.33
197.088	1930.84
197.163	1949.29
197.238	1961.14
197.313	1958.38
197.388	1972.45
197.464	1998.94
197.539	2010.16
197.614	2005.6
197.689	2015.87
197.764	2029.47
197.839	2049.83
197.914	2041.69
197.989	2060.39
198.065	2071.8
198.14	2114.63
198.215	2136.94
198.29	2147.5
198.365	2160.34
198.44	2168
198.515	2191.93
198.59	2204.02
198.665	2224.47
198.74	2234.95
198.815	2239.8
198.89	2261.64
198.965	2287.2
199.04	2282.82
199.115	2295.47
199.19	2329.25
199.265	2331.78
199.34	2338.34
199.415	2366.1
199.49	2387.66
199.565	2394.7
199.64	2416.36
199.715	2414.74
199.79	2421.74
199.865	2430.21
199.94	2427.31
200.015	2455.54
200.09	2459.64
200.165	2467.21
200.24	2474.54
200.315	2510.95
200.39	2521.04
200.464	2526.37
200.539	2526.52
200.614	2541.37
200.689	2561.99
200.764	2573.09
200.839	2591.03
200.914	2595.84
200.989	2589.13
201.063	2601.17
201.138	2584.38
201.213	2584.09
201.288	2569.52
201.363	2574.33
201.438	2572.42
201.512	2586.04
201.587	2572.75
201.662	2576.75
201.737	2585.75
201.812	2593.52
201.886	2561.54
201.961	2570.11
202.036	2559.02
202.111	2555.5
202.186	2531.84
202.26	2518.46
202.335	2496.93
202.41	2491.84
202.485	2479.27
202.559	2460.66
202.634	2435.09
202.709	2444.7
202.784	2428.04
202.858	2425.8
202.933	2406
203.008	2400.19
203.082	2382.15
203.157	2380.11
203.232	2342.14
203.306	2324.52
203.381	2297
203.456	2275.59
203.53	2254.11
203.605	2238.08
203.68	2220.08
203.754	2216.19
203.829	2202.1
203.904	2185.45
203.978	2172.41
204.053	2174.93
204.127	2163.84
204.202	2164.04
204.277	2150.29
204.351	2143.39
204.426	2136.54
204.5	2131.88
204.575	2102.2
204.65	2110.24
204.724	2105.67
204.799	2114.61
204.873	2110.33
204.948	2109.33
205.022	2099.44
205.097	2094.63
205.171	2106.14
205.246	2111.33
205.32	2111.99
205.395	2111.04
205.469	2102.39
205.544	2108.38
205.618	2092.59
205.693	2103.29
205.767	2091.98
205.842	2111.48
205.916	2104.21
205.991	2095.17
206.065	2103.16
206.14	2116.66
206.214	2115
206.289	2108.57
206.363	2119.42
206.438	2120.7
206.512	2127.46
206.586	2142.25
206.661	2147.91
206.735	2129.32
206.81	2129.51
206.884	2138.78
206.958	2129.37
207.033	2144.44
207.107	2150.01
207.181	2178.94
207.256	2171.23
207.33	2188.36
207.405	2196.07
207.479	2214.62
207.553	2222.19
207.628	2205.83
207.702	2216.77
207.776	2212.25
207.851	2213.91
207.925	2228.81
207.999	2228.86
208.073	2223.58
208.148	2230.48
208.222	2220.58
208.296	2249.69
208.371	2265.45
208.445	2275.58
208.519	2301.61
208.593	2311.46
208.668	2306.89
208.742	2307.89
208.816	2309.17
208.89	2320.93
208.965	2321.36
209.039	2328.65
209.113	2343.11
209.187	2361.04
209.261	2356.86
209.336	2375.95
209.41	2391.61
209.484	2387.46
209.558	2405.13
209.632	2419.59
209.707	2428.21
209.781	2447.11
209.855	2459.97
209.929	2476.5
210.003	2482.22
210.077	2479.79
210.151	2528.78
210.226	2561.32
210.3	2587.01
210.374	2611.81
210.448	2619
210.522	2632.53
210.596	2645.29
210.67	2652.72
210.744	2696.03
210.818	2726.36
210.892	2742.04
210.966	2743.27
211.041	2763.38
211.115	2764.33
211.189	2789.82
211.263	2810.5
211.337	2824.55
211.411	2842.66
211.485	2843.43
211.559	2860.53
211.633	2870.29
211.707	2844.35
211.781	2858.99
211.855	2838.97
211.929	2841.88
212.003	2834.02
212.077	2852.85
212.151	2872.11
212.225	2895.71
212.299	2903.72
212.373	2911.92
212.447	2925.8
212.52	2968.66
212.594	2996.23
212.668	3028.18
212.742	3039.24
212.816	3060.56
212.89	3083.26
212.964	3111.51
213.038	3146.16
213.112	3197.65
213.186	3249.07
213.26	3273.25
213.333	3277.88
213.407	3327.11
213.481	3378.82
213.555	3445.18
213.629	3489.17
213.703	3534.82
213.777	3595.39
213.85	3639.48
213.924	3733.76
213.998	3805.49
214.072	3876.92
214.146	3936.87
214.219	4013.11
214.293	4091.64
214.367	4174.84
214.441	4271.88
214.515	4355.27
214.588	4429.38
214.662	4491.25
214.736	4576.82
214.81	4690.4
214.883	4806.01
214.957	4907.16
215.031	5008.6
215.105	5099.96
215.178	5206.18
215.252	5321.52
215.326	5423.47
215.4	5532.59
215.473	5616.09
215.547	5729.05
215.621	5843.69
215.694	5982.41
215.768	6103.57
215.842	6231.79
215.915	6363.29
215.989	6481.17
216.063	6612.76
216.136	6759.48
216.21	6908.56
216.284	7065.1
216.357	7207.82
216.431	7353.1
216.504	7511.3
216.578	7691.27
216.652	7860.15
216.725	8017.28
216.799	8179.73
216.873	8340.1
216.946	8513.2
217.02	8675.87
217.093	8836.95
217.167	8975.04
217.24	9125.29
217.314	9284.1
217.387	9445.97
217.461	9602.7
217.535	9775.39
217.608	9929.94
217.682	10088.84
217.755	10265.53
217.829	10418.49
217.902	10584.6
217.976	10748.12
218.049	10901.43
218.123	11041.09
218.196	11207.87
218.27	11362.9
218.343	11513.55
218.417	11681.9
218.49	11833.62
218.563	12008.29
218.637	12163.54
218.71	12345.73
218.784	12506.05
218.857	12666.66
218.931	12826.93
219.004	12982.24
219.077	13141.61
219.151	13300.68
219.224	13442.31
219.298	13589.43
219.371	13749.23
219.444	13882.47
219.518	14026.07
219.591	14169.96
219.665	14343.3
219.738	14478.76
219.811	14609.68
219.885	14753.72
219.958	14882.28
220.031	15014.4
220.105	15136.21
220.178	15267.22
220.251	15385.51
220.325	15513.58
220.398	15648.83
220.471	15768.8
220.544	15898.03
220.618	16001.17
220.691	16122.49
220.764	16253.4
220.838	16355.43
220.911	16464.79
220.984	16602.01
221.057	16704.81
221.131	16816.77
221.204	16879.62
221.277	17002.56
221.35	17130.23
221.424	17234.23
221.497	17340.55
221.57	17441.32
221.643	17544.65
221.716	17649.37
221.79	17741.22
221.863	17830.67
221.936	17906.14
222.009	17997.36
222.082	18084.16
222.155	18169.74
222.229	18257.69
222.302	18333.64
222.375	18418.6
222.448	18492.91
222.521	18559.8
222.594	18638.11
222.667	18707.07
222.74	18801.09
222.814	18862.96
222.887	18919.59
222.96	18984.45
223.033	19049.6
223.106	19111.96
223.179	19177.21
223.252	19234.51
223.325	19291.03
223.398	19355.99
223.471	19428.95
223.544	19480.57
223.617	19531.41
223.69	19589.48
223.763	19633.81
223.837	19687.98
223.91	19738.53
223.983	19773.27
224.056	19804.74
224.129	19860.35
224.202	19908.93
224.275	19937.36
224.348	19967.24
224.42	20002.71
224.493	20026.13
224.566	20054.27
224.639	20092.92
224.712	20127.09
224.785	20159.14
224.858	20187.81
224.931	20206.32
225.004	20216.63
225.077	20252.78
225.15	20262.37
225.223	20290.99
225.296	20336.39
225.369	20347.09
225.442	20370.03
225.514	20400.58
225.587	20438.7
225.66	20464.58
225.733	20491.04
225.806	20514.12
225.879	20535.28
225.952	20557.21
226.025	20594.37
226.097	20635.33
226.17	20659.28
226.243	20662.66
226.316	20682.75
226.389	20712.88
226.461	20742.85
226.534	20765.84
226.607	20770.52
226.68	20805.46
226.753	20820.06
226.825	20821.17
226.898	20843.05
226.971	20858.95
227.044	20874.23
227.117	20879.43
227.189	20884.06
227.262	20896.93
227.335	20923.53
227.407	20926.67
227.48	20934.14
227.553	20949.75
227.626	20949.99
227.698	20944.4
227.771	20952.55
227.844	20944.64
227.916	20947.92
227.989	20938.96
228.062	20939.97
228.134	20963.39
228.207	20962.14
228.28	20963.63
228.352	20964.64
228.425	20973.08
228.498	20977.56
228.57	20968.98
228.643	20984.02
228.716	20982.81
228.788	20982.77
228.861	20978.14
228.934	20994.57
229.006	20989.42
229.079	20976.02
229.151	20961.37
229.224	20955.58
229.296	20964.4
229.369	20991.78
229.442	21012.55
229.514	21004.89
229.587	21018.05
229.659	21007.78
229.732	21019.35
229.804	21027.49
229.877	21041.33
229.949	21059.01
230.022	21078.58
230.094	21082.82
230.167	21087.02
230.239	21084.32
230.312	21082.05
230.384	21097.52
230.457	21096.7
230.529	21109.33
230.602	21115.98
230.674	21125.91
230.747	21133
230.819	21133.14
230.892	21098.92
230.964	21084.94
231.037	21094.34
231.109	21082.92
231.181	21078.39
231.254	21058.68
231.326	21046.58
231.399	21036.07
231.471	21004.5
231.544	20970.28
231.616	20974.77
231.688	20968.4
231.761	20954.48
231.833	20934.14
231.905	20894.71
231.978	20888.69
232.05	20872.64
232.122	20866.09
232.195	20847.92
232.267	20847.67
232.339	20840.78
232.412	20852.06
232.484	20833.7
232.556	20806.61
232.629	20812.64
232.701	20814.52
232.773	20805.6
232.846	20786.47
232.918	20775.58
232.99	20778.08
233.062	20775.91
233.135	20758.37
233.207	20728.34
233.279	20715.77
233.351	20710.75
233.424	20692.73
233.496	20660.92
233.568	20662.99
233.64	20626.66
233.713	20614.66
233.785	20599.62
233.857	20577.55
233.929	20548.34
234.001	20547.28
234.074	20553.26
234.146	20520.97
234.218	20500.58
234.29	20486.41
234.362	20465.35
234.434	20429.69
234.507	20405.93
234.579	20369.69
234.651	20345.21
234.723	20336.97
234.795	20332.39
234.867	20318.17
234.939	20321.83
235.012	20310.99
235.084	20288.82
235.156	20273.69
235.228	20249.4
235.3	20226.08
235.372	20212.34
235.444	20203.76
235.516	20163.62
235.588	20147.62
235.66	20132.83
235.732	20108.92
235.804	20132.39
235.876	20124.92
235.948	20123.86
236.02	20097.21
236.092	20085.74
236.164	20061.74
236.236	20021.07
236.308	19986.95
236.38	19961.8
236.452	19922.18
236.524	19904.74
236.596	19889.8
236.668	19890.62
236.74	19865.99
236.812	19844.89
236.884	19817.8
236.956	19789.23
237.028	19753.32
237.1	19715.11
237.172	19689.52
237.244	19671.16
237.316	19616.85
237.388	19581.33
237.46	19541.24
237.532	19519.74
237.604	19478.54
237.675	19472.28
237.747	19470.59
237.819	19437.92
237.891	19404.91
237.963	19371.61
238.035	19343.9
238.107	19286.26
238.178	19267.42
238.25	19237.69
238.322	19225.16
238.394	19194.41
238.466	19156.01
238.538	19146.9
238.609	19120.35
238.681	19083
238.753	19038.42
238.825	19008.59
238.897	18981.85
238.968	18971.1
239.04	18942.24
239.112	18938.57
239.184	18892.17
239.255	18859.4
239.327	18844.46
239.399	18819.26
239.471	18808.41
239.542	18778.78
239.614	18759.02
239.686	18697.82
239.758	18681.77
239.829	18641.87
239.901	18619.7
239.973	18593.82
240.044	18566.4
240.116	18545.87
240.188	18514.6
240.259	18496
240.331	18458.36
240.403	18430.31
240.474	18381.35
240.546	18342.75
240.618	18304.25
240.689	18275.38
240.761	18238.32
240.833	18217.07
240.904	18190.42
240.976	18157.22
241.048	18123.78
241.119	18105.56
241.191	18080.89
241.262	18068.4
241.334	18041.47
241.405	18007.01
241.477	17978.05
241.549	17942.72
241.62	17902.1
241.692	17884.65
241.763	17859.26
241.835	17825.38
241.906	17799.4
241.978	17759.69
242.049	17745.81
242.121	17719.07
242.192	17704.37
242.264	17663.21
242.335	17612.66
242.407	17578.78
242.478	17539.4
242.55	17510.54
242.621	17468.46
242.693	17435.02
242.764	17389.86
242.836	17346.15
242.907	17316.18
242.979	17288.46
243.05	17256.99
243.122	17237.04
243.193	17199.4
243.264	17149.96
243.336	17123.35
243.407	17102.63
243.479	17093.52
243.55	17061.47
243.622	17033.86
243.693	16998.82
243.764	16976.99
243.836	16944.12
243.907	16905.23
243.978	16877.32
244.05	16855.44
244.121	16813.17
244.192	16788.69
244.264	16745.94
244.335	16722.52
244.407	16673.65
244.478	16645.02
244.549	16612.58
244.62	16564.34
244.692	16526.79
244.763	16505.83
244.834	16467.22
244.906	16423.12
244.977	16400.28
245.048	16375.89
245.119	16342.63
245.191	16300.08
245.262	16259.49
245.333	16246.09
245.405	16221.61
245.476	16195.34
245.547	16159.77
245.618	16130.71
245.689	16104.3
245.761	16080.87
245.832	16044.29
245.903	16022.31
245.974	15988.76
246.045	15957.19
246.117	15940.03
246.188	15898.29
246.259	15856.21
246.33	15821.27
246.401	15792.3
246.473	15738.61
246.544	15701.2
246.615	15670.45
246.686	15640.18
246.757	15617.87
246.828	15572.7
246.899	15556.31
246.97	15508.88
247.042	15463.96
247.113	15444.29
247.184	15420.67
247.255	15385.39
247.326	15357.53
247.397	15328.47
247.468	15303.26
247.539	15271.49
247.61	15225.26
247.681	15207.43
247.752	15188.73
247.823	15151.66
247.894	15118.59
247.965	15087.16
248.037	15054.24
248.108	15012.5
248.179	14981.89
248.25	14958.51
248.321	14942.26
248.392	14910.07
248.463	14903.51
248.534	14881.82
248.605	14862.92
248.675	14835.74
248.746	14808.07
248.817	14785.07
248.888	14759.38
248.959	14715.71
249.03	14698.26
249.101	14680.23
249.172	14654.78
249.243	14610.14
249.314	14600.4
249.385	14574.08
249.456	14547.71
249.527	14520.24
249.598	14493.87
249.669	14465.67
249.739	14435.11
249.81	14401.51
249.881	14356.63
249.952	14328.91
250.023	14298.68
250.094	14255.16
250.165	14222.76
250.235	14196.35
250.306	14167.66
250.377	14134.64
250.448	14113.53
250.519	14063.63
250.59	14050.33
250.66	14019.96
250.731	14005.16
250.802	13975.13
250.873	13947.07
250.944	13925.76
251.014	13891.59
251.085	13891.39
251.156	13871.44
251.227	13856.25
251.297	13843.48
251.368	13829.88
251.439	13810.41
251.51	13796.38
251.58	13769.38
251.651	13736.99
251.722	13717.75
251.792	13680.97
251.863	13652.63
251.934	13642.55
252.005	13644.29
252.075	13611.84
252.146	13601.58
252.217	13592.37
252.287	13577.91
252.358	13555.15
252.429	13541.85
252.499	13513.26
252.57	13485.98
252.641	13472.38
252.711	13450.45
252.782	13415.31
252.852	13407.83
252.923	13385.22
252.994	13364.35
253.064	13342.8
253.135	13314.99
253.205	13290.16
253.276	13281.44
253.347	13280.33
253.417	13242.05
253.488	13218.53
253.558	13194.42
253.629	13155.71
253.699	13135.08
253.77	13113.58
253.841	13089.62
253.911	13070.68
253.982	13046.82
254.052	13034.14
254.123	13005.99
254.193	12980.68
254.264	12995.33
254.334	12962.74
254.405	12930.98
254.475	12898.1
254.546	12874.29
254.616	12858.62
254.687	12835.63
254.757	12818.27
254.827	12784.82
254.898	12779.61
254.968	12752.23
255.039	12719.88
255.109	12715.79
255.18	12679.49
255.25	12633.36
255.321	12617.98
255.391	12580.91
255.461	12584.67
255.532	12535.4
255.602	12513.38
255.673	12468.74
255.743	12432.73
255.813	12388.67
255.884	12375.51
255.954	12363.75
256.024	12362.88
256.095	12347.6
256.165	12320.75
256.235	12305.33
256.306	12280.21
256.376	12263.97
256.446	12250.33
256.517	12242.42
256.587	12233.31
256.657	12214.51
256.728	12203.95
256.798	12192.15
256.868	12163.18
256.938	12129.82
257.009	12119.99
257.079	12102.83
257.149	12116.42
257.219	12080.32
257.29	12068.12
257.36	12032.31
257.43	12019.49
257.5	11989.89
257.571	11957.07
257.641	11935.67
257.711	11907.47
257.781	11897.44
257.852	11874.64
257.922	11842.3
257.992	11819.5
258.062	11791.93
258.132	11786.1
258.202	11765.71
258.273	11743.2
258.343	11751.35
258.413	11731.87
258.483	11710.09
258.553	11684.4
258.623	11655.96
258.693	11639.57
258.764	11636.68
258.834	11632.54
258.904	11612.15
258.974	11577.93
259.044	11560.38
259.114	11547.56
259.184	11528.14
259.254	11509.39
259.324	11475.7
259.394	11457.87
259.464	11456.81
259.535	11430.88
259.605	11404.08
259.675	11381.05
259.745	11369.24
259.815	11338.39
259.885	11312.56
259.955	11320.76
260.025	11295.84
260.095	11274.63
260.165	11266.1
260.235	11262.78
260.305	11233.09
260.375	11199.45
260.445	11200.99
260.515	11197.72
260.585	11192.08
260.655	11175.11
260.725	11162.83
260.795	11156.08
260.865	11155.98
260.934	11129.14
261.004	11118.73
261.074	11099.79
261.144	11094.44
261.214	11086.73
261.284	11068.22
261.354	11061.29
261.424	11032.9
261.494	11033.28
261.564	11014.68
261.634	11003.21
261.703	10969.82
261.773	10964.71
261.843	10954.98
261.913	10937.96
261.983	10904.52
262.053	10898.31
262.123	10879.37
262.192	10848.96
262.262	10837.21
262.332	10813.88
262.402	10802.17
262.472	10787.62
262.541	10753.89
262.611	10746.47
262.681	10721.51
262.751	10707.87
262.821	10684.84
262.89	10658.53
262.96	10648.94
263.03	10651.55
263.1	10627.69
263.169	10610.44
263.239	10599.36
263.309	10600.08
263.379	10592.23
263.448	10579.75
263.518	10560.81
263.588	10546.31
263.657	10541.78
263.727	10536.63
263.797	10516.15
263.867	10495.82
263.936	10470.86
264.006	10473.46
264.076	10451.15
264.145	10427.93
264.215	10415.07
264.285	10413.62
264.354	10383.37
264.424	10362.84
264.494	10333.55
264.563	10319.77
264.633	10322.37
264.702	10308.93
264.772	10280.74
264.842	10253.76
264.911	10248.51
264.981	10220.91
265.05	10206.41
265.12	10194.46
265.19	10174.27
265.259	10167.43
265.329	10158.9
265.398	10147.73
265.468	10151.82
265.537	10139.59
265.607	10133.85
265.676	10124.94
265.746	10110.2
265.815	10112.8
265.885	10095.46
265.955	10070.17
266.024	10055.86
266.094	10015.45
266.163	10009.38
266.232	10009.62
266.302	9996.18
266.371	9986.16
266.441	9975.95
266.51	9969.93
266.58	9959.52
266.649	9943.58
266.719	9942.52
266.788	9931.78
266.858	9931.58
266.927	9899.5
266.996	9878.7
267.066	9863.81
267.135	9836.36
267.205	9836.02
267.274	9824.56
267.343	9818.54
267.413	9805.58
267.482	9802.74
267.552	9807.46
267.621	9780.34
267.69	9753.71
267.76	9744.94
267.829	9731.17
267.898	9717.15
267.968	9694.18
268.037	9682.23
268.106	9679.63
268.176	9652.76
268.245	9639.9
268.314	9623.52
268.384	9617.98
268.453	9612.73
268.522	9603.58
268.592	9599.63
268.661	9571.56
268.73	9558.31
268.799	9547.19
268.869	9554.65
268.938	9524.5
269.007	9503.12
269.076	9491.04
269.146	9487.33
269.215	9480.73
269.284	9480.49
269.353	9463.39
269.422	9449.38
269.492	9433.01
269.561	9395.35
269.63	9387.94
269.699	9371.56
269.768	9362.03
269.838	9356.44
269.907	9354.61
269.976	9337.09
270.045	9315.85
270.114	9319.37
270.183	9312.1
270.253	9297.6
270.322	9268.67
270.391	9257.78
270.46	9265.87
270.529	9268.09
270.598	9263.18
270.667	9246.47
270.736	9226.63
270.806	9223.07
270.875	9226.1
270.944	9215.94
271.013	9233.23
271.082	9226.34
271.151	9218.44
271.22	9189.61
271.289	9173.67
271.358	9155.76
271.427	9146.18
271.496	9135.68
271.565	9114.74
271.634	9099
271.703	9115.75
271.772	9119.41
271.841	9105.98
271.91	9083.06
271.979	9072.18
272.048	9050.33
272.117	9048.69
272.186	9030.92
272.255	9031.6
272.324	9031.02
272.393	9023.27
272.462	9006.56
272.531	8996.5
272.6	8987.64
272.669	8989.13
272.738	8975.7
272.807	8976.67
272.876	8961.74
272.945	8987.79
273.013	8987.98
273.082	8993.47
273.151	8953.56
273.22	8947.35
273.289	8940.42
273.358	8947.45
273.427	8928.86
273.496	8923.71
273.564	8922.46
273.633	8926.02
273.702	8897.82
273.771	8885.68
273.84	8884.48
273.909	8879.23
273.977	8884.34
274.046	8873.31
274.115	8877.79
274.184	8866.14
274.253	8854.83
274.322	8864.02
274.39	8827.73
274.459	8814.11
274.528	8788.26
274.597	8780.99
274.665	8773.1
274.734	8781.14
274.803	8770.98
274.872	8773.67
274.94	8761.79
275.009	8807.39
275.078	8793.96
275.147	8794.63
275.215	8790.59
275.284	8788.81
275.353	8778.17
275.421	8745.3
275.49	8758.73
275.559	8747.46
275.627	8745.15
275.696	8732.35
275.765	8727.06
275.833	8722.1
275.902	8718.92
275.971	8726.91
276.039	8741.21
276.108	8747.37
276.177	8748.14
276.245	8736.44
276.314	8728.36
276.383	8735.38
276.451	8679.48
276.52	8686.12
276.588	8696.28
276.657	8692.38
276.725	8680.73
276.794	8683.28
276.863	8695.12
276.931	8672.88
277	8680.68
277.068	8686.65
277.137	8706.86
277.205	8703.73
277.274	8719.71
277.342	8727.36
277.411	8707.68
277.48	8691.46
277.548	8685.59
277.617	8681.64
277.685	8677.17
277.754	8683.86
277.822	8676.06
277.89	8688.72
277.959	8680.01
278.027	8670.05
278.096	8662.25
278.164	8686.56
278.233	8678.91
278.301	8667.45
278.37	8668.27
278.438	8652.39
278.507	8657.15
278.575	8633.52
278.643	8633.28
278.712	8620
278.78	8608.35
278.849	8622.07
278.917	8638.24
278.985	8630.01
279.054	8629.72
279.122	8641.08
279.191	8637.8
279.259	8629.86
279.327	8604.31
279.396	8617.73
279.464	8611.96
279.532	8617.35
279.601	8611.09
279.669	8608.73
279.737	8620.23
279.806	8621.53
279.874	8623.75
279.942	8616.38
280.011	8609.99
280.079	8605.36
280.147	8608.2
280.215	8612.54
280.284	8611
280.352	8595.35
280.42	8594.82
280.488	8586.69
280.557	8574.8
280.625	8573.6
280.693	8579.57
280.761	8589.77
280.83	8571.67
280.898	8578.7
280.966	8559.69
281.034	8527.35
281.102	8510.89
281.171	8501.94
281.239	8509.69
281.307	8514.12
281.375	8501.46
281.443	8525.24
281.512	8525.91
281.58	8535.1
281.648	8521.39
281.716	8515.66
281.784	8512
281.852	8508.35
281.92	8505.46
281.989	8521.29
282.057	8505.46
282.125	8538.92
282.193	8527.75
282.261	8519.96
282.329	8515.29
282.397	8519.95
282.465	8531.5
282.533	8549.69
282.601	8543.24
282.67	8526.74
282.738	8515.76
282.806	8528.95
282.874	8520.48
282.942	8528.28
283.01	8529.57
283.078	8534.87
283.146	8533.52
283.214	8542.52
283.282	8547.04
283.35	8558.35
283.418	8545.31
283.486	8547.57
283.554	8514.55
283.622	8520.81
283.69	8527.16
283.758	8523.79
283.826	8527.35
283.894	8527.54
283.962	8537.65
284.03	8548.91
284.098	8547.95
284.165	8541.5
284.233	8538.61
284.301	8531.25
284.369	8520.28
284.437	8504.44
284.505	8501.99
284.573	8513.2
284.641	8503
284.709	8508.63
284.777	8499.97
284.845	8504.4
284.912	8511.18
284.98	8516.91
285.048	8513.92
285.116	8518.21
285.184	8528.55
285.252	8525.71
285.319	8518.59
285.387	8511.76
285.455	8498.72
285.523	8506.56
285.591	8507.19
285.659	8508.29
285.726	8511.71
285.794	8498.24
285.862	8500.02
285.93	8494.34
285.997	8491.89
286.065	8490.97
286.133	8481.54
286.201	8470.52
286.269	8459.74
286.336	8451.37
286.404	8442.95
286.472	8441.94
286.539	8422.74
286.607	8407.19
286.675	8414.36
286.743	8416.91
286.81	8410.51
286.878	8424.95
286.946	8418.55
287.013	8414.65
287.081	8413.98
287.149	8404.26
287.216	8424.04
287.284	8420.76
287.352	8422.06
287.419	8414.03
287.487	8423.56
287.555	8426.3
287.622	8428.08
287.69	8434.19
287.758	8444.2
287.825	8443.62
287.893	8436.84
287.96	8444.25
288.028	8455.55
288.096	8452.04
288.163	8458.87
288.231	8453
288.298	8449.01
288.366	8462.44
288.433	8460.94
288.501	8453.49
288.569	8459.12
288.636	8451.7
288.704	8466.33
288.771	8477.35
288.839	8471
288.906	8467.78
288.974	8476.01
289.041	8474.9
289.109	8465.23
289.176	8478.03
289.244	8481.16
289.311	8488.28
289.379	8499.88
289.446	8501.32
289.514	8504.5
289.581	8504.11
289.649	8503.53
289.716	8501.9
289.783	8491.41
289.851	8511.62
289.918	8507.53
289.986	8513.11
290.053	8514.12
290.121	8514.36
290.188	8517.1
290.255	8548.91
290.323	8539.63
290.39	8533.27
290.458	8539.82
290.525	8553.24
290.592	8541.31
290.66	8543.18
290.727	8544.63
290.794	8553.53
290.862	8555.5
290.929	8556.85
290.996	8551.99
291.064	8560.56
291.131	8574.9
291.198	8585.87
291.266	8581.2
291.333	8594.1
291.4	8598.53
291.468	8615.66
291.535	8606.81
291.602	8606.42
291.669	8596.22
291.737	8601.65
291.804	8605.17
291.871	8621.72
291.938	8631.54
292.006	8659.46
292.073	8667.88
292.14	8677.84
292.207	8671.54
292.275	8673.66
292.342	8681.21
292.409	8704.65
292.476	8729.2
292.543	8719.58
292.611	8720.44
292.678	8737.72
292.745	8757.26
292.812	8771.27
292.879	8767.42
292.946	8771.7
293.014	8785.32
293.081	8794.28
293.148	8809
293.215	8822.77
293.282	8819.26
293.349	8830.13
293.416	8818.82
293.484	8833.45
293.551	8843.8
293.618	8858.48
293.685	8885.63
293.752	8884.53
293.819	8890.16
293.886	8878.22
293.953	8891.6
294.02	8904.65
294.087	8914.76
294.154	8904.21
294.221	8919.52
294.288	8924.39
294.356	8944.89
294.423	8953.7
294.49	8950.86
294.557	8965.01
294.624	8952.69
294.691	8971.99
294.758	8964.15
294.825	8965.69
294.892	8959.05
294.959	8964
295.026	8971.75
295.093	8958.47
295.16	8961.74
295.226	8961.74
295.293	8982.34
295.36	8981.72
295.427	8994.43
295.494	8999.24
295.561	9008.82
295.628	9026.16
295.695	9037.81
295.762	9038.1
295.829	9042.67
295.896	9051.77
295.963	9060
296.03	9078.63
296.096	9084.65
296.163	9095
296.23	9113.06
296.297	9126.68
296.364	9121.58
296.431	9128.12
296.498	9130.82
296.564	9151.09
296.631	9156
296.698	9147.33
296.765	9166.97
296.832	9156.14
296.899	9146.9
296.965	9164.23
297.032	9143.43
297.099	9158.55
297.166	9170.97
297.233	9171.93
297.299	9168.47
297.366	9170.54
297.433	9171.5
297.5	9173.62
297.566	9183.2
297.633	9178.43
297.7	9180.45
297.767	9185.12
297.833	9193.26
297.9	9193.55
297.967	9181.47
298.033	9194.56
298.1	9220.32
298.167	9216.57
298.234	9227.64
298.3	9238.48
298.367	9238.38
298.434	9250.95
298.5	9246.03
298.567	9240.69
298.634	9237.42
298.7	9253.93
298.767	9253.59
298.834	9269.92
298.9	9269
298.967	9261.01
299.033	9274.54
299.1	9289.61
299.167	9300.2
299.233	9300.73
299.3	9319.27
299.366	9336.7
299.433	9343.92
299.5	9323.02
299.566	9324.61
299.633	9332.61
299.699	9344.93
299.766	9335.3
299.832	9336.94
299.899	9345.18
299.965	9358.13
300.032	9361.45
300.099	9368.34
300.165	9377.1
300.232	9371.18
300.298	9373.59
300.365	9386.54
300.431	9384.18
300.498	9370.98
300.564	9378.16
300.631	9387.36
300.697	9392.22
300.763	9391.55
300.83	9392.08
300.896	9404.93
300.963	9415.09
301.029	9415.67
301.096	9415.77
301.162	9437.92
301.229	9430.74
301.295	9421.21
301.361	9420.53
301.428	9422.46
301.494	9413.55
301.561	9418.51
301.627	9421.93
301.693	9422.6
301.76	9427.37
301.826	9422.65
301.892	9443.26
301.959	9454.1
302.025	9450.29
302.092	9446.87
302.158	9453.28
302.224	9451.93
302.291	9444.71
302.357	9444.52
302.423	9443.84
302.49	9439.6
302.556	9446.2
302.622	9445.96
302.688	9454.77
302.755	9471.2
302.821	9481.02
302.887	9491.32
302.954	9485.35
303.02	9494.07
303.086	9501.34
303.152	9498.98
303.219	9500.91
303.285	9498.16
303.351	9501.05
303.417	9504.71
303.483	9495.27
303.55	9485.79
303.616	9483.72
303.682	9483.76
303.748	9476.73
303.815	9482.37
303.881	9489.16
303.947	9473.31
304.013	9480.01
304.079	9471.68
304.145	9450.63
304.212	9441.15
304.278	9427.09
304.344	9421.02
304.41	9412.45
304.476	9401.95
304.542	9392.99
304.608	9391.98
304.674	9381.72
304.741	9374.88
304.807	9375.32
304.873	9387.89
304.939	9403.58
305.005	9386.68
305.071	9382.49
305.137	9380.23
305.203	9364.92
305.269	9361.88
305.335	9374.4
305.401	9375.13
305.467	9369.54
305.533	9378.84
305.599	9388.18
305.666	9398.1
305.732	9399.97
305.798	9402.24
305.864	9426.22
305.93	9432.58
305.996	9431.9
306.062	9428.43
306.128	9424.39
306.194	9407.05
306.259	9395.64
306.325	9389.19
306.391	9403.25
306.457	9412.45
306.523	9416.68
306.589	9439.61
306.655	9427.04
306.721	9409.12
306.787	9391.74
306.853	9406.57
306.919	9386.88
306.985	9378.26
307.051	9372.29
307.117	9366.32
307.183	9361.21
307.248	9338.77
307.314	9339.11
307.38	9339.88
307.446	9346.72
307.512	9334.1
307.578	9336.65
307.644	9337.04
307.709	9335.35
307.775	9326.25
307.841	9319.27
307.907	9316.52
307.973	9295.53
308.039	9292.49
308.104	9295.43
308.17	9294.32
308.236	9279.25
308.302	9285.8
308.368	9276.8
308.433	9277.37
308.499	9270.1
308.565	9264.9
308.631	9263.22
308.696	9241.55
308.762	9227.3
308.828	9219.11
308.894	9209.29
308.959	9195.62
309.025	9183.97
309.091	9178.91
309.156	9168.9
309.222	9172.89
309.288	9159.22
309.354	9140.88
309.419	9142.03
309.485	9129.03
309.551	9134.76
309.616	9122.68
309.682	9115.17
309.748	9109.58
309.813	9103.56
309.879	9094.08
309.945	9078.77
310.01	9071.26
310.076	9073.96
310.141	9070.25
310.207	9062.45
310.273	9058.94
310.338	9058.41
310.404	9047.62
310.469	9029.09
310.535	9029.66
310.601	9005.4
310.666	9009.54
310.732	9015.85
310.797	9004.24
310.863	8994.52
310.928	8984.17
310.994	8985.18
311.059	8979.93
311.125	8974.3
311.191	8976.61
311.256	8970.35
311.322	8976.03
311.387	8956.78
311.453	9169.14
311.518	9144.98
311.584	9139.63
311.649	9146.18
311.715	9141.08
311.78	9139.73
311.846	9136.7
311.911	9134.39
311.976	9133.57
312.042	9121.25
312.107	9107.82
312.173	9107.09
312.238	9105.84
312.304	9106.66
312.369	9100.93
312.434	9089.38
312.5	9086.49
312.565	9059.29
312.631	9067.96
312.696	9060.74
312.761	9062.76
312.827	8840.77
312.892	8876.82
312.958	8871.53
313.023	8863.06
313.088	8854.97
313.154	8843.32
313.219	8837.31
313.284	8826.38
313.35	8821.42
313.415	8815.02
313.48	8810.49
313.546	8801.97
313.611	8802.7
313.676	8785.37
313.741	8776.27
313.807	8783.35
313.872	8782.96
313.937	8790.33
314.003	8795.04
314.068	8795.38
314.133	8799.66
314.198	8798.08
314.264	8778.58
314.329	8772.99
314.394	8770.83
314.459	8771.55
314.525	8786.09
314.59	8778.91
314.655	8768.23
314.72	8774.78
314.785	8780.17
314.851	8773.67
314.916	8762.65
314.981	8749.41
315.046	8739.31
315.111	8729.87
315.176	8715.82
315.242	8720.97
315.307	8712.35
315.372	8688.96
315.437	8673.95
315.502	8661.53
315.567	8659.84
315.632	8644.63
315.698	8637.41
315.763	8627.69
315.828	8613.83
315.893	8605.79
315.958	8600.89
316.023	8598.33
316.088	8582.26
316.153	8556.9
316.218	8551.37
316.283	8531.69
316.348	8511.96
316.413	8513.35
316.479	8499.26
316.544	8470.49
316.609	8437.42
316.674	8398.94
316.739	8365.55
316.804	8336.4
316.869	8305.65
316.934	8267.88
316.999	8238.87
317.064	8188.41
317.129	8149.06
317.194	8116.35
317.259	8067.52
317.324	8019.95
317.389	7970.21
317.454	7928.7
317.518	7892.1
317.583	7859.78
317.648	7837.37
317.713	7805.19
317.778	7744.12
317.843	7711.56
317.908	7672.14
317.973	7628.28
318.038	7607.27
318.103	7568.29
318.168	7531.32
318.233	7496.41
318.297	7447.04
318.362	7403.68
318.427	7365.96
318.492	7332.07
318.557	7284.97
318.622	7257.29
318.687	7227.35
318.751	7186.94
318.816	7152
318.881	7115.24
318.946	7065.41
319.011	7017.79
319.075	6973.82
319.14	6941.64
319.205	6890.72
319.27	6855.75
319.335	6813.81
319.399	6771.97
319.464	6746.47
319.529	6696.57
319.594	6658.87
319.658	6628.66
319.723	6590.3
319.788	6562.07
319.853	6505.98
319.917	6473.53
319.982	6418.61
320.047	6381.64
320.112	6351.59
320.176	6300.62
320.241	6268.64
320.306	6235.72
320.37	6193.44
320.435	6159.51
320.5	6125.39
320.564	6089.93
320.629	6046.52
320.694	6012.5
320.758	5964.62
320.823	5916.02
320.888	5888.25
320.952	5837.27
321.017	5793.33
321.082	5749.74
321.146	5711.47
321.211	5682.17
321.275	5641.76
321.34	5604.79
321.405	5559.59
321.469	5516.49
321.534	5476.18
321.598	5419.81
321.663	5383.57
321.727	5350.93
321.792	5306.07
321.857	5258.1
321.921	5218.29
321.986	5175.56
322.05	5120
322.115	5089.05
322.179	5048.53
322.244	4991.88
322.308	4957.26
322.373	4912.25
322.437	4873.56
322.502	4842.67
322.566	4796.37
322.631	4757.4
322.695	4715.19
322.76	4667.71
322.824	4628.18
322.889	4581.34
322.953	4540.11
323.018	4475.56
323.082	4413.09
323.146	4362.58
323.211	4311.89
323.275	4268.6
323.34	4222.09
323.404	4187.76
323.468	4136.35
323.533	4091.27
323.597	4045.74
323.662	3995.11
323.726	3955.21
323.79	3907.66
323.855	3848.62
323.919	3803.23
323.983	3759.7
324.048	3690.9
324.112	3812.19
324.177	3683.73
324.241	3492.56
324.305	3301.67
324.37	3117.8
324.434	2939.9
324.498	2895.85
324.562	2851.44
324.627	2791.18
324.691	2740.05
324.755	2675.14
324.82	2604.24
324.884	2528.74
324.948	2460.59
325.012	2370.05
325.077	2259.96
