Data from 20250702_background_MAYP1162681_11-31-52-333.txt Node
Date: Wed Jul 02 11:31:52 BST 2025
User: adleo
Spectrometer: MAYP116268
Trigger mode: 0
Integration Time (sec): 1.000000E0
Scans to average: 1
Electric dark correction enabled: true
Nonlinearity correction enabled: true
Boxcar width: 10
XAxis mode: Wavelengths
Number of Pixels in Spectrum: 2068
>>>>>Begin Spectral Data<<<<<
179.565	1021.43
179.642	1068.49
179.718	1105.17
179.795	1138.53
179.871	1167.57
179.948	1182.27
180.024	1199.16
180.101	1219.16
180.177	1228.56
180.254	1246.74
180.33	1266.85
180.407	1306.61
180.483	1387.28
180.56	1461.82
180.636	1534.41
180.712	1525.48
180.789	1533.17
180.865	1544.66
180.942	1553.45
181.018	1560.95
181.095	1570.07
181.171	1578.57
181.248	1579.09
181.324	1592.11
181.4	1598.29
181.477	1607.36
181.553	1621.09
181.63	1637.71
181.706	1650.45
181.782	1659.14
181.859	1659.04
181.935	1662.65
182.011	1656.62
182.088	1671.82
182.164	1691.88
182.24	1700.95
182.317	1706.13
182.393	1703.8
182.469	1715.87
182.546	1730.31
182.622	1734.16
182.698	1730.93
182.775	1736.44
182.851	1747.7
182.927	1740.86
183.003	1735.78
183.08	1729.32
183.156	1735.78
183.232	1733.74
183.308	1725.23
183.385	1732.93
183.461	1749.42
183.537	1750.6
183.613	1764.05
183.69	1754.69
183.766	1740.62
183.842	1746.42
183.918	1750.55
183.995	1762.52
184.071	1765.38
184.147	1759.01
184.223	1750.79
184.299	1763.86
184.375	1755.92
184.452	1763.53
184.528	1812.92
184.604	1819.66
184.68	1829.83
184.756	1835.39
184.832	1838.96
184.908	1841.62
184.985	1841.67
185.061	1826.27
185.137	1830.93
185.213	1821.9
185.289	1824.27
185.365	1820.66
185.441	1818.81
185.517	1833.83
185.593	1829.55
185.669	1828.94
185.745	1838.3
185.822	1851.32
185.898	1841.81
185.974	1850.79
186.05	1842.33
186.126	1806.35
186.202	1803.07
186.278	1797.46
186.354	1786.58
186.43	1794.56
186.506	1793.09
186.582	1793.09
186.658	1798.17
186.734	1784.35
186.81	1784.2
186.886	1788.24
186.962	1798.22
187.038	1796.94
187.114	1789.43
187.19	1796.13
187.266	1783.68
187.341	1785.1
187.417	1778.83
187.493	1780.35
187.569	1781.4
187.645	1775.98
187.721	1765.81
187.797	1770.37
187.873	1778.93
187.949	1776.69
188.025	1768.8
188.101	1769.99
188.176	1773.27
188.252	1770.42
188.328	1775.17
188.404	1774.79
188.48	1768.28
188.556	1762
188.632	1764.28
188.707	1763.43
188.783	1762.53
188.859	1759.77
188.935	1748.89
189.011	1755.63
189.086	1747.46
189.162	1740.43
189.238	1738.01
189.314	1737.91
189.39	1734.87
189.465	1726.79
189.541	1742.09
189.617	1730.74
189.693	1727.93
189.768	1729.88
189.844	1749.28
189.92	1743.48
189.996	1751.61
190.071	1762.68
190.147	1761.97
190.223	1768.58
190.298	1762.59
190.374	1750.85
190.45	1764.15
190.526	1768.05
190.601	1765.48
190.677	1768.48
190.753	1789.87
190.828	1794.95
190.904	1807.41
190.98	1821.33
191.055	1831.36
191.131	1821.29
191.207	1838.49
191.282	1846.14
191.358	1841.72
191.433	1830.07
191.509	1841.71
191.585	1838.57
191.66	1839.05
191.736	1844.75
191.811	1837.29
191.887	1850.74
191.963	1872.18
192.038	1876.79
192.114	1880.12
192.189	1882.35
192.265	1879.74
192.34	1862.62
192.416	1859.53
192.491	1853.45
192.567	1856.02
192.642	1856.97
192.718	1857.39
192.793	1845.75
192.869	1842.57
192.944	1843.28
193.02	1851.07
193.095	1855.49
193.171	1861.29
193.246	1860.2
193.322	1858.49
193.397	1859.53
193.473	1846.13
193.548	1831.06
193.624	1832.86
193.699	1831.34
193.775	1842.56
193.85	1844.65
193.925	1853.26
194.001	1854.45
194.076	1850.98
194.152	1843.65
194.227	1836.1
194.302	1826.4
194.378	1827.64
194.453	1825.22
194.529	1835.25
194.604	1822.84
194.679	1816.28
194.755	1801.69
194.83	1812.39
194.905	1810.92
194.981	1816.67
195.056	1811.54
195.131	1816.91
195.207	1817.95
195.282	1809.97
195.357	1793.52
195.433	1805.55
195.508	1796.42
195.583	1803.74
195.659	1815.05
195.734	1819.62
195.809	1819.24
195.884	1828.98
195.96	1832.54
196.035	1846.14
196.11	1842.95
196.185	1853.36
196.261	1856.88
196.336	1883.5
196.411	1870.89
196.486	1877.93
196.561	1871.65
196.637	1878.45
196.712	1892.67
196.787	1894.33
196.862	1907.36
196.937	1919.38
197.013	1925.14
197.088	1932.65
197.163	1948.34
197.238	1963.95
197.313	1963.99
197.388	1976.12
197.464	2000.51
197.539	2010.4
197.614	2004.98
197.689	2015.49
197.764	2031.95
197.839	2049.31
197.914	2044.65
197.989	2064.53
198.065	2074.42
198.14	2118.62
198.215	2144.36
198.29	2154.78
198.365	2166.48
198.44	2177.66
198.515	2199.74
198.59	2213.63
198.665	2236.99
198.74	2246.6
198.815	2246.7
198.89	2264.2
198.965	2294
199.04	2293.81
199.115	2307.75
199.19	2345.68
199.265	2347.67
199.34	2353.15
199.415	2380.91
199.49	2399.37
199.565	2408.6
199.64	2429.59
199.715	2426.93
199.79	2429.73
199.865	2433.97
199.94	2431.45
200.015	2457.59
200.09	2461.21
200.165	2466.49
200.24	2470.78
200.315	2505.37
200.39	2517.56
200.464	2522.99
200.539	2521.08
200.614	2534.75
200.689	2555.27
200.764	2560.04
200.839	2577.79
200.914	2584.27
200.989	2575.12
201.063	2586.31
201.138	2571.75
201.213	2574.23
201.288	2557.27
201.363	2564.89
201.438	2563.99
201.512	2579.22
201.587	2566.22
201.662	2573.27
201.737	2586.46
201.812	2593.75
201.886	2566.3
201.961	2575.49
202.036	2567.78
202.111	2565.87
202.186	2539.65
202.26	2525.5
202.335	2508.17
202.41	2500.98
202.485	2487.55
202.559	2470.23
202.634	2447.71
202.709	2456.37
202.784	2437.09
202.858	2436.52
202.933	2420
203.008	2411.86
203.082	2392.53
203.157	2389.58
203.232	2351.56
203.306	2329.7
203.381	2304.81
203.456	2281.72
203.53	2260.15
203.605	2240.22
203.68	2219.23
203.754	2212.57
203.829	2196.86
203.904	2178.78
203.978	2167.6
204.053	2169.17
204.127	2158.85
204.202	2159.99
204.277	2142.49
204.351	2137.82
204.426	2134.3
204.5	2127.69
204.575	2102.34
204.65	2113.81
204.724	2107.1
204.799	2112.33
204.873	2110.52
204.948	2107.9
205.022	2101.63
205.097	2094.39
205.171	2108.42
205.246	2113.75
205.32	2113.94
205.395	2115.13
205.469	2105.48
205.544	2111.29
205.618	2091.83
205.693	2105.44
205.767	2091.69
205.842	2110.48
205.916	2102.78
205.991	2094.64
206.065	2102.78
206.14	2114.66
206.214	2109.33
206.289	2103.05
206.363	2115.28
206.438	2117.37
206.512	2124.74
206.586	2139.49
206.661	2148.29
206.735	2127.9
206.81	2130.09
206.884	2142.93
206.958	2132.7
207.033	2148.63
207.107	2154.25
207.181	2185.17
207.256	2176.8
207.33	2192.69
207.405	2204.21
207.479	2223.28
207.553	2229.04
207.628	2210.78
207.702	2223.67
207.776	2218.1
207.851	2221.95
207.925	2233.28
207.999	2229.67
208.073	2227.43
208.148	2229.57
208.222	2219.34
208.296	2249.26
208.371	2261.68
208.445	2273.96
208.519	2296.37
208.593	2308.03
208.668	2304.93
208.742	2309.17
208.816	2312.12
208.89	2324.97
208.965	2322.4
209.039	2328.88
209.113	2341.82
209.187	2361.56
209.261	2356.42
209.336	2376.27
209.41	2391.22
209.484	2391.31
209.558	2411.17
209.632	2421.3
209.707	2431.3
209.781	2449.72
209.855	2462.39
209.929	2479.83
210.003	2483.35
210.077	2486.3
210.151	2528.77
210.226	2558.97
210.3	2581.03
210.374	2600.65
210.448	2606.6
210.522	2616.6
210.596	2625.18
210.67	2636.37
210.744	2677.34
210.818	2705.15
210.892	2721.54
210.966	2718.16
211.041	2734.12
211.115	2730.45
211.189	2754.65
211.263	2770.37
211.337	2775.04
211.411	2789.19
211.485	2781.28
211.559	2792.09
211.633	2791.57
211.707	2763.48
211.781	2767.25
211.855	2735.42
211.929	2730.04
212.003	2709.66
212.077	2720.44
212.151	2727.68
212.225	2732.25
212.299	2720.19
212.373	2710.8
212.447	2702.13
212.52	2725.33
212.594	2727.72
212.668	2735.72
212.742	2721.38
212.816	2713.7
212.89	2707.61
212.964	2700.84
213.038	2704.75
213.112	2714.56
213.186	2726.52
213.26	2703.71
213.333	2664.23
213.407	2668.41
213.481	2666.46
213.555	2675.55
213.629	2660.02
213.703	2647.82
213.777	2642.58
213.85	2622.05
213.924	2647.64
213.998	2648.35
214.072	2640.49
214.146	2622.44
214.219	2617.29
214.293	2606.43
214.367	2601.96
214.441	2608.77
214.515	2596.29
214.588	2569.81
214.662	2532.71
214.736	2508.23
214.81	2512.8
214.883	2515.47
214.957	2498.67
215.031	2480.63
215.105	2455.23
215.178	2436.14
215.252	2423
215.326	2397.43
215.4	2372.41
215.473	2321.54
215.547	2297.26
215.621	2277.69
215.694	2275.5
215.768	2248.18
215.842	2230.95
215.915	2211.72
215.989	2182.12
216.063	2165.12
216.136	2158.03
216.21	2150.52
216.284	2153.37
216.357	2140.43
216.431	2126.54
216.504	2126.49
216.578	2139.91
216.652	2144.62
216.725	2136.39
216.799	2135.44
216.873	2127.73
216.946	2130.92
217.02	2118.8
217.093	2109.19
217.167	2082.07
217.24	2060.09
217.314	2050.21
217.387	2039.32
217.461	2026.53
217.535	2024.72
217.608	2008.83
217.682	1998.8
217.755	2002.13
217.829	1984.39
217.902	1981.96
217.976	1977.4
218.049	1962.61
218.123	1944.1
218.196	1939.07
218.27	1927.94
218.343	1909.25
218.417	1906.68
218.49	1899.03
218.563	1912.1
218.637	1910.72
218.71	1928.5
218.784	1934.12
218.857	1938.96
218.931	1940.91
219.004	1941.06
219.077	1945.72
219.151	1947.76
219.224	1946.72
219.298	1943.53
219.371	1954.7
219.444	1941.78
219.518	1940.82
219.591	1941.92
219.665	1963.66
219.738	1965.37
219.811	1959.53
219.885	1969.84
219.958	1976.79
220.031	1976.69
220.105	1978.55
220.178	1978.02
220.251	1969.32
220.325	1974.27
220.398	1979.92
220.471	1982.78
220.544	1990.62
220.618	1983.82
220.691	1985.25
220.764	1987.77
220.838	1991.1
220.911	1986.77
220.984	2003.36
221.057	2011.2
221.131	2017.43
221.204	1993.88
221.277	2010.77
221.35	2040.63
221.424	2037.5
221.497	2041.68
221.57	2046.44
221.643	2053.9
221.716	2065.7
221.79	2065.03
221.863	2064.23
221.936	2063.18
222.009	2064.7
222.082	2068.08
222.155	2068.6
222.229	2084.25
222.302	2087.67
222.375	2085.96
222.448	2093.57
222.521	2096.19
222.594	2093.1
222.667	2083.88
222.74	2094.24
222.814	2092.01
222.887	2086.58
222.96	2096.43
223.033	2102.28
223.106	2107.03
223.179	2112.08
223.252	2112.17
223.325	2118.55
223.398	2118.31
223.471	2123.54
223.544	2128.34
223.617	2133.39
223.69	2138.57
223.763	2130.67
223.837	2134.67
223.91	2141.61
223.983	2124.26
224.056	2114.37
224.129	2119.83
224.202	2131.43
224.275	2125.58
224.348	2115.17
224.42	2105.42
224.493	2088.72
224.566	2081.11
224.639	2084.3
224.712	2074.83
224.785	2066.12
224.858	2058.61
224.931	2053.09
225.004	2041.15
225.077	2038.3
225.15	2012.48
225.223	2007.11
225.296	2025.05
225.369	2007.74
225.442	1995.71
225.514	1999.23
225.587	2003.51
225.66	2004.36
225.733	2006.55
225.806	2008.45
225.879	2003.08
225.952	1990.91
226.025	2001.47
226.097	2012.32
226.17	2004.47
226.243	1983.55
226.316	1984.12
226.389	1985.5
226.461	1989.07
226.534	1991.4
226.607	1986.98
226.68	2005.09
226.753	2003.61
226.825	1975.92
226.898	1989.95
226.971	1989.62
227.044	1993.8
227.117	1991.42
227.189	1991.19
227.262	1993.42
227.335	1994.61
227.407	1989.43
227.48	1995.23
227.553	1995.56
227.626	1985.04
227.698	1985
227.771	1995.26
227.844	1985.56
227.916	1986.66
227.989	1974.53
228.062	1966.59
228.134	1982.86
228.207	1981.15
228.28	1977.49
228.352	1979.01
228.425	1974.73
228.498	1981.34
228.57	1969.26
228.643	1979.35
228.716	1976.35
228.788	1967.31
228.861	1960.04
228.934	1972.68
229.006	1972.59
229.079	1968.17
229.151	1961.93
229.224	1949.96
229.296	1949.96
229.369	1971.74
229.442	1980.73
229.514	1972.04
229.587	1984.4
229.659	1964.76
229.732	1964.04
229.804	1968.89
229.877	1990.25
229.949	1999.29
230.022	2013.56
230.094	2016.03
230.167	2014.37
230.239	2000.53
230.312	2000.11
230.384	2018.13
230.457	2019.47
230.529	2021.37
230.602	2023.27
230.674	2027.31
230.747	2037.29
230.819	2047.56
230.892	2018.03
230.964	2018.46
231.037	2026.06
231.109	2024.54
231.181	2034
231.254	2022.83
231.326	2019.03
231.399	2007.37
231.471	1998.05
231.544	1973.74
231.616	1983.53
231.688	1982.68
231.761	1979.54
231.833	1973.79
231.905	1951.82
231.978	1947.87
232.05	1939.22
232.122	1936.75
232.195	1925.72
232.267	1933.8
232.339	1923.53
232.412	1938.64
232.484	1928.18
232.556	1918.15
232.629	1932.42
232.701	1936.85
232.773	1938.56
232.846	1935.52
232.918	1936.04
232.99	1937.23
233.062	1947.83
233.135	1946.36
233.207	1932.71
233.279	1941.36
233.351	1946.78
233.424	1945.45
233.496	1935.94
233.568	1959.43
233.64	1947.69
233.713	1951.44
233.785	1948.69
233.857	1949.3
233.929	1934.47
234.001	1950.27
234.074	1966.85
234.146	1947.64
234.218	1940.22
234.29	1940.27
234.362	1935.66
234.434	1922.53
234.507	1914.07
234.579	1898.15
234.651	1892.25
234.723	1900.57
234.795	1904.52
234.867	1902.33
234.939	1917.74
235.012	1921.2
235.084	1915.78
235.156	1923.53
235.228	1915.45
235.3	1906.7
235.372	1910.27
235.444	1924.1
235.516	1899.98
235.588	1896.75
235.66	1897.65
235.732	1892
235.804	1939.36
235.876	1944.82
235.948	1959.18
236.02	1959.47
236.092	1960.47
236.164	1961.13
236.236	1957.04
236.308	1955.24
236.38	1959.89
236.452	1951.9
236.524	1955.18
236.596	1973.46
236.668	1980.4
236.74	1984.78
236.812	1993.62
236.884	2000.13
236.956	2000.23
237.028	1997.09
237.1	1993.05
237.172	2008.89
237.244	2028.2
237.316	1992.92
237.388	1989.83
237.46	1981.31
237.532	1995.34
237.604	1990.69
237.675	2008.38
237.747	2019.5
237.819	2012.95
237.891	2011.9
237.963	2005.01
238.035	2001.92
238.107	1968.19
238.178	1980.89
238.25	1981.51
238.322	2000.97
238.394	1986.23
238.466	1983.9
238.538	1993.36
238.609	2001.77
238.681	1986.31
238.753	1976.52
238.825	1977.9
238.897	1981.89
238.968	2003.87
239.04	1993.88
239.112	2020.32
239.184	2005.48
239.255	2000.53
239.327	2005.76
239.399	2008.66
239.471	2018.83
239.542	2022.54
239.614	2038.42
239.686	2015.83
239.758	2028.62
239.829	2013.82
239.901	2029.89
239.973	2032.37
240.044	2037.69
240.116	2036.12
240.188	2037.31
240.259	2038.5
240.331	2037.03
240.403	2045.01
240.474	2027.17
240.546	2024.03
240.618	2007.34
240.689	2008.1
240.761	2012.05
240.833	2029.88
240.904	2027.46
240.976	2024.65
241.048	2028.46
241.119	2035.45
241.191	2046.01
241.262	2059.47
241.334	2061.33
241.405	2057.14
241.477	2053.72
241.549	2054.01
241.62	2060.81
241.692	2068.13
241.763	2078.64
241.835	2079.55
241.906	2084.78
241.978	2074.84
242.049	2091.11
242.121	2105.8
242.192	2121.64
242.264	2112.94
242.335	2097.19
242.407	2105.56
242.478	2105.99
242.55	2109.56
242.621	2102.18
242.693	2095.53
242.764	2091.43
242.836	2086.72
242.907	2096.48
242.979	2104.28
243.05	2107.75
243.122	2109.94
243.193	2110.79
243.264	2091.81
243.336	2094
243.407	2101.9
243.479	2121.97
243.55	2124.35
243.622	2127.3
243.693	2123.45
243.764	2138
243.836	2128.88
243.907	2127.4
243.978	2125.17
244.05	2130.54
244.121	2117.89
244.192	2131.07
244.264	2114.61
244.335	2116.13
244.407	2097.91
244.478	2098.96
244.549	2098.15
244.62	2086.36
244.692	2081.7
244.763	2093.2
244.834	2085.93
244.906	2073.65
244.977	2077.41
245.048	2087.74
245.119	2079.51
245.191	2069.76
245.262	2049.26
245.333	2069.66
245.405	2070.71
245.476	2079.65
245.547	2082.36
245.618	2094.44
245.689	2093.06
245.761	2100.05
245.832	2099.05
245.903	2109.13
245.974	2112.89
246.045	2110.84
246.117	2129.06
246.188	2119.89
246.259	2111.37
246.33	2112.75
246.401	2111.28
246.473	2097.29
246.544	2090.34
246.615	2099.05
246.686	2098
246.757	2114.6
246.828	2101.9
246.899	2112.03
246.97	2095.53
247.042	2085.35
247.113	2090.35
247.184	2107.72
247.255	2105.68
247.326	2109.67
247.397	2108.58
247.468	2109.39
247.539	2111.2
247.61	2097.69
247.681	2107.05
247.752	2118.61
247.823	2110.86
247.894	2114.14
247.965	2106.1
248.037	2101.35
248.108	2087.31
248.179	2090.36
248.25	2086.74
248.321	2095.11
248.392	2087.21
248.463	2111.75
248.534	2112.46
248.605	2119.13
248.675	2116.79
248.746	2121.12
248.817	2127.5
248.888	2131.16
248.959	2115.13
249.03	2118.75
249.101	2120.18
249.172	2119.6
249.243	2099.21
249.314	2117.18
249.385	2116.95
249.456	2122.89
249.527	2118.56
249.598	2125.69
249.669	2123.13
249.739	2125.51
249.81	2130.64
249.881	2115
249.952	2112.52
250.023	2111
250.094	2095.2
250.165	2082.35
250.235	2079.78
250.306	2078.97
250.377	2069.08
250.448	2076.5
250.519	2059.14
250.59	2074.42
250.66	2069.19
250.731	2090.39
250.802	2087.06
250.873	2091.15
250.944	2095.96
251.014	2094.05
251.085	2114.38
251.156	2120.99
251.227	2132.36
251.297	2144.02
251.368	2159.28
251.439	2165.66
251.51	2176.13
251.58	2169.61
251.651	2164.71
251.722	2177.23
251.792	2159.63
251.863	2158.87
251.934	2174.28
252.005	2203.63
252.075	2202.49
252.146	2216.05
252.217	2223.47
252.287	2235.03
252.358	2235.08
252.429	2252.64
252.499	2248.7
252.57	2248.08
252.641	2258.97
252.711	2255.55
252.782	2239.65
252.852	2257.88
252.923	2256.69
252.994	2258.12
253.064	2270.72
253.135	2266.01
253.205	2256.02
253.276	2277
253.347	2289.7
253.417	2280.18
253.488	2270.71
253.558	2262.29
253.629	2259.81
253.699	2261.72
253.77	2261.86
253.841	2257.82
253.911	2257.53
253.982	2261.48
254.052	2268.1
254.123	2264.29
254.193	2267.05
254.264	2298.38
254.334	2285.43
254.405	2275.24
254.475	2266.68
254.546	2264.21
254.616	2277.43
254.687	2283.86
254.757	2282.95
254.827	2283.19
254.898	2287.57
254.968	2290.99
255.039	2286.81
255.109	2294.04
255.18	2283.95
255.25	2263.49
255.321	2272.48
255.391	2258.06
255.461	2274.38
255.532	2249.77
255.602	2248.49
255.673	2229.55
255.743	2217.69
255.813	2196.62
255.884	2206.23
255.954	2210.18
256.024	2226.22
256.095	2222.75
256.165	2210
256.235	2215.61
256.306	2208
256.376	2213.66
256.446	2217.19
256.517	2220.47
256.587	2227.23
256.657	2228.94
256.728	2234.98
256.798	2232.74
256.868	2225.85
256.938	2214.71
257.009	2224.18
257.079	2226.61
257.149	2249.59
257.219	2228.22
257.29	2234.59
257.36	2215.13
257.43	2223.94
257.5	2202.62
257.571	2201.39
257.641	2207.19
257.711	2194.67
257.781	2198.48
257.852	2200.9
257.922	2182.02
257.992	2183.44
258.062	2179.3
258.132	2186.82
258.202	2180.31
258.273	2178.07
258.343	2196.48
258.413	2193.53
258.483	2188.82
258.553	2177.6
258.623	2167.51
258.693	2174.74
258.764	2189.48
258.834	2207.46
258.904	2205.94
258.974	2199.43
259.044	2193.67
259.114	2196.29
259.184	2198.43
259.254	2194.86
259.324	2176.35
259.394	2184.53
259.464	2197.53
259.535	2193.81
259.605	2185.34
259.675	2179.07
259.745	2183.68
259.815	2171.17
259.885	2164.79
259.955	2191.32
260.025	2182.66
260.095	2181.47
260.165	2184.42
260.235	2191.28
260.305	2177.1
260.375	2164.73
260.445	2183.52
260.515	2197.36
260.585	2207.12
260.655	2205.46
260.725	2217.92
260.795	2225.63
260.865	2241.09
260.934	2231.29
261.004	2234.05
261.074	2233.72
261.144	2249.08
261.214	2254.84
261.284	2253.98
261.354	2262.3
261.424	2249.58
261.494	2266.7
261.564	2264.28
261.634	2267.85
261.703	2252.67
261.773	2259.42
261.843	2266.22
261.913	2263.08
261.983	2247.62
262.053	2251
262.123	2247.67
262.192	2231.78
262.262	2238.3
262.332	2221.59
262.402	2223.88
262.472	2227.88
262.541	2208.57
262.611	2216.99
262.681	2207.57
262.751	2215.09
262.821	2211.62
262.89	2196.72
262.96	2199.48
263.03	2217.23
263.1	2218.42
263.169	2218.28
263.239	2223.08
263.309	2240.03
263.379	2243.41
263.448	2243.22
263.518	2243.93
263.588	2242.17
263.657	2258.97
263.727	2265.49
263.797	2264.92
263.867	2262.63
263.936	2245.74
264.006	2259.06
264.076	2249.4
264.145	2246.35
264.215	2237.07
264.285	2244.49
264.354	2229.61
264.424	2223.57
264.494	2207.14
264.563	2198.29
264.633	2214.33
264.702	2214.81
264.772	2192.15
264.842	2185.73
264.911	2188.53
264.981	2172.4
265.05	2174.82
265.12	2167.83
265.19	2164.4
265.259	2170.11
265.329	2174.06
265.398	2177.06
265.468	2196.8
265.537	2194.62
265.607	2194.43
265.676	2200.23
265.746	2200.42
265.815	2212.64
265.885	2207.17
265.955	2195.66
266.024	2192.95
266.094	2173.06
266.163	2182.1
266.232	2195.43
266.302	2193.81
266.371	2193.53
266.441	2194.19
266.51	2197.47
266.58	2193.67
266.649	2185.34
266.719	2196.1
266.788	2198.43
266.858	2213.04
266.927	2189.68
266.996	2190.58
267.066	2195.62
267.135	2183.73
267.205	2188.97
267.274	2185.3
267.343	2195.63
267.413	2195.1
267.482	2206.86
267.552	2215.42
267.621	2198.81
267.69	2180.54
267.76	2182.54
267.829	2186.11
267.898	2186.44
267.968	2177.4
268.037	2179.83
268.106	2185.63
268.176	2168.31
268.245	2162.65
268.314	2149.47
268.384	2157.46
268.453	2158.31
268.522	2160.41
268.592	2172.63
268.661	2163.49
268.73	2168.25
268.799	2158.64
268.869	2176.1
268.938	2157.35
269.007	2148.41
269.076	2145.7
269.146	2154.98
269.215	2154.36
269.284	2168.35
269.353	2162.12
269.422	2160.17
269.492	2154.27
269.561	2126.07
269.63	2129.78
269.699	2121.83
269.768	2121.69
269.838	2122.55
269.907	2125.21
269.976	2109.37
270.045	2086.07
270.114	2088.26
270.183	2080.32
270.253	2081.93
270.322	2062.62
270.391	2062.53
270.46	2074.9
270.529	2084.98
270.598	2086.93
270.667	2083.7
270.736	2068.14
270.806	2066.95
270.875	2073.56
270.944	2069.04
271.013	2098.53
271.082	2098.67
271.151	2103.38
271.22	2088.83
271.289	2085.4
271.358	2081.41
271.427	2088.07
271.496	2088.45
271.565	2082.83
271.634	2084.5
271.703	2110.53
271.772	2118.28
271.841	2115.1
271.91	2099.97
271.979	2093.64
272.048	2079.75
272.117	2087.27
272.186	2079.61
272.255	2086.42
272.324	2090.7
272.393	2090.98
272.462	2079.32
272.531	2075.85
272.6	2070.19
272.669	2079.6
272.738	2074.66
272.807	2073.8
272.876	2056.92
272.945	2087.22
273.013	2094.26
273.082	2101.06
273.151	2067.42
273.22	2069.65
273.289	2067.42
273.358	2082.26
273.427	2077.93
273.496	2084.5
273.564	2082.21
273.633	2089.35
273.702	2079.31
273.771	2072.22
273.84	2075.12
273.909	2077.64
273.977	2077.93
274.046	2073.08
274.115	2079.88
274.184	2069.85
274.253	2065.24
274.322	2077.5
274.39	2054.52
274.459	2042.73
274.528	2022.42
274.597	2021.14
274.665	2022.05
274.734	2032.13
274.803	2024.75
274.872	2021.14
274.94	2009.87
275.009	2059.98
275.078	2050.05
275.147	2049.24
275.215	2050.28
275.284	2056.42
275.353	2048.71
275.421	2033.69
275.49	2047.01
275.559	2039.54
275.627	2036.93
275.696	2035.5
275.765	2038.35
275.833	2031.7
275.902	2034.27
275.971	2047.82
276.039	2064.27
276.108	2069.12
276.177	2067.98
276.245	2060.99
276.314	2061.32
276.383	2068.84
276.451	2013.92
276.52	2017.86
276.588	2031.04
276.657	2037.08
276.725	2028.37
276.794	2028.61
276.863	2039.55
276.931	2024.37
277	2032.37
277.068	2042.82
277.137	2056.38
277.205	2054.9
277.274	2071.31
277.342	2079.68
277.411	2064.23
277.48	2055.57
277.548	2045.11
277.617	2049.34
277.685	2044.82
277.754	2049.82
277.822	2042.5
277.89	2059.1
277.959	2054.44
278.027	2038.18
278.096	2026.29
278.164	2052.46
278.233	2049.37
278.301	2039.86
278.37	2045.56
278.438	2035.38
278.507	2038.86
278.575	2021.54
278.643	2019.31
278.712	2005
278.78	1993.06
278.849	2003.23
278.917	2005.18
278.985	2003.56
279.054	2003.75
279.122	2014.45
279.191	2012.6
279.259	2012.17
279.327	1989.24
279.396	2004.7
279.464	2001.84
279.532	2010.07
279.601	2006.64
279.669	2004.93
279.737	2017.15
279.806	2019.29
279.874	2025.33
279.942	2023.38
280.011	2018.2
280.079	2026.14
280.147	2044.12
280.215	2048.73
280.284	2045.07
280.352	2035.51
280.42	2041.89
280.488	2034.18
280.557	2027.62
280.625	2029.76
280.693	2030.99
280.761	2034.8
280.83	2018.58
280.898	2031.56
280.966	2015.77
281.034	1985.24
281.102	1972.26
281.171	1966.94
281.239	1974.79
281.307	1968.03
281.375	1956.44
281.443	1976.07
281.512	1969.8
281.58	1971.46
281.648	1956.3
281.716	1955.3
281.784	1955.49
281.852	1948.02
281.92	1945.69
281.989	1952.16
282.057	1937.71
282.125	1970.68
282.193	1966.92
282.261	1966.83
282.329	1962.12
282.397	1964.97
282.465	1967.4
282.533	1982.03
282.601	1974.24
282.67	1951.32
282.738	1945.37
282.806	1957.16
282.874	1946.75
282.942	1948.7
283.01	1944.65
283.078	1951.78
283.146	1946.22
283.214	1955.4
283.282	1958.16
283.35	1969
283.418	1964.05
283.486	1968.14
283.554	1933.98
283.622	1935.83
283.69	1934.79
283.758	1928.46
283.826	1934.5
283.894	1941.44
283.962	1956.09
284.03	1965.55
284.098	1967.79
284.165	1961.7
284.233	1959.38
284.301	1954.67
284.369	1948.15
284.437	1937.69
284.505	1933.94
284.573	1947.96
284.641	1937.21
284.709	1940.16
284.777	1924.99
284.845	1929.42
284.912	1929.99
284.98	1935.02
285.048	1927.28
285.116	1931.32
285.184	1940.35
285.252	1935.41
285.319	1922.62
285.387	1914.77
285.455	1899.75
285.523	1903.22
285.591	1901.84
285.659	1903.17
285.726	1910.97
285.794	1897.24
285.862	1898.52
285.93	1900.28
285.997	1899.38
286.065	1894.1
286.133	1891.77
286.201	1891.1
286.269	1880.69
286.336	1879.31
286.404	1871.52
286.472	1883.07
286.539	1866.48
286.607	1855.79
286.675	1858.35
286.743	1868.19
286.81	1863.1
286.878	1875.37
286.946	1873.42
287.013	1876.13
287.081	1875.51
287.149	1861.77
287.216	1880.07
287.284	1872.37
287.352	1870.32
287.419	1864.81
287.487	1877.69
287.555	1878.17
287.622	1874.79
287.69	1878.93
287.758	1885.92
287.825	1882.64
287.893	1869.18
287.96	1872.79
288.028	1877.83
288.096	1877.26
288.163	1876.69
288.231	1865.47
288.298	1862.72
288.366	1871.51
288.433	1866.81
288.501	1857.83
288.569	1863.58
288.636	1854.16
288.704	1862.53
288.771	1865.1
288.839	1855.02
288.906	1846.46
288.974	1851.41
289.041	1847.09
289.109	1837.34
289.176	1842.05
289.244	1841.48
289.311	1850.89
289.379	1855.83
289.446	1857.35
289.514	1855.5
289.581	1850.79
289.649	1850.84
289.716	1848.47
289.783	1837.48
289.851	1851.5
289.918	1845.61
289.986	1847.08
290.053	1850.74
290.121	1845.04
290.188	1842.57
290.255	1863.2
290.323	1853.46
290.39	1843.42
290.458	1846.94
290.525	1852.12
290.592	1840.99
290.66	1842.13
290.727	1830.49
290.794	1836.15
290.862	1829.63
290.929	1825.88
290.996	1819.84
291.064	1821.51
291.131	1826.12
291.198	1829.59
291.266	1821.6
291.333	1819.7
291.4	1818.09
291.468	1824.79
291.535	1816.28
291.602	1815.43
291.669	1803.02
291.737	1805.16
291.804	1800.21
291.871	1806.15
291.938	1807.44
292.006	1827.27
292.073	1833.45
292.14	1839.15
292.207	1830.5
292.275	1827.74
292.342	1832.21
292.409	1851.51
292.476	1866.39
292.543	1855.65
292.611	1854.13
292.678	1863.73
292.745	1881.03
292.812	1884.88
292.879	1874.56
292.946	1876.27
293.014	1883.88
293.081	1888.11
293.148	1892.44
293.215	1900.33
293.282	1890.97
293.349	1895.62
293.416	1872.42
293.484	1877.65
293.551	1880.69
293.618	1889.86
293.685	1904.22
293.752	1891.39
293.819	1882.12
293.886	1866.95
293.953	1868.33
294.02	1870.94
294.087	1871.8
294.154	1862.29
294.221	1871.23
294.288	1869.33
294.356	1880.69
294.423	1878.46
294.49	1866.81
294.557	1874.56
294.624	1860.3
294.691	1877.51
294.758	1868.67
294.825	1870.33
294.892	1857.35
294.959	1853.12
295.026	1852.84
295.093	1840.33
295.16	1838.05
295.226	1835.63
295.293	1853.89
295.36	1852.6
295.427	1858.22
295.494	1863.3
295.561	1864.87
295.628	1878.48
295.695	1887.23
295.762	1885.23
295.829	1889.13
295.896	1901.25
295.963	1902.44
296.03	1907.24
296.096	1904.05
296.163	1912.28
296.23	1921.93
296.297	1928.2
296.364	1923.4
296.431	1925.16
296.498	1920.55
296.564	1937.7
296.631	1932
296.698	1913.6
296.765	1927.43
296.832	1912.36
296.899	1896.63
296.965	1906.8
297.032	1883.92
297.099	1894.76
297.166	1895.29
297.233	1887.49
297.299	1871.47
297.366	1869.38
297.433	1866.48
297.5	1867.58
297.566	1862.73
297.633	1855.74
297.7	1856.07
297.767	1850.85
297.833	1850.8
297.9	1846.66
297.967	1829.94
298.033	1839.97
298.1	1861.03
298.167	1850.53
298.234	1852.81
298.3	1856.8
298.367	1848.05
298.434	1848.29
298.5	1833.88
298.567	1824.66
298.634	1821.76
298.7	1835.59
298.767	1833.16
298.834	1840.91
298.9	1834.35
298.967	1822.28
299.033	1829.13
299.1	1838.02
299.167	1847.09
299.233	1838.68
299.3	1850.42
299.366	1861.39
299.433	1872.28
299.5	1844.42
299.566	1842.28
299.633	1852.31
299.699	1859.44
299.766	1856.78
299.832	1858.16
299.899	1860.97
299.965	1870.71
300.032	1865.15
300.099	1866.77
300.165	1869.33
300.232	1866.96
300.298	1863.25
300.365	1877.32
300.431	1874.84
300.498	1865.05
300.564	1868.8
300.631	1878.17
300.697	1889.34
300.763	1887.4
300.83	1883.26
300.896	1895.66
300.963	1905.17
301.029	1907.31
301.096	1909.59
301.162	1916
301.229	1911.35
301.295	1901.89
301.361	1901.79
301.428	1901.46
301.494	1888.77
301.561	1886.73
301.627	1886.73
301.693	1888.58
301.76	1887.49
301.826	1881.73
301.892	1891.29
301.959	1896.38
302.025	1890.81
302.092	1880.26
302.158	1883.87
302.224	1881.3
302.291	1874.27
302.357	1868.33
302.423	1860.81
302.49	1849.12
302.556	1856.82
302.622	1855.3
302.688	1866.19
302.755	1876.89
302.821	1886.53
302.887	1893.85
302.954	1892.95
303.02	1899.93
303.086	1903.78
303.152	1901.31
303.219	1897.65
303.285	1899.98
303.351	1905.79
303.417	1907.02
303.483	1899.94
303.55	1894.09
303.616	1892.1
303.682	1891.48
303.748	1885.49
303.815	1899.57
303.881	1911.02
303.947	1901.13
304.013	1904.27
304.079	1895.48
304.145	1875.41
304.212	1872.47
304.278	1866.34
304.344	1863.63
304.41	1852.27
304.476	1845.71
304.542	1840.67
304.608	1845.85
304.674	1832.26
304.741	1828.07
304.807	1832.11
304.873	1842.33
304.939	1858.73
305.005	1845.23
305.071	1845.94
305.137	1847.66
305.203	1827.31
305.269	1825.07
305.335	1837.1
305.401	1835.72
305.467	1837.29
305.533	1847.46
305.599	1856.11
305.666	1867.33
305.732	1870.85
305.798	1883.21
305.864	1908.65
305.93	1917.39
305.996	1920.06
306.062	1925.57
306.128	1924.19
306.194	1916.68
306.259	1913.21
306.325	1905.98
306.391	1918.2
306.457	1923.52
306.523	1931.98
306.589	1955.37
306.655	1950.38
306.721	1936.36
306.787	1926.95
306.853	1943.26
306.919	1931.9
306.985	1929.66
307.051	1924.01
307.117	1922.48
307.183	1920.92
307.248	1898.18
307.314	1904.84
307.38	1911.07
307.446	1917.77
307.512	1913.3
307.578	1919.2
307.644	1917.77
307.709	1921.62
307.775	1919.72
307.841	1922.86
307.907	1924.29
307.973	1909.54
308.039	1912.3
308.104	1921.95
308.17	1926.65
308.236	1917.76
308.302	1926.46
308.368	1918
308.433	1923.23
308.499	1919.14
308.565	1913.15
308.631	1919.99
308.696	1899.98
308.762	1888.43
308.828	1889.86
308.894	1876.46
308.959	1862.82
309.025	1861.63
309.091	1860.58
309.156	1859.63
309.222	1861.63
309.288	1855.92
309.354	1843.09
309.419	1842.81
309.485	1832.87
309.551	1842.33
309.616	1831.49
309.682	1831.07
309.748	1830.73
309.813	1827.88
309.879	1825.65
309.945	1819.14
310.01	1813.77
310.076	1822.32
310.141	1824.36
310.207	1812.62
310.273	1819.7
310.338	1827.87
310.404	1817.37
310.469	1809.72
310.535	1806.86
310.601	1792.61
310.666	1802.02
310.732	1814.18
310.797	1811.19
310.863	1805.49
310.928	1803.58
310.994	1810.95
311.059	1813.09
311.125	1815.47
311.191	1830.11
311.256	1824.6
311.322	1833.97
311.387	1822.23
311.453	2090.45
311.518	2071.5
311.584	2075.35
311.649	2082.19
311.715	2078.34
311.78	2082.1
311.846	2078.49
311.911	2083.24
311.976	2090.37
312.042	2079.77
312.107	2070.55
312.173	2067.69
312.238	2067.08
312.304	2066.41
312.369	2060.66
312.434	2051.82
312.5	2050.54
312.565	2022.82
312.631	2033.09
312.696	2030.38
312.761	2037.88
312.827	1768.95
312.892	1808.26
312.958	1808.92
313.023	1812.96
313.088	1812.54
313.154	1807.36
313.219	1804.98
313.284	1801.23
313.35	1800.75
313.415	1795.91
313.48	1797.47
313.546	1803.6
313.611	1818.29
313.676	1811.78
313.741	1810.26
313.807	1823.81
313.872	1827.99
313.937	1841.43
314.003	1855.84
314.068	1856.27
314.133	1865.59
314.198	1862.78
314.264	1845.75
314.329	1839.29
314.394	1836.63
314.459	1839.76
314.525	1862.96
314.59	1863.53
314.655	1856.68
314.72	1866.38
314.785	1873.84
314.851	1873.65
314.916	1860.25
314.981	1849.13
315.046	1849.65
315.111	1845.75
315.176	1838.81
315.242	1846.13
315.307	1847.42
315.372	1827.21
315.437	1825.26
315.502	1822.51
315.567	1836.86
315.632	1827.79
315.698	1833.87
315.763	1837.48
315.828	1837.63
315.893	1837.63
315.958	1845.47
316.023	1850.46
316.088	1842.37
316.153	1835.91
316.218	1840.9
316.283	1840.66
316.348	1842.42
316.413	1855.88
316.479	1859.82
316.544	1850.65
316.609	1846.32
316.674	1839.05
316.739	1836.48
316.804	1833.92
316.869	1829.21
316.934	1822.98
316.999	1828.16
317.064	1813.39
317.129	1804.78
317.194	1803.88
317.259	1791.09
317.324	1776.98
317.389	1767
317.454	1765.91
317.518	1767.14
317.583	1780.36
317.648	1794.62
317.713	1795.9
317.778	1776.74
317.843	1783.54
317.908	1781.4
317.973	1779.79
318.038	1786.39
318.103	1789.57
318.168	1796.13
318.233	1801.79
318.297	1791.67
318.362	1790.67
318.427	1792
318.492	1802.84
318.557	1795.38
318.622	1806.88
318.687	1820.81
318.751	1822.14
318.816	1830.31
318.881	1834.78
318.946	1817
319.011	1811.25
319.075	1811.53
319.14	1817.33
319.205	1811.96
319.27	1817.19
319.335	1811.05
319.399	1809.72
319.464	1817.66
319.529	1803.64
319.594	1803.02
319.658	1810.53
319.723	1808.96
319.788	1818.8
319.853	1806.06
319.917	1814.99
319.982	1800.21
320.047	1798.35
320.112	1808.1
320.176	1794.26
320.241	1798.4
320.306	1805.96
320.37	1803.25
320.435	1807.1
320.5	1813.32
320.564	1813.04
320.629	1812.28
320.694	1819.27
320.758	1817.7
320.823	1812.04
320.888	1825.25
320.952	1815.46
321.017	1812.66
321.082	1811.94
321.146	1814.75
321.211	1818.41
321.275	1816.6
321.34	1815.37
321.405	1811.09
321.469	1807.1
321.534	1804.48
321.598	1792.94
321.663	1802.59
321.727	1807.15
321.792	1797.65
321.857	1794.08
321.921	1796.7
321.986	1795.32
322.05	1778.83
322.115	1777.93
322.179	1774.41
322.244	1755.79
322.308	1761.68
322.373	1753.03
322.437	1750.13
322.502	1759.98
322.566	1754.18
322.631	1751.37
322.695	1747.72
322.76	1742.78
322.824	1744.15
322.889	1740.73
322.953	1733.94
323.018	1706.9
323.082	1685.71
323.146	1674.65
323.211	1658.59
323.275	1649.46
323.34	1638.44
323.404	1640.58
323.468	1632.41
323.533	1625.9
323.597	1621.49
323.662	1609.28
323.726	1614.6
323.79	1604.86
323.855	1580.33
323.919	1567.37
323.983	1560.67
324.048	1548.8
324.112	1754.45
324.177	1739.72
324.241	1664.05
324.305	1590.75
324.37	1518.16
324.434	1450.42
324.498	1449.47
324.562	1445.74
324.627	1434.67
324.691	1433.26
324.755	1423.46
324.82	1410.15
324.884	1400.07
324.948	1400.33
325.012	1387.51
325.077	1356.3
