Data from 20250702_urea_0.5M_MAYP1162681_11-52-38-184.txt Node
Date: Wed Jul 02 11:52:38 BST 2025
User: adleo
Spectrometer: MAYP116268
Trigger mode: 0
Integration Time (sec): 1.000000E0
Scans to average: 1
Electric dark correction enabled: true
Nonlinearity correction enabled: true
Boxcar width: 10
XAxis mode: Wavelengths
Number of Pixels in Spectrum: 2068
>>>>>Begin Spectral Data<<<<<
179.565	1018.9
179.642	1067.08
179.718	1104.46
179.795	1139.64
179.871	1165.94
179.948	1177.55
180.024	1193.19
180.101	1212.24
180.177	1223.3
180.254	1241.99
180.33	1261.07
180.407	1302.65
180.483	1383.08
180.56	1456.96
180.636	1526.31
180.712	1515.15
180.789	1524.7
180.865	1534.76
180.942	1541.79
181.018	1551.19
181.095	1563.83
181.171	1568.53
181.248	1568.82
181.324	1580.27
181.4	1584.83
181.477	1596.18
181.553	1607.76
181.63	1627.62
181.706	1641.02
181.782	1648.28
181.859	1648.09
181.935	1654.22
182.011	1650.8
182.088	1666.05
182.164	1685.25
182.24	1700.45
182.317	1708.15
182.393	1701.5
182.469	1713
182.546	1727.25
182.622	1731
182.698	1726.58
182.775	1735.8
182.851	1747.54
182.927	1741.98
183.003	1738.23
183.08	1731.57
183.156	1740.84
183.232	1736.89
183.308	1726.49
183.385	1733.47
183.461	1750.39
183.537	1750.82
183.613	1759.47
183.69	1753.19
183.766	1741.59
183.842	1746.96
183.918	1754.09
183.995	1771.05
184.071	1774.86
184.147	1767.21
184.223	1757.61
184.299	1769.44
184.375	1760.27
184.452	1765.84
184.528	1817.27
184.604	1826.16
184.68	1836.89
184.756	1845.64
184.832	1849.92
184.908	1854.53
184.985	1854.48
185.061	1839.84
185.137	1844.02
185.213	1834.71
185.289	1834.19
185.365	1829.77
185.441	1827.3
185.517	1836.09
185.593	1832.96
185.669	1830.39
185.745	1843.22
185.822	1858.14
185.898	1851.53
185.974	1856.85
186.05	1849.3
186.126	1811.83
186.202	1804.99
186.278	1800.86
186.354	1788.88
186.43	1795.44
186.506	1793.49
186.582	1794.82
186.658	1799.76
186.734	1784.23
186.81	1787.51
186.886	1787.89
186.962	1800.1
187.038	1796.63
187.114	1791.73
187.19	1798.58
187.266	1791.64
187.341	1788.36
187.417	1782.42
187.493	1780.47
187.569	1787.13
187.645	1782.9
187.721	1773.96
187.797	1782.47
187.873	1789.21
187.949	1783.94
188.025	1778.19
188.101	1781.32
188.176	1783.94
188.252	1781.09
188.328	1787.93
188.404	1786.31
188.48	1784.7
188.556	1775.67
188.632	1778.04
188.707	1777.19
188.783	1771.91
188.859	1766.68
188.935	1759.89
189.011	1767.11
189.086	1763.31
189.162	1753.81
189.238	1753.43
189.314	1750.86
189.39	1743.54
189.465	1736.7
189.541	1753.62
189.617	1739.93
189.693	1734.66
189.768	1738.79
189.844	1761.85
189.92	1755.63
189.996	1764.23
190.071	1773.12
190.147	1773.97
190.223	1779.2
190.298	1771.74
190.374	1763.37
190.45	1775.68
190.526	1784.04
190.601	1780.29
190.677	1782
190.753	1808.06
190.828	1811.1
190.904	1825.07
190.98	1841.52
191.055	1850.41
191.131	1842.61
191.207	1859.1
191.282	1867.18
191.358	1860.05
191.433	1844.4
191.509	1854.71
191.585	1852.05
191.66	1853.62
191.736	1858.8
191.811	1852.29
191.887	1868.55
191.963	1889.7
192.038	1895.69
192.114	1893.03
192.189	1893.55
192.265	1889.18
192.34	1867.31
192.416	1864.46
192.491	1857.94
192.567	1858.04
192.642	1857.8
192.718	1858.32
192.793	1851.05
192.869	1849.2
192.944	1851.48
193.02	1859.32
193.095	1863.36
193.171	1866.83
193.246	1865.6
193.322	1864.93
193.397	1865.88
193.473	1852.19
193.548	1832.46
193.624	1835.41
193.699	1834.79
193.775	1849.48
193.85	1849.39
193.925	1858.51
194.001	1856.23
194.076	1850.86
194.152	1840.54
194.227	1832.94
194.302	1823.39
194.378	1825.43
194.453	1823.91
194.529	1833.56
194.604	1820.92
194.679	1815.78
194.755	1800.1
194.83	1809.57
194.905	1807.43
194.981	1814.13
195.056	1808.67
195.131	1815.7
195.207	1815.03
195.282	1807.24
195.357	1790.84
195.433	1807.71
195.508	1797.87
195.583	1807.09
195.659	1819.12
195.734	1826.34
195.809	1828.67
195.884	1836.27
195.96	1835.23
196.035	1847.68
196.11	1843.35
196.185	1852.91
196.261	1855.66
196.336	1883.8
196.411	1870.82
196.486	1875.81
196.561	1868.83
196.637	1877.81
196.712	1892.55
196.787	1895.31
196.862	1907.86
196.937	1916.79
197.013	1921.74
197.088	1928.58
197.163	1947.51
197.238	1964.35
197.313	1963.31
197.388	1974.1
197.464	2001.88
197.539	2015
197.614	2007.77
197.689	2020.04
197.764	2034.07
197.839	2052.1
197.914	2047.39
197.989	2070.4
198.065	2082.48
198.14	2128.02
198.215	2149.19
198.29	2158.28
198.365	2168.36
198.44	2179.73
198.515	2205.24
198.59	2216.18
198.665	2242.15
198.74	2248.44
198.815	2245.72
198.89	2267.18
198.965	2291.93
199.04	2288.45
199.115	2302.02
199.19	2341.8
199.265	2344.08
199.34	2354.65
199.415	2387.69
199.49	2408.11
199.565	2415.49
199.64	2435.67
199.715	2432.76
199.79	2440.57
199.865	2448.57
199.94	2448.62
200.015	2475.71
200.09	2476.19
200.165	2485.28
200.24	2490.94
200.315	2525.49
200.39	2539.25
200.464	2546.11
200.539	2549.58
200.614	2564.34
200.689	2583.25
200.764	2588.87
200.839	2605.63
200.914	2608.53
200.989	2596.76
201.063	2605
201.138	2590.06
201.213	2594.01
201.288	2577.77
201.363	2579.73
201.438	2578.06
201.512	2590.1
201.587	2575.15
201.662	2579.62
201.737	2591.58
201.812	2595.15
201.886	2565.94
201.961	2575.42
202.036	2563.09
202.111	2559.37
202.186	2532.82
202.26	2519.96
202.335	2501.72
202.41	2493.1
202.485	2476.34
202.559	2459.16
202.634	2437.02
202.709	2445.49
202.784	2427.78
202.858	2426.63
202.933	2410.59
203.008	2407.45
203.082	2392.31
203.157	2388.65
203.232	2352.92
203.306	2326.54
203.381	2299.83
203.456	2281.84
203.53	2262.46
203.605	2245.1
203.68	2224.68
203.754	2219.59
203.829	2204.79
203.904	2185.66
203.978	2175.86
204.053	2183.71
204.127	2172.48
204.202	2173.91
204.277	2159.92
204.351	2151.93
204.426	2147.22
204.5	2141.75
204.575	2111.69
204.65	2119.25
204.724	2114.06
204.799	2119.96
204.873	2121.01
204.948	2121.2
205.022	2110.26
205.097	2103.41
205.171	2114.53
205.246	2122.72
205.32	2122.34
205.395	2119.96
205.469	2112.83
205.544	2117.73
205.618	2101.55
205.693	2110.64
205.767	2098.27
205.842	2118.02
205.916	2113.69
205.991	2105.94
206.065	2110.69
206.14	2119.73
206.214	2118.39
206.289	2114.63
206.363	2128.95
206.438	2135.71
206.512	2143.42
206.586	2162.78
206.661	2171.3
206.735	2153.61
206.81	2154.66
206.884	2170.97
206.958	2166.78
207.033	2185.47
207.107	2195.52
207.181	2227.12
207.256	2226.5
207.33	2248.67
207.405	2262.53
207.479	2284.8
207.553	2295.41
207.628	2286.85
207.702	2307.07
207.776	2309.5
207.851	2322.44
207.925	2345.68
207.999	2352.25
208.073	2362.96
208.148	2379.58
208.222	2387.15
208.296	2435.4
208.371	2468.52
208.445	2500.71
208.519	2548.53
208.593	2584.11
208.668	2612.41
208.742	2643.02
208.816	2679.27
208.89	2726.27
208.965	2761.13
209.039	2806.75
209.113	2869.06
209.187	2935.8
209.261	2982.94
209.336	3052.48
209.41	3125.7
209.484	3186.12
209.558	3267.2
209.632	3348.74
209.707	3429.9
209.781	3523.38
209.855	3616.67
209.929	3711.87
210.003	3799.97
210.077	3888.19
210.151	4024.32
210.226	4150.97
210.3	4277.93
210.374	4405.51
210.448	4519.11
210.522	4644.23
210.596	4774.06
210.67	4904.73
210.744	5075.79
210.818	5236.51
210.892	5389.68
210.966	5525.21
211.041	5676.89
211.115	5823.13
211.189	5992.21
211.263	6162.78
211.337	6320.07
211.411	6492.13
211.485	6656.37
211.559	6839.08
211.633	7010.36
211.707	7157.19
211.781	7342.42
211.855	7498.23
211.929	7671.46
212.003	7847.46
212.077	8039.74
212.151	8242.45
212.225	8445.48
212.299	8634.4
212.373	8819.28
212.447	9021.03
212.52	9251.14
212.594	9465.34
212.668	9686.16
212.742	9890.26
212.816	10096.26
212.89	10310.31
212.964	10522.04
213.038	10736.43
213.112	10964.43
213.186	11201.87
213.26	11400.92
213.333	11580.97
213.407	11805.01
213.481	12032.43
213.555	12257.25
213.629	12475.59
213.703	12682.47
213.777	12895.91
213.85	13094.74
213.924	13350.31
213.998	13562.31
214.072	13766.07
214.146	13969.83
214.219	14181.2
214.293	14386.55
214.367	14594.88
214.441	14815.02
214.515	15020.75
214.588	15216.5
214.662	15385.74
214.736	15572.13
214.81	15786.72
214.883	15994.8
214.957	16180.13
215.031	16367.62
215.105	16542.39
215.178	16717.87
215.252	16908.1
215.326	17070.67
215.4	17237.47
215.473	17371.98
215.547	17536.03
215.621	17708.7
215.694	17877.23
215.768	18020.8
215.842	18174.09
215.915	18334.14
215.989	18475.87
216.063	18629.74
216.136	18787.04
216.21	18955.08
216.284	19117.58
216.357	19268.08
216.431	19411.45
216.504	19563.83
216.578	19734.09
216.652	19892.79
216.725	20041.31
216.799	20179.72
216.873	20315.82
216.946	20458.9
217.02	20595.39
217.093	20731.49
217.167	20843.06
217.24	20967.55
217.314	21099.17
217.387	21219.28
217.461	21335.29
217.535	21456.89
217.608	21554.74
217.682	21670.86
217.755	21788.33
217.829	21889.31
217.902	22003.46
217.976	22114.53
218.049	22217.93
218.123	22300.46
218.196	22405.32
218.27	22500.2
218.343	22592.57
218.417	22702.06
218.49	22796.02
218.563	22897.03
218.637	22990.38
218.71	23102.92
218.784	23192.22
218.857	23289.19
218.931	23380.18
219.004	23473.78
219.077	23559.52
219.151	23653.21
219.224	23724.2
219.298	23803.4
219.371	23884.27
219.444	23933.08
219.518	24002.87
219.591	24064.07
219.665	24158.91
219.738	24222.96
219.811	24276.26
219.885	24340.32
219.958	24416.16
220.031	24473.41
220.105	24533.23
220.178	24584.75
220.251	24623.54
220.325	24681.92
220.398	24735.23
220.471	24789.12
220.544	24834.71
220.618	24874.13
220.691	24917.45
220.764	24970.67
220.838	25006.04
220.911	25049.66
220.984	25108.33
221.057	25158.47
221.131	25211.5
221.204	25218.35
221.277	25275.63
221.35	25343.77
221.424	25376.97
221.497	25396.09
221.57	25435.27
221.643	25473.11
221.716	25514.42
221.79	25536.96
221.863	25572.33
221.936	25594.49
222.009	25616.73
222.082	25637.68
222.155	25658.96
222.229	25697.77
222.302	25714.23
222.375	25734.98
222.448	25756.17
222.521	25786.87
222.594	25796.04
222.667	25797.58
222.74	25826.69
222.814	25827.75
222.887	25829.97
222.96	25845.66
223.033	25863.86
223.106	25865.69
223.179	25880.36
223.252	25890.31
223.325	25898.61
223.398	25900.59
223.471	25910.87
223.544	25919.75
223.617	25931.77
223.69	25948.57
223.763	25936.16
223.837	25938
223.91	25942.49
223.983	25923.23
224.056	25897.84
224.129	25896.49
224.202	25895.86
224.275	25872.21
224.348	25853.04
224.42	25827.32
224.493	25804.68
224.566	25786.92
224.639	25792.37
224.712	25765.92
224.785	25749.22
224.858	25741.69
224.931	25721.12
225.004	25695.16
225.077	25678.55
225.15	25638.3
225.223	25616.15
225.296	25624.02
225.369	25605.29
225.442	25580.09
225.514	25568.41
225.587	25567.4
225.66	25555.38
225.733	25549.16
225.806	25547.9
225.879	25531.3
225.952	25512.38
226.025	25506.25
226.097	25504.61
226.17	25481.3
226.243	25447.86
226.316	25422.04
226.389	25406.55
226.461	25402.59
226.534	25388.55
226.607	25370.69
226.68	25377.45
226.753	25359.84
226.825	25306.31
226.898	25297.14
226.971	25276.2
227.044	25258.83
227.117	25227.8
227.189	25207
227.262	25190.35
227.335	25168.3
227.407	25140.65
227.48	25128.35
227.553	25117.59
227.626	25085.3
227.698	25062.24
227.771	25038.65
227.844	25013.8
227.916	24991.55
227.989	24940.02
228.062	24918.55
228.134	24924.73
228.207	24892.5
228.28	24866.44
228.352	24852.93
228.425	24821.91
228.498	24805.94
228.57	24779.79
228.643	24776.41
228.716	24753.78
228.788	24718.18
228.861	24680.26
228.934	24669.31
229.006	24633.56
229.079	24597.47
229.151	24567.95
229.224	24529.31
229.296	24515.56
229.369	24512.57
229.442	24498.19
229.514	24477.06
229.587	24458.63
229.659	24395.39
229.732	24376.62
229.804	24356.46
229.877	24352.79
229.949	24334.37
230.022	24333.02
230.094	24305.62
230.167	24278.17
230.239	24234.61
230.312	24203.21
230.384	24194.63
230.457	24169.83
230.529	24157.82
230.602	24138.05
230.674	24120.49
230.747	24111.71
230.819	24107.85
230.892	24044.76
230.964	24014.62
231.037	23991.71
231.109	23957.18
231.181	23942.56
231.254	23901.47
231.326	23869.74
231.399	23831.25
231.471	23793.43
231.544	23733.43
231.616	23710.82
231.688	23675.85
231.761	23655.89
231.833	23624.44
231.905	23577.57
231.978	23549.89
232.05	23499.11
232.122	23463.81
232.195	23424.31
232.267	23405.07
232.339	23362.44
232.412	23350.53
232.484	23317.83
232.556	23274.1
232.629	23262.91
232.701	23244.54
232.773	23214.16
232.846	23179.78
232.918	23151.19
232.99	23124.33
233.062	23098.58
233.135	23066.71
233.207	23026.45
233.279	22994.92
233.351	22974.38
233.424	22941.35
233.496	22896.17
233.568	22887.64
233.64	22838.17
233.713	22812.23
233.785	22769.47
233.857	22738.8
233.929	22693.87
234.001	22679.55
234.074	22671.64
234.146	22614.7
234.218	22572.13
234.29	22543.49
234.362	22503.05
234.434	22452.67
234.507	22417.67
234.579	22375.44
234.651	22335.71
234.723	22315.9
234.795	22287.75
234.867	22244.26
234.939	22229.03
235.012	22198.61
235.084	22178.22
235.156	22151.66
235.228	22107.5
235.3	22066.05
235.372	22030.08
235.444	22011.43
235.516	21942.83
235.588	21908.37
235.66	21880.79
235.732	21842.67
235.804	21852.84
235.876	21824.5
235.948	21795.48
236.02	21756.72
236.092	21717.25
236.164	21686.4
236.236	21629.47
236.308	21575.11
236.38	21539.1
236.452	21486.56
236.524	21453.11
236.596	21417.83
236.668	21399.75
236.74	21358.69
236.812	21327.41
236.884	21293.48
236.956	21254.05
237.028	21214.96
237.1	21169.08
237.172	21140.4
237.244	21119.82
237.316	21040.82
237.388	20992.14
237.46	20949.63
237.532	20913.92
237.604	20868.43
237.675	20841.15
237.747	20815.61
237.819	20784.28
237.891	20747.07
237.963	20688.28
238.035	20643.89
238.107	20570.93
238.178	20532.71
238.25	20491.12
238.322	20468.66
238.394	20408.8
238.466	20361.96
238.538	20331.02
238.609	20288.61
238.681	20235.16
238.753	20179.94
238.825	20151.36
238.897	20127.7
238.968	20102.54
239.04	20061.72
239.112	20058.83
239.184	20014.3
239.255	19975.46
239.327	19948.28
239.399	19915.46
239.471	19905
239.542	19876.52
239.614	19859.56
239.686	19795.03
239.758	19773.92
239.829	19721.11
239.901	19697.98
239.973	19661.64
240.044	19624.77
240.116	19594.66
240.188	19553.45
240.259	19516.35
240.331	19468.64
240.403	19420.21
240.474	19369.99
240.546	19322.14
240.618	19263.88
240.689	19219.26
240.761	19181.04
240.833	19148.51
240.904	19110.06
240.976	19066.45
241.048	19017.44
241.119	18978.21
241.191	18952.04
241.262	18928.82
241.334	18893.97
241.405	18855.76
241.477	18808.2
241.549	18769.07
241.62	18731.24
241.692	18702.56
241.763	18675.77
241.835	18638.66
241.906	18609.46
241.978	18563.87
242.049	18538.33
242.121	18506.43
242.192	18476.94
242.264	18425.37
242.335	18371.98
242.407	18338.29
242.478	18301.38
242.55	18268.51
242.621	18223.31
242.693	18181.82
242.764	18133.29
242.836	18093.1
242.907	18060.57
242.979	18031.47
243.05	18001.35
243.122	17966.22
243.193	17923.32
243.264	17860.19
243.336	17811.28
243.407	17784.68
243.479	17757.5
243.55	17734.8
243.622	17694.61
243.693	17658.46
243.764	17641.31
243.836	17595.52
243.907	17546.95
243.978	17510.66
244.05	17486.99
244.121	17439.09
244.192	17417.31
244.264	17369.02
244.335	17334.75
244.407	17279.91
244.478	17255.57
244.549	17213.93
244.62	17161.55
244.692	17126.89
244.763	17105.26
244.834	17077.01
244.906	17031.28
244.977	17005.16
245.048	16973.59
245.119	16933.44
245.191	16887.27
245.262	16828.43
245.333	16808.57
245.405	16787.07
245.476	16753.77
245.547	16721.43
245.618	16697.38
245.689	16653.72
245.761	16621.28
245.832	16582.92
245.903	16555.74
245.974	16521.95
246.045	16486.04
246.117	16472.16
246.188	16430.81
246.259	16389.75
246.33	16353.93
246.401	16324.53
246.473	16266.75
246.544	16219.9
246.615	16195.41
246.686	16161.1
246.757	16145.87
246.828	16100.22
246.899	16076.6
246.97	16034.43
247.042	15984.45
247.113	15956.88
247.184	15944.73
247.255	15901.5
247.326	15868.43
247.397	15838.5
247.468	15805.53
247.539	15772.37
247.61	15726.68
247.681	15705.95
247.752	15683.1
247.823	15640.74
247.894	15612.25
247.965	15585.79
248.037	15559.33
248.108	15515.75
248.179	15481.72
248.25	15450.58
248.321	15433.04
248.392	15395.54
248.463	15383.29
248.534	15352.01
248.605	15324.87
248.675	15284.87
248.746	15263.95
248.817	15233.77
248.888	15209.43
248.959	15160.26
249.03	15137.99
249.101	15115.19
249.172	15077.98
249.243	15028.38
249.314	15012.04
249.385	14975.89
249.456	14951.11
249.527	14919.34
249.598	14901.32
249.669	14873.94
249.739	14837.2
249.81	14812.48
249.881	14766.06
249.952	14737.33
250.023	14707.97
250.094	14675.67
250.165	14642.22
250.235	14616.24
250.306	14595.89
250.377	14563.5
250.448	14539.98
250.519	14496.11
250.59	14473.94
250.66	14447.66
250.731	14445.4
250.802	14421.87
250.873	14400.66
250.944	14371.74
251.014	14337.47
251.085	14327.97
251.156	14310.86
251.227	14311.58
251.297	14293.21
251.368	14283.67
251.439	14260.97
251.51	14255.37
251.58	14223.56
251.651	14197.43
251.722	14189.67
251.792	14146.19
251.863	14117.07
251.934	14117.07
252.005	14118.71
252.075	14097.11
252.146	14079.71
252.217	14055.7
252.287	14035.12
252.358	14005.76
252.429	13999.25
252.499	13969.75
252.57	13947.43
252.641	13926.61
252.711	13896.62
252.782	13858.93
252.852	13855.99
252.923	13830.29
252.994	13807.63
253.064	13792.11
253.135	13759.77
253.205	13723.51
253.276	13715.13
253.347	13695.46
253.417	13655.3
253.488	13627.63
253.558	13594.37
253.629	13570.46
253.699	13550.07
253.77	13532.47
253.841	13510.88
253.911	13490
253.982	13475.06
254.052	13459.97
254.123	13434.32
254.193	13406.51
254.264	13414.8
254.334	13377.05
254.405	13342.63
254.475	13309.28
254.546	13288.31
254.616	13277.17
254.687	13252.58
254.757	13229.59
254.827	13217.78
254.898	13202.35
254.968	13173
255.039	13147.49
255.109	13128.31
255.18	13098.03
255.25	13061.16
255.321	13043.56
255.391	13008.71
255.461	13001.77
255.532	12943.87
255.602	12923.29
255.673	12888.77
255.743	12856.38
255.813	12814.1
255.884	12806.05
255.954	12787.01
256.024	12774.04
256.095	12755.29
256.165	12726.08
256.235	12711.28
256.306	12678.6
256.376	12659.84
256.446	12644.56
256.517	12632.99
256.587	12624.94
256.657	12609.28
256.728	12585.08
256.798	12564.49
256.868	12537.5
256.938	12503.08
257.009	12500.19
257.079	12488.14
257.149	12488.91
257.219	12444.47
257.29	12430.05
257.36	12394.58
257.43	12383.68
257.5	12342.47
257.571	12317.02
257.641	12304.34
257.711	12277.1
257.781	12261.92
257.852	12251.46
257.922	12216.17
257.992	12189.81
258.062	12161.37
258.132	12145.65
258.202	12124.25
258.273	12100.83
258.343	12104.1
258.413	12079.52
258.483	12060.1
258.553	12015.85
258.623	11987.5
258.693	11974.01
258.764	11968.85
258.834	11963.74
258.904	11945.81
258.974	11922.05
259.044	11901.27
259.114	11888.55
259.184	11868.35
259.254	11848.49
259.324	11805.16
259.394	11796.73
259.464	11796.2
259.535	11778.89
259.605	11758.21
259.675	11741.15
259.745	11735.22
259.815	11705.63
259.885	11681.14
259.955	11688.47
260.025	11675.8
260.095	11651.17
260.165	11638.68
260.235	11634.88
260.305	11603.35
260.375	11570.97
260.445	11571.21
260.515	11565.9
260.585	11555.54
260.655	11542.96
260.725	11533.81
260.795	11530.58
260.865	11528.7
260.934	11504.65
261.004	11491.92
261.074	11473.13
261.144	11463.34
261.214	11450.62
261.284	11431.53
261.354	11427.77
261.424	11396.93
261.494	11397.46
261.564	11381.12
261.634	11372.68
261.703	11336.83
261.773	11330.27
261.843	11325.45
261.913	11306.7
261.983	11273.79
262.053	11255.28
262.123	11233.64
262.192	11209.07
262.262	11202.37
262.332	11168.53
262.402	11154.08
262.472	11134.46
262.541	11105.11
262.611	11106.08
262.681	11077.98
262.751	11069.55
262.821	11048.54
262.89	11021.36
262.96	11008.01
263.03	11012.59
263.1	11004.97
263.169	10989.94
263.239	10979.34
263.309	10976.78
263.379	10970.85
263.448	10964.44
263.518	10959.19
263.588	10947.82
263.657	10945.94
263.727	10937.51
263.797	10922.76
263.867	10905.03
263.936	10878.09
264.006	10873.08
264.076	10851.49
264.145	10837.9
264.215	10812.85
264.285	10809.14
264.354	10779.41
264.424	10754.69
264.494	10722.55
264.563	10701.73
264.633	10701.83
264.702	10687.23
264.772	10651.52
264.842	10633.31
264.911	10617.31
264.981	10585.65
265.05	10568.88
265.12	10549.08
265.19	10528.55
265.259	10523.3
265.329	10512.94
265.398	10504.27
265.468	10509.33
265.537	10483.7
265.607	10475.7
265.676	10476.9
265.746	10463.75
265.815	10462.88
265.885	10451.27
265.955	10430.56
266.024	10410.22
266.094	10375.39
266.163	10371
266.232	10369.13
266.302	10348.22
266.371	10335.69
266.441	10322.88
266.51	10315.02
266.58	10296.62
266.649	10273.59
266.719	10273.59
266.788	10264.82
266.858	10266.6
266.927	10231.34
266.996	10221.41
267.066	10208.21
267.135	10181.24
267.205	10175.74
267.274	10165.1
267.343	10162.4
267.413	10151.03
267.482	10147.76
267.552	10148
267.621	10123.14
267.69	10094.23
267.76	10083.54
267.829	10073.47
267.898	10059.02
267.968	10044.04
268.037	10038.21
268.106	10029.4
268.176	10004.88
268.245	9991.39
268.314	9969.37
268.384	9966.29
268.453	9957.23
268.522	9953.72
268.592	9952.85
268.661	9932.28
268.73	9915.61
268.799	9893.26
268.869	9893.89
268.938	9861.62
269.007	9840.09
269.076	9828.05
269.146	9834.69
269.215	9832.91
269.284	9836.24
269.353	9825.06
269.422	9805.99
269.492	9788.26
269.561	9759.61
269.63	9751.28
269.699	9732.54
269.768	9723.34
269.838	9715.39
269.907	9709.61
269.976	9677.1
270.045	9644.69
270.114	9636.7
270.183	9622.68
270.253	9614.69
270.322	9583.63
270.391	9575.58
270.46	9586.66
270.529	9584.88
270.598	9574.14
270.667	9558.25
270.736	9535.99
270.806	9531.32
270.875	9533.92
270.944	9520.44
271.013	9539.41
271.082	9530.17
271.151	9526.27
271.22	9503.78
271.289	9489.81
271.358	9478.25
271.427	9476.47
271.496	9471.13
271.565	9457.79
271.634	9458.94
271.703	9484.09
271.772	9495.93
271.841	9482.74
271.91	9455.67
271.979	9446.57
272.048	9427.16
272.117	9425.09
272.186	9411.32
272.255	9403.18
272.324	9397.26
272.393	9393.31
272.462	9370.1
272.531	9353.82
272.6	9339.76
272.669	9339.43
272.738	9331.38
272.807	9326.23
272.876	9311.69
272.945	9332.69
273.013	9335.09
273.082	9333.89
273.151	9288.09
273.22	9277.74
273.289	9274.08
273.358	9278.8
273.427	9262.33
273.496	9262.57
273.564	9254.72
273.633	9259.25
273.702	9243.02
273.771	9234.16
273.84	9232.09
273.909	9233.06
273.977	9231.9
274.046	9223.91
274.115	9226.75
274.184	9212.6
274.253	9203.5
274.322	9201.76
274.39	9174.8
274.459	9155.06
274.528	9127.61
274.597	9124.82
274.665	9120.1
274.734	9123.81
274.803	9115.19
274.872	9111.49
274.94	9095.21
275.009	9149.5
275.078	9128.79
275.147	9126.72
275.215	9115.7
275.284	9117.77
275.353	9102.07
275.421	9079.83
275.49	9087.68
275.559	9076.46
275.627	9065.49
275.696	9059.33
275.765	9060.19
275.833	9051.29
275.902	9055.76
275.971	9062.84
276.039	9069.19
276.108	9069.05
276.177	9067.61
276.245	9059.23
276.314	9056.73
276.383	9065.54
276.451	9005.62
276.52	9010.48
276.588	9023.05
276.657	9030.12
276.725	9021.36
276.794	9021.31
276.863	9037.44
276.931	9019.43
277	9030.17
277.068	9040.28
277.137	9050.44
277.205	9046.92
277.274	9064.16
277.342	9063.82
277.411	9050.87
277.48	9039.9
277.548	9032.91
277.617	9032.58
277.685	9020.11
277.754	9017.56
277.822	9005.57
277.89	9012.6
277.959	9002.59
278.027	8986.75
278.096	8972.69
278.164	8994.75
278.233	8993.45
278.301	8976.12
278.37	8983.38
278.438	8965.91
278.507	8969.81
278.575	8948.19
278.643	8943.57
278.712	8929.27
278.78	8917.67
278.849	8930
278.917	8943.19
278.985	8934.23
279.054	8934.67
279.122	8947.23
279.191	8941.21
279.259	8936.06
279.327	8915.55
279.396	8928.45
279.464	8919.36
279.532	8925.86
279.601	8919.93
279.669	8913.63
279.737	8928.12
279.806	8926.82
279.874	8932.74
279.942	8928.02
280.011	8924.51
280.079	8934.13
280.147	8942.46
280.215	8950.69
280.284	8936.73
280.352	8921.71
280.42	8935.63
280.488	8926.82
280.557	8920.27
280.625	8929.46
280.693	8926.19
280.761	8926.58
280.83	8916.61
280.898	8932.88
280.966	8921.47
281.034	8890.66
281.102	8881.71
281.171	8876.22
281.239	8885.51
281.307	8884.84
281.375	8878.92
281.443	8902.51
281.512	8903.23
281.58	8911.08
281.648	8892.59
281.716	8898.56
281.784	8896.49
281.852	8888.02
281.92	8890.43
281.989	8898.42
282.057	8885.95
282.125	8930.53
282.193	8929.76
282.261	8928.37
282.329	8916.81
282.397	8918.21
282.465	8928.22
282.533	8940.25
282.601	8929.52
282.67	8906.37
282.738	8895.15
282.806	8902.23
282.874	8894.09
282.942	8894.38
283.01	8888.36
283.078	8896.69
283.146	8895.24
283.214	8902.85
283.282	8908.53
283.35	8917.34
283.418	8914.11
283.486	8916.76
283.554	8879.01
283.622	8876.94
283.69	8874.58
283.758	8874.97
283.826	8876.08
283.894	8878.05
283.962	8895.19
284.03	8905.68
284.098	8908.76
284.165	8906.5
284.233	8907.8
284.301	8898.8
284.369	8891.24
284.437	8883.49
284.505	8879.16
284.573	8887.05
284.641	8879.98
284.709	8881.85
284.777	8867.27
284.845	8866.11
284.912	8864.96
284.98	8865
285.048	8866.45
285.116	8869.72
285.184	8880.94
285.252	8883.34
285.319	8873.24
285.387	8863.61
285.455	8857.93
285.523	8862.84
285.591	8864.14
285.659	8866.4
285.726	8874.87
285.794	8861.06
285.862	8856.29
285.93	8858.12
285.997	8857.64
286.065	8850.27
286.133	8836.12
286.201	8832.32
286.269	8828.08
286.336	8826.59
286.404	8819.13
286.472	8826.88
286.539	8810.42
286.607	8794.92
286.675	8792.13
286.743	8796.17
286.81	8794.58
286.878	8801.18
286.946	8799.35
287.013	8799.88
287.081	8798.1
287.149	8784.62
287.216	8801.23
287.284	8793.86
287.352	8791.94
287.419	8784.04
287.487	8800.79
287.555	8804.07
287.622	8798.87
287.69	8803.63
287.758	8811.24
287.825	8813.93
287.893	8801.76
287.96	8813.84
288.028	8826.01
288.096	8838.96
288.163	8842.72
288.231	8828.13
288.298	8829.82
288.366	8841.23
288.433	8835.11
288.501	8825.92
288.569	8831.89
288.636	8824.86
288.704	8838.24
288.771	8851.86
288.839	8849.94
288.906	8846.47
288.974	8860.19
289.041	8864.48
289.109	8859.76
289.176	8868.62
289.244	8870.54
289.311	8879.06
289.379	8882.72
289.446	8886.67
289.514	8881.85
289.581	8882.48
289.649	8887.24
289.716	8887.2
289.783	8877.91
289.851	8900.14
289.918	8901.3
289.986	8907.08
290.053	8914.54
290.121	8915.21
290.188	8915.11
290.255	8940.44
290.323	8931.82
290.39	8927.68
290.458	8932.97
290.525	8941.16
290.592	8936.49
290.66	8941.01
290.727	8938.8
290.794	8953.48
290.862	8952.66
290.929	8956.03
290.996	8958.15
291.064	8972.26
291.131	8982.22
291.198	8991.46
291.266	8981.16
291.333	8988.24
291.4	8993
291.468	9006.77
291.535	9005.52
291.602	9004.94
291.669	8998.44
291.737	9005.28
291.804	9009.23
291.871	9023.19
291.938	9033.49
292.006	9057.85
292.073	9074.51
292.14	9087.7
292.207	9085.49
292.275	9086.88
292.342	9091.22
292.409	9115.1
292.476	9133.93
292.543	9132.29
292.611	9133.88
292.678	9157.13
292.745	9176.2
292.812	9190.98
292.879	9189.73
292.946	9195.6
293.014	9216.3
293.081	9223.43
293.148	9240.62
293.215	9253.76
293.282	9250.68
293.349	9264.69
293.416	9250.92
293.484	9254.1
293.551	9265.85
293.618	9275.48
293.685	9300.8
293.752	9292.38
293.819	9290.21
293.886	9275.09
293.953	9279.14
294.02	9296.9
294.087	9302.88
294.154	9296.95
294.221	9310.44
294.288	9315.49
294.356	9328.45
294.423	9329.36
294.49	9324.02
294.557	9334.95
294.624	9329.36
294.691	9350.5
294.758	9345.2
294.825	9350.45
294.892	9350.93
294.959	9348.96
295.026	9357.48
295.093	9352.18
295.16	9361.28
295.226	9364.8
295.293	9392.97
295.36	9400.62
295.427	9411.27
295.494	9431.16
295.561	9449.7
295.628	9471.42
295.695	9480.38
295.762	9488.95
295.829	9501.95
295.896	9519.96
295.963	9527.96
296.03	9536.43
296.096	9538.31
296.163	9550.4
296.23	9563.98
296.297	9575.49
296.364	9579.24
296.431	9584.4
296.498	9578.38
296.564	9605.82
296.631	9612.81
296.698	9605.68
296.765	9619.02
296.832	9604.96
296.899	9586.99
296.965	9588.77
297.032	9571.91
297.099	9586.36
297.166	9597.06
297.233	9586.85
297.299	9577.12
297.366	9576.73
297.433	9582.61
297.5	9594.7
297.566	9597.49
297.633	9604.18
297.7	9607.99
297.767	9605.34
297.833	9609.05
297.9	9618.78
297.967	9599.51
298.033	9606.02
298.1	9626.34
298.167	9623.5
298.234	9635.35
298.3	9644.35
298.367	9647.15
298.434	9650.71
298.5	9647.96
298.567	9643.49
298.634	9647.48
298.7	9661.59
298.767	9666.75
298.834	9673.01
298.9	9668.48
298.967	9655.62
299.033	9659.81
299.1	9669.35
299.167	9688.95
299.233	9684.61
299.3	9691.79
299.366	9707.2
299.433	9723.05
299.5	9702.1
299.566	9704.41
299.633	9717.12
299.699	9728.01
299.766	9727.67
299.832	9730.56
299.899	9734.61
299.965	9747.27
300.032	9743.57
300.099	9753.83
300.165	9758.59
300.232	9756.72
300.298	9759.7
300.365	9777.52
300.431	9779.35
300.498	9778.39
300.564	9780.7
300.631	9796.5
300.697	9814.42
300.763	9826.75
300.83	9818.37
300.896	9828.58
300.963	9842.74
301.029	9853.86
301.096	9860.9
301.162	9868.6
301.229	9865.57
301.295	9859.55
301.361	9858.83
301.428	9858.1
301.494	9848.33
301.561	9849.77
301.627	9854.35
301.693	9857.43
301.76	9857.43
301.826	9853.86
301.892	9861.57
301.959	9871.59
302.025	9868.41
302.092	9864.8
302.158	9862.34
302.224	9870.34
302.291	9869.9
302.357	9870.92
302.423	9852.95
302.49	9839.9
302.556	9855.31
302.622	9859.31
302.688	9871.54
302.755	9881.22
302.821	9900.59
302.887	9909.64
302.954	9911.76
303.02	9918.26
303.086	9918.46
303.152	9917.59
303.219	9919.08
303.285	9922.55
303.351	9926.21
303.417	9928.04
303.483	9917.2
303.55	9913.21
303.616	9914.07
303.682	9911.66
303.748	9899.58
303.815	9916.53
303.881	9925.83
303.947	9910.41
304.013	9910.32
304.079	9901.6
304.145	9882.86
304.212	9872.17
304.278	9862.58
304.344	9850.49
304.41	9843.17
304.476	9839.95
304.542	9839.51
304.608	9837.83
304.674	9823.62
304.741	9813.5
304.807	9811.14
304.873	9816.2
304.939	9826.89
305.005	9801.41
305.071	9798.14
305.137	9796.06
305.203	9770.34
305.269	9770.92
305.335	9781.95
305.401	9779.88
305.467	9775.55
305.533	9789.03
305.599	9797.46
305.666	9812.73
305.732	9819.33
305.798	9827.95
305.864	9854.88
305.93	9854.78
305.996	9856.03
306.062	9861.14
306.128	9859.16
306.194	9851.31
306.259	9843.7
306.325	9835.03
306.391	9851.02
306.457	9858.39
306.523	9855.89
306.589	9879.01
306.655	9869.09
306.721	9848.9
306.787	9832.14
306.853	9846.93
306.919	9828.72
306.985	9821.89
307.051	9811.29
307.117	9805.94
307.183	9797.22
307.248	9765.14
307.314	9765.09
307.38	9771.26
307.446	9767.84
307.512	9756.04
307.578	9762.06
307.644	9759.32
307.709	9762.88
307.775	9755.9
307.841	9748.24
307.907	9755.46
307.973	9734.36
308.039	9735.18
308.104	9743.37
308.17	9746.93
308.236	9729.21
308.302	9734.31
308.368	9723.48
308.433	9725.41
308.499	9714.95
308.565	9704.26
308.631	9703.06
308.696	9686.06
308.762	9668.04
308.828	9668.48
308.894	9656.44
308.959	9632.94
309.025	9619.6
309.091	9610.45
309.156	9600.62
309.222	9603.99
309.288	9589.93
309.354	9568.26
309.419	9557.04
309.485	9539.6
309.551	9541.92
309.616	9530.31
309.682	9523.57
309.748	9515.09
309.813	9501.99
309.879	9491.21
309.945	9485.43
310.01	9478.64
310.076	9478.54
310.141	9475.6
310.207	9458.46
310.273	9453.74
310.338	9455.62
310.404	9443.68
310.469	9430.05
310.535	9423.79
310.601	9401.01
310.666	9400.43
310.732	9410.45
310.797	9400.04
310.863	9392.92
310.928	9378.86
310.994	9382.18
311.059	9373.46
311.125	9368.41
311.191	9373.7
311.256	9366.63
311.322	9369.42
311.387	9350.54
311.453	9565.39
311.518	9541.02
311.584	9541.02
311.649	9542.52
311.715	9531.39
311.78	9531.06
311.846	9521.57
311.911	9520.51
311.976	9521.09
312.042	9509.53
312.107	9502.36
312.173	9491.72
312.238	9481.56
312.304	9480.6
312.369	9470.72
312.434	9463.31
312.5	9458.45
312.565	9430.08
312.631	9433.55
312.696	9421.85
312.761	9421.22
312.827	9197.18
312.892	9227.47
312.958	9218.95
313.023	9217.36
313.088	9218.47
313.154	9207.54
313.219	9198.63
313.284	9188.47
313.35	9181.83
313.415	9174.46
313.48	9163.48
313.546	9170.66
313.611	9180.38
313.676	9166.61
313.741	9149.52
313.807	9155.11
313.872	9154.92
313.937	9162.81
314.003	9165.8
314.068	9166.81
314.133	9175.43
314.198	9162.96
314.264	9137.15
314.329	9129.01
314.394	9122.94
314.459	9116.83
314.525	9134.35
314.59	9132.14
314.655	9122.51
314.72	9123.47
314.785	9124.82
314.851	9114.42
314.916	9095.31
314.981	9081.44
315.046	9073.16
315.111	9067.77
315.176	9053.47
315.242	9048.9
315.307	9044.95
315.372	9026.9
315.437	9010.96
315.502	8999.5
315.567	9008.8
315.632	9002.1
315.698	8998.01
315.763	8989.59
315.828	8977.07
315.893	8967.92
315.958	8956.85
316.023	8948.96
316.088	8930.13
316.153	8901.4
316.218	8897.98
316.283	8882.15
316.348	8858.85
316.413	8856.06
316.479	8837.05
316.544	8799.41
316.609	8772.36
316.674	8732.71
316.739	8695.27
316.804	8661.34
316.869	8621.06
316.934	8579.86
316.999	8546.08
317.064	8496.71
317.129	8452
317.194	8416.87
317.259	8359.42
317.324	8312.08
317.389	8261.37
317.454	8218.02
317.518	8184.2
317.583	8153.98
317.648	8123.34
317.713	8085.82
317.778	8026.93
317.843	7993.55
317.908	7952.72
317.973	7916.21
318.038	7881.05
318.103	7844.61
318.168	7809.45
318.233	7775.36
318.297	7724.24
318.362	7685.29
318.427	7646.68
318.492	7618.16
318.557	7570.67
318.622	7549.42
318.687	7520.43
318.751	7479.29
318.816	7449.19
318.881	7416.55
318.946	7359.11
319.011	7310.56
319.075	7267.88
319.14	7229.87
319.205	7188.58
319.27	7155.33
319.335	7103.49
319.399	7061.64
319.464	7032.38
319.529	6981.93
319.594	6941
319.658	6905.55
319.723	6858.37
319.788	6821.39
319.853	6765.14
319.917	6729.75
319.982	6671.15
320.047	6630.14
320.112	6598.59
320.176	6542.46
320.241	6500.44
320.306	6464.62
320.37	6417.43
320.435	6380.94
320.5	6345.13
320.564	6304.28
320.629	6262.09
320.694	6225.67
320.758	6181.85
320.823	6132.47
320.888	6097.59
320.952	6050.38
321.017	6005.33
321.082	5961.19
321.146	5922.14
321.211	5886.02
321.275	5844.54
321.34	5799.99
321.405	5751.22
321.469	5701.63
321.534	5657.14
321.598	5606.13
321.663	5570.11
321.727	5535.31
321.792	5483.34
321.857	5436.22
321.921	5387.24
321.986	5340.18
322.05	5286.94
322.115	5247.99
322.179	5201.28
322.244	5152.56
322.308	5113.94
322.373	5069.44
322.437	5027.68
322.502	5000.03
322.566	4948.7
322.631	4906.51
322.695	4863.9
322.76	4821.24
322.824	4784.19
322.889	4740.5
322.953	4694.89
323.018	4631.37
323.082	4570.23
323.146	4518.75
323.211	4465.17
323.275	4421.54
323.34	4372.52
323.404	4332.25
323.468	4285.04
323.533	4239.24
323.597	4186.47
323.662	4131.43
323.726	4091.08
323.79	4042.27
323.855	3976.76
323.919	3929.07
323.983	3884.47
324.048	3818.09
324.112	3921.28
324.177	3788.17
324.241	3588.44
324.305	3389.61
324.37	3197.19
324.434	3012.46
324.498	2968.62
324.562	2920.22
324.627	2858.08
324.691	2803.03
324.755	2736.9
324.82	2659.68
324.884	2582.9
324.948	2510.88
325.012	2417.08
325.077	2294.47
