Data from 20250702_urea_0.1M_MAYP1162681_11-47-54-206.txt Node
Date: Wed Jul 02 11:47:54 BST 2025
User: adleo
Spectrometer: MAYP116268
Trigger mode: 0
Integration Time (sec): 1.000000E0
Scans to average: 1
Electric dark correction enabled: true
Nonlinearity correction enabled: true
Boxcar width: 10
XAxis mode: Wavelengths
Number of Pixels in Spectrum: 2068
>>>>>Begin Spectral Data<<<<<
179.565	1018.85
179.642	1065.42
179.718	1099.83
179.795	1133.18
179.871	1159.82
179.948	1174.04
180.024	1191.04
180.101	1211.85
180.177	1223.13
180.254	1240.01
180.33	1259.13
180.407	1299.27
180.483	1380.23
180.56	1456.81
180.636	1526.98
180.712	1517.05
180.789	1528.54
180.865	1536.57
180.942	1544.87
181.018	1554.18
181.095	1567.77
181.171	1572.85
181.248	1575.61
181.324	1592
181.4	1595.42
181.477	1603.4
181.553	1612.42
181.63	1630.66
181.706	1642.92
181.782	1649.81
181.859	1651.61
181.935	1656.36
182.011	1650.99
182.088	1665.29
182.164	1679.55
182.24	1692.28
182.317	1697.74
182.393	1693.56
182.469	1709.43
182.546	1722.02
182.622	1727.72
182.698	1720.88
182.775	1730.19
182.851	1740.36
182.927	1731.05
183.003	1730.48
183.08	1726.49
183.156	1736.37
183.232	1733.47
183.308	1724.25
183.385	1731.33
183.461	1746.2
183.537	1746.2
183.613	1758.08
183.69	1749.72
183.766	1741.83
183.842	1747.39
183.918	1752.52
183.995	1763.69
184.071	1765.64
184.147	1760.93
184.223	1751.24
184.299	1761.32
184.375	1753
184.452	1757.14
184.528	1806.81
184.604	1814.12
184.68	1826.14
184.756	1833.13
184.832	1838.07
184.908	1841.26
184.985	1840.83
185.061	1829.19
185.137	1834.32
185.213	1824.96
185.289	1827.81
185.365	1821.06
185.441	1819.07
185.517	1830.19
185.593	1827.1
185.669	1824.15
185.745	1832.28
185.822	1845.35
185.898	1837.84
185.974	1845.63
186.05	1841.49
186.126	1804.09
186.202	1799.81
186.278	1798.29
186.354	1791.59
186.43	1797.91
186.506	1797.77
186.582	1799.62
186.658	1802.23
186.734	1787.79
186.81	1792.21
186.886	1793.16
186.962	1805.13
187.038	1802.19
187.114	1794.29
187.19	1801.57
187.266	1792.78
187.341	1793.68
187.417	1787.26
187.493	1787.03
187.569	1789.21
187.645	1782.61
187.721	1773.58
187.797	1778.33
187.873	1781.66
187.949	1774.58
188.025	1765.4
188.101	1766.45
188.176	1768.54
188.252	1765.97
188.328	1774.33
188.404	1770.91
188.48	1765.45
188.556	1759.7
188.632	1759.46
188.707	1762.64
188.783	1757.8
188.859	1755.33
188.935	1744.2
189.011	1751.38
189.086	1748.77
189.162	1740.74
189.238	1739.83
189.314	1738.45
189.39	1734.18
189.465	1728.43
189.541	1741.92
189.617	1732.04
189.693	1728.71
189.768	1732.66
189.844	1755.24
189.92	1746.69
189.996	1754.39
190.071	1766.46
190.147	1765.89
190.223	1774.87
190.298	1769.5
190.374	1761.52
190.45	1772.63
190.526	1781.14
190.601	1778.29
190.677	1779.72
190.753	1804.34
190.828	1806.58
190.904	1822.83
190.98	1838.61
191.055	1845.7
191.131	1840.28
191.207	1857.01
191.282	1864.13
191.358	1854.34
191.433	1840.13
191.509	1852.34
191.585	1850.2
191.66	1848.68
191.736	1855.14
191.811	1844.83
191.887	1857.62
191.963	1878.15
192.038	1879.2
192.114	1879.01
192.189	1883.24
192.265	1877.87
192.34	1857.95
192.416	1858.23
192.491	1850.67
192.567	1850.34
192.642	1850.24
192.718	1850.67
192.793	1840.97
192.869	1838.5
192.944	1841.88
193.02	1850.34
193.095	1852.71
193.171	1858.94
193.246	1861.32
193.322	1857.94
193.397	1860.03
193.473	1847.24
193.548	1829.99
193.624	1837.97
193.699	1837.4
193.775	1848.01
193.85	1850.81
193.925	1859.13
194.001	1859.46
194.076	1853.9
194.152	1846.2
194.227	1839.83
194.302	1829.95
194.378	1833.61
194.453	1829.95
194.529	1841.64
194.604	1825.1
194.679	1822.2
194.755	1804.19
194.83	1814.61
194.905	1812.8
194.981	1820.88
195.056	1815.51
195.131	1821.36
195.207	1817.36
195.282	1811.33
195.357	1794.69
195.433	1808.66
195.508	1800.82
195.583	1805.9
195.659	1817.69
195.734	1823.82
195.809	1823.78
195.884	1831.85
195.96	1830.24
196.035	1845.02
196.11	1839.17
196.185	1853.24
196.261	1854.9
196.336	1882
196.411	1867.87
196.486	1871.53
196.561	1866.92
196.637	1874.15
196.712	1888.55
196.787	1889.93
196.862	1903.48
196.937	1914.79
197.013	1919.64
197.088	1927.25
197.163	1944.94
197.238	1961.45
197.313	1962.02
197.388	1973.62
197.464	1999.49
197.539	2009.52
197.614	2002.63
197.689	2016.14
197.764	2030.69
197.839	2051.28
197.914	2049.81
197.989	2069.64
198.065	2083
198.14	2127.93
198.215	2151.85
198.29	2160.7
198.365	2177.07
198.44	2181.82
198.515	2204.52
198.59	2219.08
198.665	2240.2
198.74	2250.44
198.815	2251.2
198.89	2268.8
198.965	2297.5
199.04	2293.93
199.115	2310.35
199.19	2347.89
199.265	2350.17
199.34	2358.31
199.415	2384.08
199.49	2402.87
199.565	2412.82
199.64	2438.38
199.715	2434.62
199.79	2440.52
199.865	2448.43
199.94	2445.52
200.015	2474.52
200.09	2478.99
200.165	2485.42
200.24	2493.04
200.315	2527.49
200.39	2539.59
200.464	2544.92
200.539	2543.92
200.614	2560.39
200.689	2579.35
200.764	2585.83
200.839	2601.25
200.914	2604.44
200.989	2596.91
201.063	2609.67
201.138	2594.07
201.213	2590.68
201.288	2575.25
201.363	2580.06
201.438	2581.92
201.512	2598.34
201.587	2585.82
201.662	2589.53
201.737	2600.39
201.812	2610.4
201.886	2582.47
201.961	2593
202.036	2584.95
202.111	2584.67
202.186	2563.15
202.26	2550.24
202.335	2534.62
202.41	2531.24
202.485	2522.81
202.559	2508.96
202.634	2489.1
202.709	2504.75
202.784	2495.71
202.858	2499.66
202.933	2491.23
203.008	2493.52
203.082	2485.09
203.157	2497.52
203.232	2474.48
203.306	2466.24
203.381	2452.52
203.456	2446.38
203.53	2444.42
203.605	2445.66
203.68	2446.71
203.754	2458.56
203.829	2469.18
203.904	2476.66
203.978	2494.38
204.053	2527.68
204.127	2547.82
204.202	2578.79
204.277	2601.13
204.351	2633.2
204.426	2671.95
204.5	2708.73
204.575	2725.36
204.65	2784.25
204.724	2825.13
204.799	2888.22
204.873	2944.69
204.948	3002.25
205.022	3059.28
205.097	3116.27
205.171	3206.92
205.246	3288.26
205.32	3370.13
205.395	3455.74
205.469	3538.99
205.544	3639.41
205.618	3717.14
205.693	3833.41
205.767	3931.24
205.842	4054.21
205.916	4160.73
205.991	4267.63
206.065	4395.37
206.14	4534.31
206.214	4656.75
206.289	4787.99
206.363	4926.36
206.438	5072.59
206.512	5224.18
206.586	5390.61
206.661	5555.07
206.735	5692.05
206.81	5851.79
206.884	6028.93
206.958	6183.62
207.033	6367.36
207.107	6550.05
207.181	6755.44
207.256	6922.75
207.33	7115.19
207.405	7307.41
207.479	7514.42
207.553	7712.99
207.628	7890.64
207.702	8094.25
207.776	8282.8
207.851	8477.01
207.925	8699.81
207.999	8895.06
208.073	9097.84
208.148	9306.83
208.222	9502.47
208.296	9729.62
208.371	9957.73
208.445	10177.55
208.519	10413.86
208.593	10637.38
208.668	10840.18
208.742	11055.34
208.816	11276.55
208.89	11505.25
208.965	11728.64
209.039	11949.56
209.113	12179.12
209.187	12412
209.261	12629.09
209.336	12865.32
209.41	13114.9
209.484	13335.86
209.558	13577.12
209.632	13811.53
209.707	14041.22
209.781	14276.74
209.855	14507.53
209.929	14742.57
210.003	14960.25
210.077	15178.65
210.151	15441.34
210.226	15692.85
210.3	15933.31
210.374	16168.43
210.448	16380.21
210.522	16601
210.596	16829.64
210.67	17042.14
210.744	17287.07
210.818	17521.15
210.892	17744.77
210.966	17930.8
211.041	18135.62
211.115	18322.7
211.189	18527.42
211.263	18723.61
211.337	18914.79
211.411	19120.23
211.485	19294.78
211.559	19495.21
211.633	19673.23
211.707	19816.07
211.781	19993.66
211.855	20144.99
211.929	20317.71
212.003	20480.94
212.077	20665.25
212.151	20837.02
212.225	21022.34
212.299	21182.6
212.373	21329.13
212.447	21480.19
212.52	21663.98
212.594	21826.57
212.668	21997.64
212.742	22144.72
212.816	22297.15
212.89	22441.19
212.964	22586.79
213.038	22745.03
213.112	22899.66
213.186	23062
213.26	23194.2
213.333	23296.18
213.407	23449.15
213.481	23586.49
213.555	23734.38
213.629	23836.73
213.703	23965.75
213.777	24100.19
213.85	24215.04
213.924	24380.13
213.998	24523.79
214.072	24641.95
214.146	24752.04
214.219	24871.69
214.293	25005.29
214.367	25128.28
214.441	25270.82
214.515	25377.66
214.588	25469.55
214.662	25551.11
214.736	25644.25
214.81	25760.7
214.883	25873.92
214.957	25965.44
215.031	26054.45
215.105	26140.37
215.178	26245.12
215.252	26327.53
215.326	26390.54
215.4	26473.15
215.473	26516.85
215.547	26576.48
215.621	26648.1
215.694	26748.69
215.768	26815.09
215.842	26878.99
215.915	26947.28
215.989	27000.55
216.063	27066.34
216.136	27151.11
216.21	27224.09
216.284	27303.35
216.357	27376.1
216.431	27450.59
216.504	27508.76
216.578	27597.03
216.652	27671.38
216.725	27735.3
216.799	27803.29
216.873	27872.28
216.946	27943.27
217.02	28003.66
217.093	28067.54
217.167	28116.49
217.24	28152.74
217.314	28201.98
217.387	28240.88
217.461	28286.99
217.535	28344.5
217.608	28393.75
217.682	28436.87
217.755	28491.63
217.829	28534.7
217.902	28571.97
217.976	28613.68
218.049	28662.41
218.123	28694.76
218.196	28750.55
218.27	28776.85
218.343	28814.27
218.417	28843.71
218.49	28874.85
218.563	28926.15
218.637	28963.52
218.71	29025.56
218.784	29083.59
218.857	29134.55
218.931	29188.32
219.004	29227.09
219.077	29275.17
219.151	29312.11
219.224	29344.08
219.298	29392.63
219.371	29441.53
219.444	29470.3
219.518	29510.01
219.591	29541.25
219.665	29592.67
219.738	29623.29
219.811	29652.64
219.885	29692.79
219.958	29743
220.031	29774.49
220.105	29806.7
220.178	29836.89
220.251	29850.72
220.325	29863.64
220.398	29893.58
220.471	29910.9
220.544	29939.93
220.618	29953.37
220.691	29976.74
220.764	29990.82
220.838	30010.46
220.911	30004.22
220.984	30039.92
221.057	30063.24
221.131	30080.32
221.204	30071.75
221.277	30088.11
221.35	30131.7
221.424	30130.63
221.497	30138.52
221.57	30142.2
221.643	30156.62
221.716	30167.16
221.79	30162.96
221.863	30166.73
221.936	30171.86
222.009	30180.08
222.082	30182.11
222.155	30187.24
222.229	30203.6
222.302	30202.73
222.375	30196.34
222.448	30207.32
222.521	30199.68
222.594	30180.08
222.667	30164.99
222.74	30167.75
222.814	30157.49
222.887	30150.18
222.96	30154.05
223.033	30158.94
223.106	30161.12
223.179	30160.63
223.252	30155.31
223.325	30160.83
223.398	30151.88
223.471	30137.75
223.544	30127.35
223.617	30122.46
223.69	30115.35
223.763	30099.43
223.837	30100.2
223.91	30082.01
223.983	30065.32
224.056	30037.07
224.129	30039.25
224.202	30045.59
224.275	30021.74
224.348	29994.45
224.42	29968.08
224.493	29940.36
224.566	29911.09
224.639	29893.34
224.712	29858.65
224.785	29828.85
224.858	29801.28
224.931	29786.57
225.004	29765.38
225.077	29750.39
225.15	29714.79
225.223	29688.72
225.296	29679.86
225.369	29637.3
225.442	29624.48
225.514	29600.44
225.587	29588.79
225.66	29573.79
225.733	29541.19
225.806	29524.85
225.879	29502.07
225.952	29465.41
226.025	29457.67
226.097	29449.64
226.17	29423.14
226.243	29385.95
226.316	29367.57
226.389	29341.75
226.461	29314.38
226.534	29283.04
226.607	29244.55
226.68	29230.24
226.753	29201.51
226.825	29154.17
226.898	29143.92
226.971	29106.78
227.044	29077.77
227.117	29047.74
227.189	29014.91
227.262	28998.03
227.335	28967.38
227.407	28940.4
227.48	28911.88
227.553	28875.27
227.626	28840.07
227.698	28813.62
227.771	28785.44
227.844	28745.89
227.916	28722.16
227.989	28674.16
228.062	28640.66
228.134	28634.33
228.207	28603.58
228.28	28556.5
228.352	28523.78
228.425	28486.51
228.498	28466.21
228.57	28434.21
228.643	28417.34
228.716	28383.12
228.788	28340.05
228.861	28305.59
228.934	28293.94
229.006	28263.78
229.079	28221.06
229.151	28177.65
229.224	28133.53
229.296	28107.43
229.369	28105.4
229.442	28086.75
229.514	28060.46
229.587	28047.08
229.659	27995.37
229.732	27968.74
229.804	27961.16
229.877	27954.87
229.949	27943.47
230.022	27935.35
230.094	27905.93
230.167	27882.54
230.239	27843.64
230.312	27810.98
230.384	27802.18
230.457	27757.54
230.529	27729.61
230.602	27703.67
230.674	27670.53
230.747	27649.85
230.819	27631.39
230.892	27566.22
230.964	27534.86
231.037	27515.49
231.109	27474.62
231.181	27447.57
231.254	27403.62
231.326	27355.74
231.399	27310.52
231.471	27269.61
231.544	27207.62
231.616	27187.53
231.688	27141.25
231.761	27098.9
231.833	27057.17
231.905	27003.46
231.978	26965.5
232.05	26923.19
232.122	26894.65
232.195	26860.65
232.267	26841.86
232.339	26798.39
232.412	26785.6
232.484	26741.45
232.556	26695.19
232.629	26667.72
232.701	26646.71
232.773	26618.95
232.846	26578.49
232.918	26545.84
232.99	26501.42
233.062	26473.22
233.135	26432.61
233.207	26384.96
233.279	26359.37
233.351	26345.37
233.424	26297.43
233.496	26253.45
233.568	26232.5
233.64	26176.4
233.713	26136.09
233.785	26081.82
233.857	26041.13
233.929	25983.68
234.001	25960.36
234.074	25937.68
234.146	25893.99
234.218	25857.64
234.29	25813.09
234.362	25778.77
234.434	25730.4
234.507	25682.57
234.579	25637.88
234.651	25592.36
234.723	25565.67
234.795	25523.54
234.867	25473.83
234.939	25454.33
235.012	25421.23
235.084	25402.4
235.156	25371.81
235.228	25327.36
235.3	25284.22
235.372	25247.94
235.444	25220.04
235.516	25155.24
235.588	25111.52
235.66	25076.58
235.732	25021.62
235.804	25030.88
235.876	24996.58
235.948	24961.55
236.02	24914.99
236.092	24860.43
236.164	24812.28
236.236	24766.25
236.308	24723.8
236.38	24675.65
236.452	24622.92
236.524	24583.17
236.596	24538.39
236.668	24504.67
236.74	24467.72
236.812	24430.33
236.884	24395.21
236.956	24358.21
237.028	24316.63
237.1	24260.63
237.172	24227.64
237.244	24206.12
237.316	24129.7
237.388	24077.03
237.46	24030.92
237.532	24017.27
237.604	23970.05
237.675	23951.73
237.747	23921.77
237.819	23869.93
237.891	23826.86
237.963	23771.02
238.035	23719.9
238.107	23636.47
238.178	23606.9
238.25	23555.88
238.322	23537.32
238.394	23483.16
238.466	23429.82
238.538	23384.01
238.609	23351.85
238.681	23284.82
238.753	23221.6
238.825	23175.6
238.897	23135.53
238.968	23107.61
239.04	23051.14
239.112	23033.69
239.184	22979.39
239.255	22928.38
239.327	22895.11
239.399	22863.87
239.471	22834.51
239.542	22793.53
239.614	22770.68
239.686	22699.85
239.758	22678.15
239.829	22617.21
239.901	22583.8
239.973	22544.02
240.044	22515.2
240.116	22469.73
240.188	22429.19
240.259	22388.6
240.331	22337.74
240.403	22302.31
240.474	22245.32
240.546	22195
240.618	22133.24
240.689	22085.28
240.761	22036.11
240.833	22007.67
240.904	21961.25
240.976	21915.5
241.048	21874.72
241.119	21844.55
241.191	21812.93
241.262	21773.93
241.334	21721.15
241.405	21669.77
241.477	21623.88
241.549	21568.74
241.62	21530.56
241.692	21486.56
241.763	21455.61
241.835	21413.63
241.906	21367.94
241.978	21300.99
242.049	21272.8
242.121	21236.26
242.192	21201.99
242.264	21148.74
242.335	21078.27
242.407	21035.04
242.478	20987.33
242.55	20950.41
242.621	20889.01
242.693	20834.07
242.764	20788.42
242.836	20750.98
242.907	20709.96
242.979	20664.47
243.05	20632.76
243.122	20581.33
243.193	20547.4
243.264	20479.11
243.336	20434.05
243.407	20404.13
243.479	20390.97
243.55	20340.41
243.622	20293.28
243.693	20251.4
243.764	20220.08
243.836	20173
243.907	20127.31
243.978	20086.83
244.05	20053.43
244.121	20002.83
244.192	19969.48
244.264	19911.94
244.335	19871.66
244.407	19819.37
244.478	19788.96
244.549	19741.01
244.62	19700
244.692	19655.86
244.763	19629.55
244.834	19588.34
244.906	19535.86
244.977	19493.31
245.048	19472.3
245.119	19435.19
245.191	19381.08
245.262	19322.86
245.333	19300.74
245.405	19266.91
245.476	19232.03
245.547	19183.69
245.618	19149.67
245.689	19112.47
245.761	19070.25
245.832	19035.27
245.903	19013.48
245.974	18971.7
246.045	18933.25
246.117	18910.5
246.188	18852.29
246.259	18795.43
246.33	18758.8
246.401	18723.48
246.473	18677.79
246.544	18640.16
246.615	18612.45
246.686	18576.26
246.757	18555.39
246.828	18504.6
246.899	18477.66
246.97	18425.57
247.042	18386.53
247.113	18362.53
247.184	18348.37
247.255	18312.08
247.326	18269.48
247.397	18222.93
247.468	18187.31
247.539	18155.17
247.61	18104.91
247.681	18086.84
247.752	18070.6
247.823	18018.79
247.894	17975.85
247.965	17925.11
248.037	17872.96
248.108	17825.11
248.179	17788.1
248.25	17750.41
248.321	17722.27
248.392	17678.37
248.463	17664.1
248.534	17626.03
248.605	17598.03
248.675	17547.77
248.746	17514.75
248.817	17483.04
248.888	17454.03
248.959	17402.9
249.03	17367.91
249.101	17340.92
249.172	17305.21
249.243	17248.44
249.314	17235.33
249.385	17208.34
249.456	17180
249.527	17144.87
249.598	17108.63
249.669	17069.11
249.739	17042.89
249.81	17015.95
249.881	16964.91
249.952	16936.38
250.023	16906.36
250.094	16853.73
250.165	16813.92
250.235	16787.94
250.306	16753.92
250.377	16714.83
250.448	16695.41
250.519	16640.03
250.59	16619.21
250.66	16580.65
250.731	16573.09
250.802	16537.81
250.873	16500.79
250.944	16478.24
251.014	16442.57
251.085	16438.62
251.156	16420.74
251.227	16406.13
251.297	16392.4
251.368	16376.78
251.439	16349.41
251.51	16334.22
251.58	16295.71
251.651	16266.51
251.722	16238.79
251.792	16198.02
251.863	16167.75
251.934	16146.49
252.005	16149.34
252.075	16114.1
252.146	16095.4
252.217	16075.69
252.287	16058.29
252.358	16034.14
252.429	16021.71
252.499	15991.29
252.57	15959.39
252.641	15937.89
252.711	15902.17
252.782	15860
252.852	15849.44
252.923	15823.85
252.994	15784.47
253.064	15772.37
253.135	15741.52
253.205	15706.39
253.276	15695.97
253.347	15678.67
253.417	15654.04
253.488	15619.43
253.558	15584.92
253.629	15557.88
253.699	15528.91
253.77	15505
253.841	15476.81
253.911	15445.81
253.982	15423.74
254.052	15409.03
254.123	15386.09
254.193	15360.16
254.264	15367.58
254.334	15335.05
254.405	15291.76
254.475	15257.2
254.546	15230.69
254.616	15208.95
254.687	15194
254.757	15168.31
254.827	15150.72
254.898	15119.92
254.968	15095.53
255.039	15066.46
255.109	15050.7
255.18	15015.85
255.25	14969.57
255.321	14952.8
255.391	14921.75
255.461	14912.02
255.532	14859.76
255.602	14830.84
255.673	14793.34
255.743	14755.26
255.813	14701.37
255.884	14692.64
255.954	14683.34
256.024	14676.88
256.095	14649.93
256.165	14613.34
256.235	14590.54
256.306	14551.35
256.376	14541.09
256.446	14525.8
256.517	14509.22
256.587	14491.48
256.657	14475.19
256.728	14453.06
256.798	14425.54
256.868	14397.1
256.938	14363.11
257.009	14355.4
257.079	14334.33
257.149	14331.73
257.219	14293.17
257.29	14284.63
257.36	14240.81
257.43	14222.64
257.5	14180.85
257.571	14159.88
257.641	14145.27
257.711	14123.87
257.781	14113.02
257.852	14089.79
257.922	14050.26
257.992	14033.58
258.062	14006.87
258.132	13994.1
258.202	13969.27
258.273	13948.98
258.343	13946.71
258.413	13924.63
258.483	13899.47
258.553	13864.81
258.623	13832.8
258.693	13807.1
258.764	13796.84
258.834	13795.73
258.904	13777.7
258.974	13748.2
259.044	13731.47
259.114	13710.98
259.184	13683.79
259.254	13656.31
259.324	13610.95
259.394	13595.04
259.464	13585.35
259.535	13564.53
259.605	13531.03
259.675	13511.02
259.745	13497.57
259.815	13459.92
259.885	13430.13
259.955	13430.51
260.025	13408.2
260.095	13383.22
260.165	13371.8
260.235	13365.68
260.305	13332.27
260.375	13294.48
260.445	13294.72
260.515	13286.47
260.585	13279.15
260.655	13259.53
260.725	13249.07
260.795	13241.5
260.865	13237.74
260.934	13204.76
261.004	13177.82
261.074	13154.68
261.144	13144.79
261.214	13122.09
261.284	13105.8
261.354	13105.31
261.424	13076.63
261.494	13081.93
261.564	13061.64
261.634	13051.42
261.703	13010.83
261.773	12998.05
261.843	12987.74
261.913	12960.07
261.983	12925.99
262.053	12917.5
262.123	12892.97
262.192	12862.84
262.262	12853.82
262.332	12826.01
262.402	12817.04
262.472	12805.33
262.541	12770.72
262.611	12760.88
262.681	12740.3
262.751	12728.92
262.821	12703.9
262.89	12669.44
262.96	12648.03
263.03	12650.64
263.1	12627.88
263.169	12615.69
263.239	12606.1
263.309	12607.64
263.379	12601.42
263.448	12583.54
263.518	12560.11
263.588	12546.76
263.657	12540.59
263.727	12526.03
263.797	12505.2
263.867	12479.61
263.936	12455.84
264.006	12451.07
264.076	12432.66
264.145	12417.38
264.215	12392.31
264.285	12381.9
264.354	12356.54
264.424	12329.64
264.494	12299.32
264.563	12279.22
264.633	12273.01
264.702	12256.23
264.772	12217.14
264.842	12195.78
264.911	12185.95
264.981	12151.73
265.05	12134.81
265.12	12116.35
265.19	12100.25
265.259	12094.75
265.329	12084.05
265.398	12076
265.468	12087.13
265.537	12060.29
265.607	12049.1
265.676	12045.97
265.746	12032.43
265.815	12024.52
265.885	12019.12
265.955	11988.27
266.024	11972.71
266.094	11940.22
266.163	11938.05
266.232	11940.89
266.302	11919.73
266.371	11902.81
266.441	11895.1
266.51	11891.92
266.58	11874.86
266.649	11851
266.719	11841.07
266.788	11824.54
266.858	11813.6
266.927	11776.92
266.996	11771.13
267.066	11764.38
267.135	11732.09
267.205	11722.84
267.274	11713.73
267.343	11697.19
267.413	11692.47
267.482	11693.82
267.552	11692.13
267.621	11658.2
267.69	11621.76
267.76	11609.81
267.829	11594
267.898	11580.36
267.968	11548.26
268.037	11537.27
268.106	11533.27
268.176	11507.63
268.245	11493.9
268.314	11475.77
268.384	11467.68
268.453	11453.65
268.522	11429.84
268.592	11428.16
268.661	11405.7
268.73	11393.5
268.799	11376.39
268.869	11376.35
268.938	11343.57
269.007	11324.2
269.076	11319.71
269.146	11318.8
269.215	11317.69
269.284	11324.2
269.353	11307.67
269.422	11300.97
269.492	11280.53
269.561	11244.2
269.63	11235.04
269.699	11218.22
269.768	11209.69
269.838	11202.99
269.907	11194.27
269.976	11178.61
270.045	11145.69
270.114	11141.55
270.183	11121.93
270.253	11119.96
270.322	11086.61
270.391	11073.69
270.46	11075.72
270.529	11070.56
270.598	11067.28
270.667	11047.72
270.736	11022.13
270.806	11008.3
270.875	11012.97
270.944	11005.36
271.013	11023.91
271.082	11018.61
271.151	11018.27
271.22	10988.93
271.289	10971.87
271.358	10957.31
271.427	10947.15
271.496	10944.98
271.565	10926.57
271.634	10922.18
271.703	10929.75
271.772	10938.14
271.841	10928.69
271.91	10903.15
271.979	10889.99
272.048	10868.84
272.117	10868.65
272.186	10852.89
272.255	10855.83
272.324	10839.3
272.393	10835.45
272.462	10815.4
272.531	10801.42
272.6	10789.57
272.669	10795.11
272.738	10782.29
272.807	10774.25
272.876	10754.97
272.945	10774.01
273.013	10770.87
273.082	10774.01
273.151	10729.77
273.22	10718.93
273.289	10707.12
273.358	10715.27
273.427	10701.77
273.496	10700.18
273.564	10689.97
273.633	10695.22
273.702	10677.92
273.771	10672.82
273.84	10660.09
273.909	10656.43
273.977	10652.92
274.046	10635.09
274.115	10634.17
274.184	10621.64
274.253	10620.39
274.322	10625.21
274.39	10593.26
274.459	10582.37
274.528	10558.19
274.597	10560.88
274.665	10554.48
274.734	10563.1
274.803	10551.78
274.872	10550.86
274.94	10533.71
275.009	10557.61
275.078	10539.25
275.147	10530.97
275.215	10526.68
275.284	10536.55
275.353	10526.44
275.421	10507.79
275.49	10520.61
275.559	10510.2
275.627	10504.27
275.696	10491.6
275.765	10487.84
275.833	10480.95
275.902	10478.69
275.971	10486.54
276.039	10501.53
276.108	10503.74
276.177	10500.56
276.245	10492.08
276.314	10479.08
276.383	10483.17
276.451	10452.38
276.52	10459.32
276.588	10467.8
276.657	10466.11
276.725	10455.56
276.794	10451.8
276.863	10455.27
276.931	10437.49
277	10444.04
277.068	10446.98
277.137	10469.19
277.205	10465.29
277.274	10479.84
277.342	10484.37
277.411	10464.14
277.48	10446.16
277.548	10435.23
277.617	10427.66
277.685	10412.05
277.754	10417.5
277.822	10403.33
277.89	10416.78
277.959	10402.81
278.027	10391.87
278.096	10379.58
278.164	10396.93
278.233	10388.26
278.301	10383.49
278.37	10390.47
278.438	10379.3
278.507	10387.29
278.575	10358.05
278.643	10359.64
278.712	10342.92
278.78	10329.77
278.849	10339.02
278.917	10346.34
278.985	10346.19
279.054	10351.54
279.122	10366.67
279.191	10358.14
279.259	10365.27
279.327	10338.48
279.396	10354.38
279.464	10346.72
279.532	10356.65
279.601	10356.84
279.669	10357.13
279.737	10365.9
279.806	10364.36
279.874	10368.88
279.942	10368.93
280.011	10364.69
280.079	10373.56
280.147	10388.25
280.215	10387.53
280.284	10382.18
280.352	10371.39
280.42	10379.58
280.488	10370.09
280.557	10368.02
280.625	10372.79
280.693	10372.35
280.761	10378.66
280.83	10367.25
280.898	10376.5
280.966	10354.48
281.034	10320.22
281.102	10308.85
281.171	10294.55
281.239	10304.86
281.307	10295.51
281.375	10281.63
281.443	10301.92
281.512	10291.03
281.58	10293.29
281.648	10281.97
281.716	10284.72
281.784	10277.16
281.852	10262.51
281.92	10253.84
281.989	10258.66
282.057	10248.25
282.125	10281.88
282.193	10282.07
282.261	10281.69
282.329	10280.19
282.397	10286.26
282.465	10292.96
282.533	10310.88
282.601	10314.01
282.67	10291.95
282.738	10290.16
282.806	10302.55
282.874	10288.72
282.942	10292.04
283.01	10284.96
283.078	10301
283.146	10297.29
283.214	10309.34
283.282	10317.82
283.35	10338.05
283.418	10337.42
283.486	10345.95
283.554	10310.1
283.622	10310.59
283.69	10306.39
283.758	10301.96
283.826	10308.32
283.894	10317.23
283.962	10328.89
284.03	10340.12
284.098	10341.66
284.165	10336.12
284.233	10336.8
284.301	10333.52
284.369	10326.29
284.437	10322.68
284.505	10308.9
284.573	10325.52
284.641	10315.26
284.709	10322.39
284.777	10308.03
284.845	10308.52
284.912	10313.96
284.98	10321.28
285.048	10318.54
285.116	10326.15
285.184	10340.8
285.252	10340.55
285.319	10328.85
285.387	10321.14
285.455	10306.78
285.523	10311.55
285.591	10307.31
285.659	10304.28
285.726	10314.15
285.794	10304.47
285.862	10303.07
285.93	10305.24
285.997	10294.45
286.065	10287.46
286.133	10272.48
286.201	10270.17
286.269	10260.15
286.336	10245.4
286.404	10235.58
286.472	10239.09
286.539	10211.15
286.607	10196.6
286.675	10195.54
286.743	10202.38
286.81	10195.98
286.878	10202.62
286.946	10199.59
287.013	10202.48
287.081	10201.13
287.149	10189.13
287.216	10207.25
287.284	10201.23
287.352	10205.51
287.419	10203.01
287.487	10221.85
287.555	10224.54
287.622	10223.24
287.69	10226.76
287.758	10244.92
287.825	10244.83
287.893	10235.14
287.96	10246.75
288.028	10253.16
288.096	10251.57
288.163	10247.57
288.231	10241.74
288.298	10246.75
288.366	10255.18
288.433	10257.21
288.501	10247.91
288.569	10255.23
288.636	10250.46
288.704	10265.06
288.771	10271.18
288.839	10266.46
288.906	10257.4
288.974	10270.55
289.041	10265.3
289.109	10259.47
289.176	10259.47
289.244	10264.43
289.311	10280.81
289.379	10297.92
289.446	10308.23
289.514	10314.3
289.581	10324.03
289.649	10320.08
289.716	10323.36
289.783	10315.45
289.851	10330.49
289.918	10334.68
289.986	10349.61
290.053	10354.24
290.121	10349.71
290.188	10353.51
290.255	10381.03
290.323	10386.76
290.39	10382.28
290.458	10394.27
290.525	10408.49
290.592	10410.17
290.66	10414.65
290.727	10411.62
290.794	10424
290.862	10423.23
290.929	10427.47
290.996	10426.12
291.064	10447.7
291.131	10458.4
291.198	10475.5
291.266	10473.34
291.333	10474.44
291.4	10476.37
291.468	10493.33
291.535	10498.49
291.602	10508.61
291.669	10502.39
291.737	10507.98
291.804	10511.79
291.871	10529.9
291.938	10542.19
292.006	10568.16
292.073	10582.66
292.14	10595.91
292.207	10592.78
292.275	10593.7
292.342	10605.36
292.409	10635.91
292.476	10658.41
292.543	10653.26
292.611	10650.94
292.678	10671.04
292.745	10702.88
292.812	10717.29
292.879	10723.07
292.946	10726.59
293.014	10738.25
293.081	10748.47
293.148	10757.48
293.215	10774.49
293.282	10774.49
293.349	10781.09
293.416	10763.79
293.484	10772.42
293.551	10781.67
293.618	10799.93
293.685	10832.51
293.752	10833.66
293.819	10829.13
293.886	10815.3
293.953	10829.18
294.02	10846.33
294.087	10854.96
294.154	10848.69
294.221	10860.79
294.288	10862.24
294.356	10880.64
294.423	10887.44
294.49	10885.08
294.557	10906.67
294.624	10908.21
294.691	10926.37
294.758	10934.86
294.825	10949.17
294.892	10951
294.959	10947.91
295.026	10955.77
295.093	10947.82
295.16	10952.06
295.226	10957.94
295.293	10984.68
295.36	10980.39
295.427	10996.64
295.494	11015.53
295.561	11027.62
295.628	11047.29
295.695	11063.77
295.762	11074.61
295.829	11082.75
295.896	11100.54
295.963	11107.04
296.03	11113.4
296.096	11117.74
296.163	11122.75
296.23	11135.91
296.297	11149.84
296.364	11159.28
296.431	11162.22
296.498	11157.69
296.564	11182.46
296.631	11187.04
296.698	11177.69
296.765	11208.63
296.832	11205.5
296.899	11191.67
296.965	11207.52
297.032	11189.98
297.099	11203.71
297.166	11214.03
297.233	11214.12
297.299	11209.98
297.366	11210.12
297.433	11218.07
297.5	11223.86
297.566	11228.73
297.633	11231.52
297.7	11245.93
297.767	11240
297.833	11249.11
297.9	11255.04
297.967	11242.32
298.033	11254.99
298.1	11276
298.167	11262.61
298.234	11258.9
298.3	11271.67
298.367	11267.96
298.434	11281.21
298.5	11279.96
298.567	11277.84
298.634	11279.09
298.7	11299.14
298.767	11303.14
298.834	11315.33
298.9	11319.19
298.967	11311.19
299.033	11325.02
299.1	11328.78
299.167	11345.5
299.233	11338.8
299.3	11351.72
299.366	11368.39
299.433	11379.29
299.5	11364.39
299.566	11376.1
299.633	11396.39
299.699	11405.46
299.766	11412.83
299.832	11412.25
299.899	11416.11
299.965	11422.18
300.032	11420.35
300.099	11429.89
300.165	11439.82
300.232	11441.89
300.298	11447.58
300.365	11461.84
300.431	11457.55
300.498	11452.93
300.564	11460.59
300.631	11482.57
300.697	11499.58
300.763	11502.52
300.83	11498.14
300.896	11508.84
300.963	11515.29
301.029	11515.97
301.096	11521.08
301.162	11529.13
301.229	11531.68
301.295	11524.74
301.361	11527.29
301.428	11528.45
301.494	11509.51
301.561	11507.58
301.627	11500.45
301.693	11500.16
301.76	11507.29
301.826	11506.09
301.892	11519.39
301.959	11526.14
302.025	11517.03
302.092	11507.63
302.158	11510.18
302.224	11516.35
302.291	11517.03
302.357	11514.96
302.423	11522.19
302.49	11513.27
302.556	11518.04
302.622	11516.11
302.688	11527.63
302.755	11538.77
302.821	11550.28
302.887	11558.24
302.954	11563.64
303.02	11578.14
303.086	11582.67
303.152	11579.2
303.219	11574.43
303.285	11581.47
303.351	11583.4
303.417	11585.18
303.483	11583.16
303.55	11577.13
303.616	11580.89
303.682	11575.97
303.748	11566.96
303.815	11570.24
303.881	11581.23
303.947	11575.54
304.013	11582.39
304.079	11564.84
304.145	11547.49
304.212	11551.25
304.278	11549.18
304.344	11541.76
304.41	11528.26
304.476	11517.03
304.542	11510.43
304.608	11519.39
304.674	11497.08
304.741	11496.64
304.807	11502.91
304.873	11505.46
304.939	11514.43
305.005	11492.69
305.071	11489.36
305.137	11495.97
305.203	11474.18
305.269	11468.25
305.335	11474.28
305.401	11465.84
305.467	11469.51
305.533	11483.72
305.599	11485.8
305.666	11491
305.732	11488.5
305.798	11494.62
305.864	11519.01
305.93	11523.78
305.996	11515.54
306.062	11516.64
306.128	11508.5
306.194	11492.26
306.259	11489.12
306.325	11483.34
306.391	11491.68
306.457	11503
306.523	11500.83
306.589	11523.54
306.655	11515.29
306.721	11500.02
306.787	11486.57
306.853	11498.33
306.919	11480.21
306.985	11467.24
307.051	11456.83
307.117	11449.41
307.183	11447
307.248	11415.19
307.314	11424.49
307.38	11423.67
307.446	11421.02
307.512	11411.82
307.578	11414.13
307.644	11406.85
307.709	11406.95
307.775	11405.99
307.841	11396.3
307.907	11401.65
307.973	11376.63
308.039	11369.5
308.104	11373.79
308.17	11378.03
308.236	11362.32
308.302	11363.72
308.368	11358.95
308.433	11358.85
308.499	11350.56
308.565	11338.75
308.631	11344.2
308.696	11312.63
308.762	11309.59
308.828	11314.46
308.894	11298.51
308.959	11279.91
309.025	11271.19
309.091	11270.75
309.156	11260.63
309.222	11256.97
309.288	11233.69
309.354	11210.46
309.419	11215.04
309.485	11196.05
309.551	11189.45
309.616	11174.51
309.682	11165.16
309.748	11153.02
309.813	11143.38
309.879	11130.08
309.945	11116.3
310.01	11106.27
310.076	11110.03
310.141	11094.8
310.207	11072.78
310.273	11071.81
310.338	11068.82
310.404	11048.1
310.469	11028.25
310.535	11014.03
310.601	10988.83
310.666	10993.12
310.732	11007.96
310.797	10991.19
310.863	10976.59
310.928	10971.77
310.994	10977.79
311.059	10971.04
311.125	10964.88
311.191	10972.44
311.256	10969.99
311.322	10971
311.387	10950.47
311.453	11303.53
311.518	11276.74
311.584	11269.71
311.649	11270.38
311.715	11259.2
311.78	11262
311.846	11243.44
311.911	11243.49
311.976	11247.01
312.042	11237.42
312.107	11215.35
312.173	11206.15
312.238	11198.77
312.304	11189.62
312.369	11172.17
312.434	11161.67
312.5	11154.54
312.565	11126.06
312.631	11119.26
312.696	11108.56
312.761	11107.02
312.827	10738.54
312.892	10772.66
312.958	10769.57
313.023	10766.05
313.088	10766.39
313.154	10751.26
313.219	10743.79
313.284	10734.35
313.35	10728.28
313.415	10717.39
313.48	10715.36
313.546	10709.63
313.611	10717.53
313.676	10709.87
313.741	10699.61
313.807	10703.56
313.872	10702.5
313.937	10700.18
314.003	10714.06
314.068	10712.57
314.133	10718.01
314.198	10710.01
314.264	10687.46
314.329	10674.64
314.394	10669.78
314.459	10665.73
314.525	10677.68
314.59	10676.19
314.655	10665.01
314.72	10664.53
314.785	10658.07
314.851	10649.54
314.916	10636.77
314.981	10622.9
315.046	10605.84
315.111	10603.19
315.176	10587.19
315.242	10586.04
315.307	10589.5
315.372	10563.87
315.437	10555.87
315.502	10545.75
315.567	10551.97
315.632	10535.25
315.698	10534.43
315.763	10524.46
315.828	10507.88
315.893	10499.11
315.958	10491.74
316.023	10471.51
316.088	10445.87
316.153	10422.65
316.218	10404.64
316.283	10380.31
316.348	10354.34
316.413	10348.42
316.479	10317.58
316.544	10276.93
316.609	10240.27
316.674	10190.41
316.739	10149.41
316.804	10105.19
316.869	10060.87
316.934	10009.13
316.999	9967.52
317.064	9908.22
317.129	9855.52
317.194	9812.75
317.259	9755
317.324	9694.46
317.389	9644.14
317.454	9601.32
317.518	9556.77
317.583	9518.48
317.648	9480.44
317.713	9429.97
317.778	9362.36
317.843	9323.69
317.908	9276.75
317.973	9229.03
318.038	9186.57
318.103	9140.83
318.168	9094.81
318.233	9055.86
318.297	8996.6
318.362	8944.61
318.427	8894.74
318.492	8853.77
318.557	8797.07
318.622	8760.73
318.687	8730.55
318.751	8682.91
318.816	8635.69
318.881	8588.91
318.946	8527.75
319.011	8470.15
319.075	8422.13
319.14	8373.39
319.205	8315.94
319.27	8273.55
319.335	8211.64
319.399	8164.39
319.464	8121.92
319.529	8063.52
319.594	8007.09
319.658	7962.22
319.723	7918.93
319.788	7879.98
319.853	7815.63
319.917	7769.66
319.982	7703.34
320.047	7646.41
320.112	7604.96
320.176	7539.82
320.241	7486.89
320.306	7441.36
320.37	7385.85
320.435	7340.57
320.5	7300.58
320.564	7246.99
320.629	7191.06
320.694	7148.29
320.758	7093.65
320.823	7039.16
320.888	6996.5
320.952	6935.01
321.017	6887.69
321.082	6830.72
321.146	6779.08
321.211	6734.94
321.275	6680.34
321.34	6624.3
321.405	6567.88
321.469	6506.57
321.534	6459
321.598	6397.07
321.663	6352.71
321.727	6312.29
321.792	6248.99
321.857	6194.51
321.921	6141.72
321.986	6087.84
322.05	6021.55
322.115	5972.66
322.179	5914.04
322.244	5849.24
322.308	5808.23
322.373	5748.33
322.437	5695.58
322.502	5655.14
322.566	5595.01
322.631	5549.18
322.695	5500.1
322.76	5445.6
322.824	5402.99
322.889	5348.98
322.953	5300.93
323.018	5229.34
323.082	5159.3
323.146	5106
323.211	5043.48
323.275	4994.63
323.34	4941.24
323.404	4894.52
323.468	4834.04
323.533	4783.01
323.597	4730.04
323.662	4664.17
323.726	4618.13
323.79	4560.42
323.855	4490.96
323.919	4434.23
323.983	4377.48
324.048	4298.23
324.112	4385.75
324.177	4225.96
324.241	3998.82
324.305	3775.69
324.37	3557.44
324.434	3347.61
324.498	3291.68
324.562	3229.28
324.627	3155.32
324.691	3085.6
324.755	3011.24
324.82	2926.69
324.884	2834.59
324.948	2741.99
325.012	2631.87
325.077	2488.12
