Data from 20250702_urea_5M_MAYP1162681_11-43-30-237.txt Node
Date: Wed Jul 02 11:43:30 BST 2025
User: adleo
Spectrometer: MAYP116268
Trigger mode: 0
Integration Time (sec): 1.000000E0
Scans to average: 1
Electric dark correction enabled: true
Nonlinearity correction enabled: true
Boxcar width: 10
XAxis mode: Wavelengths
Number of Pixels in Spectrum: 2068
>>>>>Begin Spectral Data<<<<<
179.565	1010.46
179.642	1056.44
179.718	1088.6
179.795	1121.29
179.871	1146.63
179.948	1160.58
180.024	1178.28
180.101	1199.83
180.177	1208.72
180.254	1230.44
180.33	1250.27
180.407	1289.57
180.483	1370.38
180.56	1445.06
180.636	1513.75
180.712	1504.97
180.789	1514.46
180.865	1528.33
180.942	1536.11
181.018	1546.7
181.095	1561.29
181.171	1565.9
181.248	1567.04
181.324	1584.04
181.4	1592.07
181.477	1602.95
181.553	1614.63
181.63	1631.45
181.706	1645.13
181.782	1656.57
181.859	1655.53
181.935	1658.86
182.011	1654.48
182.088	1667.31
182.164	1683.09
182.24	1697.43
182.317	1702.51
182.393	1701.23
182.469	1713.06
182.546	1722.99
182.622	1726.46
182.698	1720.14
182.775	1730.93
182.851	1742.85
182.927	1735.49
183.003	1729.79
183.08	1724.04
183.156	1733.92
183.232	1731.69
183.308	1720.62
183.385	1726.84
183.461	1739.1
183.537	1740.1
183.613	1751.41
183.69	1746.7
183.766	1738.29
183.842	1742.09
183.918	1750.79
183.995	1762.24
184.071	1765.04
184.147	1762.38
184.223	1752.55
184.299	1762.72
184.375	1752.79
184.452	1760.44
184.528	1810.35
184.604	1819.81
184.68	1831.02
184.756	1835.01
184.832	1841.71
184.908	1845.94
184.985	1843.52
185.061	1832.3
185.137	1840.38
185.213	1830.93
185.289	1830.93
185.365	1825.56
185.441	1824.37
185.517	1836.73
185.593	1833.36
185.669	1831.55
185.745	1841.34
185.822	1851.65
185.898	1845.9
185.974	1852.46
186.05	1844.14
186.126	1808.77
186.202	1803.07
186.278	1800.74
186.354	1794.37
186.43	1801.46
186.506	1799.08
186.582	1797.94
186.658	1803.36
186.734	1786.11
186.81	1787.91
186.886	1790.38
186.962	1801.6
187.038	1799.32
187.114	1789.38
187.19	1794.66
187.266	1784.58
187.341	1784.16
187.417	1780.02
187.493	1779.83
187.569	1783.73
187.645	1778.41
187.721	1767.14
187.797	1775.12
187.873	1780.73
187.949	1775.27
188.025	1768.56
188.101	1771.32
188.176	1777.31
188.252	1771.8
188.328	1777.64
188.404	1777.69
188.48	1774.17
188.556	1766.38
188.632	1767.61
188.707	1770.37
188.783	1767.14
188.859	1763.53
188.935	1755.4
189.011	1763.81
189.086	1758.63
189.162	1749.74
189.238	1748.75
189.314	1747.22
189.39	1742.57
189.465	1734.68
189.541	1748.7
189.617	1733.97
189.693	1730.45
189.768	1732.11
189.844	1754.46
189.92	1748.19
189.996	1757.83
190.071	1766.48
190.147	1767.2
190.223	1774.04
190.298	1765.58
190.374	1755.84
190.45	1769.9
190.526	1777.27
190.601	1771.04
190.677	1770.09
190.753	1794.91
190.828	1796.95
190.904	1807.93
190.98	1819.77
191.055	1828.85
191.131	1820.1
191.207	1837.45
191.282	1843.24
191.358	1835.21
191.433	1821.95
191.509	1833.21
191.585	1829.12
191.66	1830.69
191.736	1837.34
191.811	1830.73
191.887	1845.33
191.963	1867.29
192.038	1866.82
192.114	1867.1
192.189	1870.9
192.265	1870.76
192.34	1851.83
192.416	1851.07
192.491	1848.89
192.567	1851.79
192.642	1853.31
192.718	1854.54
192.793	1842.47
192.869	1841.09
192.944	1844.75
193.02	1853.69
193.095	1856.78
193.171	1862.44
193.246	1859.39
193.322	1856.68
193.397	1856.49
193.473	1844.42
193.548	1825.83
193.624	1831.49
193.699	1828.68
193.775	1844.09
193.85	1844.71
193.925	1852.93
194.001	1850.98
194.076	1844.23
194.152	1835.63
194.227	1828.26
194.302	1820.28
194.378	1825.17
194.453	1822.46
194.529	1832.78
194.604	1817.71
194.679	1814.86
194.755	1798.89
194.83	1813.01
194.905	1808.97
194.981	1815.96
195.056	1808.17
195.131	1815.77
195.207	1812.68
195.282	1804.22
195.357	1786.92
195.433	1799.37
195.508	1787.91
195.583	1796.37
195.659	1807.92
195.734	1812.11
195.809	1811.87
195.884	1819.95
195.96	1818.24
196.035	1832.54
196.11	1830.5
196.185	1841.62
196.261	1843.8
196.336	1868.9
196.411	1853.54
196.486	1860.2
196.561	1853.97
196.637	1863.05
196.712	1875.46
196.787	1879.31
196.862	1891.67
196.937	1900.55
197.013	1906.36
197.088	1915.1
197.163	1931.22
197.238	1948.06
197.313	1947.02
197.388	1960.38
197.464	1986.87
197.539	1996.76
197.614	1991.67
197.689	2003.27
197.764	2017.21
197.839	2034.8
197.914	2029.48
197.989	2051.83
198.065	2064.19
198.14	2108.64
198.215	2130.66
198.29	2141.75
198.365	2153.97
198.44	2166.86
198.515	2192.36
198.59	2205.73
198.665	2230.85
198.74	2239.94
198.815	2240.66
198.89	2261.11
198.965	2287.96
199.04	2283.58
199.115	2298.42
199.19	2334.92
199.265	2335.4
199.34	2344.49
199.415	2373.63
199.49	2391.71
199.565	2398.28
199.64	2418.79
199.715	2415.65
199.79	2424.79
199.865	2429.79
199.94	2427.12
200.015	2454.26
200.09	2455.31
200.165	2459.12
200.24	2463.83
200.315	2500.24
200.39	2512.95
200.464	2520.42
200.539	2521.38
200.614	2535.18
200.689	2557.66
200.764	2562.04
200.839	2580.89
200.914	2584.7
200.989	2575.55
201.063	2587.98
201.138	2572.14
201.213	2571.9
201.288	2556.76
201.363	2560.04
201.438	2563.99
201.512	2579.51
201.587	2564.32
201.662	2569.46
201.737	2581.51
201.812	2591.7
201.886	2562.35
201.961	2569.73
202.036	2558.5
202.111	2553.4
202.186	2529.6
202.26	2512.5
202.335	2494.12
202.41	2486.12
202.485	2470.46
202.559	2452.8
202.634	2431.9
202.709	2440.27
202.784	2424.99
202.858	2425.42
202.933	2408.33
203.008	2398.86
203.082	2381.34
203.157	2380.58
203.232	2343.66
203.306	2324.9
203.381	2293.48
203.456	2272.58
203.53	2252.25
203.605	2235.08
203.68	2214.8
203.754	2208.38
203.829	2194.34
203.904	2179.45
203.978	2169.5
204.053	2173.74
204.127	2163.51
204.202	2162.7
204.277	2149.81
204.351	2143.67
204.426	2136.25
204.5	2128.88
204.575	2099.01
204.65	2108.48
204.724	2102.91
204.799	2109.28
204.873	2106.38
204.948	2106.95
205.022	2094.83
205.097	2087.92
205.171	2099.29
205.246	2103.24
205.32	2099.39
205.395	2100.34
205.469	2090.83
205.544	2096.73
205.618	2082.84
205.693	2092.26
205.767	2080.28
205.842	2099.35
205.916	2092.03
205.991	2080.47
206.065	2085.85
206.14	2099.63
206.214	2095.68
206.289	2086.36
206.363	2096.25
206.438	2097.92
206.512	2101.06
206.586	2120.41
206.661	2128.69
206.735	2109.48
206.81	2114.62
206.884	2131.36
206.958	2120.14
207.033	2137.12
207.107	2143.35
207.181	2169.71
207.256	2163.96
207.33	2180.75
207.405	2188.13
207.479	2205.4
207.553	2217.05
207.628	2202.16
207.702	2212.49
207.776	2206.4
207.851	2211.06
207.925	2225.86
207.999	2220.29
208.073	2219.44
208.148	2219.53
208.222	2208.68
208.296	2237.27
208.371	2250.6
208.445	2261.88
208.519	2286.95
208.593	2292.61
208.668	2287.09
208.742	2290.66
208.816	2290.52
208.89	2302.8
208.965	2303.18
209.039	2312.23
209.113	2326.32
209.187	2344.44
209.261	2340.82
209.336	2357.91
209.41	2373.71
209.484	2376.23
209.558	2397.37
209.632	2409.79
209.707	2421.02
209.781	2436.16
209.855	2448.44
209.929	2465.26
210.003	2466.83
210.077	2467.64
210.151	2510.86
210.226	2541.49
210.3	2563.65
210.374	2584.88
210.448	2589.02
210.522	2595.64
210.596	2602.88
210.67	2609.5
210.744	2651.33
210.818	2681.28
210.892	2700.57
210.966	2697.05
211.041	2705.43
211.115	2703.96
211.189	2725.68
211.263	2739.78
211.337	2749.78
211.411	2764.31
211.485	2757.02
211.559	2766.45
211.633	2767.5
211.707	2739.56
211.781	2744.19
211.855	2715.65
211.929	2709.65
212.003	2689.89
212.077	2699.51
212.151	2712.48
212.225	2720.29
212.299	2711.28
212.373	2695.85
212.447	2689.51
212.52	2715.24
212.594	2717.86
212.668	2725.96
212.742	2709.71
212.816	2705.23
212.89	2697.8
212.964	2692.41
213.038	2692.8
213.112	2702.95
213.186	2715.23
213.26	2694.19
213.333	2656.13
213.407	2656.51
213.481	2659.27
213.555	2672.55
213.629	2661.59
213.703	2643.49
213.777	2641.91
213.85	2620.9
213.924	2652.88
213.998	2651.97
214.072	2639.58
214.146	2627.24
214.219	2624.15
214.293	2622.62
214.367	2623.19
214.441	2634.1
214.515	2624.76
214.588	2603.95
214.662	2576.09
214.736	2557.18
214.81	2567.37
214.883	2577.17
214.957	2568.84
215.031	2558.37
215.105	2540.48
215.178	2529.86
215.252	2527.19
215.326	2508
215.4	2495
215.473	2457.36
215.547	2444.98
215.621	2442.5
215.694	2455.98
215.768	2445.6
215.842	2441.65
215.915	2436.46
215.989	2422.5
216.063	2426.07
216.136	2441.69
216.21	2452.17
216.284	2478.84
216.357	2492.6
216.431	2502.41
216.504	2531.04
216.578	2572.44
216.652	2601.24
216.725	2622.63
216.799	2653.13
216.873	2683.14
216.946	2721.25
217.02	2743.54
217.093	2771.55
217.167	2780.89
217.24	2798.68
217.314	2827.31
217.387	2857.62
217.461	2886.6
217.535	2934.37
217.608	2960.11
217.682	2996.45
217.755	3048.72
217.829	3080.63
217.902	3128.62
217.976	3175.22
218.049	3211.62
218.123	3244.99
218.196	3297.43
218.27	3344.39
218.343	3384.35
218.417	3439.92
218.49	3488.19
218.563	3562.67
218.637	3625.52
218.71	3711.94
218.784	3777.15
218.857	3850.91
218.931	3922.57
219.004	3990.04
219.077	4061.43
219.151	4138.09
219.224	4205.31
219.298	4272.02
219.371	4352.24
219.444	4414.61
219.518	4488.52
219.591	4569.71
219.665	4673.99
219.738	4751.28
219.811	4824.5
219.885	4913.8
219.958	4995.74
220.031	5075.65
220.105	5154.17
220.178	5237.4
220.251	5305.46
220.325	5388.95
220.398	5472.88
220.471	5556.99
220.544	5656.91
220.618	5732.54
220.691	5816.17
220.764	5902.4
220.838	5993.83
220.911	6073.19
220.984	6177.16
221.057	6269.92
221.131	6352.66
221.204	6411.05
221.277	6519.42
221.35	6634.67
221.424	6714.53
221.497	6805.69
221.57	6897.41
221.643	6991.29
221.716	7089.56
221.79	7172.53
221.863	7264.66
221.936	7354.34
222.009	7440.99
222.082	7531.04
222.155	7618.34
222.229	7724.89
222.302	7815.81
222.375	7900.11
222.448	7993.12
222.521	8071.71
222.594	8158.92
222.667	8234.81
222.74	8328.14
222.814	8400.22
222.887	8478.14
222.96	8576.26
223.033	8664.82
223.106	8753.12
223.179	8839.82
223.252	8918.57
223.325	9006.03
223.398	9092.45
223.471	9177.81
223.544	9259.26
223.617	9337.7
223.69	9418.54
223.763	9477.82
223.837	9563.3
223.91	9648.59
223.983	9713.31
224.056	9775.77
224.129	9846.67
224.202	9935.81
224.275	9998.71
224.348	10066.92
224.42	10128.82
224.493	10185.77
224.566	10254.95
224.639	10328.85
224.712	10391.92
224.785	10456.39
224.858	10523.6
224.931	10583.54
225.004	10633.65
225.077	10700.23
225.15	10743.12
225.223	10809.57
225.296	10903.83
225.369	10947.97
225.442	11002.95
225.514	11073.55
225.587	11148.29
225.66	11221.88
225.733	11285.21
225.806	11347.61
225.879	11406.17
225.952	11456.53
226.025	11522.66
226.097	11586.71
226.17	11643.83
226.243	11682.67
226.316	11742.06
226.389	11802.21
226.461	11862.41
226.534	11921.7
226.607	11978.91
226.68	12053.81
226.753	12104.95
226.825	12128.09
226.898	12201.07
226.971	12251.58
227.044	12302.2
227.117	12357.63
227.189	12402.46
227.262	12457.22
227.335	12520.46
227.407	12568.76
227.48	12621.07
227.553	12677.85
227.626	12718.15
227.698	12761.87
227.771	12821.26
227.844	12857.32
227.916	12899.4
227.989	12933.87
228.062	12981.88
228.134	13042
228.207	13078.78
228.28	13122.69
228.352	13170.27
228.425	13210.91
228.498	13265.58
228.57	13306.26
228.643	13362.95
228.716	13407.74
228.788	13443.22
228.861	13472.04
228.934	13521.84
229.006	13565.47
229.079	13592.46
229.151	13631.56
229.224	13660.82
229.296	13701.89
229.369	13758.44
229.442	13814.46
229.514	13843.14
229.587	13889.27
229.659	13911.78
229.732	13953.53
229.804	14000.53
229.877	14065.13
229.949	14102.73
230.022	14152.96
230.094	14183.14
230.167	14205.7
230.239	14229.56
230.312	14266.48
230.384	14321.87
230.457	14352.58
230.529	14390.08
230.602	14432.41
230.674	14467.35
230.747	14518.26
230.819	14561.11
230.892	14571.33
230.964	14600.88
231.037	14646.68
231.109	14675.6
231.181	14708.33
231.254	14733.83
231.326	14752.97
231.399	14770.08
231.471	14800.64
231.544	14807.29
231.616	14851.5
231.688	14889.82
231.761	14911.66
231.833	14938.6
231.905	14944.48
231.978	14968.58
232.05	14998.62
232.122	15031.73
232.195	15051.16
232.267	15080.56
232.339	15097.53
232.412	15132.57
232.484	15155.42
232.556	15174.56
232.629	15219.67
232.701	15257.95
232.773	15283.35
232.846	15309.91
232.918	15333.91
232.99	15359.65
233.062	15386.26
233.135	15403.42
233.207	15403.95
233.279	15438.22
233.351	15465.89
233.424	15493.32
233.496	15518.24
233.568	15556.17
233.64	15555.88
233.713	15578.44
233.785	15594.63
233.857	15620.28
233.929	15635.75
234.001	15673.54
234.074	15704.87
234.146	15698.22
234.218	15712.19
234.29	15732.82
234.362	15751.28
234.434	15755.24
234.507	15759.43
234.579	15767.14
234.651	15780.35
234.723	15815.63
234.795	15834.86
234.867	15849.85
234.939	15875.35
235.012	15889.71
235.084	15901.57
235.156	15931.26
235.228	15932.47
235.3	15941.24
235.372	15951.31
235.444	15967.46
235.516	15950.49
235.588	15961.44
235.66	15974.26
235.732	15973.49
235.804	16028.67
235.876	16040.14
235.948	16067.47
236.02	16081.93
236.092	16087.04
236.164	16106.03
236.236	16109.31
236.308	16115.09
236.38	16124.15
236.452	16115.81
236.524	16124.68
236.596	16143.82
236.668	16161.79
236.74	16180.06
236.812	16188.01
236.884	16201.08
236.956	16199.49
237.028	16192.3
237.1	16182.42
237.172	16206.96
237.244	16230.24
237.316	16202.76
237.388	16203.54
237.46	16189.61
237.532	16198.33
237.604	16196.74
237.675	16205.46
237.747	16209.7
237.819	16207.78
237.891	16201.08
237.963	16202.09
238.035	16203.05
238.107	16171.82
238.178	16167.72
238.25	16163.44
238.322	16190.18
238.394	16167.39
238.466	16174.62
238.538	16193.03
238.609	16201.13
238.681	16174.67
238.753	16153.89
238.825	16155.1
238.897	16145.12
238.968	16163.77
239.04	16156.06
239.112	16178.86
239.184	16166.42
239.255	16153.89
239.327	16150.47
239.399	16149.17
239.471	16148.93
239.542	16145.65
239.614	16148.16
239.686	16118.9
239.758	16113.26
239.829	16082.56
239.901	16099.19
239.973	16084.34
240.044	16075.52
240.116	16065.88
240.188	16059.52
240.259	16051.86
240.331	16034.6
240.403	16042.84
240.474	16010.21
240.546	15994.26
240.618	15963.17
240.689	15938.01
240.761	15930.15
240.833	15931.89
240.904	15917.43
240.976	15908.22
241.048	15895.98
241.119	15890.63
241.191	15892.99
241.262	15901.33
241.334	15889.72
241.405	15866.68
241.477	15856.84
241.549	15836.07
241.62	15824.69
241.692	15819.87
241.763	15825.75
241.835	15801.7
241.906	15776.64
241.978	15762.28
242.049	15760.25
242.121	15761.46
242.192	15766.85
242.264	15740.83
242.335	15712.19
242.407	15702.7
242.478	15683.08
242.55	15671.8
242.621	15656.09
242.693	15623.12
242.764	15600.61
242.836	15589.09
242.907	15576.32
242.979	15562.82
243.05	15548.22
243.122	15528.89
243.193	15506.14
243.264	15460.1
243.336	15441.93
243.407	15439.38
243.479	15429.54
243.55	15405.59
243.622	15385.59
243.693	15368.86
243.764	15368.09
243.836	15329.43
243.907	15305.57
243.978	15277.56
244.05	15262.38
244.121	15226.04
244.192	15223.91
244.264	15189.74
244.335	15164.39
244.407	15131.32
244.478	15113.19
244.549	15092.61
244.62	15064.22
244.692	15042.33
244.763	15036.31
244.834	15017.8
244.906	14981.31
244.977	14975.48
245.048	14962.99
245.119	14935.9
245.191	14894.93
245.262	14850.44
245.333	14850.29
245.405	14830.67
245.476	14825.42
245.547	14800.74
245.618	14787.87
245.689	14768.78
245.761	14755.48
245.832	14728.77
245.903	14715.32
245.974	14703.8
246.045	14683.27
246.117	14680.95
246.188	14652.85
246.259	14613.56
246.33	14588.78
246.401	14571.72
246.473	14519.9
246.544	14503.32
246.615	14492.81
246.686	14469.43
246.757	14458.97
246.828	14429.8
246.899	14422.19
246.97	14381.74
247.042	14347.04
247.113	14334.65
247.184	14325.73
247.255	14293.19
247.326	14277.04
247.397	14258.63
247.468	14233.27
247.539	14213.6
247.61	14181.79
247.681	14167.18
247.752	14159.95
247.823	14131.32
247.894	14115.6
247.965	14094.05
248.037	14060.74
248.108	14020.25
248.179	13997.78
248.25	13977.39
248.321	13959.46
248.392	13918.44
248.463	13915.3
248.534	13895.44
248.605	13870.66
248.675	13833.35
248.746	13819.08
248.817	13802.16
248.888	13778.93
248.959	13739.35
249.03	13723.68
249.101	13701.65
249.172	13675.09
249.243	13633.54
249.314	13624.76
249.385	13599.12
249.456	13580.37
249.527	13559.88
249.598	13548.84
249.669	13530.42
249.739	13516.06
249.81	13507.19
249.881	13476.67
249.952	13457.2
250.023	13435.36
250.094	13401.08
250.165	13378.14
250.235	13353.94
250.306	13331.33
250.377	13299.8
250.448	13286.02
250.519	13249.62
250.59	13239.5
250.66	13210.48
250.731	13209.37
250.802	13186.66
250.873	13170.85
250.944	13151.91
251.014	13123.32
251.085	13127.46
251.156	13108.04
251.227	13100.61
251.297	13085.96
251.368	13080.37
251.439	13060.36
251.51	13052.17
251.58	13022.33
251.651	13000.83
251.722	12982.22
251.792	12941.63
251.863	12920.03
251.934	12914.2
252.005	12914.15
252.075	12888.41
252.146	12886.29
252.217	12869.9
252.287	12853.51
252.358	12822.27
252.429	12816.01
252.499	12786.22
252.57	12764.28
252.641	12762.5
252.711	12732.22
252.782	12691.49
252.852	12683.15
252.923	12659
252.994	12642.47
253.064	12635.57
253.135	12602.36
253.205	12588.24
253.276	12592.19
253.347	12590.65
253.417	12552.61
253.488	12524.7
253.558	12501.28
253.629	12483.34
253.699	12465.94
253.77	12455.24
253.841	12437.4
253.911	12424.73
253.982	12411.09
254.052	12396.48
254.123	12373.24
254.193	12352.9
254.264	12374.11
254.334	12347.46
254.405	12329.04
254.475	12299.98
254.546	12282.43
254.616	12287.3
254.687	12266.57
254.757	12246.33
254.827	12222.99
254.898	12215.38
254.968	12199.04
255.039	12178.41
255.109	12160.53
255.18	12131.03
255.25	12087.84
255.321	12078.73
255.391	12046.77
255.461	12048.6
255.532	11996.59
255.602	11971.14
255.673	11935.09
255.743	11896.72
255.813	11860.95
255.884	11846.93
255.954	11830.06
256.024	11827.02
256.095	11801.09
256.165	11770.43
256.235	11758.67
256.306	11734.86
256.376	11720.07
256.446	11706.81
256.517	11694.62
256.587	11688.98
256.657	11682.61
256.728	11680.54
256.798	11661.36
256.868	11644.73
256.938	11614.46
257.009	11608.2
257.079	11594.99
257.149	11605.88
257.219	11575.08
257.29	11565.69
257.36	11536.48
257.43	11533.2
257.5	11494.93
257.571	11474.26
257.641	11471.46
257.711	11437.15
257.781	11433.24
257.852	11421.53
257.922	11383.7
257.992	11366.2
258.062	11345.96
258.132	11336.37
258.202	11309.52
258.273	11288.22
258.343	11285.76
258.413	11267.11
258.483	11248.46
258.553	11226.97
258.623	11200.08
258.693	11189.91
258.764	11187.79
258.834	11179.69
258.904	11160.22
258.974	11130.25
259.044	11111.74
259.114	11090.92
259.184	11083.36
259.254	11052.08
259.324	11019.36
259.394	11014.49
259.464	11008.76
259.535	10987.46
259.605	10965.24
259.675	10944.28
259.745	10936.14
259.815	10903.03
259.885	10877.54
259.955	10889.39
260.025	10858.22
260.095	10843.28
260.165	10832.58
260.235	10827.67
260.305	10811.24
260.375	10780.35
260.445	10792.25
260.515	10787.57
260.585	10786.8
260.655	10767.19
260.725	10757.8
260.795	10747
260.865	10750.42
260.934	10728.5
261.004	10719.15
261.074	10701.22
261.144	10699.39
261.214	10694.14
261.284	10679.3
261.354	10684.26
261.424	10660.75
261.494	10671.78
261.564	10656.7
261.634	10647.35
261.703	10612.51
261.773	10592.37
261.843	10586.16
261.913	10567.56
261.983	10544.63
262.053	10530.36
262.123	10516.63
262.192	10493.7
262.262	10484.93
262.332	10452.07
262.402	10437.57
262.472	10422.15
262.541	10395.65
262.611	10386.4
262.681	10359.47
262.751	10354.51
262.821	10329.79
262.89	10295.2
262.96	10281.18
263.03	10286.77
263.1	10276.17
263.169	10261.62
263.239	10259.3
263.309	10263.4
263.379	10256.22
263.448	10237.63
263.518	10232.81
263.588	10214.02
263.657	10218.79
263.727	10222.11
263.797	10211.04
263.867	10197.88
263.936	10172.54
264.006	10164.31
264.076	10153.61
264.145	10145.81
264.215	10125.91
264.285	10119.03
264.354	10091.52
264.424	10065.94
264.494	10031.31
264.563	10011.07
264.633	10014.2
264.702	10001.49
264.772	9967.04
264.842	9945.61
264.911	9937.03
264.981	9904.13
265.05	9895.41
265.12	9875.42
265.19	9856.97
265.259	9846.62
265.329	9845.6
265.398	9834.57
265.468	9849.31
265.537	9832.74
265.607	9813.57
265.676	9812.51
265.746	9802.16
265.815	9806.44
265.885	9795.13
265.955	9772.83
266.024	9754.33
266.094	9725.34
266.163	9720.33
266.232	9719.99
266.302	9710.94
266.371	9704.39
266.441	9693.36
266.51	9687
266.58	9672.17
266.649	9646.55
266.719	9646.3
266.788	9630.41
266.858	9629.98
266.927	9595.44
266.996	9582.05
267.066	9574.98
267.135	9547.38
267.205	9537.99
267.274	9523.64
267.343	9526.72
267.413	9516.9
267.482	9517.04
267.552	9518.58
267.621	9498.65
267.69	9474.71
267.76	9456.17
267.829	9448.03
267.898	9441.58
267.968	9420.59
268.037	9416.44
268.106	9415.77
268.176	9393.52
268.245	9379.6
268.314	9365.93
268.384	9360.87
268.453	9345.85
268.522	9338.58
268.592	9338.29
268.661	9326.35
268.73	9322.25
268.799	9298.76
268.869	9308.72
268.938	9284.45
269.007	9267.94
269.076	9251.86
269.146	9248.97
269.215	9245.16
269.284	9246.42
269.353	9228.75
269.422	9220.61
269.492	9201.54
269.561	9165.97
269.63	9155.61
269.699	9138.28
269.768	9125.23
269.838	9119.5
269.907	9121.86
269.976	9097.55
270.045	9061.83
270.114	9056.73
270.183	9041.9
270.253	9035.02
270.322	9006.47
270.391	8993.13
270.46	8995.16
270.529	8993.23
270.598	8988.94
270.667	8974.21
270.736	8947.3
270.806	8937.29
270.875	8934.83
270.944	8924.1
271.013	8942.29
271.082	8937.91
271.151	8935.65
271.22	8909.71
271.289	8892.95
271.358	8873.89
271.427	8868.6
271.496	8868.64
271.565	8853.14
271.634	8844.19
271.703	8865.23
271.772	8865.9
271.841	8858.06
271.91	8833.36
271.979	8826.72
272.048	8806.26
272.117	8807.03
272.186	8794.71
272.255	8795.96
272.324	8791.87
272.393	8790.72
272.462	8774.25
272.531	8764.53
272.6	8752.98
272.669	8762.79
272.738	8751.58
272.807	8745.28
272.876	8729.2
272.945	8748.26
273.013	8753.7
273.082	8757.22
273.151	8716.11
273.22	8707.01
273.289	8699.41
273.358	8705.08
273.427	8692.04
273.496	8691.61
273.564	8685.3
273.633	8687.76
273.702	8668.55
273.771	8658.35
273.84	8648.15
273.909	8650.27
273.977	8646.17
274.046	8636.5
274.115	8633.37
274.184	8624.33
274.253	8619.47
274.322	8622.74
274.39	8595.93
274.459	8575.09
274.528	8553.15
274.597	8550.74
274.665	8554.01
274.734	8558.1
274.803	8550.59
274.872	8543.57
274.94	8525.72
275.009	8578.24
275.078	8565.83
275.147	8568.57
275.215	8564.14
275.284	8574.97
275.353	8563.76
275.421	8551.58
275.49	8565.88
275.559	8555.68
275.627	8546.49
275.696	8539.65
275.765	8545.81
275.833	8541.82
275.902	8546.25
275.971	8551.97
276.039	8566.6
276.108	8566.36
276.177	8569.78
276.245	8559.24
276.314	8556.06
276.383	8566.22
276.451	8504.26
276.52	8509.07
276.588	8515.32
276.657	8516.05
276.725	8503.39
276.794	8500.55
276.863	8498.53
276.931	8478.41
277	8487.41
277.068	8495.83
277.137	8508.53
277.205	8506.99
277.274	8516.71
277.342	8524.17
277.411	8505.94
277.48	8489.58
277.548	8478.22
277.617	8470.95
277.685	8466.38
277.754	8473.79
277.822	8466.33
277.89	8481.45
277.959	8476.01
278.027	8462.01
278.096	8455.99
278.164	8482.32
278.233	8475.77
278.301	8468.7
278.37	8471.59
278.438	8455.27
278.507	8462.11
278.575	8443.34
278.643	8435.54
278.712	8424.77
278.78	8408.5
278.849	8416.87
278.917	8424.86
278.985	8422.94
279.054	8421.73
279.122	8431.45
279.191	8421.78
279.259	8415.91
279.327	8397
279.396	8407.78
279.464	8400.7
279.532	8402.92
279.601	8395.7
279.669	8389.39
279.737	8404.74
279.806	8405.8
279.874	8415.95
279.942	8409.22
280.011	8401.04
280.079	8408.69
280.147	8423.94
280.215	8428.9
280.284	8429.43
280.352	8420.53
280.42	8424.47
280.488	8418.89
280.557	8411.39
280.625	8417.26
280.693	8420.77
280.761	8426.06
280.83	8410.13
280.898	8426.16
280.966	8411.34
281.034	8377.8
281.102	8366.01
281.171	8356.53
281.239	8364.33
281.307	8357.64
281.375	8350.86
281.443	8377.46
281.512	8372.51
281.58	8379.49
281.648	8362.69
281.716	8362.65
281.784	8360.58
281.852	8361.15
281.92	8364.91
281.989	8367.55
282.057	8357.35
282.125	8395.52
282.193	8385.51
282.261	8388.59
282.329	8379.11
282.397	8384.4
282.465	8391.19
282.533	8408.94
282.601	8403.98
282.67	8384.21
282.738	8374.78
282.806	8385.65
282.874	8371.98
282.942	8376.75
283.01	8365.44
283.078	8371.4
283.146	8367.22
283.214	8372.32
283.282	8371.98
283.35	8379.01
283.418	8378.62
283.486	8379.15
283.554	8341.47
283.622	8340.07
283.69	8343.39
283.758	8342.96
283.826	8346.81
283.894	8351.81
283.962	8371.49
284.03	8383.81
284.098	8386.55
284.165	8383.67
284.233	8381.26
284.301	8378.23
284.369	8369.95
284.437	8361.82
284.505	8365
284.573	8376.64
284.641	8369.42
284.709	8372.55
284.777	8360.76
284.845	8362.4
284.912	8366.2
284.98	8369.86
285.048	8368.41
285.116	8365.24
285.184	8374.23
285.252	8373.22
285.319	8365.57
285.387	8350.94
285.455	8332.23
285.523	8340.21
285.591	8340.74
285.659	8342.38
285.726	8351.67
285.794	8336.03
285.862	8339.88
285.93	8337.09
285.997	8335.41
286.065	8332.37
286.133	8324.19
286.201	8319.33
286.269	8312.45
286.336	8306.1
286.404	8297.01
286.472	8306.63
286.539	8287.58
286.607	8275.31
286.675	8275.31
286.743	8281.81
286.81	8276.13
286.878	8286.86
286.946	8279.21
287.013	8280.41
287.081	8275.94
287.149	8258.57
287.216	8272.13
287.284	8264.48
287.352	8260.06
287.419	8250.24
287.487	8262.46
287.555	8268.82
287.622	8269.44
287.69	8271.85
287.758	8279.45
287.825	8280.6
287.893	8266.7
287.96	8274.39
288.028	8281.27
288.096	8278.34
288.163	8280.36
288.231	8276.22
288.298	8278.15
288.366	8290.66
288.433	8286.52
288.501	8285.99
288.569	8295.9
288.636	8290.71
288.704	8299.7
288.771	8307.88
288.839	8306.87
288.906	8300.62
288.974	8304.32
289.041	8301.05
289.109	8294.99
289.176	8307.07
289.244	8310.24
289.311	8327.56
289.379	8339.06
289.446	8339.78
289.514	8344.84
289.581	8342.86
289.649	8340.65
289.716	8341.85
289.783	8331.99
289.851	8347.77
289.918	8340.65
289.986	8347.24
290.053	8356.05
290.121	8354.75
290.188	8358.88
290.255	8382.51
290.323	8373.61
290.39	8368.51
290.458	8372.31
290.525	8380.87
290.592	8373.9
290.66	8370.77
290.727	8365.76
290.794	8376.59
290.862	8380.54
290.929	8384.05
290.996	8386.22
291.064	8394.2
291.131	8406.14
291.198	8411.72
291.266	8414.41
291.333	8417.59
291.4	8419.99
291.468	8438.52
291.535	8438.76
291.602	8445.31
291.669	8437.7
291.737	8450.65
291.804	8453.53
291.871	8470.86
291.938	8483.08
292.006	8506.62
292.073	8523.65
292.14	8530.77
292.207	8523.31
292.275	8523.02
292.342	8533.08
292.409	8555.85
292.476	8577.26
292.543	8571.73
292.611	8577.98
292.678	8589.53
292.745	8615.9
292.812	8625.58
292.879	8620.96
292.946	8620.33
293.014	8630.39
293.081	8639.44
293.148	8648.87
293.215	8660.76
293.282	8660.9
293.349	8666.2
293.416	8648.24
293.484	8661
293.551	8675.48
293.618	8695.36
293.685	8716.87
293.752	8706.29
293.819	8701.38
293.886	8691.99
293.953	8700.37
294.02	8711.05
294.087	8715.91
294.154	8708.4
294.221	8720.68
294.288	8722.03
294.356	8739.45
294.423	8740.7
294.49	8737.96
294.557	8751.67
294.624	8744.55
294.691	8753.41
294.758	8754.27
294.825	8757.83
294.892	8748.88
294.959	8748.21
295.026	8750.23
295.093	8742.87
295.16	8752.87
295.226	8759.71
295.293	8785.94
295.36	8790.32
295.427	8798.12
295.494	8810.35
295.561	8821.56
295.628	8846.6
295.695	8864.46
295.762	8867.88
295.829	8879.38
295.896	8887.33
295.963	8897.77
296.03	8910.14
296.096	8917.27
296.163	8929.16
296.23	8948.46
296.297	8962.37
296.364	8957.41
296.431	8965.21
296.498	8958.57
296.564	8978.11
296.631	8976.09
296.698	8968.1
296.765	8979.84
296.832	8978.64
296.899	8973.2
296.965	8987.4
297.032	8958.95
297.099	8970.45
297.166	8985.57
297.233	8984.75
297.299	8983.69
297.366	8979.74
297.433	8980.71
297.5	8985.91
297.566	8987.5
297.633	8986.97
297.7	8988.79
297.767	8989.28
297.833	8994.43
297.9	9000.73
297.967	8989.81
298.033	9003
298.1	9027.55
298.167	9019.13
298.234	9022.55
298.3	9031.26
298.367	9023.65
298.434	9039.49
298.5	9029.62
298.567	9017.49
298.634	9018.21
298.7	9037.23
298.767	9042.19
298.834	9055.96
298.9	9058.22
298.967	9053.36
299.033	9065.92
299.1	9074.83
299.167	9093.03
299.233	9094.37
299.3	9114.59
299.366	9124.65
299.433	9142.08
299.5	9112.62
299.566	9122.78
299.633	9132.12
299.699	9142.76
299.766	9141.26
299.832	9140.98
299.899	9147.81
299.965	9166.2
300.032	9158.21
300.099	9158.55
300.165	9160.14
300.232	9158.79
300.298	9161.44
300.365	9172.13
300.431	9168.61
300.498	9173.67
300.564	9178.53
300.631	9185.41
300.697	9198.61
300.763	9197.84
300.83	9193.22
300.896	9212.95
300.963	9224.85
301.029	9226.77
301.096	9222.63
301.162	9232.36
301.229	9232.74
301.295	9226.68
301.361	9227.78
301.428	9237.75
301.494	9221.91
301.561	9221.14
301.627	9223.84
301.693	9217.48
301.76	9222.39
301.826	9229.9
301.892	9239
301.959	9245.17
302.025	9240.45
302.092	9225.86
302.158	9242.52
302.224	9239.72
302.291	9228.75
302.357	9219.36
302.423	9218.83
302.49	9215.12
302.556	9227.35
302.622	9219.55
302.688	9228.41
302.755	9246.13
302.821	9250.13
302.887	9261.1
302.954	9262.55
303.02	9269.29
303.086	9278.2
303.152	9275.84
303.219	9257.93
303.285	9256.63
303.351	9260.86
303.417	9262.12
303.483	9254.89
303.55	9238.04
303.616	9241.65
303.682	9239.97
303.748	9233.85
303.815	9242.23
303.881	9249.07
303.947	9236.89
304.013	9242.43
304.079	9226.63
304.145	9203.42
304.212	9203.9
304.278	9198.8
304.344	9195.19
304.41	9179.78
304.476	9172.99
304.542	9169.91
304.608	9178.53
304.674	9155.95
304.741	9147.38
304.807	9149.3
304.873	9158.16
304.939	9173.81
305.005	9149.35
305.071	9149.21
305.137	9150.41
305.203	9133.41
305.269	9126.48
305.335	9137.03
305.401	9132.35
305.467	9140.92
305.533	9145.79
305.599	9151.81
305.666	9159.75
305.732	9160.42
305.798	9173.76
305.864	9194.27
305.93	9199.42
305.996	9200.34
306.062	9207.08
306.128	9206.55
306.194	9196.78
306.259	9195.04
306.325	9189.99
306.391	9206.69
306.457	9213.39
306.523	9212.57
306.589	9222.39
306.655	9217.04
306.721	9197.4
306.787	9186.14
306.853	9192.88
306.919	9174.87
306.985	9162.98
307.051	9157.92
307.117	9146.8
307.183	9137.75
307.248	9110.35
307.314	9110.4
307.38	9107.85
307.446	9108.96
307.512	9089.22
307.578	9087.92
307.644	9081.71
307.709	9083.49
307.775	9075.79
307.841	9071.31
307.907	9072.13
307.973	9060.91
308.039	9064.57
308.104	9077.9
308.17	9077.09
308.236	9066.06
308.302	9074.2
308.368	9064.33
308.433	9054.31
308.499	9050.94
308.565	9034.77
308.631	9038.67
308.696	9016.04
308.762	9005.69
308.828	9003.09
308.894	8993.51
308.959	8976.43
309.025	8967.47
309.091	8959.91
309.156	8948.98
309.222	8949.47
309.288	8938.44
309.354	8918.75
309.419	8910.86
309.485	8892.61
309.551	8895.07
309.616	8875.57
309.682	8866.28
309.748	8862.19
309.813	8862.77
309.879	8858.77
309.945	8854.39
310.01	8844.96
310.076	8845.87
310.141	8835.67
310.207	8818.29
310.273	8820.5
310.338	8823.05
310.404	8804
310.469	8783.59
310.535	8772.85
310.601	8748.01
310.666	8752.68
310.732	8761.25
310.797	8753.12
310.863	8744.6
310.928	8738.1
310.994	8745.8
311.059	8742
311.125	8734.58
311.191	8740.99
311.256	8727.99
311.322	8733.58
311.387	8717.26
311.453	9049.78
311.518	9027.98
311.584	9026.49
311.649	9036.5
311.715	9023.41
311.78	9032.22
311.846	9024.04
311.911	9030.29
311.976	9028.13
312.042	9012.53
312.107	8994.73
312.173	8983.75
312.238	8973.21
312.304	8971.82
312.369	8957.19
312.434	8941.59
312.5	8936.83
312.565	8908.34
312.631	8918.15
312.696	8904.92
312.761	8906.89
312.827	8565.13
312.892	8599.35
312.958	8598.43
313.023	8587.8
313.088	8587.46
313.154	8571.92
313.219	8566.09
313.284	8559.64
313.35	8559.12
313.415	8548.29
313.48	8544.58
313.546	8546.99
313.611	8551.71
313.676	8544.49
313.741	8542.71
313.807	8555.46
313.872	8558.97
313.937	8568.45
314.003	8566.96
314.068	8566.38
314.133	8568.45
314.198	8556.76
314.264	8540.44
314.329	8529.23
314.394	8527.25
314.459	8527.01
314.525	8545.59
314.59	8543.62
314.655	8528.94
314.72	8533.94
314.785	8538.13
314.851	8530.58
314.916	8514.89
314.981	8504.54
315.046	8493.62
315.111	8480.53
315.176	8464.36
315.242	8465.08
315.307	8459.69
315.372	8441.07
315.437	8436.02
315.502	8425.43
315.567	8439.58
315.632	8421.54
315.698	8420.53
315.763	8411.04
315.828	8398.82
315.893	8390.93
315.958	8387.47
316.023	8378.42
316.088	8355.57
316.153	8330.45
316.218	8329.44
316.283	8312.22
316.348	8298.03
316.413	8291.34
316.479	8273.93
316.544	8242.71
316.609	8213.55
316.674	8177
316.739	8142.94
316.804	8111.34
316.869	8081.47
316.934	8037.02
316.999	8009.46
317.064	7965.45
317.129	7924.13
317.194	7890.99
317.259	7838.38
317.324	7786.16
317.389	7742.88
317.454	7715.18
317.518	7686.52
317.583	7655.36
317.648	7627.09
317.713	7587.66
317.778	7528.91
317.843	7499.92
317.908	7464.3
317.973	7424.68
318.038	7391.13
318.103	7357.3
318.168	7323.27
318.233	7294.28
318.297	7247.86
318.362	7205.42
318.427	7162.71
318.492	7137.67
318.557	7091.49
318.622	7067.42
318.687	7046.18
318.751	7010.06
318.816	6969.07
318.881	6931.84
318.946	6879.81
319.011	6838.83
319.075	6800.26
319.14	6762.42
319.205	6717.95
319.27	6684.04
319.335	6640.58
319.399	6600.58
319.464	6572.49
319.529	6525.53
319.594	6482.89
319.658	6449.05
319.723	6412.66
319.788	6384.96
319.853	6328.55
319.917	6300.72
319.982	6249.4
320.047	6211.86
320.112	6188.68
320.176	6141.03
320.241	6104.84
320.306	6078.26
320.37	6036.9
320.435	6003.32
320.5	5974.63
320.564	5935.2
320.629	5895.05
320.694	5863.06
320.758	5830.68
320.823	5783.01
320.888	5751.36
320.952	5701.31
321.017	5662.18
321.082	5621.19
321.146	5589.44
321.211	5559.15
321.275	5517.11
321.34	5474.5
321.405	5426.95
321.469	5375.57
321.534	5333.98
321.598	5288.26
321.663	5251.31
321.727	5218.82
321.792	5171.01
321.857	5134.69
321.921	5098.19
321.986	5055.33
322.05	4998
322.115	4953.51
322.179	4913.96
322.244	4863.02
322.308	4834.3
322.373	4792.55
322.437	4753.92
322.502	4725.56
322.566	4676.98
322.631	4641.37
322.695	4604
322.76	4563.67
322.824	4527.16
322.889	4483.87
322.953	4438.34
323.018	4378.83
323.082	4318.47
323.146	4271.14
323.211	4219.16
323.275	4179.22
323.34	4135.48
323.404	4105.52
323.468	4066.03
323.533	4025.78
323.597	3979.92
323.662	3929.5
323.726	3895.76
323.79	3848.41
323.855	3784.69
323.919	3740.32
323.983	3697.99
324.048	3629.3
324.112	3749.53
324.177	3627.43
324.241	3440.08
324.305	3255.73
324.37	3072.86
324.434	2898.45
324.498	2857.89
324.562	2811.1
324.627	2751.3
324.691	2700.17
324.755	2636.13
324.82	2563.68
324.884	2490.84
324.948	2423.83
325.012	2335.22
325.077	2215.46
