Data from 20250702_urea_0.5M_MAYP1162681_11-52-37-185.txt Node
Date: Wed Jul 02 11:52:37 BST 2025
User: adleo
Spectrometer: MAYP116268
Trigger mode: 0
Integration Time (sec): 1.000000E0
Scans to average: 1
Electric dark correction enabled: true
Nonlinearity correction enabled: true
Boxcar width: 10
XAxis mode: Wavelengths
Number of Pixels in Spectrum: 2068
>>>>>Begin Spectral Data<<<<<
179.565	1014.67
179.642	1061.93
179.718	1098.85
179.795	1131.07
179.871	1158.73
179.948	1173.71
180.024	1192.08
180.101	1211.3
180.177	1223.19
180.254	1242.52
180.33	1261
180.407	1299.87
180.483	1381.35
180.56	1458.07
180.636	1530.66
180.712	1518.26
180.789	1526.66
180.865	1538.53
180.942	1548.27
181.018	1555.63
181.095	1568.17
181.171	1574.63
181.248	1576.77
181.324	1589.69
181.4	1597.58
181.477	1606.55
181.553	1616.72
181.63	1633.01
181.706	1647.03
181.782	1653.29
181.859	1652.3
181.935	1657.24
182.011	1652.01
182.088	1665.69
182.164	1682
182.24	1692.83
182.317	1701.19
182.393	1699.33
182.469	1713.02
182.546	1723.95
182.622	1729.27
182.698	1723.04
182.775	1730.36
182.851	1740.24
182.927	1733.3
183.003	1728.74
183.08	1724.04
183.156	1733.54
183.232	1732.02
183.308	1721.09
183.385	1730.36
183.461	1745.8
183.537	1746.51
183.613	1761.1
183.69	1753.78
183.766	1745.65
183.842	1752.26
183.918	1757.25
183.995	1770.84
184.071	1772.84
184.147	1770.79
184.223	1761.63
184.299	1774.84
184.375	1765.62
184.452	1771.32
184.528	1820.85
184.604	1829.02
184.68	1838.72
184.756	1844.23
184.832	1847.89
184.908	1853.64
184.985	1851.93
185.061	1839.24
185.137	1847.37
185.213	1835.96
185.289	1838.39
185.365	1829.07
185.441	1828.69
185.517	1840.34
185.593	1835.4
185.669	1833.73
185.745	1840.91
185.822	1857.02
185.898	1848.41
185.974	1856.68
186.05	1851.02
186.126	1815.38
186.202	1809.01
186.278	1806.49
186.354	1797.98
186.43	1802.4
186.506	1799.69
186.582	1799.17
186.658	1804.83
186.734	1788.48
186.81	1789.71
186.886	1790.62
186.962	1803.02
187.038	1797.55
187.114	1789.04
187.19	1796.36
187.266	1789
187.341	1790.28
187.417	1782.06
187.493	1782.01
187.569	1783.87
187.645	1781.06
187.721	1773.5
187.797	1779.16
187.873	1784.34
187.949	1778.54
188.025	1774.41
188.101	1777.92
188.176	1784.57
188.252	1778.97
188.328	1783.15
188.404	1784.95
188.48	1780.06
188.556	1773.12
188.632	1775.31
188.707	1776.64
188.783	1775.83
188.859	1767.99
188.935	1757.92
189.011	1765.38
189.086	1760.06
189.162	1754.16
189.238	1748.94
189.314	1745.33
189.39	1741.38
189.465	1736.77
189.541	1752.07
189.617	1737.96
189.693	1732.64
189.768	1734.26
189.844	1758.64
189.92	1753.75
189.996	1762.12
190.071	1771.95
190.147	1773
190.223	1776.51
190.298	1772.14
190.374	1760.97
190.45	1773.52
190.526	1782.74
190.601	1777.89
190.677	1781.45
190.753	1804.42
190.828	1805.98
190.904	1819.29
190.98	1834.22
191.055	1841.02
191.131	1833.89
191.207	1851.66
191.282	1860.64
191.358	1851.99
191.433	1838.2
191.509	1852.5
191.585	1849.98
191.66	1851.93
191.736	1855.73
191.811	1847.65
191.887	1861.11
191.963	1878.6
192.038	1883.73
192.114	1883.5
192.189	1886.63
192.265	1880.88
192.34	1864.19
192.416	1864.91
192.491	1859.3
192.567	1861.01
192.642	1861.72
192.718	1860.58
192.793	1850.6
192.869	1847.75
192.944	1851.31
193.02	1856.44
193.095	1855.4
193.171	1859.2
193.246	1860.96
193.322	1859.92
193.397	1863.57
193.473	1848.93
193.548	1834.62
193.624	1838.28
193.699	1837.33
193.775	1851.31
193.85	1853.45
193.925	1858.82
194.001	1859.72
194.076	1855.4
194.152	1846.6
194.227	1842.8
194.302	1833.44
194.378	1838.33
194.453	1835.2
194.529	1842.95
194.604	1829.83
194.679	1826.17
194.755	1808.78
194.83	1817.62
194.905	1815.67
194.981	1825.09
195.056	1819.62
195.131	1826.04
195.207	1824.33
195.282	1814.63
195.357	1795.85
195.433	1809.16
195.508	1800.08
195.583	1803.98
195.659	1817.05
195.734	1823.28
195.809	1817.44
195.884	1828.36
195.96	1827.55
196.035	1842.48
196.11	1839.39
196.185	1851.94
196.261	1853.7
196.336	1880.74
196.411	1868.14
196.486	1874.27
196.561	1866
196.637	1875.22
196.712	1887.3
196.787	1890.15
196.862	1903.74
196.937	1913.2
197.013	1918.86
197.088	1926.84
197.163	1949.58
197.238	1962.14
197.313	1960.66
197.388	1976.73
197.464	2001.8
197.539	2011.12
197.614	2004.32
197.689	2017.02
197.764	2028.48
197.839	2043.98
197.914	2039.08
197.989	2057.39
198.065	2070.61
198.14	2114.96
198.215	2140.03
198.29	2150.93
198.365	2161.35
198.44	2168.86
198.515	2194.36
198.59	2207.64
198.665	2230.28
198.74	2234.56
198.815	2235.94
198.89	2256.26
198.965	2284.25
199.04	2280.77
199.115	2296.62
199.19	2333.73
199.265	2336.83
199.34	2347.82
199.415	2381.25
199.49	2402.99
199.565	2412.46
199.64	2432.36
199.715	2431.08
199.79	2436.74
199.865	2443.69
199.94	2443.93
200.015	2478.07
200.09	2483.55
200.165	2489.78
200.24	2496.59
200.315	2532.14
200.39	2542.37
200.464	2549.56
200.539	2547.37
200.614	2564.04
200.689	2583.04
200.764	2588.04
200.839	2602.99
200.914	2605.65
200.989	2596.41
201.063	2604.31
201.138	2588.18
201.213	2589.09
201.288	2572.09
201.363	2574.18
201.438	2571.23
201.512	2585.84
201.587	2569.27
201.662	2571.65
201.737	2581.08
201.812	2589.46
201.886	2561.82
201.961	2575.78
202.036	2564.83
202.111	2563.07
202.186	2536.41
202.26	2519.79
202.335	2499.17
202.41	2493.93
202.485	2477.47
202.559	2459.8
202.634	2438.86
202.709	2448.75
202.784	2428.81
202.858	2427.47
202.933	2410.76
203.008	2408
203.082	2387.92
203.157	2383.44
203.232	2345.33
203.306	2329.19
203.381	2299.53
203.456	2280.11
203.53	2255.01
203.605	2236.13
203.68	2218.32
203.754	2211.71
203.829	2199.53
203.904	2184.31
203.978	2172.03
204.053	2176.31
204.127	2163.94
204.202	2162.56
204.277	2146.67
204.351	2141.82
204.426	2135.82
204.5	2129.5
204.575	2101.34
204.65	2112.05
204.724	2107.86
204.799	2115.51
204.873	2111.75
204.948	2112.37
205.022	2103.57
205.097	2098.48
205.171	2111.99
205.246	2116.22
205.32	2117.65
205.395	2118.65
205.469	2112.18
205.544	2117.03
205.618	2105.57
205.693	2118.75
205.767	2111.95
205.842	2130.6
205.916	2127.5
205.991	2119.61
206.065	2125.46
206.14	2135.97
206.214	2133.11
206.289	2127.68
206.363	2140.86
206.438	2142.34
206.512	2150.76
206.586	2166.74
206.661	2175.78
206.735	2157.57
206.81	2160.86
206.884	2175.55
206.958	2166.37
207.033	2182.4
207.107	2196.44
207.181	2232.14
207.256	2231.48
207.33	2250.75
207.405	2270.08
207.479	2292.12
207.553	2306.63
207.628	2301.16
207.702	2320.9
207.776	2327.47
207.851	2340.42
207.925	2365.08
207.999	2375.41
208.073	2388.36
208.148	2403.31
208.222	2409.74
208.296	2457.81
208.371	2489.97
208.445	2522.41
208.519	2571.45
208.593	2607.69
208.668	2628.33
208.742	2656.6
208.816	2689.66
208.89	2740.34
208.965	2774.58
209.039	2822.07
209.113	2881.57
209.187	2946.13
209.261	2993.7
209.336	3063.15
209.41	3131.84
209.484	3192.26
209.558	3275.2
209.632	3352.89
209.707	3437.43
209.781	3531.72
209.855	3624.91
209.929	3719.26
210.003	3807.46
210.077	3894.28
210.151	4031.5
210.226	4160.29
210.3	4287.92
210.374	4413.73
210.448	4520.88
210.522	4646.3
210.596	4772.19
210.67	4903.16
210.744	5067.02
210.818	5229.63
210.892	5384.15
210.966	5520.81
211.041	5679.13
211.115	5821.73
211.189	5995.33
211.263	6159.27
211.337	6324.97
211.411	6493.43
211.485	6655.7
211.559	6838.69
211.633	7018.09
211.707	7161.12
211.781	7347.5
211.855	7494.79
211.929	7675.62
212.003	7845.87
212.077	8042.41
212.151	8251.76
212.225	8453.3
212.299	8644.22
212.373	8834.47
212.447	9030.3
212.52	9260.2
212.594	9473.41
212.668	9697.84
212.742	9890.38
212.816	10095.8
212.89	10299.64
212.964	10515.9
213.038	10740.22
213.112	10960.41
213.186	11190.87
213.26	11394.97
213.333	11574.15
213.407	11795.15
213.481	12016.45
213.555	12244.54
213.629	12450.6
213.703	12649.81
213.777	12873.85
213.85	13076.74
213.924	13321.17
213.998	13533.6
214.072	13745.65
214.146	13936.83
214.219	14144.73
214.293	14356.3
214.367	14576.2
214.441	14802.95
214.515	14999.13
214.588	15178.01
214.662	15362.86
214.736	15550.32
214.81	15763.08
214.883	15968.84
214.957	16157.69
215.031	16340.17
215.105	16520.92
215.178	16704.84
215.252	16883.16
215.326	17045.82
215.4	17215.23
215.473	17355.42
215.547	17526.12
215.621	17692.29
215.694	17881.21
215.768	18033.01
215.842	18195.08
215.915	18353.68
215.989	18485.62
216.063	18639.93
216.136	18803.88
216.21	18953.61
216.284	19117.22
216.357	19266.7
216.431	19420.24
216.504	19570.36
216.578	19739.32
216.652	19894.88
216.725	20042.97
216.799	20196.61
216.873	20334.15
216.946	20473.34
217.02	20605.96
217.093	20731.46
217.167	20844.53
217.24	20967.91
217.314	21090.04
217.387	21201.81
217.461	21308.37
217.535	21450.56
217.608	21561.52
217.682	21675.47
217.755	21807.59
217.829	21906.65
217.902	22015.11
217.976	22117.25
218.049	22222.05
218.123	22313.16
218.196	22418.88
218.27	22505.9
218.343	22594.71
218.417	22690.7
218.49	22781.91
218.563	22885.19
218.637	22977.28
218.71	23083.84
218.784	23173.54
218.857	23266.69
218.931	23360.91
219.004	23450.99
219.077	23528.1
219.151	23617.7
219.224	23697.13
219.298	23764.84
219.371	23848.9
219.444	23916.71
219.518	23983.36
219.591	24056.96
219.665	24154.21
219.738	24224.2
219.811	24282.9
219.885	24354.15
219.958	24421.49
220.031	24476.72
220.105	24541.6
220.178	24612.57
220.251	24655.75
220.325	24708.29
220.398	24760.2
220.471	24816.02
220.544	24866.53
220.618	24912.61
220.691	24959.7
220.764	25005.54
220.838	25050.36
220.911	25087.27
220.984	25147.01
221.057	25208
221.131	25245.25
221.204	25241.83
221.277	25283.38
221.35	25340.27
221.424	25357.5
221.497	25386.31
221.57	25420.32
221.643	25441.8
221.716	25468.78
221.79	25503.19
221.863	25527.23
221.936	25547.35
222.009	25555.51
222.082	25578
222.155	25594.79
222.229	25627.57
222.302	25644.46
222.375	25655.65
222.448	25686.45
222.521	25693.93
222.594	25704.65
222.667	25718.64
222.74	25742.87
222.814	25743.06
222.887	25746.15
222.96	25772.65
223.033	25795.1
223.106	25803.83
223.179	25821.64
223.252	25824.93
223.325	25823.62
223.398	25822.9
223.471	25829.13
223.544	25847.71
223.617	25854.85
223.69	25858.95
223.763	25840.18
223.837	25851.47
223.91	25862.91
223.983	25824.49
224.056	25815.37
224.129	25801.61
224.202	25800.6
224.275	25779.27
224.348	25774.39
224.42	25760.1
224.493	25738.58
224.566	25720.72
224.639	25725.11
224.712	25708.74
224.785	25694.75
224.858	25684.08
224.931	25664.19
225.004	25654.64
225.077	25639.24
225.15	25600.1
225.223	25587.02
225.296	25596.53
225.369	25554.64
225.442	25540.35
225.514	25542.38
225.587	25528.58
225.66	25514.97
225.733	25506.13
225.806	25507.39
225.879	25489.34
225.952	25470.47
226.025	25465.74
226.097	25466.95
226.17	25449.52
226.243	25413.91
226.316	25389.39
226.389	25368.4
226.461	25353.83
226.534	25337.18
226.607	25320.72
226.68	25333.37
226.753	25315.85
226.825	25278.06
226.898	25288.14
226.971	25256.44
227.044	25239.74
227.117	25221.74
227.189	25203.7
227.262	25183.62
227.335	25175.42
227.407	25155.59
227.48	25132.67
227.553	25104.2
227.626	25066.27
227.698	25040.5
227.771	25026.8
227.844	25000.74
227.916	24978.5
227.989	24947.72
228.062	24917.27
228.134	24909.89
228.207	24874.57
228.28	24833.75
228.352	24798.05
228.425	24771.03
228.498	24742.95
228.57	24712.61
228.643	24695.77
228.716	24667.64
228.788	24638.16
228.861	24595.9
228.934	24578.87
229.006	24563.09
229.079	24537.33
229.151	24505.54
229.224	24464.73
229.296	24438.05
229.369	24433.95
229.442	24424.98
229.514	24400.19
229.587	24384.51
229.659	24339.16
229.732	24323.24
229.804	24312.78
229.877	24317.41
229.949	24291.94
230.022	24295.22
230.094	24277.13
230.167	24258.41
230.239	24226.38
230.312	24195.9
230.384	24186.69
230.457	24157.02
230.529	24128.85
230.602	24103.82
230.674	24080.91
230.747	24069.63
230.819	24059.26
230.892	24006.97
230.964	23981.5
231.037	23951.17
231.109	23915.09
231.181	23888.62
231.254	23835.18
231.326	23806.1
231.399	23768.91
231.471	23726.66
231.544	23673.13
231.616	23644.82
231.688	23615.78
231.761	23580.58
231.833	23545.72
231.905	23502.89
231.978	23478.88
232.05	23443.72
232.122	23421.73
232.195	23387.59
232.267	23380.4
232.339	23342.74
232.412	23327.6
232.484	23287.86
232.556	23251.41
232.629	23245.34
232.701	23227.93
232.773	23212.31
232.846	23175.52
232.918	23144.03
232.99	23121.41
233.062	23099.86
233.135	23073.82
233.207	23020.88
233.279	23001.64
233.351	22976.28
233.424	22941.71
233.496	22897.98
233.568	22880.09
233.64	22830.53
233.713	22803.92
233.785	22752.61
233.857	22721.47
233.929	22681.31
234.001	22664.33
234.074	22654.35
234.146	22604.98
234.218	22562.27
234.29	22525.97
234.362	22492.03
234.434	22444.01
234.507	22401.39
234.579	22348.41
234.651	22305.12
234.723	22284.49
234.795	22251.04
234.867	22216.62
234.939	22187.93
235.012	22156.79
235.084	22125.17
235.156	22098.22
235.228	22047.41
235.3	22007.21
235.372	21972.12
235.444	21940.88
235.516	21887.61
235.588	21852.76
235.66	21819.69
235.732	21780.51
235.804	21800.08
235.876	21768.17
235.948	21738.57
236.02	21711.73
236.092	21683.96
236.164	21647.81
236.236	21600.34
236.308	21560.09
236.38	21517.34
236.452	21471.35
236.524	21429.47
236.596	21412.7
236.668	21388.21
236.74	21355.05
236.812	21311.63
236.884	21276.01
236.956	21237.35
237.028	21186.41
237.1	21126.5
237.172	21103.41
237.244	21075.27
237.316	20999.4
237.388	20954.67
237.46	20916.55
237.532	20882.33
237.604	20836.93
237.675	20814.28
237.747	20787.1
237.819	20743.63
237.891	20708.49
237.963	20665.55
238.035	20623.43
238.107	20552.73
238.178	20516.83
238.25	20474.8
238.322	20476.05
238.394	20418.32
238.466	20369.4
238.538	20345.94
238.609	20325.07
238.681	20263.14
238.753	20211.91
238.825	20172.54
238.897	20139.29
238.968	20116.01
239.04	20068.3
239.112	20049.26
239.184	19988.83
239.255	19940.69
239.327	19903.53
239.399	19871.1
239.471	19845.8
239.542	19809.03
239.614	19772.02
239.686	19712.36
239.758	19685.95
239.829	19619.98
239.901	19602.1
239.973	19567.21
240.044	19522.83
240.116	19476.52
240.188	19435.89
240.259	19408.62
240.331	19359.51
240.403	19321.88
240.474	19267.81
240.546	19215.76
240.618	19154.03
240.689	19120.73
240.761	19089.55
240.833	19068.11
240.904	19028.59
240.976	18988.06
241.048	18962.72
241.119	18933.71
241.191	18908.31
241.262	18888.7
241.334	18851.25
241.405	18804.9
241.477	18770.58
241.549	18725.38
241.62	18687.17
241.692	18653.24
241.763	18618.64
241.835	18586.16
241.906	18546.31
241.978	18493.25
242.049	18474.36
242.121	18459.81
242.192	18430.6
242.264	18372.49
242.335	18315.24
242.407	18281.98
242.478	18239
242.55	18195.19
242.621	18148.26
242.693	18097.75
242.764	18053.99
242.836	18018
242.907	17990.14
242.979	17957.95
243.05	17932.46
243.122	17905.61
243.193	17873.47
243.264	17819.88
243.336	17777.09
243.407	17759.02
243.479	17741.91
243.55	17703.6
243.622	17675.16
243.693	17637.81
243.764	17626.97
243.836	17578.87
243.907	17539.65
243.978	17498.58
244.05	17465.62
244.121	17413.19
244.192	17382.68
244.264	17317.47
244.335	17279.74
244.407	17226.92
244.478	17191.98
244.549	17155.35
244.62	17103.98
244.692	17066.77
244.763	17040.36
244.834	17008.6
244.906	16964.36
244.977	16929.8
245.048	16917.56
245.119	16864.55
245.191	16825.42
245.262	16760.93
245.333	16747.19
245.405	16710.03
245.476	16680.01
245.547	16648.63
245.618	16626.7
245.689	16597.21
245.761	16585.3
245.832	16555.9
245.903	16529.97
245.974	16496.91
246.045	16456.33
246.117	16438.74
246.188	16393.24
246.259	16349.76
246.33	16310.1
246.401	16270.91
246.473	16225.56
246.544	16172.88
246.615	16152.06
246.686	16104.29
246.757	16093.16
246.828	16048.67
246.899	16033.44
246.97	15989.63
247.042	15951.41
247.113	15925.38
247.184	15913.43
247.255	15869.52
247.326	15828.98
247.397	15793.27
247.468	15758.32
247.539	15734.12
247.61	15694.79
247.681	15670.21
247.752	15649.48
247.823	15611.07
247.894	15573.76
247.965	15538.24
248.037	15507.34
248.108	15449.69
248.179	15424.58
248.25	15393.01
248.321	15367.31
248.392	15319.35
248.463	15311.93
248.534	15279.49
248.605	15260.79
248.675	15227.58
248.746	15199.67
248.817	15172.44
248.888	15150.45
248.959	15104.47
249.03	15069.57
249.101	15040.41
249.172	15000.64
249.243	14952.97
249.314	14943.71
249.385	14915.95
249.456	14890.59
249.527	14856.03
249.598	14843.35
249.669	14813.95
249.739	14786.28
249.81	14766.27
249.881	14728.14
249.952	14699.12
250.023	14672.71
250.094	14621.08
250.165	14581.6
250.235	14551.57
250.306	14523.52
250.377	14482.35
250.448	14467.79
250.519	14433.56
250.59	14421.27
250.66	14399.48
250.731	14389.65
250.802	14355.42
250.873	14341.2
250.944	14318.26
251.014	14288.18
251.085	14280.85
251.156	14266.53
251.227	14254.43
251.297	14238.19
251.368	14227.68
251.439	14201.7
251.51	14182.37
251.58	14153.73
251.651	14119.02
251.722	14098.58
251.792	14063.54
251.863	14038.66
251.934	14020.34
252.005	14015.62
252.075	13979.56
252.146	13966.69
252.217	13947.84
252.287	13922.29
252.358	13886.52
252.429	13885.46
252.499	13855.53
252.57	13833.69
252.641	13816.87
252.711	13789.2
252.782	13742.53
252.852	13735.35
252.923	13715.63
252.994	13700.01
253.064	13693.07
253.135	13664.1
253.205	13645.59
253.276	13637.1
253.347	13627.03
253.417	13597.91
253.488	13567.78
253.558	13539.24
253.629	13510.51
253.699	13490.75
253.77	13480.63
253.841	13455.41
253.911	13431.45
253.982	13415.35
254.052	13396.7
254.123	13367.44
254.193	13340.39
254.264	13362.81
254.334	13326.75
254.405	13290.69
254.475	13251.16
254.546	13220.36
254.616	13209.99
254.687	13193.17
254.757	13175.86
254.827	13151.76
254.898	13138.07
254.968	13120.09
255.039	13101.53
255.109	13091.45
255.18	13062.24
255.25	13020.74
255.321	13004.39
255.391	12962.41
255.461	12954.07
255.532	12899.88
255.602	12875.88
255.673	12838.81
255.743	12803.42
255.813	12757.87
255.884	12747.94
255.954	12735.17
256.024	12735.41
256.095	12713.76
256.165	12674.33
256.235	12655.53
256.306	12628.1
256.376	12612.39
256.446	12596.43
256.517	12575.8
256.587	12565.05
256.657	12539.45
256.728	12517.62
256.798	12492.55
256.868	12474.18
256.938	12440.3
257.009	12437.02
257.079	12425.16
257.149	12427.38
257.219	12385.39
257.29	12371.8
257.36	12331.74
257.43	12320.75
257.5	12277.75
257.571	12253.36
257.641	12246.71
257.711	12213.98
257.781	12199.42
257.852	12184.72
257.922	12150.06
257.992	12127.89
258.062	12101.81
258.132	12094.63
258.202	12076.89
258.273	12065.95
258.343	12055.78
258.413	12039.34
258.483	12017.12
258.553	11992.15
258.623	11967.47
258.693	11954.65
258.764	11953.45
258.834	11949.83
258.904	11929.11
258.974	11904.33
259.044	11884.38
259.114	11866.98
259.184	11846.68
259.254	11827.89
259.324	11783.59
259.394	11768.55
259.464	11769.13
259.535	11744.45
259.605	11724.02
259.675	11700.01
259.745	11686.42
259.815	11666.08
259.885	11642.13
259.955	11652.93
260.025	11619.14
260.095	11596.87
260.165	11587.23
260.235	11581.69
260.305	11558.8
260.375	11530.84
260.445	11534.5
260.515	11528.33
260.585	11520.57
260.655	11505.83
260.725	11495.18
260.795	11494.12
260.865	11493.63
260.934	11464.14
261.004	11453.73
261.074	11431.8
261.144	11429.87
261.214	11413
261.284	11391.55
261.354	11386.11
261.424	11358.78
261.494	11360.75
261.564	11338.34
261.634	11328.42
261.703	11293.96
261.773	11281.91
261.843	11275.07
261.913	11247.07
261.983	11219.31
262.053	11203.45
262.123	11188.66
262.192	11160.42
262.262	11146.54
262.332	11113.62
262.402	11103.55
262.472	11085.14
262.541	11053
262.611	11044.13
262.681	11020.9
262.751	11005.63
262.821	10987.36
262.89	10952.76
262.96	10941.39
263.03	10947.22
263.1	10932.04
263.169	10914.45
263.239	10902.5
263.309	10896.96
263.379	10892.67
263.448	10877.01
263.518	10863.42
263.588	10844.34
263.657	10843.85
263.727	10835.52
263.797	10820.68
263.867	10799.38
263.936	10773.74
264.006	10771
264.076	10748.59
264.145	10734.33
264.215	10718.33
264.285	10711.29
264.354	10684.12
264.424	10664.17
264.494	10637.76
264.563	10612.47
264.633	10615.36
264.702	10609.14
264.772	10579.7
264.842	10562.4
264.911	10555.71
264.981	10531.61
265.05	10521.4
265.12	10505.79
265.19	10495.96
265.259	10487.91
265.329	10483.57
265.398	10474.9
265.468	10479.53
265.537	10461.8
265.607	10448.74
265.676	10439.92
265.746	10423.3
265.815	10422.34
265.885	10402.3
265.955	10376.81
266.024	10360.86
266.094	10333.55
266.163	10322.75
266.232	10320.59
266.302	10307.1
266.371	10293.03
266.441	10275.73
266.51	10265.76
266.58	10247.65
266.649	10224.52
266.719	10223.07
266.788	10211.75
266.858	10205.59
266.927	10176.49
266.996	10165.84
267.066	10161.89
267.135	10141.66
267.205	10135.44
267.274	10113.62
267.343	10116.95
267.413	10104.95
267.482	10102.35
267.552	10098.93
267.621	10074.7
267.69	10047.58
267.76	10041.56
267.829	10031.87
267.898	10021.95
267.968	10001.62
268.037	9994.3
268.106	9989.1
268.176	9969.73
268.245	9958.7
268.314	9949.07
268.384	9944.2
268.453	9933.7
268.522	9921.23
268.592	9918.53
268.661	9896.85
268.73	9893.58
268.799	9871.95
268.869	9876.67
268.938	9848.78
269.007	9826.43
269.076	9816.66
269.146	9818.44
269.215	9799.94
269.284	9804.04
269.353	9788.53
269.422	9775.14
269.492	9759.25
269.561	9723.75
269.63	9710.07
269.699	9685.65
269.768	9665.13
269.838	9656.18
269.907	9650.01
269.976	9623.38
270.045	9595.74
270.114	9587.36
270.183	9577.92
270.253	9571.51
270.322	9540.45
270.391	9535.59
270.46	9541.12
270.529	9535.87
270.598	9521.96
270.667	9509.1
270.736	9485.74
270.806	9480.78
270.875	9479.96
270.944	9461.81
271.013	9473.17
271.082	9465.8
271.151	9463.83
271.22	9442.64
271.289	9431.42
271.358	9418.03
271.427	9422.08
271.496	9412.35
271.565	9400.8
271.634	9394.44
271.703	9414.09
271.772	9417.27
271.841	9402.39
271.91	9375.04
271.979	9362.04
272.048	9342.73
272.117	9342.48
272.186	9331.31
272.255	9327.89
272.324	9322.6
272.393	9322.98
272.462	9309.26
272.531	9297.27
272.6	9288.99
272.669	9298.52
272.738	9286.05
272.807	9284.36
272.876	9262.74
272.945	9280.61
273.013	9280.42
273.082	9276.85
273.151	9234.72
273.22	9232.74
273.289	9223.74
273.358	9230.48
273.427	9219.79
273.496	9216.37
273.564	9213.34
273.633	9205.68
273.702	9187.39
273.771	9179.64
273.84	9175.45
273.909	9175.06
273.977	9174.97
274.046	9159.08
274.115	9159.46
274.184	9142.47
274.253	9132.21
274.322	9135.1
274.39	9109.34
274.459	9098.27
274.528	9072.95
274.597	9068.09
274.665	9057.2
274.734	9068.86
274.803	9063.85
274.872	9063.08
274.94	9051.38
275.009	9101.81
275.078	9089.58
275.147	9085.83
275.215	9083.85
275.284	9085.78
275.353	9074.22
275.421	9050.01
275.49	9063.25
275.559	9048.66
275.627	9052.75
275.696	9045.58
275.765	9045.15
275.833	9039.66
275.902	9039.71
275.971	9048.23
276.039	9057.66
276.108	9061.71
276.177	9052.51
276.245	9044.18
276.314	9037.01
276.383	9044.81
276.451	8991.44
276.52	8993.46
276.588	9005.16
276.657	9003.57
276.725	8993.46
276.794	8988.74
276.863	9002.37
276.931	8981.52
277	8986.48
277.068	8989.27
277.137	9003.09
277.205	8994.04
277.274	9010.94
277.342	9015.66
277.411	9001.89
277.48	8993.03
277.548	8983.45
277.617	8983.11
277.685	8971.27
277.754	8978.2
277.822	8970.55
277.89	8974.69
277.959	8973.54
278.027	8954.91
278.096	8948.5
278.164	8974.94
278.233	8969.64
278.301	8959.15
278.37	8967.96
278.438	8953.56
278.507	8959.58
278.575	8935.51
278.643	8938.11
278.712	8914.67
278.78	8902.82
278.849	8911.3
278.917	8918.04
278.985	8917.65
279.054	8921.84
279.122	8938.3
279.191	8933.1
279.259	8926.41
279.327	8902.77
279.396	8913.56
279.464	8912.69
279.532	8918.76
279.601	8910.19
279.669	8903.83
279.737	8912.93
279.806	8911.82
279.874	8926.55
279.942	8917.07
280.011	8911.82
280.079	8918.18
280.147	8935.46
280.215	8939.36
280.284	8937.72
280.352	8915.82
280.42	8917.74
280.488	8906.58
280.557	8897.29
280.625	8895.79
280.693	8896.51
280.761	8902.24
280.83	8888.72
280.898	8899.35
280.966	8875.58
281.034	8850.73
281.102	8844.38
281.171	8837.88
281.239	8840.63
281.307	8830.04
281.375	8824.89
281.443	8848.09
281.512	8843.8
281.58	8845.1
281.648	8830.33
281.716	8827.44
281.784	8838.12
281.852	8830.85
281.92	8837.98
281.989	8844.43
282.057	8837.31
282.125	8871.63
282.193	8867.01
282.261	8867.59
282.329	8860.51
282.397	8870.23
282.465	8871
282.533	8884.43
282.601	8880.44
282.67	8865.85
282.738	8851.22
282.806	8859.69
282.874	8850.4
282.942	8854.97
283.01	8855.94
283.078	8861.18
283.146	8861.52
283.214	8870.67
283.282	8874.04
283.35	8877.55
283.418	8871.58
283.486	8869.75
283.554	8836.58
283.622	8833.89
283.69	8833.07
283.758	8832.87
283.826	8834.85
283.894	8842.94
283.962	8858.2
284.03	8871.43
284.098	8876.58
284.165	8884.57
284.233	8888.28
284.301	8879.28
284.369	8869.27
284.437	8856.85
284.505	8852.61
284.573	8864.89
284.641	8854.01
284.709	8861.47
284.777	8847.84
284.845	8853.43
284.912	8857.09
284.98	8865.61
285.048	8865.08
285.116	8868.64
285.184	8880.53
285.252	8880.1
285.319	8861.66
285.387	8850.11
285.455	8828.4
285.523	8833.79
285.591	8829.6
285.659	8826.67
285.726	8839.71
285.794	8825.8
285.862	8825.47
285.93	8824.12
285.997	8812.76
286.065	8803.37
286.133	8793.65
286.201	8790.42
286.269	8780.36
286.336	8774.63
286.404	8762.99
286.472	8773
286.539	8748.89
286.607	8734.25
286.675	8738.83
286.743	8751.05
286.81	8746.96
286.878	8761.78
286.946	8749.65
287.013	8751.82
287.081	8744.98
287.149	8732.9
287.216	8748.83
287.284	8746.28
287.352	8746.38
287.419	8752.4
287.487	8766.98
287.555	8773.72
287.622	8773
287.69	8780.94
287.758	8793.07
287.825	8788.16
287.893	8772.28
287.96	8785.65
288.028	8795.43
288.096	8794.27
288.163	8796.05
288.231	8786.57
288.298	8782.14
288.366	8797.98
288.433	8792.64
288.501	8788.64
288.569	8788.88
288.636	8783.49
288.704	8790.33
288.771	8801.2
288.839	8789.84
288.906	8783.25
288.974	8788.3
289.041	8789.99
289.109	8774.44
289.176	8775.69
289.244	8780.75
289.311	8794.56
289.379	8806.98
289.446	8809.05
289.514	8810.54
289.581	8808.57
289.649	8813.09
289.716	8813.96
289.783	8809.24
289.851	8827.68
289.918	8825.99
289.986	8835.47
290.053	8840.67
290.121	8841.15
290.188	8841.54
290.255	8866.33
290.323	8867.1
290.39	8862.62
290.458	8867.29
290.525	8882.74
290.592	8878.65
290.66	8880.19
290.727	8868.93
290.794	8878.99
290.862	8874.9
290.929	8876.63
290.996	8885.44
291.064	8900.36
291.131	8918.41
291.198	8923.47
291.266	8922.89
291.333	8928.86
291.4	8936.03
291.468	8959.33
291.535	8957.6
291.602	8955.82
291.669	8948.07
291.737	8948.84
291.804	8952.98
291.871	8971.85
291.938	8978.64
292.006	9010.18
292.073	9021.68
292.14	9037.95
292.207	9030.87
292.275	9033.95
292.342	9043.25
292.409	9061.78
292.476	9089.04
292.543	9080.76
292.611	9087.88
292.678	9107.04
292.745	9132.99
292.812	9143.05
292.879	9135.74
292.946	9143.15
293.014	9166.35
293.081	9181.71
293.148	9198.66
293.215	9211.32
293.282	9204.48
293.349	9214.93
293.416	9197.41
293.484	9213.63
293.551	9230.19
293.618	9249.89
293.685	9275.16
293.752	9273.33
293.819	9267.56
293.886	9240.4
293.953	9248.34
294.02	9257.92
294.087	9257.3
294.154	9249.84
294.221	9258.17
294.288	9258.6
294.356	9274.01
294.423	9281.09
294.49	9275.45
294.557	9283.88
294.624	9280.8
294.691	9299.14
294.758	9295.82
294.825	9304.49
294.892	9300.25
294.959	9295.77
295.026	9294.76
295.093	9284.6
295.16	9286.09
295.226	9294.66
295.293	9321.92
295.36	9326.35
295.427	9333.43
295.494	9350.91
295.561	9359.67
295.628	9387.32
295.695	9406.05
295.762	9412.84
295.829	9419.92
295.896	9434.27
295.963	9448.14
296.03	9456.03
296.096	9459.11
296.163	9476.06
296.23	9491.04
296.297	9501.01
296.364	9502.36
296.431	9511.7
296.498	9512.81
296.564	9534.38
296.631	9532.65
296.698	9521.86
296.765	9542.57
296.832	9539.53
296.899	9526.14
296.965	9541.27
297.032	9518.44
297.099	9530.04
297.166	9534.71
297.233	9529.08
297.299	9517.04
297.366	9514.01
297.433	9520.36
297.5	9533.27
297.566	9532.12
297.633	9533.13
297.7	9540.21
297.767	9541.79
297.833	9553.59
297.9	9556.72
297.967	9543.82
298.033	9558.65
298.1	9585.82
298.167	9577.15
298.234	9584.56
298.3	9589.72
298.367	9585.67
298.434	9591.06
298.5	9585
298.567	9583.84
298.634	9583.26
298.7	9605.12
298.767	9609.6
298.834	9625.45
298.9	9615.19
298.967	9610.71
299.033	9616.64
299.1	9630.94
299.167	9645.68
299.233	9637.01
299.3	9655.6
299.366	9672.84
299.433	9683
299.5	9658.24
299.566	9663.11
299.633	9675.78
299.699	9693.45
299.766	9698.94
299.832	9702.7
299.899	9709.97
299.965	9722.4
300.032	9723.22
300.099	9732.66
300.165	9730.83
300.232	9724.61
300.298	9730.63
300.365	9751.58
300.431	9754.38
300.498	9749.37
300.564	9755.87
300.631	9765.46
300.697	9772.34
300.763	9771.38
300.83	9768.88
300.896	9789.83
300.963	9797.63
301.029	9800.04
301.096	9796.95
301.162	9804.56
301.229	9804.42
301.295	9799.94
301.361	9802.35
301.428	9805.43
301.494	9787.22
301.561	9799.55
301.627	9804.8
301.693	9804.76
301.76	9798.4
301.826	9790.74
301.892	9799.65
301.959	9809.81
302.025	9808.95
302.092	9802.59
302.158	9803.41
302.224	9799.89
302.291	9786.94
302.357	9781.98
302.423	9774.22
302.49	9774.22
302.556	9782.89
302.622	9784.58
302.688	9793.58
302.755	9803.07
302.821	9812.32
302.887	9827.44
302.954	9816.17
303.02	9818.39
303.086	9823.83
303.152	9822.43
303.219	9820.8
303.285	9821.09
303.351	9818.87
303.417	9821.66
303.483	9812.32
303.55	9812.42
303.616	9818.73
303.682	9816.99
303.748	9814.05
303.815	9831.25
303.881	9835.3
303.947	9820.89
304.013	9822.97
304.079	9810.68
304.145	9790.98
304.212	9786.36
304.278	9773.5
304.344	9775.48
304.41	9765.46
304.476	9758.28
304.542	9756.74
304.608	9762.04
304.674	9751.92
304.741	9748.89
304.807	9749.18
304.873	9758.91
304.939	9770.18
305.005	9751.05
305.071	9749.9
305.137	9746.96
305.203	9722.2
305.269	9723.02
305.335	9733.67
305.401	9729.43
305.467	9730.54
305.533	9739.59
305.599	9743.93
305.666	9747.63
305.732	9750.62
305.798	9758.76
305.864	9783.13
305.93	9781.93
305.996	9785.4
306.062	9782.17
306.128	9780
306.194	9766.81
306.259	9765.12
306.325	9757.75
306.391	9771.38
306.457	9783.18
306.523	9794.93
306.589	9811.02
306.655	9798.06
306.721	9782.65
306.787	9773.4
306.853	9785.25
306.919	9768.68
306.985	9764.73
307.051	9763.67
307.117	9756.88
307.183	9751.54
307.248	9712.81
307.314	9721.39
307.38	9717.1
307.446	9723.41
307.512	9709.01
307.578	9713.63
307.644	9706.65
307.709	9701.4
307.775	9699.81
307.841	9696.87
307.907	9692.44
307.973	9680.98
308.039	9679.53
308.104	9677.12
308.17	9674.96
308.236	9658.2
308.302	9666.19
308.368	9658.39
308.433	9659.69
308.499	9649.67
308.565	9635.61
308.631	9648.42
308.696	9623.9
308.762	9612.06
308.828	9604.74
308.894	9592.55
308.959	9573.96
309.025	9568.38
309.091	9563.37
309.156	9554.27
309.222	9551.81
309.288	9533.99
309.354	9511.84
309.419	9510.25
309.485	9494.12
309.551	9498.12
309.616	9481.65
309.682	9468.84
309.748	9460.46
309.813	9444.76
309.879	9437.68
309.945	9425.3
310.01	9410.33
310.076	9411.44
310.141	9405.08
310.207	9389.24
310.273	9389.24
310.338	9388.85
310.404	9369.73
310.469	9362.13
310.535	9349.36
310.601	9321.87
310.666	9327.6
310.732	9329.86
310.797	9315.75
310.863	9314.93
310.928	9301.93
310.994	9308.53
311.059	9308.29
311.125	9297.5
311.191	9305.69
311.256	9295.87
311.322	9302.56
311.387	9296.25
311.453	9513.65
311.518	9490.88
311.584	9489.38
311.649	9492.32
311.715	9482.93
311.78	9483.61
311.846	9470.6
311.911	9473.59
311.976	9477.59
312.042	9463.09
312.107	9451.83
312.173	9440.08
312.238	9430.88
312.304	9432.13
312.369	9422.75
312.434	9407.96
312.5	9404.21
312.565	9375.95
312.631	9373.25
312.696	9364.29
312.761	9356.16
312.827	9126.67
312.892	9157.97
312.958	9148.39
313.023	9136.5
313.088	9132.02
313.154	9123.07
313.219	9115.6
313.284	9102.7
313.35	9095.67
313.415	9082
313.48	9077.91
313.546	9084.98
313.611	9090.91
313.676	9077.86
313.741	9062.21
313.807	9073
313.872	9073.72
313.937	9082.19
314.003	9095.72
314.068	9094.47
314.133	9100.1
314.198	9086.96
314.264	9065.15
314.329	9062.64
314.394	9059.75
314.459	9059.46
314.525	9072.94
314.59	9070.15
314.655	9058.65
314.72	9061.34
314.785	9067.07
314.851	9064.33
314.916	9044.49
314.981	9033.61
315.046	9023.17
315.111	9015.51
315.176	9001.65
315.242	8998.9
315.307	8999.43
315.372	8978.39
315.437	8965.54
315.502	8953.84
315.567	8964.77
315.632	8957.26
315.698	8953.46
315.763	8950.47
315.828	8939.74
315.893	8929.63
315.958	8921.73
316.023	8917.21
316.088	8898.39
316.153	8872.88
316.218	8863.54
316.283	8852.42
316.348	8833.03
316.413	8833.27
316.479	8814.55
316.544	8776.38
316.609	8748.47
316.674	8704.72
316.739	8664.88
316.804	8634.61
316.869	8602.65
316.934	8558.76
316.999	8516.32
317.064	8467.19
317.129	8422.15
317.194	8386.35
317.259	8339.04
317.324	8285.79
317.389	8234.5
317.454	8197.21
317.518	8166.23
317.583	8133.03
317.648	8096.57
317.713	8057.51
317.778	7990.16
317.843	7963.7
317.908	7924.32
317.973	7881.42
318.038	7848.67
318.103	7815.1
318.168	7778.56
318.233	7740.66
318.297	7692.38
318.362	7655.94
318.427	7614.55
318.492	7591.85
318.557	7538.25
318.622	7505.94
318.687	7479.6
318.751	7441.48
318.816	7399.28
318.881	7357.89
318.946	7302.32
319.011	7261.23
319.075	7218.26
319.14	7180.49
319.205	7129.6
319.27	7094.38
319.335	7046.91
319.399	7007.08
319.464	6973.79
319.529	6922.44
319.594	6886.4
319.658	6852.92
319.723	6812.76
319.788	6780.63
319.853	6713.53
319.917	6680.39
319.982	6626.84
320.047	6582.67
320.112	6547.76
320.176	6496.77
320.241	6462.29
320.306	6427.58
320.37	6381.64
320.435	6345.44
320.5	6317.55
320.564	6272.58
320.629	6226.8
320.694	6193.69
320.758	6149.3
320.823	6103.28
320.888	6077.47
320.952	6018.79
321.017	5976.43
321.082	5927.21
321.146	5893.29
321.211	5860.48
321.275	5819.48
321.34	5771.24
321.405	5727.7
321.469	5680.09
321.534	5635.22
321.598	5579.46
321.663	5546.65
321.727	5509.4
321.792	5455.77
321.857	5403.71
321.921	5366.04
321.986	5323.01
322.05	5259.78
322.115	5222.78
322.179	5178.28
322.244	5118.49
322.308	5087.11
322.373	5038.64
322.437	4996.88
322.502	4963.33
322.566	4915.97
322.631	4875.32
322.695	4832.28
322.76	4785.18
322.824	4747.6
322.889	4708.6
322.953	4662.52
323.018	4597.57
323.082	4534.03
323.146	4482.76
323.211	4434.58
323.275	4389.85
323.34	4345.23
323.404	4309.23
323.468	4258.38
323.533	4213.77
323.597	4166.74
323.662	4113.28
323.726	4076.08
323.79	4032.06
323.855	3964.49
323.919	3912.07
323.983	3866.52
324.048	3802.4
324.112	3912.71
324.177	3780.08
324.241	3579.59
324.305	3384.63
324.37	3191.97
324.434	3009.77
324.498	2967.66
324.562	2915.37
324.627	2854.7
324.691	2797.04
324.755	2736.63
324.82	2661.4
324.884	2582.17
324.948	2505.79
325.012	2410.08
325.077	2285.48
