Data from 20250702_urea_1.5M_MAYP1162681_11-41-57-243.txt Node
Date: Wed Jul 02 11:41:57 BST 2025
User: adleo
Spectrometer: MAYP116268
Trigger mode: 0
Integration Time (sec): 1.000000E0
Scans to average: 1
Electric dark correction enabled: true
Nonlinearity correction enabled: true
Boxcar width: 10
XAxis mode: Wavelengths
Number of Pixels in Spectrum: 2068
>>>>>Begin Spectral Data<<<<<
179.565	1010.4
179.642	1055.94
179.718	1089.57
179.795	1119.96
179.871	1146.96
179.948	1163.23
180.024	1178.59
180.101	1197.61
180.177	1208.28
180.254	1226.96
180.33	1246.23
180.407	1287.1
180.483	1367.34
180.56	1442.97
180.636	1512.75
180.712	1502.21
180.789	1512.18
180.865	1521.68
180.942	1529.23
181.018	1539.63
181.095	1552.6
181.171	1559.77
181.248	1560.39
181.324	1574.64
181.4	1581.76
181.477	1593.02
181.553	1603.56
181.63	1624.65
181.706	1638.29
181.782	1645.89
181.859	1644.65
181.935	1649.02
182.011	1644.03
182.088	1658.9
182.164	1676.54
182.24	1690.6
182.317	1699.38
182.393	1696.34
182.469	1708.88
182.546	1719.95
182.622	1723.57
182.698	1716.39
182.775	1723.76
182.851	1737.49
182.927	1731.64
183.003	1728.03
183.08	1721.9
183.156	1730.12
183.232	1726.99
183.308	1715.39
183.385	1724.85
183.461	1740.05
183.537	1743.9
183.613	1753.59
183.69	1747.51
183.766	1736.72
183.842	1742.14
183.918	1745.94
183.995	1757.25
184.071	1760.24
184.147	1757.34
184.223	1748.08
184.299	1761.96
184.375	1753.88
184.452	1760.2
184.528	1811.54
184.604	1820.52
184.68	1830.22
184.756	1836.3
184.832	1841.15
184.908	1844.66
184.985	1843.05
185.061	1830.93
185.137	1836.68
185.213	1829.17
185.289	1828.7
185.365	1822.09
185.441	1819.77
185.517	1831.46
185.593	1831.89
185.669	1830.13
185.745	1838.59
185.822	1851.84
185.898	1843.43
185.974	1847.9
186.05	1840.62
186.126	1804.16
186.202	1799.17
186.278	1796.04
186.354	1788.62
186.43	1791.19
186.506	1792.23
186.582	1791.28
186.658	1797.41
186.734	1778.69
186.81	1776.84
186.886	1777.36
186.962	1789.19
187.038	1785.15
187.114	1779.73
187.19	1785.91
187.266	1778.74
187.341	1779.07
187.417	1776.69
187.493	1775.08
187.569	1779.4
187.645	1772.04
187.721	1763.62
187.797	1769.23
187.873	1773.79
187.949	1768.71
188.025	1764.38
188.101	1767.09
188.176	1768.18
188.252	1765.28
188.328	1774.07
188.404	1777.73
188.48	1774.59
188.556	1770.46
188.632	1772.84
188.707	1771.22
188.783	1767.27
188.859	1762.95
188.935	1753.3
189.011	1758.77
189.086	1755.92
189.162	1749.17
189.238	1747.41
189.314	1743.56
189.39	1739.24
189.465	1730.3
189.541	1743.42
189.617	1728.36
189.693	1725.65
189.768	1732.45
189.844	1752.13
189.92	1744.39
189.996	1752.42
190.071	1763.2
190.147	1759.21
190.223	1764.87
190.298	1761.83
190.374	1750.23
190.45	1760.78
190.526	1767.81
190.601	1762.4
190.677	1763.73
190.753	1787.59
190.828	1792.63
190.904	1803.8
190.98	1818.11
191.055	1829.37
191.131	1825
191.207	1846.38
191.282	1852.7
191.358	1841.72
191.433	1829.27
191.509	1838.67
191.585	1835.11
191.66	1836.44
191.736	1842.71
191.811	1834.82
191.887	1846.52
191.963	1867.1
192.038	1871
192.114	1871.28
192.189	1875.8
192.265	1872.19
192.34	1852.45
192.416	1850.22
192.491	1846.27
192.567	1848.55
192.642	1850.65
192.718	1848.41
192.793	1836.77
192.869	1833.54
192.944	1837.38
193.02	1844.37
193.095	1849.41
193.171	1853.5
193.246	1853.54
193.322	1853.5
193.397	1853.59
193.473	1842.04
193.548	1827.4
193.624	1833.63
193.699	1833.29
193.775	1844.8
193.85	1845.04
193.925	1853.74
194.001	1853.5
194.076	1849.03
194.152	1840.14
194.227	1832.96
194.302	1823.41
194.378	1824.98
194.453	1822.03
194.529	1833.3
194.604	1820.46
194.679	1814
194.755	1799.98
194.83	1812.06
194.905	1809.45
194.981	1817.86
195.056	1808.79
195.131	1811.59
195.207	1808.55
195.282	1799.47
195.357	1781.93
195.433	1796.61
195.508	1786.44
195.583	1793.28
195.659	1804.12
195.734	1809.35
195.809	1810.11
195.884	1821.9
195.96	1822.9
196.035	1834.54
196.11	1829.69
196.185	1837.72
196.261	1842.76
196.336	1867.19
196.411	1852.54
196.486	1858.49
196.561	1851.93
196.637	1861.95
196.712	1877.6
196.787	1879.5
196.862	1892.76
196.937	1902.17
197.013	1907.07
197.088	1916.24
197.163	1936.36
197.238	1951.06
197.313	1950.34
197.388	1960.66
197.464	1983.73
197.539	1994.67
197.614	1990.72
197.689	2004.94
197.764	2021.49
197.839	2038.8
197.914	2032.57
197.989	2054.11
198.065	2066.29
198.14	2111.26
198.215	2136.51
198.29	2144.6
198.365	2158.97
198.44	2169.62
198.515	2196.5
198.59	2207.45
198.665	2232.23
198.74	2237.56
198.815	2238.66
198.89	2259.54
198.965	2285.86
199.04	2283.2
199.115	2297.28
199.19	2336.2
199.265	2335.73
199.34	2345.01
199.415	2376.49
199.49	2397.42
199.565	2403.32
199.64	2423.74
199.715	2422.65
199.79	2427.98
199.865	2436.74
199.94	2435.22
200.015	2460.45
200.09	2461.31
200.165	2471.49
200.24	2475.45
200.315	2513.28
200.39	2527
200.464	2530.61
200.539	2533.38
200.614	2546.61
200.689	2567.33
200.764	2573.04
200.839	2590.99
200.914	2594.75
200.989	2580.27
201.063	2593.51
201.138	2576.47
201.213	2574.99
201.288	2556.57
201.363	2559.52
201.438	2560.23
201.512	2572.61
201.587	2559.27
201.662	2564.13
201.737	2569.23
201.812	2575.99
201.886	2543.92
201.961	2553.45
202.036	2545.02
202.111	2541.73
202.186	2515.89
202.26	2499.75
202.335	2481.03
202.41	2475.32
202.485	2462.99
202.559	2447.94
202.634	2423.52
202.709	2435.7
202.784	2418.61
202.858	2418.94
202.933	2403.24
203.008	2394.05
203.082	2377.68
203.157	2377.06
203.232	2339.09
203.306	2324.14
203.381	2297.48
203.456	2277.73
203.53	2254.34
203.605	2237.27
203.68	2217.56
203.754	2213.04
203.829	2201.29
203.904	2184.02
203.978	2173.17
204.053	2175.31
204.127	2165.03
204.202	2164.42
204.277	2148.05
204.351	2143.1
204.426	2138.87
204.5	2133.4
204.575	2105.86
204.65	2114.1
204.724	2106.62
204.799	2115.7
204.873	2112.04
204.948	2110.75
205.022	2101.01
205.097	2095.2
205.171	2106.28
205.246	2112.75
205.32	2113.7
205.395	2112.8
205.469	2104.58
205.544	2107.48
205.618	2090.64
205.693	2103.53
205.767	2091.4
205.842	2108.39
205.916	2107.44
205.991	2097.45
206.065	2099.49
206.14	2112.61
206.214	2106.71
206.289	2100.62
206.363	2111.89
206.438	2111.75
206.512	2115.94
206.586	2134.68
206.661	2141.77
206.735	2124.13
206.81	2126.36
206.884	2137.54
206.958	2124.27
207.033	2140.11
207.107	2148.48
207.181	2175.27
207.256	2167.23
207.33	2186.26
207.405	2198.78
207.479	2209.06
207.553	2215.62
207.628	2203.16
207.702	2212.44
207.776	2207.73
207.851	2210.53
207.925	2223.24
207.999	2223.53
208.073	2222.48
208.148	2223.1
208.222	2212.87
208.296	2239.88
208.371	2251.22
208.445	2262.45
208.519	2290.28
208.593	2301.42
208.668	2299.94
208.742	2302.27
208.816	2305.56
208.89	2315.22
208.965	2313.89
209.039	2322.74
209.113	2339.45
209.187	2357.81
209.261	2354.95
209.336	2376.04
209.41	2393.84
209.484	2395.08
209.558	2411.93
209.632	2424.35
209.707	2434.06
209.781	2455.34
209.855	2470.82
209.929	2489.54
210.003	2496.26
210.077	2498.54
210.151	2540.39
210.226	2567.54
210.3	2599.52
210.374	2623.57
210.448	2633.95
210.522	2645.96
210.596	2662.11
210.67	2674.87
210.744	2722.47
210.818	2761.38
210.892	2788.26
210.966	2796.07
211.041	2819.33
211.115	2832.05
211.189	2865.74
211.263	2897.34
211.337	2915.68
211.411	2944
211.485	2956.02
211.559	2986.53
211.633	3007.78
211.707	3008.25
211.781	3046.19
211.855	3040.04
211.929	3063.21
212.003	3076.36
212.077	3123.12
212.151	3170.17
212.225	3219.5
212.299	3250.97
212.373	3283.08
212.447	3324.57
212.52	3394.55
212.594	3454.38
212.668	3517.54
212.742	3565.63
212.816	3619.31
212.89	3682.58
212.964	3751.12
213.038	3823.86
213.112	3907.55
213.186	3998.77
213.26	4058.54
213.333	4102.34
213.407	4196.12
213.481	4291.94
213.555	4400.31
213.629	4488.19
213.703	4576.83
213.777	4680.59
213.85	4772.23
213.924	4916.17
213.998	5034.51
214.072	5149.52
214.146	5260.52
214.219	5386.39
214.293	5518.4
214.367	5655.54
214.441	5803.97
214.515	5937.89
214.588	6065.7
214.662	6184.57
214.736	6316.16
214.81	6472.3
214.883	6637.55
214.957	6784.14
215.031	6932.72
215.105	7077.09
215.178	7229.42
215.252	7391.34
215.326	7543.97
215.4	7699.51
215.473	7831.69
215.547	7989.26
215.621	8152.4
215.694	8332.44
215.768	8495.56
215.842	8659.03
215.915	8835.01
215.989	8993.29
216.063	9166.76
216.136	9346.73
216.21	9529.25
216.284	9726.59
216.357	9915.86
216.431	10094.74
216.504	10287.37
216.578	10493.36
216.652	10690.67
216.725	10878.77
216.799	11078.51
216.873	11263.74
216.946	11454.32
217.02	11631.8
217.093	11817.69
217.167	11987.53
217.24	12153
217.314	12333.84
217.387	12511.21
217.461	12685.08
217.535	12876.83
217.608	13047.42
217.682	13223.36
217.755	13406.64
217.829	13572.12
217.902	13745.85
217.976	13917.17
218.049	14081.94
218.123	14232.86
218.196	14404.81
218.27	14571.21
218.343	14719.1
218.417	14881.78
218.49	15041.96
218.563	15222.05
218.637	15385.98
218.71	15570.01
218.784	15737.31
218.857	15901.53
218.931	16071.09
219.004	16224.94
219.077	16388.67
219.151	16542.46
219.224	16701.95
219.298	16847.88
219.371	17007.75
219.444	17145.15
219.518	17296.68
219.591	17442.94
219.665	17614.95
219.738	17760.01
219.811	17892.87
219.885	18037.11
219.958	18177.25
220.031	18317.68
220.105	18453.1
220.178	18580.42
220.251	18687.55
220.325	18818.14
220.398	18946.96
220.471	19066.81
220.544	19193.89
220.618	19295.18
220.691	19412.81
220.764	19523.51
220.838	19645.53
220.911	19752.56
220.984	19881.38
221.057	19991.16
221.131	20108.65
221.204	20185.66
221.277	20290.33
221.35	20409.71
221.424	20501.95
221.497	20597.95
221.57	20690.34
221.643	20792.03
221.716	20898.35
221.79	20996.47
221.863	21088.34
221.936	21172.54
222.009	21251.68
222.082	21329.71
222.155	21412.61
222.229	21497.54
222.302	21582.13
222.375	21653.46
222.448	21731.65
222.521	21795.32
222.594	21863.57
222.667	21917.32
222.74	21996.23
222.814	22070.46
222.887	22137.43
222.96	22216
223.033	22293.23
223.106	22365.35
223.179	22421.08
223.252	22466.4
223.325	22514.89
223.398	22564.89
223.471	22620.91
223.544	22679
223.617	22724.61
223.69	22780.87
223.763	22826.87
223.837	22868.43
223.91	22926.43
223.983	22959.84
224.056	23004.29
224.129	23051.11
224.202	23107.48
224.275	23142.77
224.348	23170.21
224.42	23196.34
224.493	23226
224.566	23256.81
224.639	23296.74
224.712	23324.32
224.785	23352.24
224.858	23384.5
224.931	23415.8
225.004	23432.82
225.077	23460.59
225.15	23486.15
225.223	23503.46
225.296	23550.05
225.369	23562.3
225.442	23576.43
225.514	23598.95
225.587	23621.95
225.66	23645.25
225.733	23657.21
225.806	23678.86
225.879	23697.28
225.952	23698.1
226.025	23710.45
226.097	23727.33
226.17	23736.2
226.243	23729.84
226.316	23742.76
226.389	23763.69
226.461	23782.65
226.534	23793.45
226.607	23795.81
226.68	23819.69
226.753	23822.15
226.825	23808.01
226.898	23837.29
226.971	23835.99
227.044	23843.46
227.117	23841.1
227.189	23847.18
227.262	23854.7
227.335	23857.35
227.407	23854.8
227.48	23871.48
227.553	23886.77
227.626	23884.6
227.698	23879.92
227.771	23896.9
227.844	23903.07
227.916	23898.83
227.989	23880.69
228.062	23890.77
228.134	23921.5
228.207	23915.03
228.28	23924.97
228.352	23918.36
228.425	23915.81
228.498	23930.47
228.57	23921.01
228.643	23941.13
228.716	23943.64
228.788	23946.63
228.861	23953.67
228.934	23967.51
229.006	23964.38
229.079	23956.75
229.151	23961.1
229.224	23942.34
229.296	23934.81
229.369	23947.64
229.442	23955.7
229.514	23948.51
229.587	23943.16
229.659	23921.11
229.732	23925.21
229.804	23926.03
229.877	23956.95
229.949	23964.62
230.022	23976.54
230.094	23973.69
230.167	23970.12
230.239	23951.41
230.312	23946.54
230.384	23954.49
230.457	23944.8
230.529	23940.6
230.602	23921.89
230.674	23910.51
230.747	23920.39
230.819	23927.97
230.892	23888.42
230.964	23890.15
231.037	23894.21
231.109	23882.87
231.181	23861.99
231.254	23844.39
231.326	23832.28
231.399	23806.14
231.471	23778.7
231.544	23748.69
231.616	23747.68
231.688	23725.98
231.761	23707.75
231.833	23681.13
231.905	23645.2
231.978	23641.73
232.05	23616.99
232.122	23619.11
232.195	23597.17
232.267	23599.53
232.339	23582.7
232.412	23586.41
232.484	23565.53
232.556	23537.08
232.629	23547.98
232.701	23557.43
232.773	23539.15
232.846	23531.92
232.918	23520.97
232.99	23502.55
233.062	23490.06
233.135	23484.95
233.207	23463.44
233.279	23455.63
233.351	23452.93
233.424	23425.3
233.496	23394.87
233.568	23400.37
233.64	23366.42
233.713	23354.46
233.785	23322.87
233.857	23305.32
233.929	23280.01
234.001	23272.24
234.074	23273.69
234.146	23232.84
234.218	23203.77
234.29	23182.36
234.362	23146.97
234.434	23109.6
234.507	23094.22
234.579	23063.36
234.651	23037.03
234.723	23024.3
234.795	23017.16
234.867	22989.78
234.939	22991.8
235.012	22966.58
235.084	22953.81
235.156	22944.6
235.228	22912.1
235.3	22899.81
235.372	22868.76
235.444	22856.12
235.516	22814.85
235.588	22793.73
235.66	22774.35
235.732	22737.71
235.804	22767.32
235.876	22754.4
235.948	22747.89
236.02	22710.43
236.092	22684.49
236.164	22653.3
236.236	22624.47
236.308	22587.73
236.38	22570.23
236.452	22534.22
236.524	22516.67
236.596	22498.93
236.668	22474.92
236.74	22453.03
236.812	22429.02
236.884	22423.48
236.956	22391.66
237.028	22364.57
237.1	22321.81
237.172	22300.31
237.244	22297.9
237.316	22237.92
237.388	22206.59
237.46	22164.36
237.532	22157.94
237.604	22122.85
237.675	22113.31
237.747	22092.87
237.819	22067.13
237.891	22039.17
237.963	22011.89
238.035	21978.14
238.107	21926.42
238.178	21909.16
238.25	21877.35
238.322	21861.06
238.394	21808.9
238.466	21777.38
238.538	21747.44
238.609	21730.24
238.681	21688.69
238.753	21649.06
238.825	21618.31
238.897	21588.96
238.968	21583.37
239.04	21544.23
239.112	21551.7
239.184	21506.05
239.255	21470.82
239.327	21442.14
239.399	21408.59
239.471	21379.96
239.542	21352.1
239.614	21328.34
239.686	21284.58
239.758	21265.88
239.829	21227.99
239.901	21210.5
239.973	21176.52
240.044	21151.36
240.116	21114.39
240.188	21083.16
240.259	21058.49
240.331	21019.06
240.403	20992.41
240.474	20943.68
240.546	20899.1
240.618	20838.76
240.689	20794.18
240.761	20760.69
240.833	20740.35
240.904	20712.92
240.976	20680.63
241.048	20653.6
241.119	20633.6
241.191	20599.04
241.262	20580.54
241.334	20538.85
241.405	20505.59
241.477	20470.8
241.549	20442.41
241.62	20415.33
241.692	20389.88
241.763	20355.91
241.835	20324.87
241.906	20291.86
241.978	20249.07
242.049	20227.48
242.121	20200.73
242.192	20185.45
242.264	20148.44
242.335	20095.58
242.407	20061.65
242.478	20025.07
242.55	19990.9
242.621	19934.47
242.693	19897.46
242.764	19860.35
242.836	19819.44
242.907	19787.83
242.979	19760.16
243.05	19712.89
243.122	19683.83
243.193	19648.84
243.264	19604.65
243.336	19575.6
243.407	19546.44
243.479	19524.85
243.55	19501.91
243.622	19474.35
243.693	19441.58
243.764	19424.04
243.836	19384.14
243.907	19352.28
243.978	19315.08
244.05	19291.71
244.121	19245.69
244.192	19219.18
244.264	19172.53
244.335	19149.11
244.407	19099
244.478	19075.67
244.549	19052.01
244.62	19000.45
244.692	18965.51
244.763	18942.38
244.834	18900.07
244.906	18860.55
244.977	18833.81
245.048	18808.99
245.119	18768.42
245.191	18733.67
245.262	18676.42
245.333	18664.08
245.405	18625.77
245.476	18597.82
245.547	18557.73
245.618	18534.31
245.689	18494.02
245.761	18458.7
245.832	18424.39
245.903	18395.76
245.974	18361.4
246.045	18332.1
246.117	18317.69
246.188	18271.09
246.259	18216.4
246.33	18176.45
246.401	18136.01
246.473	18086.57
246.544	18048.6
246.615	18022.29
246.686	17981.47
246.757	17967.44
246.828	17918.58
246.899	17905.76
246.97	17861.13
247.042	17821.09
247.113	17799.54
247.184	17801.04
247.255	17765.71
247.326	17737.67
247.397	17706.63
247.468	17680.66
247.539	17636.46
247.61	17594.63
247.681	17581.96
247.752	17570.73
247.823	17538.87
247.894	17519.6
247.965	17479.93
248.037	17446.54
248.108	17406.25
248.179	17371.55
248.25	17332.56
248.321	17310.49
248.392	17256.56
248.463	17240.94
248.534	17209.09
248.605	17179.55
248.675	17139.98
248.746	17114.92
248.817	17083.59
248.888	17063.88
248.959	17017.62
249.03	16999.3
249.101	16970.82
249.172	16932.6
249.243	16879.68
249.314	16863.92
249.385	16830.96
249.456	16811.29
249.527	16780.55
249.598	16753.94
249.669	16725.12
249.739	16710.52
249.81	16685.84
249.881	16658.85
249.952	16634.66
250.023	16613.59
250.094	16580.97
250.165	16535.66
250.235	16502.99
250.306	16477.92
250.377	16441.25
250.448	16416.52
250.519	16368.08
250.59	16349.38
250.66	16319.93
250.731	16312.12
250.802	16278.68
250.873	16249.18
250.944	16213.42
251.014	16174.91
251.085	16169.56
251.156	16145.41
251.227	16119.53
251.297	16104.73
251.368	16086.56
251.439	16064.58
251.51	16047.86
251.58	16011.08
251.651	15986.02
251.722	15975.61
251.792	15925.77
251.863	15890.24
251.934	15873.61
252.005	15871.98
252.075	15842.38
252.146	15825.27
252.217	15811
252.287	15797.6
252.358	15767.29
252.429	15763.82
252.499	15739.09
252.57	15714.65
252.641	15704.29
252.711	15668.81
252.782	15625.05
252.852	15613.53
252.923	15586.39
252.994	15554.34
253.064	15541.23
253.135	15504.93
253.205	15470.56
253.276	15467.67
253.347	15459.57
253.417	15428.34
253.488	15403.03
253.558	15378.45
253.629	15354.35
253.699	15332.51
253.77	15314.39
253.841	15298.58
253.911	15276.12
253.982	15247.44
254.052	15233.27
254.123	15207.86
254.193	15191.91
254.264	15202.56
254.334	15165.93
254.405	15141.83
254.475	15104.61
254.546	15078.63
254.616	15061.95
254.687	15043.59
254.757	15020.02
254.827	14998.47
254.898	14978.66
254.968	14952.92
255.039	14917.01
255.109	14898.69
255.18	14863.6
255.25	14811.34
255.321	14793.6
255.391	14761.55
255.461	14761.16
255.532	14708.38
255.602	14673.91
255.673	14627.93
255.743	14592.3
255.813	14555.04
255.884	14534.65
255.954	14522.07
256.024	14518.07
256.095	14504.72
256.165	14469.77
256.235	14457.38
256.306	14429.9
256.376	14418.62
256.446	14403.48
256.517	14395.15
256.587	14381.89
256.657	14361.79
256.728	14350.31
256.798	14330.98
256.868	14308.09
256.938	14281.38
257.009	14269.52
257.079	14259.98
257.149	14265.67
257.219	14225.12
257.29	14203.58
257.36	14166.31
257.43	14156.14
257.5	14120.47
257.571	14096.61
257.641	14083.54
257.711	14052.84
257.781	14036.49
257.852	14012.87
257.922	13976.33
257.992	13956.28
258.062	13933.77
258.132	13918.29
258.202	13895.64
258.273	13865.31
258.343	13859.34
258.413	13830.27
258.483	13813.88
258.553	13778.64
258.623	13751.16
258.693	13743.4
258.764	13736.46
258.834	13730
258.904	13711.15
258.974	13676.63
259.044	13651.52
259.114	13642.21
259.184	13619.41
259.254	13599.6
259.324	13567.59
259.394	13560.74
259.464	13556.26
259.535	13529.22
259.605	13505.84
259.675	13484.39
259.745	13477.44
259.815	13445.68
259.885	13426.06
259.955	13424.46
260.025	13402.77
260.095	13385.47
260.165	13363.19
260.235	13362.18
260.305	13329.93
260.375	13293.83
260.445	13293.49
260.515	13287.46
260.585	13271.17
260.655	13253.19
260.725	13238.97
260.795	13228.07
260.865	13216.31
260.934	13195.24
261.004	13183.62
261.074	13163.38
261.144	13152.68
261.214	13137.64
261.284	13126.26
261.354	13112.81
261.424	13085.19
261.494	13088.61
261.564	13067.4
261.634	13063.25
261.703	13025.89
261.773	13020.01
261.843	13008.83
261.913	12993.35
261.983	12963.27
262.053	12947.61
262.123	12925.38
262.192	12895.69
262.262	12885.47
262.332	12852.35
262.402	12830.56
262.472	12813.64
262.541	12775.47
262.611	12766.93
262.681	12738.25
262.751	12722.63
262.821	12697.04
262.89	12668.69
262.96	12650.18
263.03	12646.52
263.1	12627.19
263.169	12609.35
263.239	12596.43
263.309	12599.76
263.379	12581.44
263.448	12566.4
263.518	12557.87
263.588	12546.2
263.657	12545.09
263.727	12531.55
263.797	12518.24
263.867	12496.26
263.936	12469.51
264.006	12475.53
264.076	12460.54
264.145	12440.01
264.215	12413.93
264.285	12404.77
264.354	12372.76
264.424	12352.18
264.494	12324.46
264.563	12302.14
264.633	12306.48
264.702	12290.58
264.772	12251.43
264.842	12236.78
264.911	12227
264.981	12187.95
265.05	12168.52
265.12	12151.75
265.19	12142.64
265.259	12135.36
265.329	12133.48
265.398	12113.67
265.468	12118.78
265.537	12094.97
265.607	12092.75
265.676	12085.76
265.746	12079.35
265.815	12071.69
265.885	12054.58
265.955	12032.79
266.024	12014.52
266.094	11977.45
266.163	11971.57
266.232	11977.6
266.302	11957.11
266.371	11939.71
266.441	11932.87
266.51	11931.08
266.58	11907.03
266.649	11883.65
266.719	11875.65
266.788	11855.7
266.858	11866.01
266.927	11833.81
266.996	11820.75
267.066	11807.59
267.135	11783.78
267.205	11780.7
267.274	11773.47
267.343	11775.25
267.413	11757.85
267.482	11758.48
267.552	11754.09
267.621	11727.49
267.69	11696.64
267.76	11683.39
267.829	11670.08
267.898	11649.12
267.968	11624.15
268.037	11614.27
268.106	11606.51
268.176	11581.21
268.245	11564.77
268.314	11536.62
268.384	11525.49
268.453	11517.92
268.522	11508.09
268.592	11507.32
268.661	11485.58
268.73	11472.04
268.799	11444.81
268.869	11451.99
268.938	11418.35
269.007	11399.84
269.076	11385.91
269.146	11384.03
269.215	11379.07
269.284	11382.63
269.353	11367.12
269.422	11345
269.492	11331.69
269.561	11297.86
269.63	11286.3
269.699	11277.19
269.768	11277.19
269.838	11267.4
269.907	11259.64
269.976	11234
270.045	11205.57
270.114	11189.67
270.183	11175.93
270.253	11167.64
270.322	11138.87
270.391	11124.61
270.46	11123.93
270.529	11121.52
270.598	11113.72
270.667	11105.81
270.736	11084.32
270.806	11083.5
270.875	11094.63
270.944	11082.1
271.013	11098.49
271.082	11096.32
271.151	11082.2
271.22	11049.57
271.289	11036.42
271.358	11023.74
271.427	11018.34
271.496	11004.47
271.565	10991.36
271.634	10982.78
271.703	11008.18
271.772	11008.28
271.841	11004.52
271.91	10987.89
271.979	10977.24
272.048	10953.15
272.117	10937.58
272.186	10920.86
272.255	10919.75
272.324	10907.75
272.393	10902.07
272.462	10881.44
272.531	10871.47
272.6	10867.32
272.669	10871.61
272.738	10863.03
272.807	10855.08
272.876	10840.48
272.945	10863.03
273.013	10864.67
273.082	10866.36
273.151	10825.11
273.22	10819.32
273.289	10806.36
273.358	10808.43
273.427	10797.25
273.496	10797.45
273.564	10798.36
273.633	10797.74
273.702	10774.27
273.771	10765.02
273.84	10758.99
273.909	10756.58
273.977	10759.48
274.046	10745.36
274.115	10746.85
274.184	10728.54
274.253	10715.58
274.322	10719.19
274.39	10693.32
274.459	10680.84
274.528	10653.18
274.597	10641.28
274.665	10639.59
274.734	10649.62
274.803	10637.86
274.872	10630.39
274.94	10617.62
275.009	10664.51
275.078	10643.89
275.147	10652.23
275.215	10649.43
275.284	10658.59
275.353	10648.04
275.421	10620.71
275.49	10633.44
275.559	10622.21
275.627	10620.57
275.696	10616.23
275.765	10613.15
275.833	10606.98
275.902	10604.33
275.971	10614.16
276.039	10629.77
276.108	10629.87
276.177	10627.46
276.245	10619.08
276.314	10616.67
276.383	10620.04
276.451	10561
276.52	10569.39
276.588	10569.87
276.657	10570.79
276.725	10558.31
276.794	10555.61
276.863	10561.92
276.931	10543.37
277	10548.33
277.068	10551.17
277.137	10563.51
277.205	10557.34
277.274	10575.36
277.342	10585.58
277.411	10570.98
277.48	10553.34
277.548	10547.32
277.617	10545.15
277.685	10538.46
277.754	10538.55
277.822	10533.44
277.89	10545.44
277.959	10538.31
278.027	10522.8
278.096	10513.4
278.164	10533.45
278.233	10533.21
278.301	10525.26
278.37	10528.58
278.438	10515.23
278.507	10521.55
278.575	10497.12
278.643	10495.34
278.712	10471.2
278.78	10455.34
278.849	10466.62
278.917	10476.64
278.985	10469.65
279.054	10467.63
279.122	10482.71
279.191	10480.64
279.259	10476.98
279.327	10453.66
279.396	10467.92
279.464	10471.19
279.532	10476.98
279.601	10478.04
279.669	10470.23
279.737	10480.4
279.806	10482.18
279.874	10495.28
279.942	10487.38
280.011	10491.38
280.079	10497.98
280.147	10509.21
280.215	10516.68
280.284	10512
280.352	10504.15
280.42	10508.53
280.488	10497.89
280.557	10484.35
280.625	10488.06
280.693	10482.32
280.761	10486.18
280.83	10474.66
280.898	10482.32
280.966	10473.31
281.034	10437.23
281.102	10424.27
281.171	10417.47
281.239	10421.62
281.307	10407.35
281.375	10407.79
281.443	10429.95
281.512	10425.9
281.58	10436.55
281.648	10419.98
281.716	10417.91
281.784	10413.52
281.852	10410.68
281.92	10415.02
281.989	10429.08
282.057	10420.03
282.125	10464.26
282.193	10466.81
282.261	10466.57
282.329	10458.91
282.397	10462.53
282.465	10472.6
282.533	10487.77
282.601	10476.21
282.67	10456.41
282.738	10456.21
282.806	10456.5
282.874	10441.42
282.942	10449.03
283.01	10449.18
283.078	10457.56
283.146	10456.07
283.214	10468.88
283.282	10471.97
283.35	10488.54
283.418	10485.32
283.486	10493.17
283.554	10452.35
283.622	10453.8
283.69	10448.89
283.758	10445.51
283.826	10444.26
283.894	10448.16
283.962	10459.92
284.03	10470.86
284.098	10472.69
284.165	10470.9
284.233	10476.11
284.301	10473.02
284.369	10466.57
284.437	10447.78
284.505	10441.95
284.573	10454.14
284.641	10443.44
284.709	10449.51
284.777	10430
284.845	10432.99
284.912	10426.63
284.98	10433.51
285.048	10424.41
285.116	10438.48
285.184	10453.32
285.252	10453.65
285.319	10444.36
285.387	10444.31
285.455	10443.2
285.523	10455.77
285.591	10446.33
285.659	10438.33
285.726	10445.51
285.794	10427.69
285.862	10427.01
285.93	10431.83
285.997	10430.24
286.065	10429.86
286.133	10418
286.201	10418.82
286.269	10407.35
286.336	10402.44
286.404	10396.08
286.472	10401.19
286.539	10381.15
286.607	10363.32
286.675	10362.79
286.743	10372.47
286.81	10357.25
286.878	10367.7
286.946	10358.45
287.013	10362.11
287.081	10367.46
287.149	10357.97
287.216	10380.66
287.284	10379.75
287.352	10373.19
287.419	10367.89
287.487	10375.7
287.555	10382.44
287.622	10381.1
287.69	10387.94
287.758	10402.78
287.825	10397.14
287.893	10399.02
287.96	10404.99
288.028	10421.71
288.096	10425.61
288.163	10426.67
288.231	10418.05
288.298	10415.45
288.366	10430.19
288.433	10429.81
288.501	10428.46
288.569	10433.18
288.636	10423.54
288.704	10441.9
288.771	10449.9
288.839	10439.68
288.906	10431.45
288.974	10444.31
289.041	10439.69
289.109	10435.01
289.176	10439.83
289.244	10451.15
289.311	10458.77
289.379	10463.34
289.446	10462.86
289.514	10462.14
289.581	10460.88
289.649	10473.94
289.716	10474.37
289.783	10466.23
289.851	10487.72
289.918	10484.3
289.986	10491.53
290.053	10500.97
290.121	10499.96
290.188	10506.32
290.255	10532.77
290.323	10545.44
290.39	10543.37
290.458	10555.08
290.525	10566.74
290.592	10573.19
290.66	10578.64
290.727	10578.54
290.794	10599.69
290.862	10595.12
290.929	10604.42
290.996	10606.05
291.064	10618.05
291.131	10626.82
291.198	10636.36
291.266	10640.31
291.333	10643.16
291.4	10653.37
291.468	10667.97
291.535	10661.18
291.602	10661.08
291.669	10665.32
291.737	10668.02
291.804	10666.48
291.871	10683.73
291.938	10693.56
292.006	10717.8
292.073	10726.66
292.14	10736.73
292.207	10735.05
292.275	10743.24
292.342	10759.96
292.409	10785.69
292.476	10811.57
292.543	10810.12
292.611	10817.93
292.678	10831.66
292.745	10865.11
292.812	10880.91
292.879	10881.39
292.946	10892.67
293.014	10917.53
293.081	10927.27
293.148	10934.83
293.215	10951.89
293.282	10949.29
293.349	10955.12
293.416	10940.37
293.484	10960.08
293.551	10974.59
293.618	10997.82
293.685	11022.06
293.752	11013.28
293.819	11016.13
293.886	10996.27
293.953	11009.53
294.02	11018.05
294.087	11024.9
294.154	11012.37
294.221	11020.47
294.288	11028.32
294.356	11049.43
294.423	11050.01
294.49	11042.83
294.557	11057.76
294.624	11055.64
294.691	11076.41
294.758	11090.73
294.825	11095.93
294.892	11088.22
294.959	11086.63
295.026	11086.1
295.093	11083.21
295.16	11081.52
295.226	11083.74
295.293	11112.85
295.36	11119.26
295.427	11138.58
295.494	11150.25
295.561	11163.11
295.628	11184.32
295.695	11193.14
295.762	11202.2
295.829	11219.31
295.896	11239.69
295.963	11250.49
296.03	11257.52
296.096	11269.09
296.163	11280.66
296.23	11302.2
296.297	11316.32
296.364	11324.13
296.431	11331.45
296.498	11328.61
296.564	11364.71
296.631	11371.84
296.698	11366.2
296.765	11391.12
296.832	11379.17
296.899	11371.79
296.965	11393.48
297.032	11378.83
297.099	11401.77
297.166	11408.13
297.233	11404.81
297.299	11399.5
297.366	11405.43
297.433	11410.78
297.5	11415.41
297.566	11416.37
297.633	11409.53
297.7	11416.23
297.767	11414.49
297.833	11421.58
297.9	11429.67
297.967	11408.76
298.033	11421.14
298.1	11448.57
298.167	11435.31
298.234	11442.35
298.3	11456.57
298.367	11455.85
298.434	11466.69
298.5	11458.01
298.567	11450.4
298.634	11450.5
298.7	11466.4
298.767	11469.63
298.834	11482.3
298.9	11482.11
298.967	11476.95
299.033	11494.55
299.1	11509.58
299.167	11528.53
299.233	11525.01
299.3	11538.12
299.366	11556.62
299.433	11570.6
299.5	11552.29
299.566	11562.79
299.633	11577.64
299.699	11588.63
299.766	11592.87
299.832	11603.76
299.899	11612.63
299.965	11630.8
300.032	11634.03
300.099	11645.98
300.165	11652.87
300.232	11653.65
300.298	11653.36
300.365	11668.39
300.431	11670.56
300.498	11657.79
300.564	11662.47
300.631	11678.13
300.697	11691.48
300.763	11693.41
300.83	11692.49
300.896	11703.58
300.963	11706.76
301.029	11711.82
301.096	11717.8
301.162	11722.71
301.229	11711.68
301.295	11702.28
301.361	11707
301.428	11711.15
301.494	11698.04
301.561	11699.82
301.627	11699.96
301.693	11701.99
301.76	11703
301.826	11696.78
301.892	11712.25
301.959	11714.91
302.025	11716.25
302.092	11710.09
302.158	11720.26
302.224	11721.32
302.291	11708.98
302.357	11708.78
302.423	11708.88
302.49	11697.79
302.556	11706.9
302.622	11711.15
302.688	11722.09
302.755	11732.5
302.821	11742.23
302.887	11751.78
302.954	11747.29
303.02	11757.9
303.086	11764.36
303.152	11769.61
303.219	11767.68
303.285	11774.72
303.351	11778.91
303.417	11775.11
303.483	11773.61
303.55	11764.12
303.616	11767.97
303.682	11774.87
303.748	11765.37
303.815	11772.21
303.881	11779.16
303.947	11761.32
304.013	11767.73
304.079	11759.2
304.145	11739.25
304.212	11734.76
304.278	11724.88
304.344	11726.28
304.41	11713.89
304.476	11706.95
304.542	11695.67
304.608	11700.49
304.674	11682.61
304.741	11678.27
304.807	11680.06
304.873	11682.23
304.939	11697.55
305.005	11679.43
305.071	11673.21
305.137	11682.66
305.203	11664.39
305.269	11651.38
305.335	11667.24
305.401	11654.13
305.467	11656.39
305.533	11663.91
305.599	11673.26
305.666	11680.59
305.732	11676.2
305.798	11689.02
305.864	11709.27
305.93	11710.86
305.996	11706.23
306.062	11707.53
306.128	11703.43
306.194	11691
306.259	11685.31
306.325	11676.59
306.391	11681.99
306.457	11684.73
306.523	11681.79
306.589	11703.68
306.655	11704.69
306.721	11684.16
306.787	11676.68
306.853	11680.64
306.919	11655.86
306.985	11639.33
307.051	11631.48
307.117	11626.46
307.183	11617.45
307.248	11591.18
307.314	11593.88
307.38	11595.95
307.446	11596.19
307.512	11590.8
307.578	11593.78
307.644	11590.51
307.709	11585.16
307.775	11577.11
307.841	11571.32
307.907	11566.7
307.973	11542.65
308.039	11537.49
308.104	11548.38
308.17	11546.45
308.236	11536.91
308.302	11545.49
308.368	11534.07
308.433	11535.37
308.499	11531.42
308.565	11518.98
308.631	11517.29
308.696	11497.68
308.762	11481.19
308.828	11476.18
308.894	11453.72
308.959	11429.43
309.025	11417.67
309.091	11414.01
309.156	11413.14
309.222	11410.83
309.288	11399.79
309.354	11377.04
309.419	11372.32
309.485	11355.07
309.551	11354.01
309.616	11332.42
309.682	11324.8
309.748	11320.85
309.813	11307.35
309.879	11299.16
309.945	11282.68
310.01	11274.34
310.076	11266.29
310.141	11260.37
310.207	11245.62
310.273	11243.93
310.338	11246.24
310.404	11231.16
310.469	11212.7
310.535	11192.27
310.601	11175.74
310.666	11175.11
310.732	11181.18
310.797	11170.29
310.863	11151.11
310.928	11139.93
310.994	11148.89
311.059	11136.03
311.125	11125.18
311.191	11132.7
311.256	11116.03
311.322	11123.98
311.387	11104.75
311.453	11411.12
311.518	11384.47
311.584	11372.28
311.649	11374.83
311.715	11361.38
311.78	11358.4
311.846	11346.49
311.911	11343.94
311.976	11339.65
312.042	11322.35
312.107	11310.21
312.173	11297.44
312.238	11291.12
312.304	11287.41
312.369	11266.69
312.434	11267.22
312.5	11256.47
312.565	11223.66
312.631	11219.18
312.696	11203.66
312.761	11205.78
312.827	10885.68
312.892	10919.99
312.958	10916.71
313.023	10913.97
313.088	10908.47
313.154	10891.61
313.219	10877.1
313.284	10871.22
313.35	10869.25
313.415	10858.45
313.48	10853.97
313.546	10859.56
313.611	10869.83
313.676	10857.92
313.741	10846.5
313.807	10844.1
313.872	10845.11
313.937	10851.03
314.003	10858.74
314.068	10857.06
314.133	10851.13
314.198	10845.3
314.264	10825.06
314.329	10822.36
314.394	10809.4
314.459	10811.13
314.525	10828
314.59	10828.82
314.655	10810.26
314.72	10810.55
314.785	10812.91
314.851	10808.72
314.916	10783.71
314.981	10763.81
315.046	10752.63
315.111	10745.55
315.176	10731.87
315.242	10729.89
315.307	10728.54
315.372	10709.22
315.437	10697.85
315.502	10692.35
315.567	10689.75
315.632	10668.5
315.698	10666.38
315.763	10655.97
315.828	10643.49
315.893	10628.07
315.958	10621.14
316.023	10611.84
316.088	10585.29
316.153	10555.18
316.218	10538.22
316.283	10518.51
316.348	10496.54
316.413	10487.19
316.479	10462.82
316.544	10423.51
316.609	10390.21
316.674	10344.01
316.739	10301.48
316.804	10257.69
316.869	10211.44
316.934	10169.09
316.999	10125.64
317.064	10058.83
317.129	10004.59
317.194	9953.09
317.259	9901.26
317.324	9839.71
317.389	9787.79
317.454	9737.07
317.518	9693.48
317.583	9648.35
317.648	9615.69
317.713	9568.83
317.778	9495.39
317.843	9456.19
317.908	9406.98
317.973	9356.51
318.038	9312.4
318.103	9265.32
318.168	9221.65
318.233	9176.87
318.297	9115.87
318.362	9069.94
318.427	9023.2
318.492	8985.79
318.557	8930.48
318.622	8891.73
318.687	8856.35
318.751	8804.42
318.816	8757.39
318.881	8711.48
318.946	8650.26
319.011	8584.18
319.075	8527.87
319.14	8486.44
319.205	8431.87
319.27	8385.78
319.335	8326.55
319.399	8273.29
319.464	8227.97
319.529	8167.98
319.594	8117.46
319.658	8075.61
319.723	8017.36
319.788	7972.97
319.853	7911.16
319.917	7866.49
319.982	7798.72
320.047	7745.15
320.112	7700.67
320.176	7635
320.241	7583.55
320.306	7540.9
320.37	7491.63
320.435	7447.59
320.5	7401.34
320.564	7343.57
320.629	7289.69
320.694	7241.78
320.758	7186.71
320.823	7133.75
320.888	7088.68
320.952	7027.8
321.017	6974.95
321.082	6925.09
321.146	6881.65
321.211	6832.75
321.275	6776.9
321.34	6718.7
321.405	6657.33
321.469	6605.18
321.534	6555.82
321.598	6495.52
321.663	6446.25
321.727	6399.49
321.792	6335.6
321.857	6279.1
321.921	6228.85
321.986	6168.73
322.05	6105.87
322.115	6056.93
322.179	5997.87
322.244	5931.49
322.308	5885.58
322.373	5825.48
322.437	5772.62
322.502	5728.29
322.566	5671.89
322.631	5628.02
322.695	5579.6
322.76	5529.23
322.824	5480.28
322.889	5427.94
322.953	5371.64
323.018	5297.22
323.082	5224.01
323.146	5167.44
323.211	5104.93
323.275	5053.09
323.34	5001.86
323.404	4954.02
323.468	4895.03
323.533	4839.45
323.597	4783.07
323.662	4721.08
323.726	4674.31
323.79	4620.61
323.855	4543.87
323.919	4484.49
323.983	4424
324.048	4343.64
324.112	4429.87
324.177	4262.17
324.241	4032.83
324.305	3809.94
324.37	3590.06
324.434	3379.56
324.498	3323.87
324.562	3262.2
324.627	3187.04
324.691	3116.57
324.755	3036.86
324.82	2950.26
324.884	2859.62
324.948	2771.71
325.012	2656.01
325.077	2507.51
