Data from 20250702_urea_1M_MAYP1162681_11-35-09-275.txt Node
Date: Wed Jul 02 11:35:09 BST 2025
User: adleo
Spectrometer: MAYP116268
Trigger mode: 0
Integration Time (sec): 1.000000E0
Scans to average: 1
Electric dark correction enabled: true
Nonlinearity correction enabled: true
Boxcar width: 10
XAxis mode: Wavelengths
Number of Pixels in Spectrum: 2068
>>>>>Begin Spectral Data<<<<<
179.565	1018.12
179.642	1068.08
179.718	1102.06
179.795	1133.4
179.871	1158.3
179.948	1170.74
180.024	1187.58
180.101	1206.7
180.177	1215.57
180.254	1233.93
180.33	1252.05
180.407	1293.11
180.483	1373.59
180.56	1449.46
180.636	1519.19
180.712	1507.98
180.789	1517
180.865	1528.68
180.942	1536.04
181.018	1543.21
181.095	1554.9
181.171	1563.59
181.248	1562.98
181.324	1577.32
181.4	1583.55
181.477	1594.14
181.553	1606.91
181.63	1626.15
181.706	1640.88
181.782	1651.14
181.859	1650.76
181.935	1655.65
182.011	1649.28
182.088	1667.05
182.164	1685.35
182.24	1697.6
182.317	1704.25
182.393	1702.92
182.469	1715.18
182.546	1727.87
182.622	1734.66
182.698	1728.15
182.775	1737.51
182.851	1749.53
182.927	1744.4
183.003	1739.65
183.08	1733.24
183.156	1739.84
183.232	1737.51
183.308	1726.11
183.385	1732.52
183.461	1752.25
183.537	1754.43
183.613	1767.5
183.69	1757.8
183.766	1744.78
183.842	1751.91
183.918	1757.99
183.995	1768.25
184.071	1769.63
184.147	1764.5
184.223	1754
184.299	1766.98
184.375	1756.14
184.452	1759.23
184.528	1805.86
184.604	1815.69
184.68	1829.28
184.756	1837.84
184.832	1839.22
184.908	1843.92
184.985	1843.73
185.061	1825.72
185.137	1832.85
185.213	1819.73
185.289	1820.35
185.365	1815.36
185.441	1813.7
185.517	1824.06
185.593	1824.44
185.669	1822.73
185.745	1830.14
185.822	1843.07
185.898	1833.75
185.974	1842.87
186.05	1837.26
186.126	1803.33
186.202	1798.29
186.278	1793.3
186.354	1784.32
186.43	1791.54
186.506	1790.45
186.582	1790.36
186.658	1796.01
186.734	1777.15
186.81	1780.61
186.886	1783.8
186.962	1796.96
187.038	1792.97
187.114	1787.74
187.19	1794.35
187.266	1785.37
187.341	1786.94
187.417	1782.8
187.493	1782.85
187.569	1787.22
187.645	1783.37
187.721	1770.73
187.797	1777.24
187.873	1781.71
187.949	1776.67
188.025	1770.3
188.101	1773.44
188.176	1776.43
188.252	1773.25
188.328	1782.56
188.404	1784.5
188.48	1778.14
188.556	1768.82
188.632	1768.92
188.707	1769.3
188.783	1765.4
188.859	1762.5
188.935	1752.38
189.011	1758.03
189.086	1754.19
189.162	1744.87
189.238	1740.97
189.314	1742.35
189.39	1738.31
189.465	1733.42
189.541	1748.53
189.617	1737.41
189.693	1731.38
189.768	1736.99
189.844	1758.85
189.92	1751.4
189.996	1757.95
190.071	1767.46
190.147	1768.22
190.223	1776.73
190.298	1769.64
190.374	1757.95
190.45	1769.45
190.526	1777.25
190.601	1773.54
190.677	1775.2
190.753	1799.59
190.828	1805.63
190.904	1817.03
190.98	1830.53
191.055	1839.28
191.131	1828.97
191.207	1846.74
191.282	1854.72
191.358	1844.89
191.433	1830.62
191.509	1841.88
191.585	1841.5
191.66	1844.64
191.736	1852.67
191.811	1846.3
191.887	1861.56
191.963	1881.14
192.038	1885.71
192.114	1886.52
192.189	1887.89
192.265	1886.8
192.34	1867.78
192.416	1865.88
192.491	1863.41
192.567	1865.59
192.642	1864.5
192.718	1867.21
192.793	1853.76
192.869	1851.81
192.944	1853.9
193.02	1861.84
193.095	1866.59
193.171	1869.97
193.246	1867.73
193.322	1864.79
193.397	1866.21
193.473	1851.28
193.548	1835.45
193.624	1839.83
193.699	1837.21
193.775	1851.14
193.85	1849.67
193.925	1858.18
194.001	1859.03
194.076	1851.76
194.152	1839.78
194.227	1835.88
194.302	1825.34
194.378	1830.14
194.453	1824.96
194.529	1836.79
194.604	1824.1
194.679	1814.36
194.755	1796.07
194.83	1807.86
194.905	1804.67
194.981	1808.62
195.056	1804.11
195.131	1808.19
195.207	1807.29
195.282	1801.78
195.357	1785.85
195.433	1799.01
195.508	1786.8
195.583	1790.74
195.659	1802.91
195.734	1811.09
195.809	1810.99
195.884	1822.92
195.96	1824.01
196.035	1840.08
196.11	1834.18
196.185	1845.97
196.261	1851.91
196.336	1881.38
196.411	1868.35
196.486	1875.29
196.561	1872.11
196.637	1880.23
196.712	1894.92
196.787	1898.49
196.862	1910.52
196.937	1923.21
197.013	1927.92
197.088	1937.94
197.163	1956.25
197.238	1969.38
197.313	1969.05
197.388	1981.41
197.464	2007.67
197.539	2016.99
197.614	2010.81
197.689	2023.7
197.764	2036.92
197.839	2054.47
197.914	2049.61
197.989	2070.68
198.065	2082.33
198.14	2126.02
198.215	2147.62
198.29	2159.04
198.365	2167.5
198.44	2177.82
198.515	2199.43
198.59	2212.8
198.665	2236.54
198.74	2247.1
198.815	2249.58
198.89	2268.89
198.965	2293.84
199.04	2287.27
199.115	2300.02
199.19	2338.94
199.265	2344.22
199.34	2353.08
199.415	2381.41
199.49	2399.92
199.565	2408.15
199.64	2430.91
199.715	2427.14
199.79	2433.85
199.865	2440.23
199.94	2441.52
200.015	2467.23
200.09	2469.42
200.165	2476.8
200.24	2482.08
200.315	2516.2
200.39	2532.06
200.464	2538.25
200.539	2540.63
200.614	2557.44
200.689	2578.63
200.764	2584.39
200.839	2596.25
200.914	2599.63
200.989	2592.67
201.063	2602.72
201.138	2588.73
201.213	2584.77
201.288	2569.01
201.363	2573.63
201.438	2573.73
201.512	2587.67
201.587	2573.72
201.662	2577.53
201.737	2587.58
201.812	2592.68
201.886	2565.08
201.961	2575.18
202.036	2561.66
202.111	2557.57
202.186	2532.63
202.26	2520.43
202.335	2500.62
202.41	2495.48
202.485	2480.15
202.559	2462.73
202.634	2441.02
202.709	2447.77
202.784	2432.87
202.858	2431.64
202.933	2417.64
203.008	2408.74
203.082	2390.32
203.157	2392.27
203.232	2356.4
203.306	2338.82
203.381	2314.55
203.456	2293.46
203.53	2270.59
203.605	2256.8
203.68	2235.43
203.754	2229.25
203.829	2212.92
203.904	2197.79
203.978	2189.61
204.053	2194.51
204.127	2185.56
204.202	2185.9
204.277	2170.25
204.351	2164.3
204.426	2156.88
204.5	2150.4
204.575	2123.44
204.65	2132.2
204.724	2121.87
204.799	2127.62
204.873	2123.24
204.948	2119.01
205.022	2106.93
205.097	2096.55
205.171	2109.01
205.246	2116.63
205.32	2115.34
205.395	2118.72
205.469	2109.21
205.544	2110.59
205.618	2097.23
205.693	2106.84
205.767	2093.14
205.842	2111.5
205.916	2106.51
205.991	2100.18
206.065	2103.13
206.14	2117.2
206.214	2113.01
206.289	2109.26
206.363	2123.86
206.438	2125.57
206.512	2134.56
206.586	2153.25
206.661	2164.3
206.735	2145.28
206.81	2147.13
206.884	2159.88
206.958	2145.61
207.033	2160.64
207.107	2168.25
207.181	2193.14
207.256	2185.53
207.33	2200.65
207.405	2212.84
207.479	2231.3
207.553	2239.77
207.628	2225.26
207.702	2235.3
207.776	2230.83
207.851	2231.97
207.925	2242.87
207.999	2241.92
208.073	2239.92
208.148	2242.97
208.222	2229.45
208.296	2258.56
208.371	2275.23
208.445	2285.94
208.519	2314.3
208.593	2326.15
208.668	2326.29
208.742	2331.15
208.816	2335.28
208.89	2351.42
208.965	2352.09
209.039	2360.18
209.113	2377.32
209.187	2399.68
209.261	2401.1
209.336	2422.91
209.41	2445.47
209.484	2452.09
209.558	2474.38
209.632	2489.94
209.707	2506.42
209.781	2536.41
209.855	2561.19
209.929	2584.69
210.003	2601.02
210.077	2611.12
210.151	2665.76
210.226	2708.46
210.3	2750.05
210.374	2786.53
210.448	2810.69
210.522	2843.16
210.596	2873.24
210.67	2907.61
210.744	2972.5
210.818	3029.74
210.892	3081.26
210.966	3104.95
211.041	3152.64
211.115	3187.36
211.189	3249.13
211.263	3304.57
211.337	3354.91
211.411	3406.85
211.485	3453.03
211.559	3516.98
211.633	3577.45
211.707	3609.12
211.781	3681.16
211.855	3715.08
211.929	3780.45
212.003	3838.67
212.077	3921.43
212.151	4013.32
212.225	4103.26
212.299	4182.34
212.373	4257.09
212.447	4340.59
212.52	4466.31
212.594	4567.49
212.668	4682.48
212.742	4776.36
212.816	4885.26
212.89	4993.58
212.964	5116.82
213.038	5232.93
213.112	5362.14
213.186	5497.43
213.26	5604.77
213.333	5694.11
213.407	5835.27
213.481	5972.61
213.555	6119.31
213.629	6248.53
213.703	6376.13
213.777	6521.73
213.85	6654.42
213.924	6844.22
213.998	7006.77
214.072	7156.63
214.146	7305.75
214.219	7466.79
214.293	7625.75
214.367	7788.23
214.441	7964.19
214.515	8115.71
214.588	8267.72
214.662	8410.75
214.736	8561.82
214.81	8747.82
214.883	8929.42
214.957	9092.15
215.031	9252
215.105	9407.77
215.178	9566.61
215.252	9742.04
215.326	9894.09
215.4	10052.4
215.473	10178.57
215.547	10332.98
215.621	10495.2
215.694	10668.85
215.768	10822.26
215.842	10989.56
215.915	11151.86
215.989	11300.05
216.063	11470.95
216.136	11647.97
216.21	11813.61
216.284	11999.17
216.357	12158.32
216.431	12322.39
216.504	12495.82
216.578	12684.29
216.652	12858.34
216.725	13034.76
216.799	13202.27
216.873	13361.06
216.946	13528.62
217.02	13685.96
217.093	13833.9
217.167	13969.41
217.24	14113.06
217.314	14261.05
217.387	14398.04
217.461	14540.3
217.535	14694.6
217.608	14825.47
217.682	14970.22
217.755	15125.34
217.829	15250.91
217.902	15401.1
217.976	15536.21
218.049	15665.73
218.123	15786.66
218.196	15922.73
218.27	16048.33
218.343	16164.63
218.417	16298.96
218.49	16424.56
218.563	16559.18
218.637	16695.57
218.71	16842.91
218.784	16970.09
218.857	17092.66
218.931	17218.59
219.004	17335.85
219.077	17460.38
219.151	17582.59
219.224	17689.58
219.298	17802.01
219.371	17934.98
219.444	18023.89
219.518	18135.4
219.591	18244.56
219.665	18372.84
219.738	18482.14
219.811	18567.68
219.885	18671.04
219.958	18776.05
220.031	18865.3
220.105	18962.21
220.178	19052.13
220.251	19128.23
220.325	19229.86
220.398	19328.74
220.471	19419.39
220.544	19519.39
220.618	19601.26
220.691	19679.86
220.764	19762.99
220.838	19847.23
220.911	19906.21
220.984	20003.03
221.057	20077.19
221.131	20149.05
221.204	20198.83
221.277	20289.92
221.35	20392.28
221.424	20461.63
221.497	20520.76
221.57	20592.33
221.643	20659.56
221.716	20721.73
221.79	20787.61
221.863	20837.34
221.936	20900.29
222.009	20957.35
222.082	21004.97
222.155	21048.87
222.229	21122.66
222.302	21161.99
222.375	21206.91
222.448	21261.95
222.521	21312.8
222.594	21357.87
222.667	21398.06
222.74	21442.79
222.814	21468.05
222.887	21493.64
222.96	21542.28
223.033	21587.1
223.106	21629.52
223.179	21674.44
223.252	21709.53
223.325	21733.05
223.398	21767.61
223.471	21788.34
223.544	21824.3
223.617	21867.73
223.69	21904.12
223.763	21920.18
223.837	21960.43
223.91	21988.67
223.983	22001.59
224.056	22008.77
224.129	22027.57
224.202	22048.83
224.275	22071.58
224.348	22082.52
224.42	22087.63
224.493	22089.18
224.566	22098.96
224.639	22119.84
224.712	22117.23
224.785	22131.84
224.858	22149.24
224.931	22157.19
225.004	22161.1
225.077	22166.16
225.15	22137.29
225.223	22139.41
225.296	22157.97
225.369	22152.47
225.442	22146.01
225.514	22156.23
225.587	22168.81
225.66	22185.78
225.733	22201.5
225.806	22201.4
225.879	22194.36
225.952	22197.98
226.025	22211.86
226.097	22231.63
226.17	22223.38
226.243	22213.55
226.316	22209.55
226.389	22212.78
226.461	22214.42
226.534	22216.92
226.607	22208.39
226.68	22229.8
226.753	22232.88
226.825	22212.49
226.898	22214.32
226.971	22215.14
227.044	22216.78
227.117	22210.32
227.189	22202.46
227.262	22197.83
227.335	22204.58
227.407	22203.18
227.48	22201.83
227.553	22194.65
227.626	22171.95
227.698	22165.1
227.771	22161.29
227.844	22142.78
227.916	22136.03
227.989	22109.09
228.062	22092.12
228.134	22101.04
228.207	22082.72
228.28	22056.21
228.352	22040.01
228.425	22029.4
228.498	22022.85
228.57	21999.32
228.643	21987.47
228.716	21970.74
228.788	21954.59
228.861	21921.18
228.934	21930.05
229.006	21914.97
229.079	21892.79
229.151	21880.45
229.224	21847.68
229.296	21831.43
229.369	21844.93
229.442	21851.34
229.514	21840.69
229.587	21846.91
229.659	21813.12
229.732	21798.85
229.804	21796.29
229.877	21803.33
229.949	21796.78
230.022	21794.7
230.094	21771.9
230.167	21765.98
230.239	21743.51
230.312	21716.91
230.384	21726.16
230.457	21697.38
230.529	21685.67
230.602	21675.07
230.674	21654.34
230.747	21654.49
230.819	21648.51
230.892	21597.95
230.964	21566.13
231.037	21549.84
231.109	21519.28
231.181	21506.75
231.254	21488.87
231.326	21462.12
231.399	21437.49
231.471	21410.3
231.544	21367.12
231.616	21361.48
231.688	21337.14
231.761	21314.05
231.833	21293.47
231.905	21248.31
231.978	21226.23
232.05	21201.22
232.122	21177.5
232.195	21148.1
232.267	21137.45
232.339	21107.14
232.412	21099.47
232.484	21062.6
232.556	21036.05
232.629	21039.28
232.701	21029.25
232.773	21008.96
232.846	20985.83
232.918	20951.51
232.99	20935.56
233.062	20933.2
233.135	20910.45
233.207	20864.52
233.279	20845.92
233.351	20824.9
233.424	20801.67
233.496	20772.95
233.568	20762.73
233.64	20722.44
233.713	20707.65
233.785	20679.5
233.857	20659.12
233.929	20625.33
234.001	20619.07
234.074	20604.95
234.146	20551.31
234.218	20510.68
234.29	20475.69
234.362	20438.2
234.434	20400.22
234.507	20362.05
234.579	20307.35
234.651	20275.4
234.723	20257.76
234.795	20240.95
234.867	20208.32
234.939	20187.02
235.012	20156.03
235.084	20124.37
235.156	20100.95
235.228	20069.72
235.3	20039.12
235.372	20007.84
235.444	19988.81
235.516	19945.1
235.588	19911.8
235.66	19884.04
235.732	19861.53
235.804	19883.36
235.876	19867.61
235.948	19855.65
236.02	19822.64
236.092	19802.98
236.164	19771.47
236.236	19746.07
236.308	19702.46
236.38	19672.39
236.452	19638.22
236.524	19605.45
236.596	19577.31
236.668	19560.3
236.74	19518.32
236.812	19485.99
236.884	19466.9
236.956	19436.98
237.028	19394.09
237.1	19355.73
237.172	19339.63
237.244	19318.67
237.316	19257.57
237.388	19222.29
237.46	19187.06
237.532	19169.96
237.604	19127.98
237.675	19110.11
237.747	19081.19
237.819	19041.15
237.891	19009.44
237.963	18965.49
238.035	18923.95
238.107	18875.61
238.178	18849.49
238.25	18819.38
238.322	18804.77
238.394	18747.57
238.466	18705.55
238.538	18673.26
238.609	18645.7
238.681	18597.32
238.753	18553.42
238.825	18514.24
238.897	18481.95
238.968	18453.57
239.04	18408.27
239.112	18389.33
239.184	18340.75
239.255	18304.18
239.327	18273.86
239.399	18244.32
239.471	18220.18
239.542	18200.52
239.614	18179.41
239.686	18127.7
239.758	18109.58
239.829	18059.03
239.901	18048.96
239.973	18016.29
240.044	17998.89
240.116	17973.06
240.188	17936.91
240.259	17894.41
240.331	17854.89
240.403	17826.12
240.474	17779.86
240.546	17742.08
240.618	17700.58
240.689	17667.04
240.761	17630.66
240.833	17614.75
240.904	17580.63
240.976	17547.91
241.048	17515.09
241.119	17486.37
241.191	17453.16
241.262	17430.71
241.334	17393.65
241.405	17350.66
241.477	17318.66
241.549	17279.72
241.62	17239.91
241.692	17206.13
241.763	17192.54
241.835	17157.93
241.906	17131.96
241.978	17086.46
242.049	17064.05
242.121	17031.95
242.192	17013.88
242.264	16972.82
242.335	16916.96
242.407	16884.72
242.478	16851.99
242.55	16817.58
242.621	16771.36
242.693	16737.38
242.764	16693.24
242.836	16659.16
242.907	16628.27
242.979	16600.61
243.05	16569.47
243.122	16542.96
243.193	16507.97
243.264	16454.62
243.336	16422.23
243.407	16384.98
243.479	16369.21
243.55	16340.54
243.622	16316.78
243.693	16271.81
243.764	16262.51
243.836	16228.09
243.907	16196.43
243.978	16157
244.05	16131.21
244.121	16092.56
244.192	16061.81
244.264	16012.84
244.335	15986.57
244.407	15941.74
244.478	15910.99
244.549	15876.82
244.62	15830.31
244.692	15797.48
244.763	15769.24
244.834	15730.82
244.906	15695.39
244.977	15667.34
245.048	15648.83
245.119	15611.62
245.191	15574.56
245.262	15508.96
245.333	15495.89
245.405	15462.3
245.476	15442.58
245.547	15413.13
245.618	15380.11
245.689	15357.99
245.761	15340.35
245.832	15297.59
245.903	15280.48
245.974	15251.41
246.045	15218.2
246.117	15202.25
246.188	15168.79
246.259	15128.93
246.33	15096.15
246.401	15061.11
246.473	15022.5
246.544	14975.5
246.615	14944.22
246.686	14903
246.757	14895.43
246.828	14857.84
246.899	14835.81
246.97	14784.04
247.042	14736.31
247.113	14713.13
247.184	14690.62
247.255	14651.28
247.326	14630.6
247.397	14598.21
247.468	14565.53
247.539	14537.13
247.61	14493.46
247.681	14464.73
247.752	14448.1
247.823	14406.11
247.894	14387.41
247.965	14340.84
248.037	14303.39
248.108	14267.38
248.179	14250.74
248.25	14205.72
248.321	14183.5
248.392	14146.14
248.463	14134.04
248.534	14112.78
248.605	14089.79
248.675	14061.3
248.746	14028.76
248.817	14000.8
248.888	13973.61
248.959	13931.96
249.03	13901.88
249.101	13875.8
249.172	13851.45
249.243	13804.98
249.314	13801.51
249.385	13771.29
249.456	13756.1
249.527	13729.59
249.598	13707.08
249.669	13678.1
249.739	13664.56
249.81	13635.44
249.881	13598.08
249.952	13578.89
250.023	13548.81
250.094	13506.68
250.165	13465.08
250.235	13452.3
250.306	13429.74
250.377	13394.55
250.448	13370.88
250.519	13329.86
250.59	13315.2
250.66	13281.94
250.731	13274.47
250.802	13243.14
250.873	13210.84
250.944	13185.82
251.014	13152.12
251.085	13143.59
251.156	13119.53
251.227	13106.33
251.297	13097.17
251.368	13085.45
251.439	13061.78
251.51	13048
251.58	13020.23
251.651	12998.73
251.722	12969.81
251.792	12923.38
251.863	12895.47
251.934	12884.67
252.005	12886.75
252.075	12862.98
252.146	12852.38
252.217	12831.12
252.287	12818.25
252.358	12796.12
252.429	12792.7
252.499	12776.45
252.57	12759.05
252.641	12742.76
252.711	12718.22
252.782	12675.27
252.852	12672.14
252.923	12651.79
252.994	12632.7
253.064	12617.42
253.135	12583.63
253.205	12553.41
253.276	12554.42
253.347	12544.78
253.417	12512.92
253.488	12482.26
253.558	12452.08
253.629	12420.46
253.699	12406.29
253.77	12388.84
253.841	12364.4
253.911	12339.14
253.982	12315.91
254.052	12292.24
254.123	12275.32
254.193	12255.12
254.264	12268.86
254.334	12235.31
254.405	12198.87
254.475	12169.71
254.546	12149.56
254.616	12141.46
254.687	12130.04
254.757	12105.55
254.827	12079.28
254.898	12063.71
254.968	12043.27
255.039	12011.17
255.109	12003.85
255.18	11975.6
255.25	11929.95
255.321	11914.96
255.391	11880.45
255.461	11878.14
255.532	11836.35
255.602	11812.2
255.673	11772.68
255.743	11736.38
255.813	11696.23
255.884	11689.53
255.954	11674.59
256.024	11675.02
256.095	11658.92
256.165	11625.86
256.235	11612.7
256.306	11594.77
256.376	11584.41
256.446	11567.78
256.517	11566.72
256.587	11555.2
256.657	11529.23
256.728	11509.76
256.798	11490.52
256.868	11474.96
256.938	11444.26
257.009	11437.51
257.079	11416.01
257.149	11417.07
257.219	11381.41
257.29	11368.64
257.36	11330.13
257.43	11316.06
257.5	11273.5
257.571	11249.45
257.641	11241.5
257.711	11216.01
257.781	11204.05
257.852	11187.09
257.922	11159.52
257.992	11140.53
258.062	11115.04
258.132	11106.12
258.202	11091.57
258.273	11077.69
258.343	11079.14
258.413	11054.9
258.483	11028.15
258.553	11000.97
258.623	10981.5
258.693	10965.17
258.764	10952.01
258.834	10952.4
258.904	10934.33
258.974	10905.47
259.044	10880.99
259.114	10869.23
259.184	10848.27
259.254	10824.85
259.324	10793.09
259.394	10778.3
259.464	10769
259.535	10750.64
259.605	10732.09
259.675	10708.81
259.745	10686.46
259.815	10648.77
259.885	10625.02
259.955	10636.2
260.025	10617.12
260.095	10594.86
260.165	10584.11
260.235	10584.35
260.305	10552.27
260.375	10530.58
260.445	10540.8
260.515	10538.24
260.585	10529.67
260.655	10511.07
260.725	10507.12
260.795	10496.61
260.865	10501.14
260.934	10476.57
261.004	10467.8
261.074	10452
261.144	10452.53
261.214	10453.59
261.284	10440.53
261.354	10439.33
261.424	10415.52
261.494	10420.24
261.564	10404.49
261.634	10399.72
261.703	10362.77
261.773	10361.71
261.843	10342
261.913	10323.41
261.983	10293.97
262.053	10280.72
262.123	10264.2
262.192	10237.22
262.262	10225.32
262.332	10192.22
262.402	10180.85
262.472	10165.77
262.541	10130.51
262.611	10122.32
262.681	10095.54
262.751	10084.7
262.821	10066.2
262.89	10032.72
262.96	10020
263.03	10019.86
263.1	10004.3
263.169	9996.49
263.239	9982.67
263.309	9989.65
263.379	9973.81
263.448	9959.5
263.518	9947.36
263.588	9936.72
263.657	9929.68
263.727	9931.42
263.797	9920.48
263.867	9905.07
263.936	9880.41
264.006	9880.55
264.076	9860.8
264.145	9839.95
264.215	9822.37
264.285	9817.79
264.354	9790.83
264.424	9766.69
264.494	9736.98
264.563	9715.25
264.633	9710.15
264.702	9701.86
264.772	9660.1
264.842	9642.57
264.911	9636.84
264.981	9607.94
265.05	9600.29
265.12	9587.43
265.19	9568.83
265.259	9561.23
265.329	9555.3
265.398	9541.43
265.468	9549.23
265.537	9529.39
265.607	9525.45
265.676	9522.27
265.746	9515.86
265.815	9516.58
265.885	9496.89
265.955	9479.36
266.024	9463.18
266.094	9438.96
266.163	9439.44
266.232	9449.07
266.302	9438.05
266.371	9421.14
266.441	9409.11
266.51	9394.42
266.58	9379.3
266.649	9355.56
266.719	9349.2
266.788	9334.51
266.858	9336.39
266.927	9305.24
266.996	9301.05
267.066	9288.53
267.135	9255.98
267.205	9241.77
267.274	9236.43
267.343	9244.71
267.413	9232.92
267.482	9233.59
267.552	9231.18
267.621	9200.22
267.69	9170.47
267.76	9161.37
267.829	9154.1
267.898	9146.49
267.968	9128.24
268.037	9119.77
268.106	9118.9
268.176	9101.86
268.245	9092.28
268.314	9079.32
268.384	9072.92
268.453	9058.86
268.522	9053.76
268.592	9060.02
268.661	9038.69
268.73	9027.04
268.799	8998.88
268.869	9003.4
268.938	8975.58
269.007	8963.98
269.076	8954.54
269.146	8955.41
269.215	8949.44
269.284	8958.83
269.353	8944.29
269.422	8932.3
269.492	8916.42
269.561	8882.39
269.63	8872.95
269.699	8853.55
269.768	8835.16
269.838	8830.45
269.907	8831.22
269.976	8805.08
270.045	8777.17
270.114	8777.17
270.183	8770.47
270.253	8768.6
270.322	8744.92
270.391	8736.73
270.46	8732.74
270.529	8723.55
270.598	8715.75
270.667	8698.37
270.736	8672.67
270.806	8666.99
270.875	8670.55
270.944	8655.1
271.013	8667.13
271.082	8659.91
271.151	8654.19
271.22	8632.34
271.289	8622.81
271.358	8603.27
271.427	8603.03
271.496	8592.25
271.565	8576.85
271.634	8566.46
271.703	8591.34
271.772	8591.44
271.841	8579.79
271.91	8560.45
271.979	8557.7
272.048	8542.35
272.117	8548.46
272.186	8534.46
272.255	8532.01
272.324	8529.7
272.393	8532.54
272.462	8519.83
272.531	8509.82
272.6	8504.53
272.669	8511.26
272.738	8496.78
272.807	8495.62
272.876	8471.85
272.945	8498.27
273.013	8500.25
273.082	8501.16
273.151	8459.09
273.22	8452.93
273.289	8452.26
273.358	8462.22
273.427	8446.15
273.496	8447.31
273.564	8437.63
273.633	8439.56
273.702	8421.51
273.771	8410.73
273.84	8406.26
273.909	8407.56
273.977	8404.48
274.046	8394.42
274.115	8399.19
274.184	8388.6
274.253	8381.91
274.322	8396.35
274.39	8364.54
274.459	8346.26
274.528	8322.44
274.597	8314.12
274.665	8308.25
274.734	8312.24
274.803	8299.78
274.872	8296.79
274.94	8279.91
275.009	8330.36
275.078	8316.41
275.147	8315.49
275.215	8310.73
275.284	8316.36
275.353	8304.62
275.421	8282.73
275.49	8294.76
275.559	8284.22
275.627	8275.37
275.696	8261.22
275.765	8255.21
275.833	8247.42
275.902	8250.79
275.971	8257.57
276.039	8274.89
276.108	8277.01
276.177	8272
276.245	8264.5
276.314	8263.68
276.383	8271.86
276.451	8212.36
276.52	8216.79
276.588	8227.28
276.657	8229.2
276.725	8218.38
276.794	8214.82
276.863	8223.67
276.931	8204.13
277	8208.27
277.068	8224.05
277.137	8245.51
277.205	8246.08
277.274	8266.67
277.342	8275
277.411	8257.15
277.48	8239.4
277.548	8229.44
277.617	8231.22
277.685	8223.81
277.754	8225.06
277.822	8215.34
277.89	8230.89
277.959	8224.78
278.027	8208.08
278.096	8197.98
278.164	8219.54
278.233	8218.72
278.301	8218
278.37	8221.51
278.438	8212.66
278.507	8202.84
278.575	8175.85
278.643	8171.91
278.712	8154.06
278.78	8140.49
278.849	8155.89
278.917	8163.49
278.985	8163.01
279.054	8167.43
279.122	8172.1
279.191	8170.27
279.259	8161.47
279.327	8138.32
279.396	8152.23
279.464	8145.4
279.532	8147.56
279.601	8140.15
279.669	8134.67
279.737	8136.4
279.806	8134.43
279.874	8141.88
279.942	8147.99
280.011	8148.14
280.079	8154.15
280.147	8168.29
280.215	8169.93
280.284	8162.86
280.352	8152.28
280.42	8158
280.488	8148.43
280.557	8149.68
280.625	8153.72
280.693	8161.12
280.761	8163.19
280.83	8148.23
280.898	8161.99
280.966	8151.5
281.034	8127.83
281.102	8111.19
281.171	8109.22
281.239	8121.29
281.307	8115.86
281.375	8102.44
281.443	8127.55
281.512	8123.75
281.58	8130.58
281.648	8120.09
281.716	8114.8
281.784	8116.29
281.852	8106.43
281.92	8106.67
281.989	8111.87
282.057	8096.57
282.125	8129.82
282.193	8125.59
282.261	8120.63
282.329	8116.78
282.397	8117.75
282.465	8114.14
282.533	8127.36
282.601	8120
282.67	8096.48
282.738	8089.84
282.806	8097.2
282.874	8082.77
282.942	8083.54
283.01	8073.82
283.078	8081.23
283.146	8084.5
283.214	8092.77
283.282	8101.05
283.35	8105.33
283.418	8096.72
283.486	8099.6
283.554	8067.12
283.622	8071.21
283.69	8077.75
283.758	8078.48
283.826	8082.56
283.894	8097.91
283.962	8118.11
284.03	8128.26
284.098	8132.83
284.165	8123.94
284.233	8128.22
284.301	8123.65
284.369	8116.86
284.437	8108.69
284.505	8100.08
284.573	8109.02
284.641	8096.66
284.709	8102.19
284.777	8084.01
284.845	8095.22
284.912	8097.43
284.98	8100.85
285.048	8092.19
285.116	8096.47
285.184	8101.33
285.252	8101.57
285.319	8086.22
285.387	8076.65
285.455	8060.73
285.523	8065.44
285.591	8065.68
285.659	8069.15
285.726	8081.8
285.794	8073.38
285.862	8076.65
285.93	8080.64
285.997	8076.12
286.065	8069.92
286.133	8062.61
286.201	8066.26
286.269	8053.37
286.336	8046.54
286.404	8042.16
286.472	8054.76
286.539	8035.14
286.607	8024.94
286.675	8029.61
286.743	8040.05
286.81	8038.55
286.878	8053.75
286.946	8045.48
287.013	8043.99
287.081	8039.95
287.149	8022.68
287.216	8034.85
287.284	8031.29
287.352	8032.01
287.419	8027.15
287.487	8046.44
287.555	8040.96
287.622	8039.9
287.69	8041.05
287.758	8054.28
287.825	8048.7
287.893	8037.21
287.96	8044.61
288.028	8055.29
288.096	8053.51
288.163	8051.11
288.231	8040.09
288.298	8038.45
288.366	8055.24
288.433	8056.88
288.501	8051.83
288.569	8057.74
288.636	8058.08
288.704	8071.21
288.771	8075.88
288.839	8074.58
288.906	8058.95
288.974	8073.62
289.041	8065.68
289.109	8061.98
289.176	8065.54
289.244	8071.22
289.311	8085.36
289.379	8093.82
289.446	8092.67
289.514	8086.75
289.581	8088.2
289.649	8093.39
289.716	8097.05
289.783	8083.19
289.851	8094.11
289.918	8091.42
289.986	8099.6
290.053	8102.15
290.121	8093.97
290.188	8091.9
290.255	8111.72
290.323	8116.87
290.39	8107.97
290.458	8121.67
290.525	8129.18
290.592	8123.88
290.66	8123.98
290.727	8117.29
290.794	8126.82
290.862	8126.96
290.929	8135.62
290.996	8135.86
291.064	8141.88
291.131	8150.25
291.198	8163.86
291.266	8162.47
291.333	8167.9
291.4	8174.2
291.468	8187.92
291.535	8188.3
291.602	8199.08
291.669	8195.09
291.737	8202.97
291.804	8205.19
291.871	8220.63
291.938	8228.76
292.006	8258.84
292.073	8272.93
292.14	8286.12
292.207	8275.24
292.275	8277.74
292.342	8283.81
292.409	8307.24
292.476	8329.9
292.543	8324.71
292.611	8327.88
292.678	8348.86
292.745	8369.79
292.812	8376.77
292.879	8373.25
292.946	8376.67
293.014	8387.26
293.081	8397.99
293.148	8407.95
293.215	8425.6
293.282	8419.35
293.349	8435.08
293.416	8416.32
293.484	8428.3
293.551	8435.28
293.618	8459
293.685	8483.97
293.752	8481.37
293.819	8478.25
293.886	8467.95
293.953	8476.85
294.02	8491.52
294.087	8499.66
294.154	8492.49
294.221	8507.31
294.288	8511.21
294.356	8530.07
294.423	8539.26
294.49	8528.34
294.557	8536.96
294.624	8530.27
294.691	8548.75
294.758	8541.62
294.825	8548.22
294.892	8543.93
294.959	8544.41
295.026	8553.17
295.093	8546.53
295.16	8549.56
295.226	8556.97
295.293	8583.93
295.36	8584.7
295.427	8588.02
295.494	8595.57
295.561	8609
295.628	8629.61
295.695	8640.39
295.762	8643.42
295.829	8640.63
295.896	8656.22
295.963	8666.04
296.03	8670.85
296.096	8676.58
296.163	8694.72
296.23	8712
296.297	8726.34
296.364	8725.47
296.431	8729.66
296.498	8726.34
296.564	8754.49
296.631	8746.84
296.698	8728.26
296.765	8744.87
296.832	8740.05
296.899	8726.38
296.965	8740.97
297.032	8718.34
297.099	8737.41
297.166	8744.67
297.233	8749.15
297.299	8751.75
297.366	8753.05
297.433	8757.72
297.5	8763.78
297.566	8761.71
297.633	8759.88
297.7	8763.35
297.767	8766.38
297.833	8773.94
297.9	8771.29
297.967	8754.44
298.033	8771.58
298.1	8796.85
298.167	8793.58
298.234	8803.69
298.3	8813.65
298.367	8807.78
298.434	8818.13
298.5	8804.6
298.567	8795.98
298.634	8797.14
298.7	8808.98
298.767	8808.83
298.834	8823.18
298.9	8821.78
298.967	8816.78
299.033	8826.31
299.1	8839.26
299.167	8853.22
299.233	8843.73
299.3	8866.84
299.366	8876.37
299.433	8888.16
299.5	8871.6
299.566	8873.77
299.633	8884.65
299.699	8893.55
299.766	8894.8
299.832	8899.57
299.899	8905.15
299.965	8919.06
300.032	8911.94
300.099	8916.46
300.165	8927.3
300.232	8923.44
300.298	8919.55
300.365	8936.59
300.431	8938.8
300.498	8929.56
300.564	8929.51
300.631	8943.61
300.697	8949.92
300.763	8953
300.83	8952.33
300.896	8961.81
300.963	8976.73
301.029	8978.37
301.096	8984.34
301.162	8993.1
301.229	8988.29
301.295	8984.73
301.361	8994.69
301.428	9004.37
301.494	8998.44
301.561	9002.83
301.627	9007.93
301.693	9007.88
301.76	9011.54
301.826	9006.82
301.892	9015.34
301.959	9024.34
302.025	9020.01
302.092	9013.42
302.158	9018.86
302.224	9015.53
302.291	9011.2
302.357	9001.24
302.423	8995.12
302.49	8988.09
302.556	8994.11
302.622	8991.13
302.688	9003.98
302.755	9012.79
302.821	9020.44
302.887	9026.46
302.954	9019.1
303.02	9018.76
303.086	9030.46
303.152	9025.5
303.219	9015.97
303.285	9023.72
303.351	9027.76
303.417	9031.04
303.483	9027.67
303.55	9021.36
303.616	9028.05
303.682	9021.7
303.748	9018.91
303.815	9035.28
303.881	9043.85
303.947	9038.12
304.013	9040.48
304.079	9025.31
304.145	9005.81
304.212	8997.53
304.278	8989.73
304.344	8992.48
304.41	8989.3
304.476	8977.17
304.542	8972.31
304.608	8983.43
304.674	8960.08
304.741	8957.53
304.807	8959.84
304.873	8968.36
304.939	8986.75
305.005	8960.56
305.071	8959.12
305.137	8962.1
305.203	8937.6
305.269	8933.89
305.335	8941.35
305.401	8938.75
305.467	8940.25
305.533	8940.44
305.599	8952.28
305.666	8958.88
305.732	8953.2
305.798	8960.22
305.864	8983.57
305.93	8984.92
305.996	8979.77
306.062	8984.92
306.128	8981.31
306.194	8965.38
306.259	8958.59
306.325	8948.57
306.391	8964.36
306.457	8971.92
306.523	8973.22
306.589	8992.86
306.655	8986.31
306.721	8965.32
306.787	8951.27
306.853	8963.69
306.919	8956.95
306.985	8947.76
307.051	8936.44
307.117	8932.59
307.183	8932.26
307.248	8905.63
307.314	8909.87
307.38	8909.48
307.446	8911.12
307.512	8898.89
307.578	8907.13
307.644	8904.04
307.709	8899.09
307.775	8890.61
307.841	8892.4
307.907	8885.7
307.973	8870.68
308.039	8871.6
308.104	8880.07
308.17	8884.98
308.236	8870.25
308.302	8875.11
308.368	8864.62
308.433	8871.16
308.499	8864.33
308.565	8848.59
308.631	8854.7
308.696	8833.23
308.762	8826.35
308.828	8824.42
308.894	8810.71
308.959	8786.35
309.025	8776.97
309.091	8771
309.156	8767.92
309.222	8760.17
309.288	8752.8
309.354	8734.13
309.419	8730.71
309.485	8717.09
309.551	8724.26
309.616	8714.59
309.682	8705.64
309.748	8700.01
309.813	8688.98
309.879	8678.25
309.945	8665.74
310.01	8654.38
310.076	8653.13
310.141	8647.83
310.207	8631.42
310.273	8631.08
310.338	8635.7
310.404	8619.39
310.469	8609.28
310.535	8598.89
310.601	8575.5
310.666	8577.91
310.732	8584.79
310.797	8568.28
310.863	8557.26
310.928	8543.73
310.994	8544.55
311.059	8538.87
311.125	8535.12
311.191	8546.43
311.256	8537.24
311.322	8544.12
311.387	8528.53
311.453	8862.68
311.518	8838.66
311.584	8841.31
311.649	8847.28
311.715	8834.09
311.78	8834.77
311.846	8827.89
311.911	8830.24
311.976	8834.77
312.042	8820.04
312.107	8804.16
312.173	8797.86
312.238	8786.79
312.304	8781.31
312.369	8763.41
312.434	8749.02
312.5	8736.36
312.565	8701.91
312.631	8705.95
312.696	8696.13
312.761	8699.21
312.827	8355.49
312.892	8385.67
312.958	8380.85
313.023	8376.52
313.088	8374.98
313.154	8359.63
313.219	8345.73
313.284	8333.08
313.35	8331.25
313.415	8324.37
313.48	8317.97
313.546	8315.9
313.611	8332.26
313.676	8326.39
313.741	8330.24
313.807	8343.95
313.872	8350.49
313.937	8357.08
314.003	8366.52
314.068	8367.43
314.133	8366.03
314.198	8352.76
314.264	8331.24
314.329	8319.31
314.394	8312.09
314.459	8305.46
314.525	8322.63
314.59	8322.1
314.655	8316.86
314.72	8322.15
314.785	8319.07
314.851	8315.08
314.916	8299.59
314.981	8279.43
315.046	8263.6
315.111	8247.48
315.176	8232.71
315.242	8232.95
315.307	8228.19
315.372	8209.52
315.437	8196.05
315.502	8187.82
315.567	8201.29
315.632	8192.39
315.698	8191.33
315.763	8183.35
315.828	8180.75
315.893	8178.73
315.958	8179.79
316.023	8165.74
316.088	8144.67
316.153	8125.53
316.218	8117.49
316.283	8104.94
316.348	8093.06
316.413	8093.49
316.479	8080.51
316.544	8050.21
316.609	8021.73
316.674	7995.33
316.739	7961.76
316.804	7937.18
316.869	7909.92
316.934	7871.68
316.999	7840.47
317.064	7791.42
317.129	7757.23
317.194	7723.81
317.259	7676.44
317.324	7622.45
317.389	7585.24
317.454	7546.92
317.518	7519.47
317.583	7492.59
317.648	7466.15
317.713	7427.45
317.778	7370.73
317.843	7340.64
317.908	7300.95
317.973	7263.21
318.038	7227.55
318.103	7189.83
318.168	7153.41
318.233	7119.38
318.297	7072.82
318.362	7038.13
318.427	7008.15
318.492	6979.22
318.557	6935.99
318.622	6910.57
318.687	6891.4
318.751	6849.57
318.816	6820.85
318.881	6785.2
318.946	6735.78
319.011	6694.52
319.075	6655.14
319.14	6624.85
319.205	6586.14
319.27	6558.96
319.335	6516.71
319.399	6480.46
319.464	6454.64
319.529	6409.08
319.594	6370.53
319.658	6342.4
319.723	6305.2
319.788	6274.77
319.853	6223.8
319.917	6188.82
319.982	6134.58
320.047	6094.08
320.112	6069.37
320.176	6017.22
320.241	5981.04
320.306	5950.96
320.37	5912.49
320.435	5886.82
320.5	5858.38
320.564	5818.18
320.629	5777.13
320.694	5749.08
320.758	5708.61
320.823	5669.19
320.888	5643.58
320.952	5596.7
321.017	5559.3
321.082	5520.08
321.146	5484.08
321.211	5450.05
321.275	5413.39
321.34	5372.81
321.405	5331.74
321.469	5289.24
321.534	5252.45
321.598	5201.67
321.663	5172.48
321.727	5140.91
321.792	5090.22
321.857	5046.15
321.921	5009.89
321.986	4966.51
322.05	4908.82
322.115	4875.16
322.179	4829.96
322.244	4774.86
322.308	4745.71
322.373	4697.7
322.437	4656.78
322.502	4632.6
322.566	4594.88
322.631	4564.01
322.695	4524.69
322.76	4484.6
322.824	4449.48
322.889	4406.06
322.953	4365.04
323.018	4299.27
323.082	4241.17
323.146	4194.99
323.211	4149.57
323.275	4106.34
323.34	4064.81
323.404	4035.71
323.468	3988.67
323.533	3946.48
323.597	3903.83
323.662	3853.18
323.726	3821.02
323.79	3778.83
323.855	3716.66
323.919	3665.54
323.983	3621.31
324.048	3560.65
324.112	3686.15
324.177	3566.72
324.241	3383.52
324.305	3204
324.37	3028.58
324.434	2855.22
324.498	2816.23
324.562	2768.06
324.627	2712.82
324.691	2663.4
324.755	2601.92
324.82	2536.79
324.884	2469.72
324.948	2406.76
325.012	2324.37
325.077	2213.41
