Data from 20250702_urea_1M_MAYP1162681_11-35-13-270.txt Node
Date: Wed Jul 02 11:35:13 BST 2025
User: adleo
Spectrometer: MAYP116268
Trigger mode: 0
Integration Time (sec): 1.000000E0
Scans to average: 1
Electric dark correction enabled: true
Nonlinearity correction enabled: true
Boxcar width: 10
XAxis mode: Wavelengths
Number of Pixels in Spectrum: 2068
>>>>>Begin Spectral Data<<<<<
179.565	1011.89
179.642	1055.95
179.718	1090.85
179.795	1118.2
179.871	1143.97
179.948	1157.92
180.024	1173.33
180.101	1192.35
180.177	1207.74
180.254	1228.03
180.33	1247.19
180.407	1286.86
180.483	1369.05
180.56	1443.68
180.636	1514.46
180.712	1504.3
180.789	1513.56
180.865	1525.76
180.942	1534.55
181.018	1543
181.095	1554.97
181.171	1559.05
181.248	1561.38
181.324	1573.02
181.4	1581.09
181.477	1592.73
181.553	1603.6
181.63	1624.55
181.706	1640.09
181.782	1645.27
181.859	1644.51
181.935	1648.45
182.011	1644.32
182.088	1656.67
182.164	1673.68
182.24	1684.7
182.317	1693.16
182.393	1690.07
182.469	1701.76
182.546	1713.73
182.622	1718.34
182.698	1715.01
182.775	1726.32
182.851	1737.58
182.927	1734.87
183.003	1733.97
183.08	1727.94
183.156	1736.92
183.232	1733.92
183.308	1724.04
183.385	1729.12
183.461	1745.04
183.537	1744.56
183.613	1755.64
183.69	1748.03
183.766	1739.48
183.842	1744.89
183.918	1748.03
183.995	1762.62
184.071	1765.28
184.147	1763.33
184.223	1754.21
184.299	1765.48
184.375	1755.64
184.452	1761.73
184.528	1811.21
184.604	1818.15
184.68	1828.88
184.756	1836.54
184.832	1840.77
184.908	1845.38
184.985	1845.71
185.061	1827.98
185.137	1838.39
185.213	1827.27
185.289	1829.36
185.365	1820.53
185.441	1819.96
185.517	1829.84
185.593	1823.48
185.669	1819.91
185.745	1827.52
185.822	1843.76
185.898	1834.21
185.974	1839.34
186.05	1832.97
186.126	1796.75
186.202	1792.05
186.278	1786.15
186.354	1777.36
186.43	1781.83
186.506	1777.65
186.582	1777.41
186.658	1788.43
186.734	1770.28
186.81	1772.51
186.886	1776.17
186.962	1787.1
187.038	1784.96
187.114	1781.39
187.19	1790.24
187.266	1782.02
187.341	1780.68
187.417	1774.22
187.493	1774.08
187.569	1777.64
187.645	1774.13
187.721	1765.48
187.797	1773.41
187.873	1782.11
187.949	1778.5
188.025	1772.98
188.101	1778.16
188.176	1782.87
188.252	1777.21
188.328	1783.53
188.404	1785.67
188.48	1779.58
188.556	1774.98
188.632	1773.41
188.707	1774.55
188.783	1772.55
188.859	1770.32
188.935	1761.24
189.011	1768.94
189.086	1763.48
189.162	1756.54
189.238	1753.21
189.314	1749.32
189.39	1744.18
189.465	1736.96
189.541	1749.74
189.617	1735.73
189.693	1728.03
189.768	1730.88
189.844	1753.65
189.92	1748.76
189.996	1755.7
190.071	1767.53
190.147	1769.62
190.223	1775.85
190.298	1768.77
190.374	1754.56
190.45	1763.49
190.526	1770.24
190.601	1764.82
190.677	1768.38
190.753	1793.68
190.828	1797.95
190.904	1808.51
190.98	1820.34
191.055	1827.76
191.131	1821.53
191.207	1842.15
191.282	1851.28
191.358	1844.01
191.433	1828.65
191.509	1837.58
191.585	1833.68
191.66	1833.73
191.736	1837.86
191.811	1830.78
191.887	1843.57
191.963	1866.72
192.038	1871.57
192.114	1870.09
192.189	1872.52
192.265	1869.05
192.34	1848.65
192.416	1844.99
192.491	1844.47
192.567	1847.42
192.642	1851.12
192.718	1851.41
192.793	1837.96
192.869	1835.11
192.944	1835.3
193.02	1843.19
193.095	1848.8
193.171	1857.02
193.246	1855.83
193.322	1854.4
193.397	1856.88
193.473	1842.85
193.548	1825.55
193.624	1831.2
193.699	1832.44
193.775	1847.51
193.85	1851.55
193.925	1861.34
194.001	1862.25
194.076	1857.97
194.152	1847.22
194.227	1839.43
194.302	1828.88
194.378	1833.82
194.453	1831.78
194.529	1844.37
194.604	1831.73
194.679	1825.5
194.755	1807.68
194.83	1818.91
194.905	1816.81
194.981	1824.9
195.056	1821.28
195.131	1826.89
195.207	1822.71
195.282	1813.49
195.357	1796.14
195.433	1807.83
195.508	1796.18
195.583	1802.41
195.659	1811.58
195.734	1820.43
195.809	1821.8
195.884	1830.5
195.96	1832.73
196.035	1846.75
196.11	1841.48
196.185	1851.74
196.261	1855.5
196.336	1881.5
196.411	1869.7
196.486	1874.84
196.561	1868.75
196.637	1875.12
196.712	1891.57
196.787	1897.76
196.862	1910.64
196.937	1920.43
197.013	1924.28
197.088	1932.74
197.163	1952.19
197.238	1968.27
197.313	1968.41
197.388	1977.31
197.464	2005.65
197.539	2011.41
197.614	2004.89
197.689	2017.16
197.764	2031.24
197.839	2045.41
197.914	2040.18
197.989	2058.35
198.065	2068.38
198.14	2111.3
198.215	2135.61
198.29	2144.98
198.365	2156.21
198.44	2167.91
198.515	2190.08
198.59	2205.26
198.665	2229.38
198.74	2235.9
198.815	2234.95
198.89	2252.36
198.965	2281.54
199.04	2271.88
199.115	2287.62
199.19	2326.26
199.265	2328.4
199.34	2336.87
199.415	2369.2
199.49	2389.52
199.565	2398.42
199.64	2421.12
199.715	2418.74
199.79	2424.79
199.865	2428.41
199.94	2427.88
200.015	2456.55
200.09	2464.74
200.165	2469.16
200.24	2475.55
200.315	2513.14
200.39	2527.24
200.464	2534.47
200.539	2533.66
200.614	2551.8
200.689	2573.95
200.764	2577.76
200.839	2596.46
200.914	2598.46
200.989	2588.7
201.063	2599.7
201.138	2584.04
201.213	2585.09
201.288	2568.33
201.363	2573.8
201.438	2572.38
201.512	2584.42
201.587	2567.42
201.662	2569.08
201.737	2580.04
201.812	2585.47
201.886	2555.96
201.961	2563.68
202.036	2553.64
202.111	2551.16
202.186	2527.27
202.26	2511.17
202.335	2493.79
202.41	2486.41
202.485	2476.32
202.559	2459.08
202.634	2435.56
202.709	2445.46
202.784	2432.03
202.858	2433.03
202.933	2412.8
203.008	2409.8
203.082	2393.95
203.157	2395.67
203.232	2357.51
203.306	2337.75
203.381	2310.61
203.456	2288.86
203.53	2267.72
203.605	2248.36
203.68	2227.94
203.754	2222.85
203.829	2209.52
203.904	2194.34
203.978	2183.92
204.053	2185.63
204.127	2175.79
204.202	2176.07
204.277	2161.09
204.351	2151.43
204.426	2144.96
204.5	2141.96
204.575	2111.52
204.65	2119.23
204.724	2110.71
204.799	2118.89
204.873	2115.7
204.948	2113.08
205.022	2101.53
205.097	2095.53
205.171	2107.33
205.246	2115.99
205.32	2114.37
205.395	2114.47
205.469	2103.72
205.544	2106.81
205.618	2092.54
205.693	2102.15
205.767	2089.12
205.842	2107.77
205.916	2104.16
205.991	2096.4
206.065	2100.59
206.14	2113.71
206.214	2107.71
206.289	2102.38
206.363	2111.99
206.438	2113.37
206.512	2122.6
206.586	2139.82
206.661	2147.62
206.735	2129.17
206.81	2128.41
206.884	2140.83
206.958	2128.41
207.033	2143.3
207.107	2152.72
207.181	2179.18
207.256	2175.75
207.33	2190.12
207.405	2200.07
207.479	2214.24
207.553	2220.76
207.628	2205.59
207.702	2218.1
207.776	2215.11
207.851	2215.58
207.925	2230.38
207.999	2230.72
208.073	2226.58
208.148	2232.05
208.222	2220.72
208.296	2250.69
208.371	2268.69
208.445	2280.68
208.519	2307.37
208.593	2318.75
208.668	2317.84
208.742	2324.56
208.816	2325.27
208.89	2346.41
208.965	2346.84
209.039	2359.41
209.113	2376.69
209.187	2401.9
209.261	2400.85
209.336	2423.32
209.41	2445.17
209.484	2449.74
209.558	2473.03
209.632	2491.21
209.707	2507.64
209.781	2537.92
209.855	2559.92
209.929	2583.28
210.003	2599.34
210.077	2613.53
210.151	2672.6
210.226	2713.5
210.3	2751.46
210.374	2791.32
210.448	2816.39
210.522	2846.28
210.596	2877.84
210.67	2913.83
210.744	2977.58
210.818	3034.92
210.892	3085.77
210.966	3114.13
211.041	3164.26
211.115	3200.65
211.189	3264.48
211.263	3321.49
211.337	3370.25
211.411	3430.88
211.485	3476.68
211.559	3540.78
211.633	3602.25
211.707	3633.36
211.781	3700.46
211.855	3729.07
211.929	3791.97
212.003	3843.69
212.077	3930.7
212.151	4018.1
212.225	4105.35
212.299	4179.66
212.373	4256.74
212.447	4344.12
212.52	4464.68
212.594	4565.1
212.668	4679.67
212.742	4771.31
212.816	4878.58
212.89	4994.14
212.964	5108.76
213.038	5227.71
213.112	5358.12
213.186	5488.72
213.26	5599.48
213.333	5693.03
213.407	5834.58
213.481	5971.34
213.555	6125.58
213.629	6254.61
213.703	6388.75
213.777	6536.11
213.85	6675.24
213.924	6858.11
213.998	7007.77
214.072	7162
214.146	7308.77
214.219	7464.33
214.293	7618.61
214.367	7780.23
214.441	7948.7
214.515	8105.95
214.588	8257.86
214.662	8396.85
214.736	8553.17
214.81	8730.23
214.883	8917.65
214.957	9085.86
215.031	9252.35
215.105	9397.82
215.178	9558.17
215.252	9723
215.326	9874.47
215.4	10028.78
215.473	10165.79
215.547	10322.6
215.621	10488.68
215.694	10666.95
215.768	10819.98
215.842	10987.46
215.915	11142.48
215.989	11287.35
216.063	11451.21
216.136	11617.81
216.21	11787.21
216.284	11961.2
216.357	12134.53
216.431	12295.71
216.504	12462.68
216.578	12655.53
216.652	12836.82
216.725	13004.37
216.799	13183.79
216.873	13351.06
216.946	13525.22
217.02	13680.58
217.093	13843.66
217.167	13983.36
217.24	14124.89
217.314	14276.73
217.387	14425.3
217.461	14576.37
217.535	14737.28
217.608	14874.13
217.682	15024.47
217.755	15181.42
217.829	15309.64
217.902	15443.35
217.976	15580.53
218.049	15713.09
218.123	15827.61
218.196	15963.67
218.27	16097.52
218.343	16208.28
218.417	16331.28
218.49	16458.71
218.563	16590.2
218.637	16719.17
218.71	16850.79
218.784	16978.79
218.857	17101.74
218.931	17225.94
219.004	17351.44
219.077	17467.58
219.151	17592.5
219.224	17704.79
219.298	17808.49
219.371	17930.81
219.444	18030.18
219.518	18137.5
219.591	18245.55
219.665	18378.7
219.738	18491.17
219.811	18581.97
219.885	18686.15
219.958	18793.23
220.031	18880.22
220.105	18983.87
220.178	19078.32
220.251	19159.04
220.325	19258.41
220.398	19362.98
220.471	19460.33
220.544	19547.46
220.618	19626.92
220.691	19710.29
220.764	19790.15
220.838	19876.26
220.911	19960.89
220.984	20059
221.057	20143.1
221.131	20216.16
221.204	20252.73
221.277	20332.59
221.35	20426.28
221.424	20497.75
221.497	20566.04
221.57	20629.6
221.643	20693.41
221.716	20763.68
221.79	20825.95
221.863	20877.8
221.936	20924.94
222.009	20971.59
222.082	21026.82
222.155	21086.83
222.229	21149.2
222.302	21201.49
222.375	21250.89
222.448	21301.07
222.521	21339
222.594	21378.09
222.667	21419.15
222.74	21475.54
222.814	21502
222.887	21531.45
222.96	21572.38
223.033	21617.2
223.106	21657.26
223.179	21701.6
223.252	21719.58
223.325	21762.43
223.398	21791.4
223.471	21828.57
223.544	21862.84
223.617	21897.16
223.69	21912.53
223.763	21921.79
223.837	21948.54
223.91	21982.96
223.983	21992.36
224.056	22005.23
224.129	22035.16
224.202	22066.01
224.275	22083.47
224.348	22106.36
224.42	22112.44
224.493	22118.37
224.566	22132.49
224.639	22154.38
224.712	22155.19
224.785	22172.5
224.858	22167.25
224.931	22178.82
225.004	22176.98
225.077	22180.94
225.15	22163.58
225.223	22175.83
225.296	22212.13
225.369	22197.18
225.442	22182.38
225.514	22181.37
225.587	22191.3
225.66	22178.87
225.733	22175.2
225.806	22180.17
225.879	22167.73
225.952	22170.24
226.025	22173.13
226.097	22191.88
226.17	22180.56
226.243	22170.38
226.316	22173.71
226.389	22176.89
226.461	22175.69
226.534	22177.57
226.607	22171.54
226.68	22195.69
226.753	22195.26
226.825	22162.23
226.898	22182.34
226.971	22183.25
227.044	22184.17
227.117	22182.53
227.189	22196.65
227.262	22200.08
227.335	22192.51
227.407	22189.37
227.48	22179.2
227.553	22178.62
227.626	22152.45
227.698	22156.25
227.771	22144.11
227.844	22117.21
227.916	22114.94
227.989	22097.44
228.062	22096.34
228.134	22106.75
228.207	22084.19
228.28	22078.84
228.352	22063.22
228.425	22047.94
228.498	22044.18
228.57	22022
228.643	22015.79
228.716	21994.09
228.788	21969.37
228.861	21946.71
228.934	21943.91
229.006	21930.32
229.079	21908.77
229.151	21878.4
229.224	21852.62
229.296	21854.54
229.369	21863.08
229.442	21863.17
229.514	21837.58
229.587	21822.68
229.659	21788.36
229.732	21773.66
229.804	21759.68
229.877	21777.08
229.949	21771.83
230.022	21770.09
230.094	21765.08
230.167	21750.91
230.239	21725.12
230.312	21712.25
230.384	21718.47
230.457	21700.49
230.529	21690.61
230.602	21680.25
230.674	21679.24
230.747	21675.57
230.819	21664.53
230.892	21626.75
230.964	21614.74
231.037	21602.79
231.109	21583.46
231.181	21567.12
231.254	21543.55
231.326	21513.43
231.399	21476.75
231.471	21448.16
231.544	21406.9
231.616	21394.08
231.688	21365.21
231.761	21342.03
231.833	21321.4
231.905	21272.48
231.978	21256.82
232.05	21234.6
232.122	21211.32
232.195	21177.92
232.267	21157.38
232.339	21127.5
232.412	21114.73
232.484	21081.28
232.556	21060.31
232.629	21055.93
232.701	21032.02
232.773	21010.48
232.846	20982.62
232.918	20968.65
232.99	20947.01
233.062	20939.01
233.135	20913.56
233.207	20890.67
233.279	20868.98
233.351	20847.82
233.424	20815.72
233.496	20784.11
233.568	20775.53
233.64	20734.47
233.713	20716.44
233.785	20688.15
233.857	20651.48
233.929	20608.68
234.001	20596.1
234.074	20578.08
234.146	20532.39
234.218	20515.52
234.29	20492.01
234.362	20468.58
234.434	20425.06
234.507	20380.73
234.579	20329.11
234.651	20297.21
234.723	20266.61
234.795	20250.08
234.867	20223.23
234.939	20225.21
235.012	20185.5
235.084	20157.89
235.156	20149.07
235.228	20109.36
235.3	20075.53
235.372	20063.05
235.444	20053.89
235.516	19996.01
235.588	19974.13
235.66	19942.28
235.732	19904.69
235.804	19916.59
235.876	19890.86
235.948	19866.04
236.02	19844.31
236.092	19813.66
236.164	19791.54
236.236	19759.64
236.308	19724.12
236.38	19693.81
236.452	19647.21
236.524	19625.71
236.596	19605.28
236.668	19571.11
236.74	19547.16
236.812	19522.44
236.884	19487.51
236.956	19454.88
237.028	19415.75
237.1	19369.39
237.172	19351.18
237.244	19336.96
237.316	19275.95
237.388	19244.43
237.46	19217.35
237.532	19195.91
237.604	19164.92
237.675	19137.26
237.747	19105.74
237.819	19067.72
237.891	19039.1
237.963	19003.34
238.035	18964.69
238.107	18895.11
238.178	18871.64
238.25	18826.48
238.322	18803.83
238.394	18755.36
238.466	18719.84
238.538	18700.76
238.609	18673.05
238.681	18621.48
238.753	18576.43
238.825	18540
238.897	18504.58
238.968	18480.53
239.04	18435.66
239.112	18427.57
239.184	18380.92
239.255	18345.79
239.327	18311.43
239.399	18278.61
239.471	18256.93
239.542	18229.65
239.614	18211.96
239.686	18168.45
239.758	18148.02
239.829	18107.2
239.901	18089.56
239.973	18048.16
240.044	18015.63
240.116	17980.7
240.188	17948.22
240.259	17917.47
240.331	17876.41
240.403	17852.31
240.474	17800.7
240.546	17759.35
240.618	17706.78
240.689	17666.34
240.761	17638.29
240.833	17625.91
240.904	17581.43
240.976	17538.3
241.048	17505.96
241.119	17479.74
241.191	17440.37
241.262	17418.68
241.334	17381.33
241.405	17344.61
241.477	17313.33
241.549	17275.36
241.62	17251.69
241.692	17221.52
241.763	17198.87
241.835	17169.14
241.906	17134.1
241.978	17084.89
242.049	17069.57
242.121	17038.82
242.192	17023.83
242.264	16973.9
242.335	16920.65
242.407	16902.96
242.478	16869.66
242.55	16835.44
242.621	16787.82
242.693	16752.59
242.764	16717.22
242.836	16682.95
242.907	16648.92
242.979	16614.7
243.05	16588.2
243.122	16553.2
243.193	16522.26
243.264	16466.98
243.336	16428.71
243.407	16403.51
243.479	16387.55
243.55	16355.45
243.622	16328.03
243.693	16297.52
243.764	16288.36
243.836	16244.02
243.907	16195.1
243.978	16154.47
244.05	16130.27
244.121	16086.36
244.192	16063.37
244.264	16016.09
244.335	15983.07
244.407	15947.7
244.478	15928.32
244.549	15885.71
244.62	15839.25
244.692	15801.94
244.763	15771.72
244.834	15738.36
244.906	15695.32
244.977	15669.78
245.048	15647.51
245.119	15612.56
245.191	15563.35
245.262	15508.06
245.333	15491.39
245.405	15473.46
245.476	15457.79
245.547	15422.46
245.618	15401.97
245.689	15369.53
245.761	15338.64
245.832	15302.63
245.903	15271.06
245.974	15237.99
246.045	15211.82
246.117	15196.92
246.188	15155.85
246.259	15122.74
246.33	15092.42
246.401	15056.51
246.473	15005.17
246.544	14967.86
246.615	14938.36
246.686	14907.12
246.757	14889.24
246.828	14848.6
246.899	14822.38
246.97	14771.57
247.042	14738.36
247.113	14716.82
247.184	14704.67
247.255	14674.15
247.326	14657.09
247.397	14626.62
247.468	14597.41
247.539	14569.41
247.61	14530.46
247.681	14513.92
247.752	14495.12
247.823	14454.49
247.894	14426.57
247.965	14393.99
248.037	14358.56
248.108	14318.3
248.179	14292.42
248.25	14261.9
248.321	14244.16
248.392	14203.43
248.463	14193.36
248.534	14157.15
248.605	14133.53
248.675	14093.14
248.746	14068.02
248.817	14033.7
248.888	14001.69
248.959	13957.58
249.03	13929.43
249.101	13898.34
249.172	13858.56
249.243	13810.31
249.314	13800.48
249.385	13776.13
249.456	13754.87
249.527	13718.43
249.598	13698.86
249.669	13677.31
249.739	13653.21
249.81	13629.73
249.881	13587.31
249.952	13560.79
250.023	13538.38
250.094	13490.32
250.165	13462.45
250.235	13442.01
250.306	13417.76
250.377	13385.22
250.448	13365.22
250.519	13325.98
250.59	13313.73
250.66	13289.82
250.731	13285.63
250.802	13253.24
250.873	13226.77
250.944	13211.01
251.014	13183.72
251.085	13177.07
251.156	13148.82
251.227	13138.55
251.297	13118.69
251.368	13110.59
251.439	13094.15
251.51	13074.87
251.58	13047.64
251.651	13017.17
251.722	12991.86
251.792	12950.89
251.863	12926.73
251.934	12912.9
252.005	12914.63
252.075	12884.36
252.146	12869.32
252.217	12852.69
252.287	12830.61
252.358	12810.99
252.429	12798.17
252.499	12780.57
252.57	12757.68
252.641	12744.23
252.711	12714.82
252.782	12679.25
252.852	12666.81
252.923	12638.03
252.994	12621.06
253.064	12617.64
253.135	12584.33
253.205	12557.87
253.276	12560.57
253.347	12558.2
253.417	12526.58
253.488	12498.86
253.558	12475.44
253.629	12451.87
253.699	12424.77
253.77	12423.14
253.841	12390.79
253.911	12368.28
253.982	12346.06
254.052	12326.87
254.123	12299.73
254.193	12280.6
254.264	12296.02
254.334	12270.47
254.405	12244.35
254.475	12204.2
254.546	12177.06
254.616	12167.32
254.687	12150.98
254.757	12131.65
254.827	12104.95
254.898	12093.43
254.968	12069.18
255.039	12052.17
255.109	12042.48
255.18	12015.44
255.25	11969.31
255.321	11956.97
255.391	11926.22
255.461	11923.61
255.532	11883.99
255.602	11862.74
255.673	11825.38
255.743	11789.28
255.813	11748.17
255.884	11734.67
255.954	11723.2
256.024	11715.92
256.095	11700.64
256.165	11668.01
256.235	11646.8
256.306	11617.07
256.376	11599.81
256.446	11588.29
256.517	11573.69
256.587	11556.91
256.657	11543.08
256.728	11528.09
256.798	11512.77
256.868	11492.86
256.938	11459.56
257.009	11444.62
257.079	11439.56
257.149	11441.58
257.219	11405.48
257.29	11393
257.36	11357.96
257.43	11349.38
257.5	11313
257.571	11282.68
257.641	11278.49
257.711	11245.67
257.781	11240.27
257.852	11224.37
257.922	11187.74
257.992	11156.46
258.062	11132.13
258.132	11118.87
258.202	11093.19
258.273	11072.56
258.343	11069.77
258.413	11046.83
258.483	11029.33
258.553	10995.21
258.623	10962.83
258.693	10950.45
258.764	10947.89
258.834	10943.51
258.904	10924.86
258.974	10901.15
259.044	10890.26
259.114	10867.85
259.184	10857.54
259.254	10833.11
259.324	10798.32
259.394	10788.73
259.464	10791.38
259.535	10777.31
259.605	10757.26
259.675	10733.65
259.745	10723
259.815	10691.15
259.885	10674
259.955	10680.31
260.025	10655.98
260.095	10643.6
260.165	10632.56
260.235	10624.22
260.305	10599.7
260.375	10566.7
260.445	10569.73
260.515	10566.65
260.585	10563.66
260.655	10544.92
260.725	10542.03
260.795	10533.11
260.865	10526.7
260.934	10497.5
261.004	10484.83
261.074	10467.58
261.144	10469.7
261.214	10457.71
261.284	10441.04
261.354	10425.57
261.424	10398.59
261.494	10399.6
261.564	10383.32
261.634	10367.8
261.703	10336.87
261.773	10326.95
261.843	10325.84
261.913	10304.06
261.983	10271.35
262.053	10257.52
262.123	10237.1
262.192	10202.31
262.262	10198.36
262.332	10176.49
262.402	10166.13
262.472	10147.49
262.541	10115.22
262.611	10107.22
262.681	10080.68
262.751	10070.8
262.821	10057.22
262.89	10032.84
262.96	10013.33
263.03	10018.34
263.1	10010.97
263.169	9995.51
263.239	9982.45
263.309	9983.75
263.379	9972.72
263.448	9956.25
263.518	9945.84
263.588	9934.91
263.657	9938.57
263.727	9932.74
263.797	9915.79
263.867	9903.46
263.936	9876.87
264.006	9870.85
264.076	9847.06
264.145	9831.84
264.215	9813.29
264.285	9804.43
264.354	9776.26
264.424	9759.25
264.494	9725.78
264.563	9700.63
264.633	9711.62
264.702	9702.13
264.772	9669.23
264.842	9653.53
264.911	9645.87
264.981	9618.51
265.05	9610.13
265.12	9589.62
265.19	9578.49
265.259	9574.01
265.329	9566.06
265.398	9561.06
265.468	9574.35
265.537	9562.12
265.607	9555.95
265.676	9552.92
265.746	9547.33
265.815	9539.53
265.885	9525.91
265.955	9508.91
266.024	9496.77
266.094	9458.25
266.163	9460.8
266.232	9460.85
266.302	9447.99
266.371	9442.16
266.441	9428.44
266.51	9423.19
266.58	9409.8
266.649	9381.34
266.719	9376.67
266.788	9367.33
266.858	9366.94
266.927	9327.46
266.996	9317.83
267.066	9309.35
267.135	9283.26
267.205	9273.72
267.274	9267.61
267.343	9265.92
267.413	9260.34
267.482	9258.7
267.552	9265.2
267.621	9236.45
267.69	9208.77
267.76	9194.95
267.829	9179.88
267.898	9166.11
267.968	9137.8
268.037	9133.9
268.106	9129.38
268.176	9102.22
268.245	9086.14
268.314	9064.62
268.384	9062.98
268.453	9048.87
268.522	9041.65
268.592	9041.27
268.661	9025.77
268.73	9015.8
268.799	9005.79
268.869	9006.75
268.938	8983.54
269.007	8961.88
269.076	8955.09
269.146	8957.98
269.215	8953.12
269.284	8955.29
269.353	8945.66
269.422	8931.84
269.492	8913.75
269.561	8882.17
269.63	8877.16
269.699	8862.34
269.768	8853.62
269.838	8846.6
269.907	8845.87
269.976	8824.31
270.045	8799.62
270.114	8793.89
270.183	8784.31
270.253	8771.94
270.322	8736.18
270.391	8725.93
270.46	8727.28
270.529	8725.74
270.598	8720.06
270.667	8708.6
270.736	8692.14
270.806	8691.42
270.875	8698.73
270.944	8686.65
271.013	8697.1
271.082	8691.85
271.151	8685.45
271.22	8659.75
271.289	8649.55
271.358	8635.01
271.427	8632.08
271.496	8625.29
271.565	8611.38
271.634	8601.66
271.703	8616.73
271.772	8623.66
271.841	8611.96
271.91	8595.79
271.979	8578.13
272.048	8555.94
272.117	8556.33
272.186	8538.38
272.255	8531.98
272.324	8527.45
272.393	8519.08
272.462	8510.08
272.531	8496.41
272.6	8489.44
272.669	8500.89
272.738	8488.52
272.807	8485.92
272.876	8459.65
272.945	8484.77
273.013	8482.99
273.082	8484.58
273.151	8448.58
273.22	8447.71
273.289	8440.83
273.358	8444.2
273.427	8435.78
273.496	8435.98
273.564	8429.14
273.633	8434.48
273.702	8411.82
273.771	8397.82
273.84	8400.41
273.909	8401.52
273.977	8402.15
274.046	8386.89
274.115	8390.7
274.184	8378.81
274.253	8368.32
274.322	8384.73
274.39	8357.54
274.459	8345.41
274.528	8324.97
274.597	8318.23
274.665	8312.84
274.734	8317.22
274.803	8300.23
274.872	8293.98
274.94	8275.55
275.009	8326.68
275.078	8312.63
275.147	8310.75
275.215	8308.06
275.284	8308.25
275.353	8290.88
275.421	8275.25
275.49	8290.88
275.559	8276.64
275.627	8273.03
275.696	8265.77
275.765	8261.78
275.833	8245.04
275.902	8247.97
275.971	8253.55
276.039	8265.19
276.108	8265.87
276.177	8263.22
276.245	8264.23
276.314	8264.38
276.383	8272.17
276.451	8213.3
276.52	8209.4
276.588	8221.57
276.657	8221.77
276.725	8213.83
276.794	8217.1
276.863	8222.58
276.931	8199.1
277	8203.82
277.068	8213.01
277.137	8233.02
277.205	8229.89
277.274	8250.87
277.342	8255.34
277.411	8243.27
277.48	8234.37
277.548	8225.56
277.617	8226.91
277.685	8220.27
277.754	8221.47
277.822	8216.9
277.89	8232.64
277.959	8235.91
278.027	8223.35
278.096	8220.42
278.164	8249.53
278.233	8248.19
278.301	8241.31
278.37	8248.57
278.438	8235.92
278.507	8231.92
278.575	8204.98
278.643	8205.27
278.712	8184.01
278.78	8167.31
278.849	8175.64
278.917	8184.3
278.985	8177.8
279.054	8181.41
279.122	8191.51
279.191	8188.63
279.259	8182.61
279.327	8160.58
279.396	8168.37
279.464	8161.68
279.532	8163.51
279.601	8152.2
279.669	8142.25
279.737	8153.12
279.806	8150.04
279.874	8165.15
279.942	8166.88
280.011	8164.23
280.079	8166.93
280.147	8191.84
280.215	8199.25
280.284	8190.98
280.352	8175.87
280.42	8181.12
280.488	8168.22
280.557	8155.67
280.625	8158.41
280.693	8164.61
280.761	8163.7
280.83	8152.92
280.898	8167.5
280.966	8154.7
281.034	8129.35
281.102	8120.11
281.171	8114.68
281.239	8122.23
281.307	8109.29
281.375	8099.53
281.443	8122.71
281.512	8114.34
281.58	8116.46
281.648	8101.55
281.716	8103.42
281.784	8104.67
281.852	8104.34
281.92	8106.65
281.989	8118.29
282.057	8107.42
282.125	8142.64
282.193	8142.4
282.261	8139.42
282.329	8135.62
282.397	8136.58
282.465	8138.07
282.533	8151.58
282.601	8141.39
282.67	8128.25
282.738	8119.31
282.806	8129.31
282.874	8114.21
282.942	8119.06
283.01	8112.33
283.078	8121.9
283.146	8123.68
283.214	8128.78
283.282	8129.55
283.35	8139.31
283.418	8130.7
283.486	8132.34
283.554	8096.35
283.622	8099.66
283.69	8101.78
283.758	8093.89
283.826	8100.05
283.894	8107.94
283.962	8123.86
284.03	8133
284.098	8135.79
284.165	8131.42
284.233	8129.4
284.301	8128
284.369	8122.08
284.437	8114
284.505	8105.97
284.573	8114.82
284.641	8103.52
284.709	8115.01
284.777	8103.13
284.845	8112.8
284.912	8114.73
284.98	8115.83
285.048	8105.44
285.116	8112.66
285.184	8119.34
285.252	8115.93
285.319	8103.71
285.387	8095.87
285.455	8085.57
285.523	8090.91
285.591	8097.31
285.659	8099.19
285.726	8110.78
285.794	8096.59
285.862	8091.93
285.93	8096.4
285.997	8089.86
286.065	8089.47
286.133	8073.69
286.201	8062.15
286.269	8048.1
286.336	8046.03
286.404	8042.23
286.472	8053.49
286.539	8030.11
286.607	8019.24
286.675	8021.17
286.743	8029.54
286.81	8024.05
286.878	8039.2
286.946	8028.57
287.013	8023.48
287.081	8022.42
287.149	8009.72
287.216	8023.91
287.284	8024.63
287.352	8024.05
287.419	8023.04
287.487	8039.35
287.555	8042.62
287.622	8048.92
287.69	8052.67
287.758	8061.91
287.825	8061.47
287.893	8048.49
287.96	8060.36
288.028	8072.15
288.096	8072.77
288.163	8070.95
288.231	8056.66
288.298	8052.38
288.366	8065.32
288.433	8064.17
288.501	8059.88
288.569	8060.17
288.636	8056.56
288.704	8061.76
288.771	8067.29
288.839	8061.86
288.906	8051.9
288.974	8057.19
289.041	8052.04
289.109	8043.43
289.176	8050.41
289.244	8051.47
289.311	8065.47
289.379	8072.68
289.446	8078.41
289.514	8079.32
289.581	8080.33
289.649	8090.05
289.716	8090.67
289.783	8082.98
289.851	8099.43
289.918	8094.91
289.986	8106.11
290.053	8114.97
290.121	8119.29
290.188	8118.77
290.255	8147.25
290.323	8147.34
290.39	8147.2
290.458	8158.93
290.525	8172.93
290.592	8168.84
290.66	8171.97
290.727	8170.48
290.794	8183.66
290.862	8180.39
290.929	8187.46
290.996	8191.02
291.064	8203.24
291.131	8210.65
291.198	8223.06
291.266	8220.94
291.333	8227.05
291.4	8231.58
291.468	8248.95
291.535	8237.21
291.602	8242.55
291.669	8232.59
291.737	8240.67
291.804	8240.86
291.871	8252.36
291.938	8259.87
292.006	8280.85
292.073	8292.92
292.14	8300.67
292.207	8291.29
292.275	8296.24
292.342	8304.47
292.409	8328.82
292.476	8345.28
292.543	8344.22
292.611	8349.17
292.678	8369.86
292.745	8393.82
292.812	8402.2
292.879	8396.86
292.946	8411
293.014	8424.28
293.081	8432.17
293.148	8435.73
293.215	8453.97
293.282	8446.9
293.349	8457.92
293.416	8443.04
293.484	8452.86
293.551	8459.5
293.618	8476.73
293.685	8499.49
293.752	8493.52
293.819	8489.48
293.886	8481.44
293.953	8483.99
294.02	8491.26
294.087	8499.64
294.154	8493.91
294.221	8507.19
294.288	8509.17
294.356	8522.35
294.423	8528.37
294.49	8526.1
294.557	8540.4
294.624	8532.07
294.691	8558.01
294.758	8553.58
294.825	8565.51
294.892	8566.04
294.959	8567.44
295.026	8575
295.093	8569.46
295.16	8570.33
295.226	8567.25
295.293	8586.83
295.36	8598.62
295.427	8609.84
295.494	8616.58
295.561	8626.39
295.628	8649.07
295.695	8665.29
295.762	8667.65
295.829	8678.62
295.896	8693.44
295.963	8701.87
296.03	8714.28
296.096	8714.76
296.163	8732.48
296.23	8744.37
296.297	8751.01
296.364	8747.11
296.431	8750.14
296.498	8750
296.564	8776.95
296.631	8786.91
296.698	8775.5
296.765	8791.58
296.832	8778.05
296.899	8758.42
296.965	8772.38
297.032	8752.35
297.099	8764.72
297.166	8773.19
297.233	8763.04
297.299	8756.92
297.366	8757.6
297.433	8756.39
297.5	8765.39
297.566	8762.7
297.633	8760.05
297.7	8769.53
297.767	8771.89
297.833	8778.25
297.9	8771.32
297.967	8750.24
298.033	8760.34
298.1	8785.47
298.167	8775.56
298.234	8787.78
298.3	8806.41
298.367	8798.7
298.434	8807.71
298.5	8803.57
298.567	8806.74
298.634	8810.4
298.7	8820.99
298.767	8825.9
298.834	8840.39
298.9	8835.38
298.967	8829.75
299.033	8838.61
299.1	8844.34
299.167	8859.26
299.233	8853.53
299.3	8865.22
299.366	8884.24
299.433	8897.86
299.5	8873.26
299.566	8881.73
299.633	8893.86
299.699	8904.65
299.766	8906.38
299.832	8906.19
299.899	8912.73
299.965	8916.59
300.032	8918.17
300.099	8926.55
300.165	8928.28
300.232	8922.22
300.298	8922.41
300.365	8934.59
300.431	8934.16
300.498	8928.72
300.564	8937.04
300.631	8951.44
300.697	8968.19
300.763	8971.8
300.83	8965.78
300.896	8985.95
300.963	8994.86
301.029	8997.79
301.096	9000.3
301.162	9010.65
301.229	9003.23
301.295	8987.11
301.361	8996.69
301.428	8998.85
301.494	8990.09
301.561	8994.81
301.627	8999.62
301.693	9000.39
301.76	9002.95
301.826	9002.03
301.892	9011.08
301.959	9015.56
302.025	9012.62
302.092	9009.35
302.158	9015.22
302.224	9018.11
302.291	9005.11
302.357	9003.23
302.423	8999.24
302.49	8989.08
302.556	8997.84
302.622	9001.31
302.688	9014.64
302.755	9023.26
302.821	9029.18
302.887	9035.25
302.954	9036.45
303.02	9043.05
303.086	9057.06
303.152	9057.39
303.219	9049.11
303.285	9051.81
303.351	9058.6
303.417	9056.67
303.483	9047.33
303.55	9037.71
303.616	9036.31
303.682	9039.87
303.748	9026.1
303.815	9036.89
303.881	9046.57
303.947	9032.94
304.013	9034.43
304.079	9025.19
304.145	9003.72
304.212	8995.87
304.278	8990.72
304.344	8988.84
304.41	8979.12
304.476	8968.48
304.542	8965.73
304.608	8976.33
304.674	8964.48
304.741	8955.96
304.807	8960.97
304.873	8961.69
304.939	8979.12
305.005	8958.8
305.071	8960.01
305.137	8963.76
305.203	8938.01
305.269	8934.15
305.335	8947.25
305.401	8948.98
305.467	8949.8
305.533	8957.94
305.599	8968.43
305.666	8978.49
305.732	8973.44
305.798	8982.78
305.864	9005.12
305.93	9003.86
305.996	8998.91
306.062	9000.73
306.128	9000.73
306.194	8986.63
306.259	8985.47
306.325	8977.15
306.391	8987.16
306.457	8983.84
306.523	8995.58
306.589	9024.13
306.655	9017.53
306.721	8999
306.787	8984.03
306.853	8998.28
306.919	8981.19
306.985	8977.24
307.051	8968.24
307.117	8964.29
307.183	8952.84
307.248	8923.08
307.314	8928.24
307.38	8931.36
307.446	8936.95
307.512	8926.26
307.578	8929.87
307.644	8928.77
307.709	8924.82
307.775	8925.44
307.841	8927.03
307.907	8919.14
307.973	8896.03
308.039	8894.78
308.104	8896.46
308.17	8894.01
308.236	8876.24
308.302	8883.65
308.368	8869.65
308.433	8867.48
308.499	8865.94
308.565	8856.46
308.631	8855.3
308.696	8837.21
308.762	8823.34
308.828	8818.19
308.894	8801.2
308.959	8781.71
309.025	8771.02
309.091	8762.99
309.156	8751.58
309.222	8751.91
309.288	8742.14
309.354	8725.83
309.419	8722.27
309.485	8716.59
309.551	8720.92
309.616	8708.45
309.682	8700.9
309.748	8692.14
309.813	8686.02
309.879	8676.16
309.945	8670.53
310.01	8666.82
310.076	8663.4
310.141	8657.29
310.207	8640.78
310.273	8641.5
310.338	8648.34
310.404	8637.65
310.469	8628.85
310.535	8619.08
310.601	8596.65
310.666	8599.49
310.732	8607.09
310.797	8598.14
310.863	8582.31
310.928	8580.05
310.994	8577.64
311.059	8570.52
311.125	8573.45
311.191	8580.38
311.256	8565.99
311.322	8565.8
311.387	8546.22
311.453	8877.81
311.518	8856.49
311.584	8855.34
311.649	8856.11
311.715	8837.53
311.78	8838.45
311.846	8826.99
311.911	8833.88
311.976	8835.03
312.042	8815.64
312.107	8799.04
312.173	8787.68
312.238	8785.47
312.304	8779.55
312.369	8772.62
312.434	8760.88
312.5	8751.35
312.565	8721.32
312.631	8727.14
312.696	8722.71
312.761	8725.22
312.827	8379
312.892	8411.38
312.958	8405.66
313.023	8403.39
313.088	8409.22
313.154	8393.68
313.219	8390.5
313.284	8379.43
313.35	8371.45
313.415	8367.79
313.48	8367.02
313.546	8369.38
313.611	8375.25
313.676	8364.85
313.741	8357.2
313.807	8368.22
313.872	8370.39
313.937	8376.4
314.003	8384.92
314.068	8379.87
314.133	8382.75
314.198	8372.55
314.264	8353.16
314.329	8347.05
314.394	8340.17
314.459	8331.12
314.525	8349.84
314.59	8339.01
314.655	8330.5
314.72	8340.12
314.785	8342.19
314.851	8332.57
314.916	8316.5
314.981	8302.74
315.046	8291.53
315.111	8284.99
315.176	8271.99
315.242	8274.06
315.307	8271.37
315.372	8252.07
315.437	8239.37
315.502	8233.55
315.567	8247.26
315.632	8233.5
315.698	8233.65
315.763	8228.4
315.828	8220.18
315.893	8213.15
315.958	8207.76
316.023	8200.21
316.088	8182.94
316.153	8158.07
316.218	8153.69
316.283	8134.74
316.348	8115.26
316.413	8112.86
316.479	8099.97
316.544	8070.1
316.609	8036.38
316.674	8001.7
316.739	7964.53
316.804	7941.98
316.869	7905.47
316.934	7870.12
316.999	7842.37
317.064	7790.72
317.129	7749.13
317.194	7719.65
317.259	7674.69
317.324	7630.46
317.389	7587.91
317.454	7549.01
317.518	7517.66
317.583	7485.79
317.648	7465.74
317.713	7430.12
317.778	7371.9
317.843	7341.81
317.908	7306.05
317.973	7271.93
318.038	7243.62
318.103	7215.18
318.168	7180.52
318.233	7152.17
318.297	7104.74
318.362	7067.17
318.427	7030.23
318.492	7009.8
318.557	6963.59
318.622	6936.73
318.687	6916.94
318.751	6878.32
318.816	6844.36
318.881	6811.89
318.946	6770.05
319.011	6725.33
319.075	6689.12
319.14	6656.71
319.205	6617.71
319.27	6581.03
319.335	6541.71
319.399	6497.78
319.464	6466.18
319.529	6415.11
319.594	6378
319.658	6351.21
319.723	6308.73
319.788	6281.14
319.853	6229.01
319.917	6201.18
319.982	6145.36
320.047	6107.55
320.112	6074.78
320.176	6025.45
320.241	5987.26
320.306	5950.84
320.37	5911.46
320.435	5879.89
320.5	5852.46
320.564	5805.02
320.629	5767.33
320.694	5730.98
320.758	5695.02
320.823	5650.66
320.888	5626.98
320.952	5578.32
321.017	5536.03
321.082	5500.13
321.146	5467
321.211	5431.91
321.275	5391.99
321.34	5353.13
321.405	5308.76
321.469	5271.71
321.534	5234.68
321.598	5189.7
321.663	5157.54
321.727	5123.72
321.792	5075.1
321.857	5033.18
321.921	4997.22
321.986	4958.15
322.05	4907.35
322.115	4873.25
322.179	4832.61
322.244	4778.38
322.308	4747.79
322.373	4702.08
322.437	4664.22
322.502	4637.59
322.566	4597.39
322.631	4563.46
322.695	4528.16
322.76	4486.39
322.824	4448.83
322.889	4412
322.953	4369.25
323.018	4309.7
323.082	4252.47
323.146	4207.82
323.211	4156.99
323.275	4115.88
323.34	4071.76
323.404	4041.85
323.468	3997.29
323.533	3957.1
323.597	3916.36
323.662	3870.44
323.726	3837.95
323.79	3792.61
323.855	3732.25
323.919	3686.2
323.983	3642.3
324.048	3578.01
324.112	3699.33
324.177	3578.42
324.241	3387.44
324.305	3204.91
324.37	3027.01
324.434	2854.99
324.498	2815.79
324.562	2771.3
324.627	2718.14
324.691	2668.29
324.755	2605.24
324.82	2536.93
324.884	2466.45
324.948	2401.01
325.012	2311.39
325.077	2199.82
