Data from 20250702_urea_1.5M_MAYP1162681_11-41-56-243.txt Node
Date: Wed Jul 02 11:41:56 BST 2025
User: adleo
Spectrometer: MAYP116268
Trigger mode: 0
Integration Time (sec): 1.000000E0
Scans to average: 1
Electric dark correction enabled: true
Nonlinearity correction enabled: true
Boxcar width: 10
XAxis mode: Wavelengths
Number of Pixels in Spectrum: 2068
>>>>>Begin Spectral Data<<<<<
179.565	1015.55
179.642	1063.34
179.718	1097.17
179.795	1128.53
179.871	1155.77
179.948	1170.38
180.024	1190.08
180.101	1208.86
180.177	1222.15
180.254	1241.14
180.33	1261.07
180.407	1300.6
180.483	1379.9
180.56	1456.15
180.636	1525.27
180.712	1515.58
180.789	1522.18
180.865	1534.52
180.942	1543.88
181.018	1553.85
181.095	1568.62
181.171	1572.9
181.248	1570.86
181.324	1585.16
181.4	1591.38
181.477	1601.97
181.553	1614.08
181.63	1628.71
181.706	1641.73
181.782	1647.86
181.859	1647.33
181.935	1649.99
182.011	1645.05
182.088	1660.4
182.164	1676.18
182.24	1687.72
182.317	1695.7
182.393	1695.7
182.469	1708.1
182.546	1717.36
182.622	1719.74
182.698	1714.42
182.775	1722.21
182.851	1734.75
182.927	1728.81
183.003	1725.39
183.08	1717.22
183.156	1724.68
183.232	1721.59
183.308	1714.37
183.385	1723.2
183.461	1738.6
183.537	1741.97
183.613	1753.85
183.69	1744.92
183.766	1737.17
183.842	1742.59
183.918	1750.05
183.995	1761.26
184.071	1762.69
184.147	1762.07
184.223	1754.38
184.299	1763.88
184.375	1757.23
184.452	1764.93
184.528	1815.56
184.604	1826.39
184.68	1836.37
184.756	1843.16
184.832	1850.15
184.908	1851.15
184.985	1849.15
185.061	1836.65
185.137	1843.12
185.213	1833.28
185.289	1836.23
185.365	1827.15
185.441	1827.82
185.517	1837.04
185.593	1833.67
185.669	1832.95
185.745	1838.94
185.822	1851.53
185.898	1845.35
185.974	1849.44
186.05	1841.69
186.126	1805.56
186.202	1797.82
186.278	1798.06
186.354	1788.6
186.43	1792.97
186.506	1794.21
186.582	1794.68
186.658	1799.43
186.734	1781.61
186.81	1785.6
186.886	1787.41
186.962	1799.29
187.038	1795.82
187.114	1789.88
187.19	1796.96
187.266	1787.03
187.341	1790.69
187.417	1784.37
187.493	1783.75
187.569	1788.6
187.645	1784.46
187.721	1773.1
187.797	1779.38
187.873	1782.51
187.949	1777.24
188.025	1771.11
188.101	1771.06
188.176	1775.48
188.252	1769.25
188.328	1777.85
188.404	1775.38
188.48	1771.39
188.556	1763.88
188.632	1763.17
188.707	1763.98
188.783	1760.32
188.859	1757.18
188.935	1745.68
189.011	1754.09
189.086	1749.77
189.162	1742.35
189.238	1740.83
189.314	1738.17
189.39	1733.56
189.465	1724.91
189.541	1739.65
189.617	1727.67
189.693	1723.3
189.768	1725.35
189.844	1748.78
189.92	1738.99
189.996	1749.64
190.071	1760.33
190.147	1760.85
190.223	1767.94
190.298	1757.15
190.374	1746.93
190.45	1757.33
190.526	1762.94
190.601	1757.62
190.677	1757.52
190.753	1781.82
190.828	1785.34
190.904	1799.31
190.98	1813.81
191.055	1825.31
191.131	1816.47
191.207	1833.91
191.282	1845.55
191.358	1837.09
191.433	1823.16
191.509	1835.65
191.585	1831.76
191.66	1829.38
191.736	1834.32
191.811	1827.62
191.887	1844.07
191.963	1863.27
192.038	1868.97
192.114	1872.11
192.189	1872.25
192.265	1870.92
192.34	1851.43
192.416	1850.19
192.491	1847.2
192.567	1846.67
192.642	1847.48
192.718	1847.96
192.793	1835.36
192.869	1828.23
192.944	1829.9
193.02	1836.74
193.095	1838.26
193.171	1841.69
193.246	1842.45
193.322	1841.5
193.397	1843.06
193.473	1831.8
193.548	1816.49
193.624	1818.72
193.699	1817.11
193.775	1835.32
193.85	1834.65
193.925	1843.49
194.001	1840.97
194.076	1831.99
194.152	1821.39
194.227	1818.78
194.302	1810.03
194.378	1814.93
194.453	1815.55
194.529	1827.1
194.604	1814.26
194.679	1811.89
194.755	1797.35
194.83	1809.95
194.905	1807.19
194.981	1815.04
195.056	1808.05
195.131	1811.9
195.207	1810.24
195.282	1801.44
195.357	1784.71
195.433	1799.82
195.508	1789.74
195.583	1799.3
195.659	1814.32
195.734	1824.25
195.809	1819.59
195.884	1830.71
195.96	1831.09
196.035	1841.88
196.11	1837.84
196.185	1848.39
196.261	1852.33
196.336	1877.76
196.411	1865.45
196.486	1872.15
196.561	1865.54
196.637	1873.19
196.712	1888.31
196.787	1893.4
196.862	1904.24
196.937	1911.61
197.013	1916.12
197.088	1924.16
197.163	1942.94
197.238	1956.65
197.313	1956.22
197.388	1968.63
197.464	1993.64
197.539	2004.01
197.614	1998.26
197.689	2008.58
197.764	2025.56
197.839	2039.11
197.914	2036.06
197.989	2051.61
198.065	2066.02
198.14	2109.28
198.215	2131.16
198.29	2143.34
198.365	2155.52
198.44	2166.27
198.515	2189.01
198.59	2202.14
198.665	2224.64
198.74	2230.02
198.815	2231.02
198.89	2252.38
198.965	2277.94
199.04	2272.23
199.115	2285.6
199.19	2324.42
199.265	2327.04
199.34	2334.13
199.415	2365.08
199.49	2382.97
199.565	2394.39
199.64	2411.53
199.715	2411.86
199.79	2418.86
199.865	2424.1
199.94	2421.24
200.015	2448.81
200.09	2455.04
200.165	2460
200.24	2466.47
200.315	2501.11
200.39	2514.44
200.464	2516.49
200.539	2518.44
200.614	2534.34
200.689	2557.87
200.764	2564.97
200.839	2580.53
200.914	2583.01
200.989	2575.1
201.063	2586.15
201.138	2573.97
201.213	2576.73
201.288	2558.06
201.363	2562.54
201.438	2561.68
201.512	2577.44
201.587	2562.34
201.662	2568.72
201.737	2583.2
201.812	2590.06
201.886	2560.51
201.961	2566.85
202.036	2558.19
202.111	2555.33
202.186	2531.39
202.26	2513.1
202.335	2492.9
202.41	2491.1
202.485	2478.24
202.559	2461.91
202.634	2439.82
202.709	2444.25
202.784	2427.68
202.858	2429.16
202.933	2413.73
203.008	2406.83
203.082	2389.08
203.157	2388.74
203.232	2347.3
203.306	2326.16
203.381	2300.31
203.456	2282.08
203.53	2263.93
203.605	2247.33
203.68	2227.58
203.754	2221.21
203.829	2208.07
203.904	2192.42
203.978	2178.9
204.053	2184.71
204.127	2172.58
204.202	2170.1
204.277	2157.16
204.351	2149.08
204.426	2142.56
204.5	2136.23
204.575	2106.03
204.65	2112.89
204.724	2105.56
204.799	2113.64
204.873	2109.02
204.948	2106.88
205.022	2096.28
205.097	2089.04
205.171	2099.74
205.246	2106.5
205.32	2104.88
205.395	2104.79
205.469	2096.66
205.544	2101.89
205.618	2085.43
205.693	2095.75
205.767	2086.96
205.842	2106.32
205.916	2102.47
205.991	2095.14
206.065	2098.47
206.14	2115.11
206.214	2110.63
206.289	2105.21
206.363	2114.77
206.438	2117.24
206.512	2125.52
206.586	2142.84
206.661	2149.93
206.735	2131
206.81	2132.19
206.884	2145.37
206.958	2135.57
207.033	2150.22
207.107	2159.31
207.181	2184.43
207.256	2178.77
207.33	2193.94
207.405	2203.09
207.479	2219.17
207.553	2224.59
207.628	2210.66
207.702	2218.6
207.776	2213.37
207.851	2213.18
207.925	2228.46
207.999	2226.6
208.073	2223.41
208.148	2222.41
208.222	2212.28
208.296	2240.91
208.371	2256.81
208.445	2270.47
208.519	2294.97
208.593	2304.97
208.668	2298.97
208.742	2303.3
208.816	2305.59
208.89	2316.96
208.965	2316.25
209.039	2323.82
209.113	2338.19
209.187	2357.74
209.261	2356.03
209.336	2375.54
209.41	2397.58
209.484	2397.72
209.558	2418.72
209.632	2432.04
209.707	2445.37
209.781	2466.32
209.855	2480.98
209.929	2494.52
210.003	2498.57
210.077	2500.09
210.151	2544.65
210.226	2579.57
210.3	2605.03
210.374	2626.26
210.448	2636.97
210.522	2650.22
210.596	2665.22
210.67	2678.75
210.744	2726.74
210.818	2762.41
210.892	2789.38
210.966	2795.43
211.041	2818.25
211.115	2827.16
211.189	2857.95
211.263	2886.59
211.337	2906.51
211.411	2936.45
211.485	2947.9
211.559	2977.68
211.633	3000.46
211.707	2995.73
211.781	3023.89
211.855	3019.55
211.929	3043.48
212.003	3057.92
212.077	3099
212.151	3145.62
212.225	3192.56
212.299	3224.27
212.373	3258.81
212.447	3302.88
212.52	3379.22
212.594	3437.37
212.668	3499.95
212.742	3545.51
212.816	3604.02
212.89	3666.01
212.964	3734.21
213.038	3812.92
213.112	3903.98
213.186	4002.96
213.26	4069.23
213.333	4118.96
213.407	4217.18
213.481	4312.6
213.555	4421.17
213.629	4509.23
213.703	4598.16
213.777	4703.39
213.85	4800.41
213.924	4947.23
213.998	5062.55
214.072	5175.29
214.146	5287.18
214.219	5413.43
214.293	5545
214.367	5679.89
214.441	5825.06
214.515	5949.7
214.588	6075.41
214.662	6190.07
214.736	6315.39
214.81	6475.73
214.883	6633.88
214.957	6780.47
215.031	6931.54
215.105	7070.15
215.178	7221.5
215.252	7379.8
215.326	7530.31
215.4	7680.19
215.473	7801.93
215.547	7960.7
215.621	8120.67
215.694	8302.34
215.768	8460.21
215.842	8631.81
215.915	8796.71
215.989	8954.79
216.063	9128.91
216.136	9302.43
216.21	9486.83
216.284	9675.94
216.357	9856.16
216.431	10044.48
216.504	10233.49
216.578	10439.58
216.652	10645.03
216.725	10834.14
216.799	11028.81
216.873	11214.71
216.946	11405.96
217.02	11589.7
217.093	11770.86
217.167	11936.37
217.24	12105.89
217.314	12292.08
217.387	12455.76
217.461	12632.37
217.535	12820.6
217.608	12992.54
217.682	13178.85
217.755	13359.56
217.829	13536.38
217.902	13714.11
217.976	13880.41
218.049	14056.02
218.123	14215.53
218.196	14377.64
218.27	14544.86
218.343	14707.93
218.417	14879.34
218.49	15045.93
218.563	15222.74
218.637	15391.54
218.71	15581.5
218.784	15751.21
218.857	15927.19
218.931	16097.86
219.004	16253.84
219.077	16422.24
219.151	16573.63
219.224	16718.46
219.298	16875.33
219.371	17020.45
219.444	17155.2
219.518	17306.39
219.591	17444.13
219.665	17607.55
219.738	17762.49
219.811	17888.32
219.885	18032.61
219.958	18177.08
220.031	18300.41
220.105	18443.58
220.178	18572.98
220.251	18681.36
220.325	18810.36
220.398	18925.15
220.471	19049.53
220.544	19178.05
220.618	19280.99
220.691	19410.24
220.764	19530.86
220.838	19636.88
220.911	19748.78
220.984	19874.12
221.057	19986.41
221.131	20092.43
221.204	20164.04
221.277	20263.13
221.35	20400.81
221.424	20495.27
221.497	20580.38
221.57	20679.18
221.643	20758.99
221.716	20858.27
221.79	20953.51
221.863	21037.71
221.936	21126.44
222.009	21210.11
222.082	21293.63
222.155	21369.54
222.229	21459.97
222.302	21533.13
222.375	21604.08
222.448	21682.12
222.521	21755.34
222.594	21821.9
222.667	21888.37
222.74	21968.15
222.814	22041.23
222.887	22094.26
222.96	22158.71
223.033	22232.18
223.106	22303.28
223.179	22383.21
223.252	22431.51
223.325	22488.4
223.398	22552.04
223.471	22604.16
223.544	22657.14
223.617	22715.72
223.69	22768.51
223.763	22798.25
223.837	22856.78
223.91	22910.3
223.983	22938.26
224.056	22962.9
224.129	23010.68
224.202	23052.58
224.275	23084.06
224.348	23112.8
224.42	23138.79
224.493	23169.03
224.566	23192.51
224.639	23227.56
224.712	23246.95
224.785	23279.31
224.858	23308.09
224.931	23316.63
225.004	23335.05
225.077	23365.09
225.15	23366.01
225.223	23393.35
225.296	23445.82
225.369	23453.77
225.442	23478.8
225.514	23512.17
225.587	23550.51
225.66	23573.08
225.733	23597.91
225.806	23624.29
225.879	23628.73
225.952	23643.24
226.025	23659.45
226.097	23698.76
226.17	23715.54
226.243	23707.78
226.316	23714.14
226.389	23730.54
226.461	23751.04
226.534	23765.21
226.607	23763.96
226.68	23796.37
226.753	23812.04
226.825	23801.48
226.898	23825.74
226.971	23814.55
227.044	23827.43
227.117	23827.81
227.189	23831.29
227.262	23843.15
227.335	23857.57
227.407	23869.1
227.48	23868.76
227.553	23869.87
227.626	23853.66
227.698	23854.53
227.771	23861.04
227.844	23857.81
227.916	23860.17
227.989	23851.68
228.062	23841.32
228.134	23869.77
228.207	23861.91
228.28	23850.67
228.352	23838.23
228.425	23829.74
228.498	23846.33
228.57	23838.13
228.643	23847.83
228.716	23842.62
228.788	23842.47
228.861	23831.52
228.934	23838.47
229.006	23835.24
229.079	23836.06
229.151	23825.3
229.224	23814.84
229.296	23820.33
229.369	23842.28
229.442	23851.15
229.514	23847.15
229.587	23863.79
229.659	23841.65
229.732	23841.03
229.804	23851.59
229.877	23883.61
229.949	23899.24
230.022	23915.54
230.094	23903.87
230.167	23904.21
230.239	23898.76
230.312	23888.25
230.384	23893.5
230.457	23890.8
230.529	23891.43
230.602	23895.34
230.674	23903.25
230.747	23904.69
230.819	23905.95
230.892	23869.68
230.964	23853.76
231.037	23850.63
231.109	23831.1
231.181	23833.51
231.254	23814.07
231.326	23792.66
231.399	23770.04
231.471	23744.67
231.544	23712.64
231.616	23718.62
231.688	23701.26
231.761	23679.13
231.833	23659.11
231.905	23630.8
231.978	23610.5
232.05	23600.13
232.122	23577.61
232.195	23561.89
232.267	23555.23
232.339	23538.84
232.412	23542.93
232.484	23525.62
232.556	23504.5
232.629	23511.83
232.701	23499.15
232.773	23488.97
232.846	23477.54
232.918	23459.89
232.99	23440.17
233.062	23429.13
233.135	23410.9
233.207	23390.35
233.279	23382.3
233.351	23385.15
233.424	23370.83
233.496	23354.33
233.568	23357.66
233.64	23330.61
233.713	23302.79
233.785	23276.89
233.857	23266.77
233.929	23241.26
234.001	23243.19
234.074	23238.66
234.146	23202.78
234.218	23181.71
234.29	23156.1
234.362	23130.84
234.434	23090.43
234.507	23066.71
234.579	23034.12
234.651	23002.92
234.723	22992.26
234.795	22975.73
234.867	22943.85
234.939	22939.42
235.012	22915.6
235.084	22886.91
235.156	22873.41
235.228	22852.24
235.3	22828.28
235.372	22803.21
235.444	22790.43
235.516	22739.71
235.588	22716.42
235.66	22699.11
235.732	22669.75
235.804	22689.62
235.876	22678.96
235.948	22678.53
236.02	22653.56
236.092	22626.32
236.164	22608.58
236.236	22564.9
236.308	22532.65
236.38	22509.17
236.452	22468.77
236.524	22444.57
236.596	22432.85
236.668	22412.22
236.74	22383.39
236.812	22371.77
236.884	22350.8
236.956	22323.85
237.028	22286.16
237.1	22240.55
237.172	22225.51
237.244	22218.72
237.316	22172.87
237.388	22130.59
237.46	22098.63
237.532	22081.42
237.604	22043.1
237.675	22024.3
237.747	22003.19
237.819	21972.34
237.891	21931.17
237.963	21901.19
238.035	21874
238.107	21816.16
238.178	21793.21
238.25	21765.64
238.322	21745.78
238.394	21703.12
238.466	21665.91
238.538	21643.02
238.609	21629.23
238.681	21576.16
238.753	21530.08
238.825	21491.33
238.897	21466.7
238.968	21454.31
239.04	21421.82
239.112	21425.73
239.184	21377.53
239.255	21350.44
239.327	21325.96
239.399	21311.06
239.471	21281.76
239.542	21251.97
239.614	21237.37
239.686	21182.86
239.758	21164.11
239.829	21123.96
239.901	21096.68
239.973	21066.08
240.044	21048.73
240.116	21012.1
240.188	20983.85
240.259	20948.38
240.331	20920.67
240.403	20901.2
240.474	20845.97
240.546	20804.81
240.618	20747.12
240.689	20721.53
240.761	20691.26
240.833	20671.21
240.904	20632.66
240.976	20600.51
241.048	20564.51
241.119	20531.55
241.191	20511.64
241.262	20488.8
241.334	20452.61
241.405	20417.38
241.477	20381.23
241.549	20341.28
241.62	20313.67
241.692	20292.32
241.763	20275.31
241.835	20237.57
241.906	20197.57
241.978	20160.27
242.049	20137.72
242.121	20127.98
242.192	20103.36
242.264	20057.86
242.335	20003.89
242.407	19976.76
242.478	19943.99
242.55	19915.27
242.621	19870.35
242.693	19833.83
242.764	19796.62
242.836	19749.06
242.907	19722.07
242.979	19694.94
243.05	19666.56
243.122	19640.63
243.193	19603.23
243.264	19543.67
243.336	19508.73
243.407	19484.01
243.479	19468.93
243.55	19439.05
243.622	19395
243.693	19362.14
243.764	19344.16
243.836	19308.31
243.907	19267.54
243.978	19231.25
244.05	19206.15
244.121	19168.03
244.192	19146.39
244.264	19096.08
244.335	19076.66
244.407	19029.19
244.478	19001.34
244.549	18962.6
244.62	18916.43
244.692	18884.19
244.763	18858.99
244.834	18821.98
244.906	18776.34
244.977	18734.66
245.048	18713.12
245.119	18675.63
245.191	18635.15
245.262	18578.91
245.333	18558.04
245.405	18529.37
245.476	18492.74
245.547	18457.37
245.618	18429.09
245.689	18389.76
245.761	18362.25
245.832	18322.15
245.903	18295.41
245.974	18262.11
246.045	18220.81
246.117	18200.37
246.188	18141.48
246.259	18104.52
246.33	18070.45
246.401	18040.38
246.473	18000.62
246.544	17960.91
246.615	17937.25
246.686	17898.36
246.757	17882.7
246.828	17845.16
246.899	17824.24
246.97	17785.69
247.042	17745.69
247.113	17722.66
247.184	17703.23
247.255	17660.97
247.326	17626.56
247.397	17593.45
247.468	17564.3
247.539	17541.5
247.61	17495.53
247.681	17478.22
247.752	17460.1
247.823	17426.46
247.894	17395.91
247.965	17345.02
248.037	17300.68
248.108	17254.46
248.179	17217.16
248.25	17184.92
248.321	17154.36
248.392	17106.12
248.463	17096.77
248.534	17068.48
248.605	17039.33
248.675	17018.8
248.746	16998.31
248.817	16988.29
248.888	16967.47
248.959	16925.54
249.03	16899.27
249.101	16873.01
249.172	16843.42
249.243	16795.85
249.314	16779.89
249.385	16748.33
249.456	16737.43
249.527	16710.25
249.598	16691.84
249.669	16667.26
249.739	16637.23
249.81	16623.74
249.881	16586.72
249.952	16555.01
250.023	16521.13
250.094	16481.22
250.165	16436.69
250.235	16411.1
250.306	16374.08
250.377	16333.45
250.448	16306.22
250.519	16263.61
250.59	16251.71
250.66	16222.45
250.731	16213.39
250.802	16177.15
250.873	16153.34
250.944	16122.44
251.014	16093.67
251.085	16086.44
251.156	16060.84
251.227	16051.2
251.297	16030.53
251.368	16015.73
251.439	15993.03
251.51	15984.21
251.58	15943.96
251.651	15907.09
251.722	15889.74
251.792	15842.98
251.863	15808.95
251.934	15793.96
252.005	15798.11
252.075	15772.13
252.146	15758.59
252.217	15734.44
252.287	15720.75
252.358	15694.33
252.429	15679.39
252.499	15644.25
252.57	15611.14
252.641	15599.62
252.711	15567.18
252.782	15528.19
252.852	15517.44
252.923	15494.64
252.994	15464.13
253.064	15458.15
253.135	15432.61
253.205	15394.28
253.276	15387.39
253.347	15383.49
253.417	15348.44
253.488	15311.14
253.558	15277.88
253.629	15245.92
253.699	15231.07
253.77	15206.83
253.841	15185.81
253.911	15169.28
253.982	15153.8
254.052	15135.68
254.123	15116.98
254.193	15095.53
254.264	15106.95
254.334	15076.44
254.405	15040.87
254.475	15008.23
254.546	14988.32
254.616	14979.55
254.687	14963.31
254.757	14946.29
254.827	14924.16
254.898	14909.66
254.968	14889.94
255.039	14857.98
255.109	14838.89
255.18	14807.22
255.25	14770.1
255.321	14748.36
255.391	14707.63
255.461	14700.59
255.532	14664.3
255.602	14634.17
255.673	14591.41
255.743	14546.92
255.813	14502.76
255.884	14486.66
255.954	14477.94
256.024	14465.07
256.095	14436.19
256.165	14404.81
256.235	14383.84
256.306	14351.21
256.376	14339.44
256.446	14320.4
256.517	14310.57
256.587	14303.58
256.657	14277.74
256.728	14261.25
256.798	14244.86
256.868	14236.77
256.938	14209.53
257.009	14191.02
257.079	14171.54
257.149	14174.92
257.219	14142.96
257.29	14132.45
257.36	14102.99
257.43	14091.04
257.5	14052.38
257.571	14032.42
257.641	14016.9
257.711	13989.66
257.781	13977.85
257.852	13958.76
257.922	13923.67
257.992	13898.26
258.062	13877.53
258.132	13859.6
258.202	13835.55
258.273	13799.01
258.343	13791
258.413	13759.72
258.483	13736.43
258.553	13708.43
258.623	13681.04
258.693	13670.97
258.764	13663.83
258.834	13653.37
258.904	13627.87
258.974	13597.12
259.044	13579.47
259.114	13560.38
259.184	13538.88
259.254	13514.54
259.324	13476.79
259.394	13459.05
259.464	13461.95
259.535	13431.91
259.605	13406.12
259.675	13378.31
259.745	13371.17
259.815	13333.38
259.885	13311.93
259.955	13320.36
260.025	13293.22
260.095	13268.06
260.165	13244.34
260.235	13242.65
260.305	13218.41
260.375	13182.11
260.445	13183.41
260.515	13168.32
260.585	13160.27
260.655	13143.59
260.725	13138.67
260.795	13122.91
260.865	13123.73
260.934	13082.61
261.004	13068.82
261.074	13058.26
261.144	13056.82
261.214	13053.3
261.284	13035.8
261.354	13026.4
261.424	12996.13
261.494	13000.13
261.564	12981.91
261.634	12973.04
261.703	12928.2
261.773	12908.01
261.843	12907.67
261.913	12882.84
261.983	12850.01
262.053	12837.19
262.123	12816.42
262.192	12783.44
262.262	12776.21
262.332	12744.88
262.402	12735.43
262.472	12728.1
262.541	12691.37
262.611	12672.76
262.681	12639.74
262.751	12628.41
262.821	12606.34
262.89	12579.53
262.96	12559.14
263.03	12566.23
263.1	12552.4
263.169	12545.84
263.239	12539.38
263.309	12535.43
263.379	12529.45
263.448	12517.69
263.518	12504.62
263.588	12480.62
263.657	12480.76
263.727	12475.36
263.797	12457.72
263.867	12443.21
263.936	12404.46
264.006	12397.95
264.076	12382.77
264.145	12364.35
264.215	12341.79
264.285	12331.38
264.354	12295.86
264.424	12276.72
264.494	12244.86
264.563	12215.6
264.633	12210.29
264.702	12198.58
264.772	12164.69
264.842	12138.33
264.911	12123.77
264.981	12095.43
265.05	12084.53
265.12	12063.95
265.19	12040.38
265.259	12034.06
265.329	12024.33
265.398	12016.37
265.468	12023.56
265.537	12003.41
265.607	11992.37
265.676	11987.12
265.746	11980.08
265.815	11975.64
265.885	11956.61
265.955	11926.63
266.024	11912.17
266.094	11874.33
266.163	11862.08
266.232	11854.03
266.302	11838.32
266.371	11826.18
266.441	11810.41
266.51	11810.27
266.58	11788.68
266.649	11763.9
266.719	11761.78
266.788	11745.63
266.858	11740.14
266.927	11705.34
266.996	11699.51
267.066	11688.42
267.135	11664.32
267.205	11655.4
267.274	11652.71
267.343	11650.34
267.413	11644.22
267.482	11644.71
267.552	11645.09
267.621	11623.5
267.69	11603.64
267.76	11595.06
267.829	11584.84
267.898	11565.85
267.968	11540.98
268.037	11536.79
268.106	11538
268.176	11505.12
268.245	11490.76
268.314	11482.13
268.384	11483.05
268.453	11466.47
268.522	11455.87
268.592	11451.96
268.661	11432.64
268.73	11414.52
268.799	11394.9
268.869	11399.48
268.938	11369.55
269.007	11349.89
269.076	11340.49
269.146	11329.11
269.215	11315.76
269.284	11320.05
269.353	11310.8
269.422	11289.89
269.492	11273.02
269.561	11233.84
269.63	11224.63
269.699	11204.54
269.768	11184.63
269.838	11171.09
269.907	11163.28
269.976	11141.16
270.045	11113.84
270.114	11107.91
270.183	11095.86
270.253	11084.39
270.322	11054.51
270.391	11040.87
270.46	11046.71
270.529	11039.04
270.598	11034.71
270.667	11023.82
270.736	11001.36
270.806	10993.16
270.875	10999.43
270.944	10984.83
271.013	10996.06
271.082	10983.86
271.151	10978.27
271.22	10959.43
271.289	10940.45
271.358	10929.94
271.427	10921.22
271.496	10912.26
271.565	10897.65
271.634	10887.68
271.703	10913.9
271.772	10914.04
271.841	10903.3
271.91	10877.75
271.979	10870.48
272.048	10848.99
272.117	10847.78
272.186	10833.28
272.255	10826.77
272.324	10820.27
272.393	10816.75
272.462	10809.76
272.531	10806
272.6	10801.13
272.669	10803.35
272.738	10802.53
272.807	10792.7
272.876	10773.38
272.945	10793.52
273.013	10791.98
273.082	10796.75
273.151	10752.47
273.22	10744.23
273.289	10737.48
273.358	10742.68
273.427	10729.19
273.496	10730.69
273.564	10721.43
273.633	10717.39
273.702	10704.71
273.771	10692.86
273.84	10684.43
273.909	10675.71
273.977	10671.47
274.046	10658.26
274.115	10658.12
274.184	10643.37
274.253	10640.24
274.322	10652.43
274.39	10625.3
274.459	10612.25
274.528	10579.72
274.597	10571.77
274.665	10576.59
274.734	10586.57
274.803	10578.23
274.872	10570.18
274.94	10548.65
275.009	10601.71
275.078	10591.88
275.147	10590.91
275.215	10590.24
275.284	10597.61
275.353	10586.38
275.421	10563.06
275.49	10567.21
275.559	10557.81
275.627	10548.9
275.696	10535.31
275.765	10532.13
275.833	10527.07
275.902	10525.72
275.971	10536.81
276.039	10549.53
276.108	10543.41
276.177	10535.55
276.245	10521.1
276.314	10516.81
276.383	10521.63
276.451	10458.06
276.52	10460.52
276.588	10469.24
276.657	10471.84
276.725	10460.67
276.794	10459.27
276.863	10475.07
276.931	10458.06
277	10457.73
277.068	10460.71
277.137	10481.05
277.205	10475.99
277.274	10485.19
277.342	10489.96
277.411	10473
277.48	10462.16
277.548	10454.21
277.617	10452.23
277.685	10454.11
277.754	10457.53
277.822	10460.28
277.89	10481.53
277.959	10476.37
278.027	10457.1
278.096	10447.37
278.164	10463.99
278.233	10461.97
278.301	10450.7
278.37	10462.93
278.438	10456.48
278.507	10462.84
278.575	10436.38
278.643	10431.09
278.712	10416.2
278.78	10399.86
278.849	10410.56
278.917	10420.58
278.985	10404.83
279.054	10408.59
279.122	10414.9
279.191	10409.6
279.259	10400.97
279.327	10374.33
279.396	10383.24
279.464	10377.75
279.532	10379.05
279.601	10380.69
279.669	10373.12
279.737	10381.75
279.806	10382.23
279.874	10393.55
279.942	10393.26
280.011	10392.06
280.079	10397.5
280.147	10414.8
280.215	10421.21
280.284	10419.81
280.352	10405.94
280.42	10424.34
280.488	10413.4
280.557	10406.08
280.625	10414.75
280.693	10412.49
280.761	10413.02
280.83	10394.08
280.898	10402.27
280.966	10388.59
281.034	10353.23
281.102	10344.6
281.171	10340.03
281.239	10347.45
281.307	10335.83
281.375	10324.8
281.443	10344.65
281.512	10350.34
281.58	10357.76
281.648	10344.6
281.716	10347.3
281.784	10349.52
281.852	10340.75
281.92	10340.94
281.989	10349.81
282.057	10333.81
282.125	10375.44
282.193	10373.9
282.261	10377.9
282.329	10375.64
282.397	10379.63
282.465	10387.97
282.533	10401.26
282.601	10394.23
282.67	10374.77
282.738	10372.31
282.806	10384.4
282.874	10373.03
282.942	10371.2
283.01	10358.48
283.078	10366.62
283.146	10360.07
283.214	10369.56
283.282	10379.39
283.35	10392.16
283.418	10387.44
283.486	10392.49
283.554	10354.81
283.622	10364.26
283.69	10365.65
283.758	10364.55
283.826	10366.86
283.894	10378.33
283.962	10395.48
284.03	10414.17
284.098	10416.58
284.165	10412.73
284.233	10410.17
284.301	10404.54
284.369	10396.3
284.437	10394.8
284.505	10389.7
284.573	10406.75
284.641	10390.23
284.709	10392.15
284.777	10376.45
284.845	10383.82
284.912	10387.91
284.98	10391.33
285.048	10381.02
285.116	10382.95
285.184	10398.22
285.252	10400.1
285.319	10386.13
285.387	10373.94
285.455	10352.6
285.523	10359.1
285.591	10353.85
285.659	10353.42
285.726	10364.84
285.794	10354.48
285.862	10344.41
285.93	10347.4
285.997	10338.53
286.065	10331.64
286.133	10322.01
286.201	10322.73
286.269	10302.88
286.336	10292.62
286.404	10286.69
286.472	10295.51
286.539	10282.69
286.607	10263.13
286.675	10260.82
286.743	10270.02
286.81	10265.49
286.878	10277.3
286.946	10277.06
287.013	10275.42
287.081	10271.32
287.149	10263.04
287.216	10279.95
287.284	10277.25
287.352	10275.08
287.419	10272.82
287.487	10292.47
287.555	10300.57
287.622	10295.07
287.69	10306.93
287.758	10319.64
287.825	10321.09
287.893	10312.42
287.96	10317.43
288.028	10328.12
288.096	10328.99
288.163	10332.27
288.231	10328.7
288.298	10331.45
288.366	10335.25
288.433	10331.98
288.501	10328.46
288.569	10327.59
288.636	10325.14
288.704	10343.25
288.771	10353.61
288.839	10346.72
288.906	10342.53
288.974	10350.53
289.041	10352.36
289.109	10343.69
289.176	10350.38
289.244	10352.07
289.311	10362.33
289.379	10371.58
289.446	10378.09
289.514	10384.01
289.581	10380.4
289.649	10389.6
289.716	10391.63
289.783	10391.91
289.851	10412.29
289.918	10419.09
289.986	10430.46
290.053	10438.7
290.121	10434.55
290.188	10432.67
290.255	10456.38
290.323	10458.83
290.39	10457.97
290.458	10466.3
290.525	10485.24
290.592	10487.74
290.66	10493.19
290.727	10492.61
290.794	10513.23
290.862	10510.58
290.929	10518.34
290.996	10525.23
291.064	10533.56
291.131	10547.01
291.198	10556.11
291.266	10568.01
291.333	10569.22
291.4	10582.76
291.468	10595.62
291.535	10596.64
291.602	10605.74
291.669	10608.1
291.737	10615.76
291.804	10613.07
291.871	10634.75
291.938	10643.13
292.006	10669.25
292.073	10679.61
292.14	10690.45
292.207	10678.74
292.275	10689.68
292.342	10687.08
292.409	10709.87
292.476	10730.4
292.543	10724.76
292.611	10728.52
292.678	10738.93
292.745	10762.68
292.812	10771.07
292.879	10773.48
292.946	10783.4
293.014	10798.05
293.081	10807.45
293.148	10817.76
293.215	10831.73
293.282	10827.4
293.349	10834.96
293.416	10818.82
293.484	10836.26
293.551	10849.9
293.618	10874.67
293.685	10899.05
293.752	10908.21
293.819	10910.62
293.886	10904.01
293.953	10912.78
294.02	10922.42
294.087	10927.58
294.154	10922.66
294.221	10940.35
294.288	10944.78
294.356	10960.78
294.423	10965.99
294.49	10966.08
294.557	10984.15
294.624	10983.29
294.691	11008.06
294.758	11009.79
294.825	11016.44
294.892	11015.77
294.959	11019.33
295.026	11022.99
295.093	11013.69
295.16	11019.19
295.226	11019.72
295.293	11042.03
295.36	11057.02
295.427	11072.82
295.494	11090.22
295.561	11104.63
295.628	11126.32
295.695	11136.54
295.762	11144.78
295.829	11160.49
295.896	11178.66
295.963	11183.72
296.03	11198.95
296.096	11204.54
296.163	11218.51
296.23	11237.4
296.297	11256.34
296.364	11256.54
296.431	11265.6
296.498	11271.86
296.564	11296.92
296.631	11304.78
296.698	11298.9
296.765	11312.97
296.832	11308.15
296.899	11296.44
296.965	11320.3
297.032	11299.18
297.099	11325.16
297.166	11333.11
297.233	11330.32
297.299	11328.05
297.366	11332.01
297.433	11332.1
297.5	11336.05
297.566	11345.31
297.633	11352.44
297.7	11351.43
297.767	11357.55
297.833	11368.2
297.9	11374.8
297.967	11356.97
298.033	11368.54
298.1	11390.47
298.167	11382.23
298.234	11385.02
298.3	11396.78
298.367	11390.66
298.434	11396.4
298.5	11388.49
298.567	11384.3
298.634	11387.67
298.7	11397.79
298.767	11398.18
298.834	11413.12
298.9	11413.36
298.967	11400.15
299.033	11403.34
299.1	11419.43
299.167	11436.35
299.233	11431.72
299.3	11438.66
299.366	11461.12
299.433	11478.71
299.5	11461.27
299.566	11471.68
299.633	11486.38
299.699	11499.49
299.766	11498.52
299.832	11508.5
299.899	11510.43
299.965	11524.4
300.032	11523.97
300.099	11533.66
300.165	11546.82
300.232	11548.65
300.298	11547.1
300.365	11568.36
300.431	11574.62
300.498	11569.08
300.564	11568.94
300.631	11577.61
300.697	11591.06
300.763	11588.26
300.83	11579.44
300.896	11591.11
300.963	11600.07
301.029	11604.31
301.096	11602.72
301.162	11607.69
301.229	11602.24
301.295	11598.34
301.361	11599.16
301.428	11608.55
301.494	11594.1
301.561	11591.93
301.627	11590.87
301.693	11602
301.76	11601.08
301.826	11599.01
301.892	11605.61
301.959	11616.99
302.025	11616.41
302.092	11609.37
302.158	11615.69
302.224	11622.68
302.291	11611.69
302.357	11604.27
302.423	11602.43
302.49	11598.1
302.556	11610.97
302.622	11610.82
302.688	11619.35
302.755	11631.74
302.821	11635.79
302.887	11647.88
302.954	11650.44
303.02	11656.66
303.086	11657.04
303.152	11652.03
303.219	11642.97
303.285	11649.72
303.351	11655.5
303.417	11654.39
303.483	11646.68
303.55	11643.55
303.616	11642.49
303.682	11650.44
303.748	11649.72
303.815	11662.1
303.881	11670.92
303.947	11654.97
304.013	11660.27
304.079	11647.02
304.145	11628.99
304.212	11626.49
304.278	11622.97
304.344	11618.24
304.41	11605.52
304.476	11596.56
304.542	11594.53
304.608	11602.44
304.674	11585.71
304.741	11574.87
304.807	11578.09
304.873	11583.69
304.939	11601.28
305.005	11581.66
305.071	11571.73
305.137	11574.19
305.203	11544.94
305.269	11540.36
305.335	11548.89
305.401	11543.39
305.467	11548.07
305.533	11557.27
305.599	11560.02
305.666	11564.02
305.732	11560.45
305.798	11569.47
305.864	11588.17
305.93	11596.02
305.996	11588.46
306.062	11587.69
306.128	11588.12
306.194	11579.16
306.259	11580.07
306.325	11567.88
306.391	11581.32
306.457	11592.6
306.523	11592.6
306.589	11617.13
306.655	11611.5
306.721	11603.01
306.787	11592.36
306.853	11597.47
306.919	11578.38
306.985	11573.42
307.051	11561.61
307.117	11557.95
307.183	11555.44
307.248	11534.57
307.314	11534.86
307.38	11543.44
307.446	11546.09
307.512	11537.51
307.578	11538.57
307.644	11535.25
307.709	11529.46
307.775	11515.63
307.841	11507.49
307.907	11501.22
307.973	11487.58
308.039	11492.16
308.104	11492.93
308.17	11492.88
308.236	11480.74
308.302	11490.04
308.368	11478.66
308.433	11482.18
308.499	11475.87
308.565	11463.05
308.631	11460.45
308.696	11441.12
308.762	11424.54
308.828	11421.02
308.894	11396.3
308.959	11374.56
309.025	11363.86
309.091	11368.06
309.156	11357.5
309.222	11350.08
309.288	11331.91
309.354	11302.13
309.419	11289.6
309.485	11268.68
309.551	11267.28
309.616	11250.37
309.682	11236.15
309.748	11219.81
309.813	11210.56
309.879	11193.88
309.945	11184.82
310.01	11174.37
310.076	11166.12
310.141	11159.28
310.207	11146.12
310.273	11150.46
310.338	11150.51
310.404	11129.26
310.469	11102.99
310.535	11099.52
310.601	11083.76
310.666	11093.35
310.732	11096.82
310.797	11082.41
310.863	11071.09
310.928	11062.99
310.994	11063.52
311.059	11060.34
311.125	11053.79
311.191	11058.66
311.256	11047.19
311.322	11038.75
311.387	11020.68
311.453	11323.87
311.518	11293.08
311.584	11281.32
311.649	11280.69
311.715	11268.35
311.78	11269.03
311.846	11261.37
311.911	11266.33
311.976	11263.73
312.042	11240.6
312.107	11232.41
312.173	11223.78
312.238	11217.32
312.304	11211.44
312.369	11202.29
312.434	11183.78
312.5	11176.7
312.565	11136.37
312.631	11139.88
312.696	11135.02
312.761	11132.51
312.827	10816.51
312.892	10848.07
312.958	10851.73
313.023	10845.32
313.088	10841.03
313.154	10828.41
313.219	10819.74
313.284	10802.29
313.35	10803.25
313.415	10799.93
313.48	10790.73
313.546	10789.96
313.611	10794.97
313.676	10781.76
313.741	10767.84
313.807	10775.11
313.872	10780.7
313.937	10787.16
314.003	10793.18
314.068	10787.3
314.133	10796.32
314.198	10782.05
314.264	10765.76
314.329	10747.16
314.394	10741.62
314.459	10738.54
314.525	10751.11
314.59	10741.96
314.655	10729.14
314.72	10727.75
314.785	10722.93
314.851	10714.35
314.916	10693.63
314.981	10675.95
315.046	10667.76
315.111	10659.71
315.176	10649.3
315.242	10646.12
315.307	10640.39
315.372	10614.71
315.437	10606.47
315.502	10583.63
315.567	10593.84
315.632	10577.36
315.698	10575.19
315.763	10567.87
315.828	10553.17
315.893	10538.29
315.958	10530.05
316.023	10519.98
316.088	10498.05
316.153	10473.39
316.218	10460.72
316.283	10442.94
316.348	10423.09
316.413	10405.36
316.479	10383.3
316.544	10338.59
316.609	10301.59
316.674	10262.81
316.739	10225.38
316.804	10182.65
316.869	10144.74
316.934	10102.44
316.999	10056.34
317.064	10002.44
317.129	9947.96
317.194	9901.53
317.259	9843.19
317.324	9786.6
317.389	9734.3
317.454	9678.33
317.518	9632.19
317.583	9591.73
317.648	9550.46
317.713	9504.37
317.778	9436.71
317.843	9395.54
317.908	9350.38
317.973	9299.09
318.038	9254.27
318.103	9205.59
318.168	9161.88
318.233	9120.9
318.297	9054.17
318.362	9009.59
318.427	8955.49
318.492	8914.52
318.557	8854.07
318.622	8819.17
318.687	8783.64
318.751	8727.53
318.816	8685.94
318.881	8639.69
318.946	8574.1
319.011	8519.96
319.075	8464.43
319.14	8418.19
319.205	8356.6
319.27	8312.34
319.335	8256.81
319.399	8209.14
319.464	8170.41
319.529	8108.31
319.594	8054.19
319.658	8012.77
319.723	7961.64
319.788	7918.16
319.853	7849.63
319.917	7813.18
319.982	7750.32
320.047	7693.67
320.112	7656.46
320.176	7593.71
320.241	7543.32
320.306	7502.17
320.37	7450.54
320.435	7410.01
320.5	7366.56
320.564	7316.58
320.629	7260.5
320.694	7213.74
320.758	7156.94
320.823	7101.48
320.888	7062.28
320.952	7001.93
321.017	6943.18
321.082	6889.9
321.146	6846.71
321.211	6803.67
321.275	6747.48
321.34	6689.23
321.405	6636.51
321.469	6574.27
321.534	6517.05
321.598	6459.68
321.663	6416.6
321.727	6371.43
321.792	6307.63
321.857	6254.59
321.921	6203.67
321.986	6151.76
322.05	6080.18
322.115	6030.95
322.179	5974.68
322.244	5906.37
322.308	5857.88
322.373	5801.44
322.437	5746.14
322.502	5697.59
322.566	5639.42
322.631	5589.32
322.695	5540.14
322.76	5482.23
322.824	5437.85
322.889	5384.32
322.953	5326.87
323.018	5251.63
323.082	5177.32
323.146	5118.46
323.211	5058.77
323.275	5002.39
323.34	4941.53
323.404	4900.31
323.468	4842.04
323.533	4786.26
323.597	4733.29
323.662	4670.59
323.726	4623.97
323.79	4565.68
323.855	4492.07
323.919	4433.85
323.983	4379.88
324.048	4298.8
324.112	4379.41
324.177	4214.91
324.241	3990.64
324.305	3767.75
324.37	3548.93
324.434	3337.43
324.498	3281.42
324.562	3215.93
324.627	3146.23
324.691	3080.32
324.755	3000.34
324.82	2913.04
324.884	2817.86
324.948	2722.78
325.012	2612.45
325.077	2469.92
