Data from 20250702_urea_2M_MAYP1162681_11-36-47-263.txt Node
Date: Wed Jul 02 11:36:47 BST 2025
User: adleo
Spectrometer: MAYP116268
Trigger mode: 0
Integration Time (sec): 1.000000E0
Scans to average: 1
Electric dark correction enabled: true
Nonlinearity correction enabled: true
Boxcar width: 10
XAxis mode: Wavelengths
Number of Pixels in Spectrum: 2068
>>>>>Begin Spectral Data<<<<<
179.565	1016.16
179.642	1064.92
179.718	1097.59
179.795	1126.94
179.871	1155.57
179.948	1167.16
180.024	1184.31
180.101	1203.65
180.177	1217.34
180.254	1236.34
180.33	1255.43
180.407	1296.05
180.483	1376.29
180.56	1451.17
180.636	1521.09
180.712	1511.11
180.789	1519.52
180.865	1532.39
180.942	1542.41
181.018	1548.29
181.095	1559.22
181.171	1567.34
181.248	1567.68
181.324	1581.4
181.4	1589.81
181.477	1600.17
181.553	1612.08
181.63	1631.8
181.706	1645.44
181.782	1652.61
181.859	1650.85
181.935	1655.31
182.011	1651.42
182.088	1666.48
182.164	1682.97
182.24	1694.32
182.317	1702.11
182.393	1699.4
182.469	1710.05
182.546	1724.16
182.622	1730.05
182.698	1726.39
182.775	1734.85
182.851	1747.87
182.927	1744.92
183.003	1739.65
183.08	1731.76
183.156	1741.36
183.232	1734.33
183.308	1724.21
183.385	1729.62
183.461	1744.54
183.537	1744.35
183.613	1754.09
183.69	1743.78
183.766	1737.46
183.842	1745.63
183.918	1749.77
183.995	1763.36
184.071	1765.45
184.147	1757.13
184.223	1747.06
184.299	1756.99
184.375	1747.06
184.452	1750.91
184.528	1799.07
184.604	1809.38
184.68	1819.78
184.756	1824.96
184.832	1830.81
184.908	1836.37
184.985	1835.61
185.061	1822.35
185.137	1830.67
185.213	1821.92
185.289	1825.25
185.365	1817.45
185.441	1816.98
185.517	1829.53
185.593	1825.59
185.669	1823.88
185.745	1835.9
185.822	1849.35
185.898	1841.46
185.974	1848.39
186.05	1841.21
186.126	1804.9
186.202	1797.34
186.278	1794.3
186.354	1785.37
186.43	1791.55
186.506	1787.18
186.582	1786.08
186.658	1792.92
186.734	1776.1
186.81	1780
186.886	1782.95
186.962	1792.59
187.038	1787.65
187.114	1780.8
187.19	1788.22
187.266	1779.85
187.341	1776
187.417	1768.83
187.493	1770.82
187.569	1774.77
187.645	1771.68
187.721	1763.03
187.797	1769.73
187.873	1775.43
187.949	1772.68
188.025	1766.64
188.101	1772.1
188.176	1779.33
188.252	1776.38
188.328	1782.74
188.404	1779.8
188.48	1776.47
188.556	1772.62
188.632	1772.96
188.707	1770.39
188.783	1767.3
188.859	1763.31
188.935	1755.32
189.011	1763.16
189.086	1756.13
189.162	1745.58
189.238	1742.35
189.314	1739.36
189.39	1734.94
189.465	1728.19
189.541	1741.16
189.617	1728.1
189.693	1722.49
189.768	1722.73
189.844	1741.98
189.92	1734.67
189.996	1742.08
190.071	1749.54
190.147	1746.31
190.223	1751.82
190.298	1747.4
190.374	1736.76
190.45	1747.45
190.526	1755.19
190.601	1750.68
190.677	1752.58
190.753	1777.49
190.828	1780.2
190.904	1791.04
190.98	1806.67
191.055	1815.13
191.131	1808.81
191.207	1826.25
191.282	1832.86
191.358	1826.16
191.433	1813.75
191.509	1825.48
191.585	1821.25
191.66	1823.25
191.736	1831.66
191.811	1826.14
191.887	1839.98
191.963	1859.37
192.038	1865.55
192.114	1863.13
192.189	1868.69
192.265	1867.45
192.34	1849.57
192.416	1847.2
192.491	1844.54
192.567	1843.16
192.642	1847.05
192.718	1847.24
192.793	1839.59
192.869	1837.36
192.944	1839.92
193.02	1849.67
193.095	1853.62
193.171	1861.13
193.246	1860.41
193.322	1856.32
193.397	1858.65
193.473	1846.48
193.548	1830.6
193.624	1836.45
193.699	1837.21
193.775	1849.05
193.85	1849.15
193.925	1859.13
194.001	1860.32
194.076	1853.62
194.152	1847.44
194.227	1838.59
194.302	1830.9
194.378	1834.13
194.453	1830.09
194.529	1839.45
194.604	1822.58
194.679	1816.16
194.755	1798.11
194.83	1808.71
194.905	1807.67
194.981	1814.99
195.056	1810.62
195.131	1815.42
195.207	1812.66
195.282	1805.48
195.357	1790.27
195.433	1803.29
195.508	1792.31
195.583	1799.87
195.659	1811.04
195.734	1818.22
195.809	1818.74
195.884	1826.39
195.96	1824.25
196.035	1838.93
196.11	1836.03
196.185	1847.96
196.261	1850.72
196.336	1879.43
196.411	1866.07
196.486	1869.2
196.561	1862.07
196.637	1869.58
196.712	1887.08
196.787	1890.36
196.862	1901.96
196.937	1908.42
197.013	1912.04
197.088	1920.02
197.163	1937.91
197.238	1953.22
197.313	1951.99
197.388	1961.35
197.464	1984.99
197.539	1994.83
197.614	1990.88
197.689	2001.68
197.764	2016.23
197.839	2036.39
197.914	2030.78
197.989	2049.71
198.065	2063.78
198.14	2108.66
198.215	2132.44
198.29	2138.11
198.365	2147.43
198.44	2158.75
198.515	2184.25
198.59	2199.24
198.665	2224.45
198.74	2230.88
198.815	2232.31
198.89	2251.34
198.965	2277.89
199.04	2277.89
199.115	2291.59
199.19	2329.66
199.265	2330.42
199.34	2338.28
199.415	2369.37
199.49	2387.98
199.565	2395.35
199.64	2416.44
199.715	2413.48
199.79	2416.63
199.865	2428.1
199.94	2426.96
200.015	2455.77
200.09	2462
200.165	2469.1
200.24	2472.91
200.315	2510.6
200.39	2525.6
200.464	2531.93
200.539	2534.22
200.614	2549.36
200.689	2570.26
200.764	2575.07
200.839	2592.68
200.914	2599.44
200.989	2588.25
201.063	2601.49
201.138	2590.68
201.213	2592.49
201.288	2575.02
201.363	2581.02
201.438	2574.92
201.512	2590.97
201.587	2572.29
201.662	2574.01
201.737	2581.25
201.812	2587.25
201.886	2555.37
201.961	2564.32
202.036	2556.09
202.111	2552.04
202.186	2524.81
202.26	2509.76
202.335	2488.76
202.41	2483.48
202.485	2468.53
202.559	2451.96
202.634	2427.68
202.709	2434.01
202.784	2414.16
202.858	2414.83
202.933	2397.69
203.008	2397.36
203.082	2377.84
203.157	2379.84
203.232	2343.06
203.306	2325.78
203.381	2298.41
203.456	2278.7
203.53	2258.79
203.605	2240
203.68	2220.25
203.754	2214.97
203.829	2201.08
203.904	2183.67
203.978	2173.86
204.053	2176.05
204.127	2164.54
204.202	2163.68
204.277	2150.89
204.351	2147.89
204.426	2139.8
204.5	2132.81
204.575	2101.99
204.65	2110.84
204.724	2103.65
204.799	2112.01
204.873	2107.4
204.948	2108.3
205.022	2097.56
205.097	2089.51
205.171	2098.69
205.246	2107.78
205.32	2104.93
205.395	2104.36
205.469	2100.93
205.544	2103.03
205.618	2088.71
205.693	2097.27
205.767	2086.76
205.842	2104.08
205.916	2096.14
205.991	2089.57
206.065	2096.8
206.14	2109.64
206.214	2106.64
206.289	2100.5
206.363	2112.06
206.438	2113.44
206.512	2118.2
206.586	2135.08
206.661	2141.13
206.735	2124.2
206.81	2122.44
206.884	2136.04
206.958	2125.48
207.033	2139.37
207.107	2148.75
207.181	2176.96
207.256	2172.83
207.33	2189.76
207.405	2199.62
207.479	2216.36
207.553	2222.88
207.628	2206.52
207.702	2216.03
207.776	2212.32
207.851	2215.13
207.925	2225.69
207.999	2226.84
208.073	2224.27
208.148	2228.07
208.222	2219.22
208.296	2246.43
208.371	2264.28
208.445	2275.23
208.519	2300.58
208.593	2307.2
208.668	2306.06
208.742	2306.34
208.816	2308.58
208.89	2317.19
208.965	2318
209.039	2324.1
209.113	2339.66
209.187	2359.11
209.261	2356.64
209.336	2371.68
209.41	2387.86
209.484	2389.77
209.558	2407.1
209.632	2419.71
209.707	2428.04
209.781	2445.51
209.855	2459.6
209.929	2471.04
210.003	2475.9
210.077	2480.56
210.151	2524.78
210.226	2552.18
210.3	2579.1
210.374	2598.34
210.448	2606.96
210.522	2617.72
210.596	2630.87
210.67	2640.82
210.744	2681.6
210.818	2709.46
210.892	2732.47
210.966	2729.42
211.041	2745.24
211.115	2747.24
211.189	2772.82
211.263	2790.97
211.337	2801.12
211.411	2818.9
211.485	2821.09
211.559	2840.67
211.633	2845.48
211.707	2827.5
211.781	2843.1
211.855	2821.94
211.929	2828.32
212.003	2821.79
212.077	2842.06
212.151	2867.57
212.225	2890.93
212.299	2898.03
212.373	2903.71
212.447	2916.73
212.52	2964.26
212.594	2989.16
212.668	3024.06
212.742	3036.74
212.816	3061.26
212.89	3089.11
212.964	3118.26
213.038	3156.25
213.112	3201.2
213.186	3251.81
213.26	3272.98
213.333	3277.47
213.407	3328.13
213.481	3379.7
213.555	3448.59
213.629	3491.53
213.703	3530.88
213.777	3588.73
213.85	3637.31
213.924	3731.24
213.998	3800.39
214.072	3863.78
214.146	3927.16
214.219	3994.99
214.293	4074.77
214.367	4161.94
214.441	4255.54
214.515	4338.59
214.588	4413.47
214.662	4479.31
214.736	4566.54
214.81	4679.26
214.883	4789.64
214.957	4893.86
215.031	4993.2
215.105	5080.82
215.178	5187.33
215.252	5306.84
215.326	5402.6
215.4	5506.69
215.473	5598.19
215.547	5713.17
215.621	5830.81
215.694	5971.45
215.768	6094.85
215.842	6223.22
215.915	6352.38
215.989	6476.26
216.063	6615.35
216.136	6762.33
216.21	6907.6
216.284	7062.99
216.357	7212.53
216.431	7364.73
216.504	7519.76
216.578	7700.69
216.652	7870.43
216.725	8025.97
216.799	8190.93
216.873	8361.79
216.946	8528.76
217.02	8685.9
217.093	8843.51
217.167	8991.42
217.24	9146.3
217.314	9310.46
217.387	9470.06
217.461	9625.64
217.535	9793.23
217.608	9941.38
217.682	10100.96
217.755	10272.53
217.829	10416.91
217.902	10579.7
217.976	10742.02
218.049	10893.7
218.123	11037.54
218.196	11198.15
218.27	11354.58
218.343	11496.7
218.417	11649.92
218.49	11813.54
218.563	11991.87
218.637	12151.79
218.71	12324.3
218.784	12476.76
218.857	12643.3
218.931	12795.33
219.004	12948.09
219.077	13112.71
219.151	13268.31
219.224	13412.01
219.298	13567.13
219.371	13732.86
219.444	13862.68
219.518	14005.41
219.591	14153.07
219.665	14314.41
219.738	14453.62
219.811	14580.88
219.885	14730.36
219.958	14874.25
220.031	15000.16
220.105	15120.38
220.178	15250.19
220.251	15375.8
220.325	15501.8
220.398	15622.78
220.471	15752.59
220.544	15883.93
220.618	15990.88
220.691	16106.42
220.764	16225.9
220.838	16339.98
220.911	16447.71
220.984	16573.93
221.057	16685.32
221.131	16790.34
221.204	16870.77
221.277	16989.96
221.35	17124.86
221.424	17215.17
221.497	17310.79
221.57	17415.03
221.643	17523.51
221.716	17626.21
221.79	17706.12
221.863	17792.24
221.936	17874.84
222.009	17951.7
222.082	18037
222.155	18124.23
222.229	18221.62
222.302	18301.67
222.375	18373.57
222.448	18455.68
222.521	18536.45
222.594	18611.24
222.667	18676.44
222.74	18759.52
222.814	18825.35
222.887	18882.75
222.96	18962.16
223.033	19038.21
223.106	19097.77
223.179	19157.81
223.252	19215.02
223.325	19274.05
223.398	19335.44
223.471	19400.06
223.544	19465.84
223.617	19519.43
223.69	19570.75
223.763	19604.87
223.837	19654.03
223.91	19708.77
223.983	19749.35
224.056	19780.33
224.129	19822.84
224.202	19880.18
224.275	19911.84
224.348	19944.9
224.42	19975.22
224.493	19988.76
224.566	20022.68
224.639	20068.18
224.712	20101.77
224.785	20138.68
224.858	20183.89
224.931	20220.95
225.004	20233.76
225.077	20264.08
225.15	20275.69
225.223	20307.93
225.296	20367.64
225.369	20392.13
225.442	20422.25
225.514	20445.09
225.587	20481.28
225.66	20506.68
225.733	20533.67
225.806	20562.49
225.879	20581.62
225.952	20592.03
226.025	20634.68
226.097	20663.69
226.17	20683.02
226.243	20679.16
226.316	20688.32
226.389	20702.49
226.461	20720.85
226.534	20746.35
226.607	20758.97
226.68	20787.7
226.753	20787.17
226.825	20773
226.898	20796.08
226.971	20798.2
227.044	20817.72
227.117	20825.53
227.189	20854.98
227.262	20869.53
227.335	20884.13
227.407	20897.29
227.48	20923.17
227.553	20938.45
227.626	20939.94
227.698	20940.09
227.771	20957.39
227.844	20956.86
227.916	20961.73
227.989	20949.15
228.062	20953.68
228.134	20978.02
228.207	20983.22
228.28	20988.57
228.352	20993.3
228.425	21000.53
228.498	21005.3
228.57	20999.27
228.643	21009.92
228.716	21003.66
228.788	20998.55
228.861	20996.62
228.934	21013.35
229.006	21007.32
229.079	20998.5
229.151	20995.37
229.224	20984.62
229.296	20981.87
229.369	21011.37
229.442	21020.29
229.514	21020.67
229.587	21031.13
229.659	21010.94
229.732	21021.11
229.804	21028.77
229.877	21048.34
229.949	21051.76
230.022	21067.09
230.094	21068
230.167	21075.62
230.239	21068.19
230.312	21059.37
230.384	21070.7
230.457	21059.09
230.529	21059.23
230.602	21064.53
230.674	21060.97
230.747	21067.86
230.819	21079.38
230.892	21045.45
230.964	21044.82
231.037	21046.89
231.109	21030.7
231.181	21032.87
231.254	21007.95
231.326	20996.24
231.399	20983.32
231.471	20964.14
231.544	20942.79
231.616	20935.66
231.688	20920.81
231.761	20897.39
231.833	20887.56
231.905	20862.54
231.978	20850.83
232.05	20833
232.122	20813.87
232.195	20793.24
232.267	20808.03
232.339	20791.36
232.412	20788.47
232.484	20770.97
232.556	20758.25
232.629	20776.8
232.701	20773.86
232.773	20776.8
232.846	20766.3
232.918	20760.85
232.99	20754.59
233.062	20752.95
233.135	20746.59
233.207	20723.5
233.279	20723.6
233.351	20720.37
233.424	20700.61
233.496	20679.74
233.568	20683.98
233.64	20659.93
233.713	20644.56
233.785	20614.78
233.857	20604.56
233.929	20582.49
234.001	20582.49
234.074	20579.11
234.146	20540.8
234.218	20516.89
234.29	20485.18
234.362	20462
234.434	20416.89
234.507	20398.87
234.579	20361.09
234.651	20340.56
234.723	20324.51
234.795	20306.97
234.867	20287.69
234.939	20285.76
235.012	20278.2
235.084	20267.45
235.156	20254.78
235.228	20237.52
235.3	20210.1
235.372	20187.4
235.444	20172.17
235.516	20132.27
235.588	20113.19
235.66	20099.45
235.732	20070.83
235.804	20105.24
235.876	20098.06
235.948	20104.56
236.02	20068.76
236.092	20051.31
236.164	20028.76
236.236	20004.81
236.308	19972.95
236.38	19946.01
236.452	19913.77
236.524	19880.38
236.596	19875.75
236.668	19860.23
236.74	19838.6
236.812	19822.16
236.884	19802.26
236.956	19780.86
237.028	19749.16
237.1	19711.71
237.172	19690.41
237.244	19683.95
237.316	19622.61
237.388	19578.9
237.46	19538.18
237.532	19527.57
237.604	19496.2
237.675	19479.29
237.747	19468.98
237.819	19441.65
237.891	19419.73
237.963	19388.93
238.035	19349.27
238.107	19273.42
238.178	19252.75
238.25	19216.51
238.322	19212.56
238.394	19172.03
238.466	19142.54
238.538	19121.86
238.609	19101.09
238.681	19053.53
238.753	19022.3
238.825	19000.57
238.897	18983.51
238.968	18981.92
239.04	18950.6
239.112	18945.92
239.184	18903.85
239.255	18865.11
239.327	18840.72
239.399	18810.56
239.471	18783.14
239.542	18775.43
239.614	18766.95
239.686	18721.65
239.758	18712.11
239.829	18665.31
239.901	18656.25
239.973	18627.87
240.044	18597.17
240.116	18568.45
240.188	18544.02
240.259	18511.97
240.331	18472.7
240.403	18449.04
240.474	18394.1
240.546	18352.37
240.618	18306.92
240.689	18277.29
240.761	18255.75
240.833	18251.7
240.904	18223.07
240.976	18196.18
241.048	18169.44
241.119	18142.11
241.191	18113.97
241.262	18090.31
241.334	18053.63
241.405	18014.41
241.477	17978.99
241.549	17952.87
241.62	17926.55
241.692	17909.3
241.763	17883.66
241.835	17855.57
241.906	17823.86
241.978	17782.41
242.049	17769.98
242.121	17739.67
242.192	17720.58
242.264	17673.4
242.335	17618.56
242.407	17593.6
242.478	17554.56
242.55	17517.02
242.621	17477.12
242.693	17448.1
242.764	17410.08
242.836	17380.25
242.907	17352.73
242.979	17327.72
243.05	17302.42
243.122	17274.61
243.193	17231.14
243.264	17185.45
243.336	17149.31
243.407	17124.1
243.479	17111.43
243.55	17080.29
243.622	17057.45
243.693	17019.95
243.764	16997.98
243.836	16954.22
243.907	16914.94
243.978	16880.38
244.05	16855.75
244.121	16811.7
244.192	16784.95
244.264	16738.45
244.335	16707.99
244.407	16659.84
244.478	16633.33
244.549	16591.83
244.62	16546.1
244.692	16516.55
244.763	16490.09
244.834	16456.93
244.906	16414.71
244.977	16388.44
245.048	16370.71
245.119	16327.91
245.191	16294.46
245.262	16247.76
245.333	16236.62
245.405	16204.38
245.476	16188.47
245.547	16157.87
245.618	16136.52
245.689	16099.4
245.761	16084.03
245.832	16052.8
245.903	16037.76
245.974	16010.43
246.045	15981.75
246.117	15964.54
246.188	15923.77
246.259	15885.16
246.33	15844.81
246.401	15821.2
246.473	15774.49
246.544	15735.69
246.615	15717.81
246.686	15687.25
246.757	15669.27
246.828	15629.7
246.899	15615.38
246.97	15563.71
247.042	15523.56
247.113	15500.66
247.184	15494.3
247.255	15452.56
247.326	15425.13
247.397	15389.37
247.468	15355.82
247.539	15327.72
247.61	15284.34
247.681	15261.83
247.752	15243.56
247.823	15207.93
247.894	15174.1
247.965	15135.39
248.037	15099.96
248.108	15052.63
248.179	15020.18
248.25	14988.23
248.321	14957.33
248.392	14918.43
248.463	14907.24
248.534	14883.29
248.605	14868.92
248.675	14830.17
248.746	14807.8
248.817	14786.78
248.888	14758.68
248.959	14715.15
249.03	14690.81
249.101	14661.79
249.172	14633.69
249.243	14590.25
249.314	14581.53
249.385	14553.33
249.456	14532.79
249.527	14498.13
249.598	14481.89
249.669	14448.39
249.739	14425.54
249.81	14406.4
249.881	14366.49
249.952	14345.56
250.023	14311.39
250.094	14260.77
250.165	14227.51
250.235	14191.36
250.306	14161.28
250.377	14128.93
250.448	14109.6
250.519	14067.56
250.59	14053.82
250.66	14023.89
250.731	14005.38
250.802	13974.24
250.873	13953.22
250.944	13926.85
251.014	13899.71
251.085	13889.39
251.156	13871.46
251.227	13858.64
251.297	13841.72
251.368	13826.87
251.439	13804.98
251.51	13791.53
251.58	13764.49
251.651	13733.4
251.722	13724.82
251.792	13680.51
251.863	13647.49
251.934	13635.97
252.005	13640.7
252.075	13615.97
252.146	13605.5
252.217	13597.02
252.287	13581.74
252.358	13554.6
252.429	13546.31
252.499	13515.99
252.57	13496.9
252.641	13487.11
252.711	13460.4
252.782	13423.81
252.852	13415.14
252.923	13390.07
252.994	13372.38
253.064	13362.45
253.135	13333.33
253.205	13300.5
253.276	13295.63
253.347	13286.47
253.417	13252.83
253.488	13214.45
253.558	13189.05
253.629	13157.76
253.699	13135.35
253.77	13119.68
253.841	13101.31
253.911	13082.66
253.982	13063.09
254.052	13049.25
254.123	13022.74
254.193	13000.95
254.264	13016.81
254.334	12982.24
254.405	12952.74
254.475	12920.54
254.546	12898.8
254.616	12893.88
254.687	12877.78
254.757	12855.7
254.827	12835.7
254.898	12819.6
254.968	12798.34
255.039	12768.74
255.109	12758.96
255.18	12726.37
255.25	12684.96
255.321	12666.79
255.391	12630.97
255.461	12631.84
255.532	12583.34
255.602	12559.14
255.673	12511.04
255.743	12476.52
255.813	12438.83
255.884	12427.45
255.954	12418.77
256.024	12403.83
256.095	12380.45
256.165	12349.41
256.235	12329.31
256.306	12304.53
256.376	12293.2
256.446	12283.85
256.517	12272.91
256.587	12260.76
256.657	12237.82
256.728	12222.1
256.798	12197.91
256.868	12177.85
256.938	12146.28
257.009	12134.57
257.079	12117.5
257.149	12127
257.219	12091.28
257.29	12081.79
257.36	12045.01
257.43	12023.12
257.5	11988.13
257.571	11963.45
257.641	11951.98
257.711	11924.07
257.781	11907.3
257.852	11892.64
257.922	11846.76
257.992	11829.55
258.062	11803.76
258.132	11797.45
258.202	11769.3
258.273	11758.02
258.343	11753.92
258.413	11731.85
258.483	11713.92
258.553	11682.45
258.623	11655.5
258.693	11642.78
258.764	11633.91
258.834	11630.87
258.904	11613.96
258.974	11587.83
259.044	11563.74
259.114	11546.34
259.184	11526.82
259.254	11512.7
259.324	11471.54
259.394	11462.72
259.464	11456.16
259.535	11434.95
259.605	11411.58
259.675	11386.28
259.745	11362.37
259.815	11332.97
259.885	11303.29
259.955	11306.52
260.025	11284.64
260.095	11268.93
260.165	11248.78
260.235	11246.27
260.305	11215.72
260.375	11185.84
260.445	11197.16
260.515	11193.55
260.585	11189.79
260.655	11184.44
260.725	11168.49
260.795	11163
260.865	11168.3
260.934	11145.6
261.004	11133.6
261.074	11118.95
261.144	11124.83
261.214	11119.09
261.284	11095.14
261.354	11090.13
261.424	11060.73
261.494	11060.49
261.564	11036.73
261.634	11024.64
261.703	10987
261.773	10981.22
261.843	10971.92
261.913	10943.68
261.983	10912.31
262.053	10896.5
262.123	10869.76
262.192	10846.48
262.262	10841.28
262.332	10811.26
262.402	10796.56
262.472	10781.19
262.541	10742.01
262.611	10729.48
262.681	10699.66
262.751	10699.32
262.821	10685.2
262.89	10655.52
262.96	10645.06
263.03	10653.83
263.1	10637.21
263.169	10623.62
263.239	10604.83
263.309	10602.52
263.379	10589.51
263.448	10582.33
263.518	10566.76
263.588	10560.55
263.657	10557.37
263.727	10543.93
263.797	10529.37
263.867	10503.45
263.936	10478.16
264.006	10477.15
264.076	10460.86
264.145	10447.95
264.215	10424.29
264.285	10411.91
264.354	10384.35
264.424	10359.93
264.494	10328.51
264.563	10311.94
264.633	10318.44
264.702	10311.12
264.772	10275.85
264.842	10256.83
264.911	10246.32
264.981	10223.97
265.05	10202.1
265.12	10184.66
265.19	10170.35
265.259	10161.43
265.329	10159.65
265.398	10149.39
265.468	10157.24
265.537	10134.55
265.607	10128.68
265.676	10128.15
265.746	10117.98
265.815	10115.48
265.885	10103.87
265.955	10078.15
266.024	10061.82
266.094	10025.54
266.163	10021.78
266.232	10021.21
266.302	10009.64
266.371	9999.53
266.441	9988.4
266.51	9983.15
266.58	9963.55
266.649	9938.64
266.719	9936.81
266.788	9926.89
266.858	9927.71
266.927	9894.57
266.996	9888.93
267.066	9875.83
267.135	9839.08
267.205	9836.14
267.274	9821.36
267.343	9817.07
267.413	9807.73
267.482	9809.17
267.552	9804.16
267.621	9776.03
267.69	9754.41
267.76	9734.47
267.829	9717.61
267.898	9701.33
267.968	9679.37
268.037	9680.67
268.106	9681.15
268.176	9652.59
268.245	9635.11
268.314	9611.27
268.384	9608.09
268.453	9595.66
268.522	9585.5
268.592	9592.58
268.661	9573.36
268.73	9565.22
268.799	9542.35
268.869	9551.21
268.938	9521.88
269.007	9503.63
269.076	9489.62
269.146	9483.07
269.215	9483.11
269.284	9487.21
269.353	9471.99
269.422	9465.49
269.492	9441.41
269.561	9398.56
269.63	9396.2
269.699	9380.21
269.768	9369.76
269.838	9357.63
269.907	9352.04
269.976	9332.1
270.045	9303.17
270.114	9291.32
270.183	9283.42
270.253	9281.69
270.322	9251.84
270.391	9244.13
270.46	9246.59
270.529	9253.47
270.598	9251.21
270.667	9234.7
270.736	9209.7
270.806	9197.67
270.875	9195.6
270.944	9189.24
271.013	9215.29
271.082	9208.6
271.151	9205.71
271.22	9183.85
271.289	9175.33
271.358	9159.97
271.427	9151.21
271.496	9144.76
271.565	9133.39
271.634	9124.78
271.703	9147.8
271.772	9141.2
271.841	9128.54
271.91	9106.1
271.979	9091.8
272.048	9068.31
272.117	9068.36
272.186	9056.8
272.255	9062.29
272.324	9054.01
272.393	9040.73
272.462	9020.55
272.531	9008.9
272.6	8999.7
272.669	9008.37
272.738	8994.02
272.807	8987.77
272.876	8965.34
272.945	8990.42
273.013	8989.02
273.082	8986.04
273.151	8940.83
273.22	8942.65
273.289	8935.19
273.358	8943.62
273.427	8927.97
273.496	8932.64
273.564	8925.47
273.633	8927.97
273.702	8909.68
273.771	8898.9
273.84	8896.73
273.909	8891.29
273.977	8884.79
274.046	8868.62
274.115	8861.01
274.184	8850.71
274.253	8846.77
274.322	8855.14
274.39	8826.88
274.459	8815.76
274.528	8796.8
274.597	8790.59
274.665	8786.35
274.734	8785.53
274.803	8774.22
274.872	8766.57
274.94	8749.34
275.009	8800.48
275.078	8784.93
275.147	8779.06
275.215	8774.15
275.284	8778.19
275.353	8771.02
275.421	8748.11
275.49	8764.09
275.559	8759.23
275.627	8748.6
275.696	8742.2
275.765	8745.32
275.833	8729.25
275.902	8723.47
275.971	8721.21
276.039	8728.1
276.108	8728.96
276.177	8734.3
276.245	8730.02
276.314	8729.88
276.383	8734.59
276.451	8679.6
276.52	8678.74
276.588	8688.17
276.657	8696.16
276.725	8683.5
276.794	8684.03
276.863	8697.6
276.931	8674.88
277	8675.41
277.068	8685.47
277.137	8694.33
277.205	8689.13
277.274	8708.67
277.342	8718.92
277.411	8709.78
277.48	8705.78
277.548	8692.64
277.617	8690.76
277.685	8682.63
277.754	8683.06
277.822	8672.67
277.89	8683.12
277.959	8681.43
278.027	8667.47
278.096	8653.61
278.164	8682.64
278.233	8676.57
278.301	8666.95
278.37	8673.64
278.438	8663.24
278.507	8660.93
278.575	8641.68
278.643	8636.48
278.712	8614.73
278.78	8603.85
278.849	8613.67
278.917	8613.28
278.985	8611.84
279.054	8613.57
279.122	8614.44
279.191	8613.48
279.259	8612.18
279.327	8588.06
279.396	8600.67
279.464	8596.49
279.532	8595.52
279.601	8588.83
279.669	8583.06
279.737	8592.78
279.806	8594.27
279.874	8600.53
279.942	8603.46
280.011	8601.44
280.079	8609.77
280.147	8628.39
280.215	8627.19
280.284	8622.86
280.352	8612.65
280.42	8618.09
280.488	8607.26
280.557	8608.37
280.625	8610.97
280.693	8614.53
280.761	8616.5
280.83	8603.17
280.898	8618.04
280.966	8606.49
281.034	8571.94
281.102	8561.54
281.171	8555.63
281.239	8556.35
281.307	8551.25
281.375	8541.53
281.443	8558.08
281.512	8550
281.58	8553.17
281.648	8540.71
281.716	8544.03
281.784	8547.11
281.852	8540.47
281.92	8540.32
281.989	8551.54
282.057	8538.64
282.125	8570.41
282.193	8567.86
282.261	8567.43
282.329	8554.19
282.397	8563.86
282.465	8573.87
282.533	8587.25
282.601	8578.3
282.67	8564.39
282.738	8555.15
282.806	8565.02
282.874	8552.21
282.942	8558.18
283.01	8556.54
283.078	8563.43
283.146	8553.9
283.214	8564
283.282	8568.34
283.35	8574.16
283.418	8564.44
283.486	8561.74
283.554	8527.95
283.622	8525.64
283.69	8525.21
283.758	8526.61
283.826	8521.99
283.894	8528.1
283.962	8535.08
284.03	8543.59
284.098	8544.65
284.165	8543.88
284.233	8546.58
284.301	8546.19
284.369	8541.14
284.437	8528.77
284.505	8521.99
284.573	8534.93
284.641	8525.74
284.709	8530.45
284.777	8519.14
284.845	8524.78
284.912	8534.35
284.98	8537.24
285.048	8535.75
285.116	8533.97
285.184	8544.02
285.252	8549.13
285.319	8538.92
285.387	8537.82
285.455	8527.86
285.523	8530.31
285.591	8526.89
285.659	8521.07
285.726	8528.63
285.794	8512.8
285.862	8511.64
285.93	8511.59
285.997	8504.61
286.065	8494.56
286.133	8482.48
286.201	8478.97
286.269	8461.16
286.336	8456.92
286.404	8445.76
286.472	8454.66
286.539	8440.28
286.607	8419.25
286.675	8415.45
286.743	8415.01
286.81	8406.4
286.878	8418.57
286.946	8409.48
287.013	8408.71
287.081	8409.58
287.149	8399.47
287.216	8419.49
287.284	8414.1
287.352	8416.17
287.419	8411.5
287.487	8423.77
287.555	8427.33
287.622	8427.38
287.69	8434.36
287.758	8436.14
287.825	8438.64
287.893	8426.75
287.96	8430.65
288.028	8444.89
288.096	8452.35
288.163	8451.97
288.231	8442.83
288.298	8441.38
288.366	8460.58
288.433	8461.55
288.501	8447.16
288.569	8446.44
288.636	8436.38
288.704	8444.94
288.771	8449.23
288.839	8443.41
288.906	8438.21
288.974	8445.67
289.041	8443.55
289.109	8438.69
289.176	8450.48
289.244	8457.94
289.311	8475.75
289.379	8486.23
289.446	8486.52
289.514	8481.28
289.581	8491.43
289.649	8499.08
289.716	8495.71
289.783	8489.02
289.851	8505.96
289.918	8512.99
289.986	8521.12
290.053	8522.66
290.121	8529.78
290.188	8532.19
290.255	8564.05
290.323	8560.73
290.39	8560.1
290.458	8568.76
290.525	8578.96
290.592	8574.54
290.66	8574.49
290.727	8561.4
290.794	8574.73
290.862	8576.75
290.929	8577.76
290.996	8572.71
291.064	8576.65
291.131	8584.93
291.198	8592.44
291.266	8589.12
291.333	8594.07
291.4	8601.73
291.468	8623.34
291.535	8615.97
291.602	8626.66
291.669	8620.3
291.737	8624.97
291.804	8620.21
291.871	8632.48
291.938	8639.84
292.006	8666.42
292.073	8674.5
292.14	8692.84
292.207	8686.97
292.275	8690.19
292.342	8702.13
292.409	8726
292.476	8750.74
292.543	8746.75
292.611	8751.85
292.678	8769.95
292.745	8791.6
292.812	8798.97
292.879	8791.99
292.946	8801.18
293.014	8813.55
293.081	8815.67
293.148	8826.36
293.215	8846.57
293.282	8843.78
293.349	8855.19
293.416	8837.62
293.484	8853.89
293.551	8860.77
293.618	8877.47
293.685	8901.35
293.752	8897.26
293.819	8897.35
293.886	8885.85
293.953	8894.95
294.02	8897.5
294.087	8897.69
294.154	8896.05
294.221	8909.87
294.288	8916.32
294.356	8929.03
294.423	8931.63
294.49	8928.98
294.557	8942.75
294.624	8932.69
294.691	8956.13
294.758	8953.77
294.825	8959.5
294.892	8950.98
294.959	8944.77
295.026	8950.69
295.093	8942.7
295.16	8944.48
295.226	8945.2
295.293	8969.23
295.36	8975.48
295.427	8993.88
295.494	9005.91
295.561	9011.16
295.628	9031.96
295.695	9045.44
295.762	9045.34
295.829	9055.36
295.896	9073.99
295.963	9083.38
296.03	9098.25
296.096	9093.25
296.163	9108.36
296.23	9125.36
296.297	9145.63
296.364	9150.87
296.431	9157.37
296.498	9153.52
296.564	9179.71
296.631	9182.6
296.698	9169.02
296.765	9193.05
296.832	9181.49
296.899	9173.74
296.965	9189.29
297.032	9174.03
297.099	9186.35
297.166	9198.78
297.233	9195.12
297.299	9187.46
297.366	9185.54
297.433	9183.56
297.5	9198.92
297.566	9197.86
297.633	9198.63
297.7	9192.37
297.767	9195.5
297.833	9201.95
297.9	9210.62
297.967	9199.88
298.033	9210.67
298.1	9239.85
298.167	9230.65
298.234	9236.96
298.3	9243.6
298.367	9245.48
298.434	9253.72
298.5	9247.6
298.567	9241
298.634	9237.39
298.7	9251.55
298.767	9253.62
298.834	9267.2
298.9	9261.8
298.967	9251.31
299.033	9260.36
299.1	9275.19
299.167	9287.32
299.233	9282.36
299.3	9296.23
299.366	9310.29
299.433	9322.95
299.5	9299.36
299.566	9297.72
299.633	9312.26
299.699	9330.27
299.766	9320.26
299.832	9321.85
299.899	9328.2
299.965	9335.71
300.032	9335.71
300.099	9342.02
300.165	9353.53
300.232	9351.99
300.298	9353.1
300.365	9374.91
300.431	9376.02
300.498	9373.66
300.564	9381.89
300.631	9391.76
300.697	9404.09
300.763	9404.19
300.83	9401.54
300.896	9419.93
300.963	9429.85
301.029	9434.72
301.096	9434.67
301.162	9450.85
301.229	9450.75
301.295	9447.62
301.361	9457.88
301.428	9465.63
301.494	9453.5
301.561	9453.4
301.627	9460.09
301.693	9464.91
301.76	9465.05
301.826	9456.43
301.892	9464.09
301.959	9465.92
302.025	9464.96
302.092	9459.08
302.158	9458.99
302.224	9462.69
302.291	9451.95
302.357	9447.96
302.423	9438.28
302.49	9426.48
302.556	9430.96
302.622	9424.07
302.688	9435.53
302.755	9444.54
302.821	9447.53
302.887	9457.16
302.954	9454.03
303.02	9455.86
303.086	9460.38
303.152	9454.99
303.219	9452.34
303.285	9456
303.351	9463.27
303.417	9462.17
303.483	9455.38
303.55	9444.25
303.616	9444.64
303.682	9441.07
303.748	9438.91
303.815	9455.91
303.881	9468.62
303.947	9460.58
304.013	9463.61
304.079	9446.61
304.145	9429.33
304.212	9431.68
304.278	9426.1
304.344	9416.95
304.41	9406.07
304.476	9393.84
304.542	9393.31
304.608	9401.54
304.674	9386.85
304.741	9382.47
304.807	9385.12
304.873	9385.79
304.939	9413.77
305.005	9393.16
305.071	9389.55
305.137	9388.78
305.203	9365.52
305.269	9364.08
305.335	9374.24
305.401	9370.77
305.467	9374.57
305.533	9379.77
305.599	9385.12
305.666	9395.23
305.732	9402.17
305.798	9413.63
305.864	9441.17
305.93	9445.36
305.996	9442.23
306.062	9444.78
306.128	9434.14
306.194	9426.58
306.259	9419.36
306.325	9400.29
306.391	9411.07
306.457	9424.17
306.523	9428.26
306.589	9450.13
306.655	9439.1
306.721	9419.16
306.787	9410.45
306.853	9425.86
306.919	9410.69
306.985	9395.19
307.051	9392.06
307.117	9388.64
307.183	9382.52
307.248	9356.52
307.314	9356.32
307.38	9354.35
307.446	9353.19
307.512	9351.36
307.578	9350.45
307.644	9349.87
307.709	9359.65
307.775	9356.8
307.841	9346.98
307.907	9348.14
307.973	9326.23
308.039	9326.8
308.104	9333.93
308.17	9336.48
308.236	9316.4
308.302	9323.33
308.368	9318.42
308.433	9312.64
308.499	9303.21
308.565	9291.31
308.631	9289.24
308.696	9268.93
308.762	9261.56
308.828	9255.25
308.894	9237.15
308.959	9220.01
309.025	9213.46
309.091	9197.52
309.156	9189.38
309.222	9193.48
309.288	9178.07
309.354	9155.78
309.419	9153.04
309.485	9141.09
309.551	9139.02
309.616	9127.52
309.682	9125.4
309.748	9119.53
309.813	9114.57
309.879	9109.08
309.945	9097.81
310.01	9090.4
310.076	9091.99
310.141	9084.96
310.207	9080.19
310.273	9078.7
310.338	9081.68
310.404	9071.72
310.469	9065.17
310.535	9061.9
310.601	9038.59
310.666	9039.41
310.732	9058.53
310.797	9040.9
310.863	9033.25
310.928	9028.72
310.994	9029.54
311.059	9013.41
311.125	9005.18
311.191	9010.53
311.256	9000.95
311.322	9007.16
311.387	8988.29
311.453	9207.5
311.518	9185.45
311.584	9180.3
311.649	9185.36
311.715	9172.5
311.78	9168.89
311.846	9160.95
311.911	9160.42
311.976	9165.28
312.042	9156.23
312.107	9130.48
312.173	9128.31
312.238	9117.77
312.304	9112.43
312.369	9102.65
312.434	9097.98
312.5	9094.81
312.565	9065.35
312.631	9063.37
312.696	9052.64
312.761	9060.39
312.827	8835.45
312.892	8865.29
312.958	8860.72
313.023	8856.87
313.088	8852.88
313.154	8840.6
313.219	8832.13
313.284	8817.5
313.35	8810.61
313.415	8799.4
313.48	8803.78
313.546	8806.86
313.611	8812.25
313.676	8801.03
313.741	8793.67
313.807	8796.22
313.872	8797.33
313.937	8803.34
314.003	8814.61
314.068	8814.56
314.133	8814.99
314.198	8801.52
314.264	8779.76
314.329	8770.8
314.394	8763.2
314.459	8760.21
314.525	8773.98
314.59	8767.96
314.655	8761.08
314.72	8764.5
314.785	8766.91
314.851	8756.89
314.916	8740.43
314.981	8725.03
315.046	8713.19
315.111	8704.72
315.176	8695.19
315.242	8695.72
315.307	8689.51
315.372	8669.63
315.437	8657.94
315.502	8650.82
315.567	8661.21
315.632	8652.12
315.698	8655.2
315.763	8649.37
315.828	8639.56
315.893	8635.22
315.958	8632.91
316.023	8616.7
316.088	8594.75
316.153	8569.06
316.218	8561.45
316.283	8539.13
316.348	8524.69
316.413	8527.53
316.479	8506.6
316.544	8477.73
316.609	8451.12
316.674	8416.29
316.739	8377.66
316.804	8347.45
316.869	8306.84
316.934	8264.06
316.999	8227.11
317.064	8174.87
317.129	8133.88
317.194	8104.15
317.259	8055.03
317.324	8003.66
317.389	7963.5
317.454	7926.03
317.518	7892.27
317.583	7865.96
317.648	7836.96
317.713	7796.52
317.778	7730.92
317.843	7703.61
317.908	7661.25
317.973	7621.24
318.038	7591.29
318.103	7559.27
318.168	7525.57
318.233	7494.18
318.297	7446.82
318.362	7410.29
318.427	7369.54
318.492	7335.07
318.557	7283.22
318.622	7249.28
318.687	7221.31
318.751	7181.2
318.816	7145.01
318.881	7108.3
318.946	7054.81
319.011	7012.14
319.075	6969.29
319.14	6932.06
319.205	6889.88
319.27	6857.36
319.335	6809.47
319.399	6766.91
319.464	6735.16
319.529	6683.01
319.594	6640.07
319.658	6603.48
319.723	6564.34
319.788	6532.27
319.853	6488.24
319.917	6455.07
319.982	6406.77
320.047	6366.83
320.112	6338.89
320.176	6288.49
320.241	6254.27
320.306	6218.65
320.37	6172.49
320.435	6144.9
320.5	6117.3
320.564	6072.77
320.629	6029.93
320.694	6000.9
320.758	5958.02
320.823	5912.97
320.888	5883.52
320.952	5837.86
321.017	5799.3
321.082	5758.25
321.146	5724.01
321.211	5683.97
321.275	5647.63
321.34	5602.95
321.405	5560.47
321.469	5513.97
321.534	5474.96
321.598	5425.4
321.663	5392.41
321.727	5362.46
321.792	5308.5
321.857	5265.22
321.921	5227.18
321.986	5184.74
322.05	5125.15
322.115	5091.57
322.179	5049.71
322.244	4992.01
322.308	4960.02
322.373	4916.63
322.437	4874.64
322.502	4844.84
322.566	4802.28
322.631	4761.88
322.695	4723.3
322.76	4676.4
322.824	4638.02
322.889	4595.82
322.953	4549.56
323.018	4482.33
323.082	4422.02
323.146	4376.92
323.211	4322.87
323.275	4277.24
323.34	4233.2
323.404	4199.02
323.468	4152.97
323.533	4109.89
323.597	4067.04
323.662	4016.93
323.726	3977.4
323.79	3930
323.855	3866.75
323.919	3820.49
323.983	3776.2
324.048	3710.55
324.112	3827.67
324.177	3700.46
324.241	3504.93
324.305	3316.75
324.37	3133.65
324.434	2955.28
324.498	2911.47
324.562	2865.86
324.627	2808.26
324.691	2753.45
324.755	2689.03
324.82	2613.74
324.884	2537.37
324.948	2471.31
325.012	2375.7
325.077	2258.78
