Data from 20250630_urea_2M_MAYP1162681_11-52-27-009.txt Node
Date: Tue Jul 01 11:52:27 BST 2025
User: adleo
Spectrometer: MAYP116268
Trigger mode: 0
Integration Time (sec): 1.000000E0
Scans to average: 1
Electric dark correction enabled: true
Nonlinearity correction enabled: true
Boxcar width: 10
XAxis mode: Wavelengths
Number of Pixels in Spectrum: 2068
>>>>>Begin Spectral Data<<<<<
179.565	1130.41
179.642	1182.62
179.718	1225.03
179.795	1257.82
179.871	1289.96
179.948	1304.56
180.024	1321.89
180.101	1343.4
180.177	1357.61
180.254	1376.22
180.33	1395.92
180.407	1444.44
180.483	1533.94
180.56	1615.66
180.636	1692.04
180.712	1681.96
180.789	1691.85
180.865	1702.63
180.942	1708.42
181.018	1718.59
181.095	1727.58
181.171	1731.38
181.248	1731.61
181.324	1742.93
181.4	1749.68
181.477	1759.66
181.553	1774.76
181.63	1792.63
181.706	1808.56
181.782	1813.36
181.859	1815.11
181.935	1820.34
182.011	1815.02
182.088	1829.18
182.164	1848.87
182.24	1862.74
182.317	1868.59
182.393	1868.11
182.469	1883.28
182.546	1893.69
182.622	1898.63
182.698	1896.63
182.775	1909.56
182.851	1922.69
182.927	1916.51
183.003	1912.89
183.08	1903.29
183.156	1909.66
183.232	1910.04
183.308	1896.97
183.385	1906.52
183.461	1920.69
183.537	1921.26
183.613	1935.86
183.69	1928.53
183.766	1918.97
183.842	1927.15
183.918	1933.38
183.995	1944.89
184.071	1944.46
184.147	1942.79
184.223	1930.44
184.299	1939.05
184.375	1927.97
184.452	1933.34
184.528	1989.33
184.604	1999.31
184.68	2011.91
184.756	2022.75
184.832	2026.94
184.908	2032.45
184.985	2031.45
185.061	2018.85
185.137	2029.36
185.213	2014.72
185.289	2014.96
185.365	2009.44
185.441	2005.97
185.517	2017.72
185.593	2011.78
185.669	2012.92
185.745	2022.43
185.822	2041.01
185.898	2033.5
185.974	2043.86
186.05	2038.63
186.126	1998.01
186.202	1993.01
186.278	1987.07
186.354	1975.46
186.43	1979.6
186.506	1977.8
186.582	1977.75
186.658	1985.17
186.734	1963.87
186.81	1970.19
186.886	1973.99
186.962	1985.45
187.038	1983.22
187.114	1976.37
187.19	1985.83
187.266	1974.7
187.341	1974.85
187.417	1968.43
187.493	1969.95
187.569	1971.85
187.645	1964.01
187.721	1952.16
187.797	1959.49
187.873	1968
187.949	1960.82
188.025	1955.35
188.101	1959.2
188.176	1965.29
188.252	1961.2
188.328	1970.32
188.404	1968.8
188.48	1961.77
188.556	1953.78
188.632	1954.16
188.707	1955.92
188.783	1952.4
188.859	1948.88
188.935	1937.18
189.011	1942.03
189.086	1936.52
189.162	1927.82
189.238	1926.63
189.314	1925.06
189.39	1917.45
189.465	1910.56
189.541	1926.06
189.617	1911.8
189.693	1903.91
189.768	1905.62
189.844	1927.64
189.92	1918.99
189.996	1926.74
190.071	1938.15
190.147	1936.96
190.223	1944.95
190.298	1936.2
190.374	1926.55
190.45	1936.34
190.526	1943.57
190.601	1941
190.677	1944.52
190.753	1974.21
190.828	1977.87
190.904	1991.85
190.98	2007.4
191.055	2016.34
191.131	2010.21
191.207	2030.56
191.282	2041.11
191.358	2031.65
191.433	2018.8
191.509	2034.25
191.585	2031.16
191.66	2032.35
191.736	2041.43
191.811	2034.1
191.887	2051.56
191.963	2071.16
192.038	2078.05
192.114	2080.29
192.189	2082.71
192.265	2079.53
192.34	2055.12
192.416	2054.4
192.491	2049.55
192.567	2054.4
192.642	2059.64
192.718	2061.4
192.793	2050.51
192.869	2046.51
192.944	2049.41
193.02	2054.22
193.095	2057.4
193.171	2062.68
193.246	2062.78
193.322	2059.31
193.397	2058.59
193.473	2044.99
193.548	2028.72
193.624	2033.1
193.699	2030.48
193.775	2047.46
193.85	2048.08
193.925	2056.93
194.001	2054.03
194.076	2048.47
194.152	2035.67
194.227	2028.3
194.302	2016.32
194.378	2020.4
194.453	2020.5
194.529	2034.2
194.604	2020.26
194.679	2015.37
194.755	1996.35
194.83	2007.48
194.905	2003.44
194.981	2011.05
195.056	2003.11
195.131	2006.2
195.207	2006.15
195.282	1998.36
195.357	1978.28
195.433	1992.26
195.508	1980.23
195.583	1989.69
195.659	2002.1
195.734	2011.09
195.809	2009.43
195.884	2019.03
195.96	2016.61
196.035	2028.73
196.11	2022.5
196.185	2035.53
196.261	2036.29
196.336	2065.78
196.411	2051.98
196.486	2061.11
196.561	2054.07
196.637	2065.1
196.712	2081.52
196.787	2081.94
196.862	2096.78
196.937	2106.29
197.013	2113.29
197.088	2123.99
197.163	2142.31
197.238	2161.97
197.313	2162.87
197.388	2173.15
197.464	2201.65
197.539	2214.02
197.614	2207.27
197.689	2219.97
197.764	2236.06
197.839	2254.76
197.914	2250.9
197.989	2272.79
198.065	2284.73
198.14	2335.49
198.215	2357.86
198.29	2367.81
198.365	2379.38
198.44	2388.42
198.515	2415.55
198.59	2427.65
198.665	2455.97
198.74	2464.88
198.815	2463.74
198.89	2482.25
198.965	2512.02
199.04	2506.92
199.115	2520.82
199.19	2560.48
199.265	2565.86
199.34	2573.58
199.415	2607.55
199.49	2625.83
199.565	2634.78
199.64	2653.79
199.715	2651.36
199.79	2657.98
199.865	2664.64
199.94	2663.88
200.015	2694.28
200.09	2698.47
200.165	2703.19
200.24	2707
200.315	2745
200.39	2760.77
200.464	2767.39
200.539	2767.78
200.614	2783.59
200.689	2807.18
200.764	2815.52
200.839	2831.53
200.914	2835.29
200.989	2821.08
201.063	2834.62
201.138	2816.24
201.213	2818
201.288	2799.51
201.363	2806.23
201.438	2809.9
201.512	2825.33
201.587	2812.27
201.662	2816.04
201.737	2830.76
201.812	2839.01
201.886	2805.34
201.961	2813.3
202.036	2802.82
202.111	2800.11
202.186	2771.2
202.26	2753.62
202.335	2731.93
202.41	2722.98
202.485	2707.97
202.559	2691.26
202.634	2666.53
202.709	2679.24
202.784	2662.57
202.858	2664.05
202.933	2644.38
203.008	2637.47
203.082	2620.94
203.157	2617.23
203.232	2577.61
203.306	2553.08
203.381	2518.73
203.456	2498.59
203.53	2477.43
203.605	2458.06
203.68	2436.62
203.754	2432.67
203.829	2418.91
203.904	2399.78
203.978	2390.21
204.053	2394.78
204.127	2384.02
204.202	2383.35
204.277	2366.69
204.351	2359.93
204.426	2349.32
204.5	2340.75
204.575	2308.48
204.65	2316.96
204.724	2307.24
204.799	2313.71
204.873	2313.9
204.948	2313.9
205.022	2303.58
205.097	2291.48
205.171	2301.62
205.246	2308.24
205.32	2307.28
205.395	2305.38
205.469	2300.01
205.544	2307.39
205.618	2289.97
205.693	2302.34
205.767	2291.49
205.842	2311.58
205.916	2303.78
205.991	2297.64
206.065	2302.16
206.14	2318.14
206.214	2315.05
206.289	2309.52
206.363	2319.71
206.438	2321.99
206.512	2327.42
206.586	2345.5
206.661	2355.55
206.735	2337.47
206.81	2339.19
206.884	2354.61
206.958	2343.38
207.033	2355.75
207.107	2361.99
207.181	2391.41
207.256	2381.79
207.33	2397.26
207.405	2410.79
207.479	2431.45
207.553	2435.31
207.628	2421.37
207.702	2430.27
207.776	2422.89
207.851	2423.98
207.925	2439.99
207.999	2438.61
208.073	2438.08
208.148	2441.13
208.222	2430.18
208.296	2460.73
208.371	2475.78
208.445	2484.02
208.519	2514.01
208.593	2528.53
208.668	2523.34
208.742	2527.11
208.816	2530.06
208.89	2545.16
208.965	2541.54
209.039	2548.97
209.113	2567.02
209.187	2588.43
209.261	2584.67
209.336	2604.15
209.41	2626.34
209.484	2625.2
209.558	2643.54
209.632	2656.21
209.707	2666.16
209.781	2685.97
209.855	2702.13
209.929	2717.53
210.003	2724.01
210.077	2722.77
210.151	2765.07
210.226	2796.29
210.3	2820.75
210.374	2846.05
210.448	2850.91
210.522	2860.06
210.596	2869.31
210.67	2880.55
210.744	2924.03
210.818	2955.29
210.892	2977.12
210.966	2972.98
211.041	2993.52
211.115	2991.9
211.189	3018.55
211.263	3035.8
211.337	3042
211.411	3053.97
211.485	3049.68
211.559	3063.69
211.633	3065.83
211.707	3038.74
211.781	3049.05
211.855	3017.39
211.929	3009.09
212.003	2991.99
212.077	3003.87
212.151	3018.36
212.225	3025.9
212.299	3018.88
212.373	3012.11
212.447	3008.06
212.52	3038.34
212.594	3042.34
212.668	3058.27
212.742	3048.02
212.816	3049.21
212.89	3049.02
212.964	3053.31
213.038	3062.47
213.112	3078.21
213.186	3100.91
213.26	3086.85
213.333	3052.46
213.407	3066.86
213.481	3079.25
213.555	3103.74
213.629	3102.17
213.703	3099.83
213.777	3110.13
213.85	3106.13
213.924	3151.84
213.998	3164.77
214.072	3173.27
214.146	3175.08
214.219	3188.78
214.293	3202.61
214.367	3223.65
214.441	3254.19
214.515	3265.78
214.588	3267.69
214.662	3257.29
214.736	3264.78
214.81	3298.83
214.883	3331.16
214.957	3348.85
215.031	3364.21
215.105	3369.84
215.178	3387.17
215.252	3406.68
215.326	3420.1
215.4	3431.93
215.473	3416.22
215.547	3432.79
215.621	3454.24
215.694	3493.78
215.768	3505.33
215.842	3530.21
215.915	3550.03
215.989	3564.69
216.063	3593.02
216.136	3633.81
216.21	3679.89
216.284	3729.2
216.357	3770.76
216.431	3810.56
216.504	3864.03
216.578	3936.3
216.652	3991.99
216.725	4037.59
216.799	4098.08
216.873	4144.64
216.946	4201.66
217.02	4246.3
217.093	4294.36
217.167	4321.9
217.24	4358.6
217.314	4408.66
217.387	4456.67
217.461	4509.5
217.535	4574.19
217.608	4620.27
217.682	4673.12
217.755	4734.29
217.829	4781.89
217.902	4840.2
217.976	4898.95
218.049	4948.23
218.123	4990.2
218.196	5058.74
218.27	5116.71
218.343	5159.31
218.417	5225.1
218.49	5281.34
218.563	5361.22
218.637	5428.37
218.71	5512.4
218.784	5587.24
218.857	5664.04
218.931	5732.11
219.004	5796.13
219.077	5867.13
219.151	5939.65
219.224	6003.35
219.298	6074.66
219.371	6146.21
219.444	6201.05
219.518	6271.88
219.591	6343.54
219.665	6437.86
219.738	6503.63
219.811	6564.31
219.885	6645.89
219.958	6721.78
220.031	6795.62
220.105	6872.78
220.178	6945.37
220.251	7008.06
220.325	7081.25
220.398	7157.9
220.471	7238.57
220.544	7321.47
220.618	7382.95
220.691	7459.48
220.764	7535.38
220.838	7609.23
220.911	7677.12
220.984	7772.31
221.057	7844.68
221.131	7918.88
221.204	7959.91
221.277	8045.96
221.35	8148.13
221.424	8217.12
221.497	8285.1
221.57	8352.73
221.643	8423.86
221.716	8502.05
221.79	8575.53
221.863	8648.98
221.936	8717.27
222.009	8784.94
222.082	8856.27
222.155	8921.97
222.229	8998.23
222.302	9066.97
222.375	9132.25
222.448	9210.63
222.521	9276.55
222.594	9340.15
222.667	9390.56
222.74	9469.72
222.814	9539.65
222.887	9595.62
222.96	9672.15
223.033	9749.74
223.106	9825.93
223.179	9893.55
223.252	9952.37
223.325	10022.21
223.398	10087.92
223.471	10154.16
223.544	10222.23
223.617	10280.86
223.69	10348.25
223.763	10403.7
223.837	10474.67
223.91	10546.56
223.983	10591.8
224.056	10644.99
224.129	10714.09
224.202	10792.76
224.275	10847.02
224.348	10888.51
224.42	10939.69
224.493	10978.53
224.566	11026.24
224.639	11091.05
224.712	11145.03
224.785	11204.31
224.858	11256.45
224.931	11300.11
225.004	11348.45
225.077	11404.99
225.15	11445.28
225.223	11508.08
225.296	11588.91
225.369	11630.35
225.442	11676.29
225.514	11730.03
225.587	11790.04
225.66	11850.04
225.733	11909.09
225.806	11970.93
225.879	12026.12
225.952	12078.32
226.025	12146.91
226.097	12227.17
226.17	12282.75
226.243	12328.3
226.316	12391.26
226.389	12452.43
226.461	12523.38
226.534	12587.59
226.607	12642.59
226.68	12728.88
226.753	12787.93
226.825	12825.97
226.898	12899
226.971	12959.3
227.044	13033.63
227.117	13092.11
227.189	13155.98
227.262	13225.11
227.335	13287.05
227.407	13346.93
227.48	13409.21
227.553	13473.95
227.626	13515.74
227.698	13569.4
227.771	13631.44
227.844	13670.25
227.916	13723.47
227.989	13762.56
228.062	13808.74
228.134	13890.6
228.207	13933.21
228.28	13982.33
228.352	14026.73
228.425	14069.15
228.498	14121.5
228.57	14161.32
228.643	14224.38
228.716	14268.05
228.788	14311.1
228.861	14352.12
228.934	14420.04
229.006	14464.15
229.079	14504.74
229.151	14546.77
229.224	14578.83
229.296	14626.36
229.369	14712.26
229.442	14771.21
229.514	14808.86
229.587	14873.45
229.659	14892.88
229.732	14948.36
229.804	15007.6
229.877	15089.3
229.949	15159
230.022	15229.67
230.094	15286.5
230.167	15327.57
230.239	15362.13
230.312	15399.34
230.384	15472.56
230.457	15507.26
230.529	15565.63
230.602	15617.79
230.674	15671.43
230.747	15736.84
230.819	15799.89
230.892	15812.18
230.964	15865.54
231.037	15918.46
231.109	15956.54
231.181	16015.15
231.254	16047.25
231.326	16094.29
231.399	16125.09
231.471	16153.24
231.544	16170.54
231.616	16226.02
231.688	16275.23
231.761	16318.46
231.833	16360.92
231.905	16372.78
231.978	16425.17
232.05	16457.61
232.122	16492.31
232.195	16521.56
232.267	16566.53
232.339	16590.77
232.412	16639.45
232.484	16667.69
232.556	16704.37
232.629	16763.94
232.701	16799.85
232.773	16842.64
232.846	16864.33
232.918	16892.24
232.99	16935.13
233.062	16981.3
233.135	16998.79
233.207	17017.2
233.279	17053.01
233.351	17093.21
233.424	17122.41
233.496	17133.93
233.568	17186.42
233.64	17203.72
233.713	17229.69
233.785	17264.25
233.857	17297.36
233.929	17310.9
234.001	17351.86
234.074	17387.29
234.146	17390.66
234.218	17405.07
234.29	17421.65
234.362	17430.56
234.434	17433.21
234.507	17436.2
234.579	17437.16
234.651	17456.01
234.723	17480.68
234.795	17506.22
234.867	17515.57
234.939	17551
235.012	17574.71
235.084	17584.06
235.156	17614.61
235.228	17626.8
235.3	17625.84
235.372	17635.91
235.444	17658.71
235.516	17650.08
235.588	17661.89
235.66	17671.91
235.732	17681.4
235.804	17737.55
235.876	17765.79
235.948	17801.88
236.02	17815.91
236.092	17828.92
236.164	17831.09
236.236	17842.17
236.308	17847.42
236.38	17860.97
236.452	17857.01
236.524	17866.89
236.596	17885.16
236.668	17900.92
236.74	17908.34
236.812	17916.39
236.884	17928.14
236.956	17934.7
237.028	17938.99
237.1	17939.04
237.172	17963.28
237.244	17991.52
237.316	17973.06
237.388	17963.81
237.46	17965.01
237.532	17983.56
237.604	17971.81
237.675	17999.8
237.747	18002.17
237.819	17993.3
237.891	17990.17
237.963	17984.77
238.035	17971.71
238.107	17937.3
238.178	17941.06
238.25	17941.3
238.322	17960.24
238.394	17941.3
238.466	17932.14
238.538	17926.79
238.609	17934.46
238.681	17905.49
238.753	17883.13
238.825	17867.18
238.897	17863.38
238.968	17863.13
239.04	17840.15
239.112	17867.86
239.184	17851.04
239.255	17842.41
239.327	17841.26
239.399	17840.1
239.471	17837.01
239.542	17834.8
239.614	17845.11
239.686	17812.92
239.758	17812.1
239.829	17792.97
239.901	17800.49
239.973	17796.29
240.044	17793.5
240.116	17777.26
240.188	17769.4
240.259	17756.82
240.331	17735.09
240.403	17730.56
240.474	17702.85
240.546	17687.04
240.618	17653.4
240.689	17623.19
240.761	17612.2
240.833	17611
240.904	17585.98
240.976	17574.03
241.048	17566.37
241.119	17550.8
241.191	17537.41
241.262	17529.89
241.334	17504.78
241.405	17478.61
241.477	17448.59
241.549	17429.07
241.62	17408.3
241.692	17386.08
241.763	17375.38
241.835	17365.07
241.906	17347.53
241.978	17307.24
242.049	17306.22
242.121	17287.19
242.192	17286.85
242.264	17250.42
242.335	17217.84
242.407	17213.4
242.478	17182.27
242.55	17151.72
242.621	17120.29
242.693	17095.91
242.764	17069.16
242.836	17039.38
242.907	17022.36
242.979	17010.41
243.05	16987.52
243.122	16970.99
243.193	16949.73
243.264	16902.84
243.336	16861.78
243.407	16839.18
243.479	16844.04
243.55	16815.61
243.622	16797.92
243.693	16768.14
243.764	16756.18
243.836	16719.84
243.907	16689.14
243.978	16672.27
244.05	16658.1
244.121	16624.66
244.192	16604.94
244.264	16566
244.335	16549.9
244.407	16515.44
244.478	16490.24
244.549	16462.23
244.62	16422.76
244.692	16395.05
244.763	16385.7
244.834	16369.94
244.906	16342.32
244.977	16317.5
245.048	16303.18
245.119	16266.51
245.191	16231.8
245.262	16189.53
245.333	16175.17
245.405	16143.5
245.476	16118.15
245.547	16091.4
245.618	16074.44
245.689	16053.13
245.761	16031.3
245.832	16000.4
245.903	15976.55
245.974	15952.4
246.045	15926.32
246.117	15918.66
246.188	15877.69
246.259	15835.9
246.33	15802.64
246.401	15771.74
246.473	15723.83
246.544	15683.73
246.615	15675.44
246.686	15643.29
246.757	15625.79
246.828	15590.03
246.899	15574.17
246.97	15523.8
247.042	15486.16
247.113	15467.5
247.184	15455.02
247.255	15425.42
247.326	15395.87
247.397	15365.65
247.468	15339.91
247.539	15314.03
247.61	15274.99
247.681	15259.46
247.752	15249.44
247.823	15223.99
247.894	15205.53
247.965	15172.02
248.037	15139.87
248.108	15094.61
248.179	15068.68
248.25	15039.71
248.321	15024.76
248.392	14981
248.463	14980.32
248.534	14956.6
248.605	14935.2
248.675	14906.72
248.746	14887.43
248.817	14860.01
248.888	14840.87
248.959	14798.26
249.03	14774.11
249.101	14749.14
249.172	14721.9
249.243	14670.47
249.314	14654.22
249.385	14624.58
249.456	14606.93
249.527	14580.47
249.598	14562.97
249.669	14535.59
249.739	14508.31
249.81	14478.42
249.881	14449.35
249.952	14426.65
250.023	14406.5
250.094	14356.7
250.165	14314.71
250.235	14278.27
250.306	14262.85
250.377	14227.27
250.448	14201.86
250.519	14157.47
250.59	14136.16
250.66	14107.96
250.731	14098.32
250.802	14070.07
250.873	14052.28
250.944	14030.4
251.014	13997.71
251.085	13988.46
251.156	13968.16
251.227	13954.86
251.297	13948.01
251.368	13933.79
251.439	13913.98
251.51	13897.2
251.58	13871.32
251.651	13845.43
251.722	13837.33
251.792	13792.93
251.863	13762.32
251.934	13756.34
252.005	13757.84
252.075	13742.65
252.146	13736.48
252.217	13727.76
252.287	13711.75
252.358	13680.37
252.429	13672.03
252.499	13646.19
252.57	13617.17
252.641	13601.84
252.711	13579.96
252.782	13534.01
252.852	13528.23
252.923	13495.69
252.994	13468.69
253.064	13459.97
253.135	13427.33
253.205	13393.64
253.276	13396.05
253.347	13397.59
253.417	13371.94
253.488	13339.5
253.558	13304.02
253.629	13275.19
253.699	13254.8
253.77	13237.93
253.841	13208.62
253.911	13191.46
253.982	13172.08
254.052	13166.44
254.123	13145.61
254.193	13124.5
254.264	13146.53
254.334	13109.03
254.405	13080.34
254.475	13050.41
254.546	13028.04
254.616	13020.23
254.687	13013.92
254.757	12986.87
254.827	12956.89
254.898	12930.76
254.968	12914.13
255.039	12886.12
255.109	12867.95
255.18	12831.41
255.25	12781.32
255.321	12765.99
255.391	12728.73
255.461	12726.85
255.532	12672.33
255.602	12646.83
255.673	12610.77
255.743	12572.64
255.813	12536.87
255.884	12523.96
255.954	12506.41
256.024	12499.27
256.095	12476.71
256.165	12433.28
256.235	12418.63
256.306	12383.92
256.376	12368.45
256.446	12351.58
256.517	12339.67
256.587	12330.99
256.657	12317.45
256.728	12309.83
256.798	12285.88
256.868	12258.59
256.938	12225.62
257.009	12217.28
257.079	12212.7
257.149	12218.15
257.219	12179.78
257.29	12161.42
257.36	12121.31
257.43	12117.65
257.5	12071.23
257.571	12048.72
257.641	12041.97
257.711	12011.03
257.781	12003.51
257.852	11992.95
257.922	11959.4
257.992	11935.21
258.062	11911.06
258.132	11901.71
258.202	11878.62
258.273	11869.36
258.343	11867
258.413	11849.07
258.483	11836.44
258.553	11801.69
258.623	11766.55
258.693	11756
258.764	11749.68
258.834	11749.25
258.904	11723.32
258.974	11707.85
259.044	11692.18
259.114	11673.91
259.184	11660.71
259.254	11640.61
259.324	11601.18
259.394	11588.32
259.464	11592.56
259.535	11566.58
259.605	11539.01
259.675	11511.01
259.745	11493.42
259.815	11471.63
259.885	11449.75
259.955	11456.02
260.025	11426.76
260.095	11415.48
260.165	11396.35
260.235	11398.66
260.305	11376.88
260.375	11346.81
260.445	11347.67
260.515	11346.81
260.585	11342.61
260.655	11324.3
260.725	11314.37
260.795	11305.94
260.865	11312.78
260.934	11281.21
261.004	11272.54
261.074	11260.73
261.144	11262.18
261.214	11256.35
261.284	11235.04
261.354	11220.97
261.424	11188.68
261.494	11188.68
261.564	11170.85
261.634	11163.52
261.703	11125.45
261.773	11119.91
261.843	11110.03
261.913	11087.86
261.983	11043.53
262.053	11027.91
262.123	11005.55
262.192	10976.83
262.262	10972.45
262.332	10932.84
262.402	10928.98
262.472	10913.75
262.541	10872.55
262.611	10868.94
262.681	10843.3
262.751	10836.56
262.821	10820.51
262.89	10788.71
262.96	10783.07
263.03	10783.69
263.1	10775.5
263.169	10760.32
263.239	10746.59
263.309	10755.26
263.379	10745.48
263.448	10735.99
263.518	10722.69
263.588	10707.51
263.657	10708.28
263.727	10701.01
263.797	10689.11
263.867	10664.82
263.936	10637.55
264.006	10636.88
264.076	10613.02
264.145	10590.57
264.215	10559.69
264.285	10556.8
264.354	10530.78
264.424	10506.35
264.494	10474.41
264.563	10450.41
264.633	10454.89
264.702	10434.56
264.772	10392.4
264.842	10373.7
264.911	10358.72
264.981	10331.79
265.05	10322.49
265.12	10306.69
265.19	10288.28
265.259	10278.69
265.329	10272.38
265.398	10260.29
265.468	10269.78
265.537	10253.45
265.607	10252.25
265.676	10250.66
265.746	10237.36
265.815	10233.79
265.885	10214.04
265.955	10194.63
266.024	10172.9
266.094	10136.43
266.163	10134.99
266.232	10137.69
266.302	10124.34
266.371	10118.8
266.441	10104.83
266.51	10095.1
266.58	10078.72
266.649	10060.47
266.719	10056.61
266.788	10044.76
266.858	10052.18
266.927	10013.93
266.996	9998.95
267.066	9981.13
267.135	9957.19
267.205	9955.16
267.274	9947.26
267.343	9951.6
267.413	9936.04
267.482	9931.85
267.552	9937.25
267.621	9912.2
267.69	9878.48
267.76	9866.1
267.829	9855.51
267.898	9844.81
267.968	9823.43
268.037	9813.89
268.106	9811.39
268.176	9778.44
268.245	9761.39
268.314	9740.1
268.384	9742.8
268.453	9732.73
268.522	9724.3
268.592	9725.22
268.661	9702.77
268.73	9690.1
268.799	9666.12
268.869	9676.14
268.938	9653.65
269.007	9629.37
269.076	9618.68
269.146	9621.33
269.215	9611.55
269.284	9615.84
269.353	9601.68
269.422	9592.24
269.492	9577.41
269.561	9536.52
269.63	9537.92
269.699	9521.59
269.768	9507.29
269.838	9497.85
269.907	9495.93
269.976	9475.99
270.045	9446.81
270.114	9440.74
270.183	9425.81
270.253	9418.88
270.322	9387.53
270.391	9378.81
270.46	9384.4
270.529	9386.52
270.598	9381.99
270.667	9369.28
270.736	9344.96
270.806	9339.76
270.875	9339.23
270.944	9328.06
271.013	9348.57
271.082	9341.64
271.151	9338.6
271.22	9309.57
271.289	9294.11
271.358	9276.97
271.427	9271.87
271.496	9260.99
271.565	9243.46
271.634	9238.7
271.703	9262.29
271.772	9261.57
271.841	9246.55
271.91	9224.21
271.979	9207.5
272.048	9185.4
272.117	9189.16
272.186	9176.93
272.255	9173.89
272.324	9166.96
272.393	9158.63
272.462	9137.97
272.531	9129.69
272.6	9113.71
272.669	9123.29
272.738	9110.72
272.807	9104.9
272.876	9084
272.945	9111.88
273.013	9113.56
273.082	9113.85
273.151	9065.08
273.22	9057.86
273.289	9053.28
273.358	9063.88
273.427	9051.21
273.496	9049.48
273.564	9037.3
273.633	9032.68
273.702	9014.62
273.771	9004.76
273.84	8999.56
273.909	8999.17
273.977	8991.95
274.046	8990.65
274.115	8992.58
274.184	8978.33
274.253	8971.01
274.322	8977.6
274.39	8943.66
274.459	8927.01
274.528	8901.45
274.597	8897.55
274.665	8893.79
274.734	8896.01
274.803	8877.76
274.872	8873.77
274.94	8861.68
275.009	8916.1
275.078	8909.61
275.147	8903.69
275.215	8896.27
275.284	8903.3
275.353	8891.55
275.421	8869.85
275.49	8873.51
275.559	8863.54
275.627	8855.46
275.696	8846.6
275.765	8843.37
275.833	8835.34
275.902	8834.23
275.971	8841.79
276.039	8860.37
276.108	8862.82
276.177	8863.4
276.245	8854.98
276.314	8849.2
276.383	8858.49
276.451	8793.82
276.52	8790.3
276.588	8794.01
276.657	8799.11
276.725	8783.56
276.794	8786.45
276.863	8799.26
276.931	8782.7
277	8789.2
277.068	8799.49
277.137	8812.97
277.205	8811.14
277.274	8829.19
277.342	8835.64
277.411	8818.32
277.48	8798.1
277.548	8785.44
277.617	8786.88
277.685	8780.87
277.754	8784.38
277.822	8768.59
277.89	8786.5
277.959	8783.57
278.027	8774.23
278.096	8764.89
278.164	8792.19
278.233	8783.14
278.301	8769.08
278.37	8772.79
278.438	8754.5
278.507	8755.85
278.575	8736.5
278.643	8733.85
278.712	8715.37
278.78	8697.94
278.849	8707.09
278.917	8718.3
278.985	8715.32
279.054	8713.44
279.122	8722.44
279.191	8722.01
279.259	8717.97
279.327	8691.25
279.396	8704.39
279.464	8698.95
279.532	8706.27
279.601	8699
279.669	8692.93
279.737	8710.31
279.806	8709.97
279.874	8719.12
279.942	8718.63
280.011	8711.75
280.079	8714.74
280.147	8733.6
280.215	8739.52
280.284	8731.68
280.352	8714.93
280.42	8721.33
280.488	8710.07
280.557	8709.01
280.625	8713.05
280.693	8715.84
280.761	8715.89
280.83	8700.92
280.898	8709.2
280.966	8693.75
281.034	8667.33
281.102	8651.69
281.171	8641.48
281.239	8652.7
281.307	8646.3
281.375	8636.86
281.443	8660.01
281.512	8661.22
281.58	8661.46
281.648	8653.37
281.716	8654.05
281.784	8661.94
281.852	8654.77
281.92	8657.56
281.989	8661.94
282.057	8640.24
282.125	8675.81
282.193	8676.68
282.261	8679.8
282.329	8674.17
282.397	8671.53
282.465	8672.97
282.533	8691.45
282.601	8675.37
282.67	8654.44
282.738	8650.15
282.806	8660.36
282.874	8642.79
282.942	8639.28
283.01	8636.29
283.078	8639.76
283.146	8638.99
283.214	8641.25
283.282	8644.57
283.35	8655.83
283.418	8647.7
283.486	8661.75
283.554	8625.26
283.622	8624.78
283.69	8618.96
283.758	8618.14
283.826	8621.65
283.894	8630.89
283.962	8645.91
284.03	8662.27
284.098	8661.07
284.165	8653.22
284.233	8651.01
284.301	8649.42
284.369	8643.79
284.437	8630.46
284.505	8617.85
284.573	8634.17
284.641	8629.26
284.709	8634.6
284.777	8614.58
284.845	8621.99
284.912	8616.46
284.98	8618.28
285.048	8611.45
285.116	8616.94
285.184	8628.92
285.252	8632.1
285.319	8613.57
285.387	8605.96
285.455	8589.41
285.523	8596.29
285.591	8593.21
285.659	8591.86
285.726	8600.82
285.794	8585.47
285.862	8580.8
285.93	8587.05
285.997	8575.41
286.065	8564.05
286.133	8555.68
286.201	8550.48
286.269	8535.85
286.336	8532.91
286.404	8524.44
286.472	8529.64
286.539	8505.68
286.607	8486.38
286.675	8484.79
286.743	8490.85
286.81	8482.91
286.878	8495.71
286.946	8482.43
287.013	8485.75
287.081	8483.25
287.149	8468.71
287.216	8488.4
287.284	8483.44
287.352	8483.97
287.419	8483.05
287.487	8497.68
287.555	8501.1
287.622	8498.74
287.69	8507.45
287.758	8512.65
287.825	8513.85
287.893	8508.32
287.96	8513.42
288.028	8529.11
288.096	8531.76
288.163	8538.25
288.231	8532.48
288.298	8535.8
288.366	8552.16
288.433	8551.68
288.501	8549.85
288.569	8560.73
288.636	8551.82
288.704	8567.99
288.771	8574.25
288.839	8564.53
288.906	8559.91
288.974	8563.23
289.041	8561.59
289.109	8550.52
289.176	8559.77
289.244	8560.1
289.311	8573.24
289.379	8585.03
289.446	8586.09
289.514	8588.98
289.581	8590.32
289.649	8588.64
289.716	8592.3
289.783	8585.46
289.851	8599.95
289.918	8597.06
289.986	8600.24
290.053	8611.07
290.121	8605.19
290.188	8608.47
290.255	8639.27
290.323	8637.73
290.39	8640.67
290.458	8649.95
290.525	8663.67
290.592	8658.9
290.66	8664.92
290.727	8654.57
290.794	8668.91
290.862	8663.62
290.929	8664.97
290.996	8660.88
291.064	8668.43
291.131	8673.24
291.198	8680.61
291.266	8680.18
291.333	8682.77
291.4	8688.12
291.468	8701.93
291.535	8705.54
291.602	8706.21
291.669	8700.1
291.737	8702.07
291.804	8693.99
291.871	8706.5
291.938	8715.55
292.006	8744.63
292.073	8759.4
292.14	8771.29
292.207	8767.39
292.275	8766.09
292.342	8774.66
292.409	8797.96
292.476	8824.67
292.543	8823.62
292.611	8829.39
292.678	8846.58
292.745	8871.94
292.812	8883.21
292.879	8879.93
292.946	8883.11
293.014	8897.98
293.081	8904.39
293.148	8917.29
293.215	8940.25
293.282	8937.41
293.349	8949.06
293.416	8930.86
293.484	8941.07
293.551	8946.79
293.618	8955.07
293.685	8987.18
293.752	8976.35
293.819	8976.98
293.886	8967.11
293.953	8966.96
294.02	8976.11
294.087	8974.95
294.154	8964.8
294.221	8976.64
294.288	8976.64
294.356	8998.93
294.423	9002.59
294.49	8993.68
294.557	8998.4
294.624	8981.26
294.691	9007.21
294.758	9000.52
294.825	9004.56
294.892	8998.69
294.959	9005.48
295.026	9016.02
295.093	9006.73
295.16	9010.92
295.226	9014.82
295.293	9036.19
295.36	9043.41
295.427	9053.81
295.494	9069.22
295.561	9078.37
295.628	9104.61
295.695	9122.43
295.762	9120.12
295.829	9128.21
295.896	9145.1
295.963	9161.57
296.03	9181.74
296.096	9181.93
296.163	9197.58
296.23	9214.43
296.297	9231.76
296.364	9230.51
296.431	9239.61
296.498	9232.54
296.564	9257.47
296.631	9259.83
296.698	9244.95
296.765	9262.67
296.832	9254.05
296.899	9245.39
296.965	9263.54
297.032	9239.65
297.099	9254.24
297.166	9261.71
297.233	9262.09
297.299	9255.98
297.366	9253.62
297.433	9252.27
297.5	9256.8
297.566	9257.04
297.633	9257.23
297.7	9257.23
297.767	9251.89
297.833	9258.1
297.9	9268.06
297.967	9251.55
298.033	9261.37
298.1	9292.96
298.167	9284.01
298.234	9290.6
298.3	9298.64
298.367	9288.19
298.434	9299.56
298.5	9283.23
298.567	9279.72
298.634	9275.05
298.7	9296.76
298.767	9301
298.834	9314.72
298.9	9309.57
298.967	9300.18
299.033	9307.74
299.1	9318.82
299.167	9344.91
299.233	9339.76
299.3	9354.11
299.366	9377.42
299.433	9386.95
299.5	9360.9
299.566	9370.14
299.633	9383.34
299.699	9391.14
299.766	9393.59
299.832	9392.34
299.899	9408.67
299.965	9421.62
300.032	9421.81
300.099	9428.55
300.165	9432.12
300.232	9431.01
300.298	9437.17
300.365	9448.63
300.431	9449.84
300.498	9445.36
300.564	9444.35
300.631	9454.22
300.697	9466.36
300.763	9460
300.83	9461.97
300.896	9472.95
300.963	9481.09
301.029	9488.31
301.096	9491.25
301.162	9503.19
301.229	9498.67
301.295	9488.12
301.361	9493.9
301.428	9497.22
301.494	9478.1
301.561	9481.38
301.627	9486.39
301.693	9488.75
301.76	9492.55
301.826	9483.74
301.892	9493.18
301.959	9501.7
302.025	9502.28
302.092	9497.42
302.158	9504.35
302.224	9505.65
302.291	9499.39
302.357	9496.6
302.423	9488.22
302.49	9487.01
302.556	9498.14
302.622	9497.75
302.688	9505.51
302.755	9513.41
302.821	9520.48
302.887	9529.58
302.954	9530.02
303.02	9533.1
303.086	9541.14
303.152	9538.88
303.219	9545.86
303.285	9553.81
303.351	9562.62
303.417	9559.4
303.483	9549.96
303.55	9541.72
303.616	9544.8
303.682	9543.7
303.748	9534.07
303.815	9546.78
303.881	9546.35
303.947	9530.46
304.013	9530.26
304.079	9528.19
304.145	9504.88
304.212	9505.22
304.278	9502.76
304.344	9501.32
304.41	9497.18
304.476	9484.75
304.542	9481.82
304.608	9482.2
304.674	9463.13
304.741	9455.09
304.807	9458.22
304.873	9460.67
304.939	9476.52
305.005	9454.51
305.071	9448.83
305.137	9453.21
305.203	9430.67
305.269	9429.32
305.335	9441.94
305.401	9442.95
305.467	9432.74
305.533	9444.25
305.599	9449.93
305.666	9449.55
305.732	9443.19
305.798	9443.96
305.864	9468.04
305.93	9469.25
305.996	9468.04
306.062	9465.54
306.128	9460.87
306.194	9448.83
306.259	9447.91
306.325	9440.74
306.391	9449.07
306.457	9459.32
306.523	9464.96
306.589	9488.99
306.655	9482.44
306.721	9466.64
306.787	9451.43
306.853	9464.91
306.919	9447.29
306.985	9440.74
307.051	9436.6
307.117	9430.39
307.183	9430.24
307.248	9402.31
307.314	9407.7
307.38	9409.34
307.446	9418.54
307.512	9405.92
307.578	9408.43
307.644	9402.94
307.709	9395.86
307.775	9392.39
307.841	9395.42
307.907	9393.88
307.973	9371.44
308.039	9372.93
308.104	9375.77
308.17	9379.63
308.236	9368.07
308.302	9373.99
308.368	9367.2
308.433	9370.04
308.499	9368.12
308.565	9354.01
308.631	9357.96
308.696	9334.41
308.762	9320.83
308.828	9314.96
308.894	9294.3
308.959	9274.27
309.025	9265.66
309.091	9268.06
309.156	9260.17
309.222	9254.39
309.288	9242.74
309.354	9224.2
309.419	9218.57
309.485	9202.77
309.551	9209.03
309.616	9190.59
309.682	9190.54
309.748	9177.64
309.813	9165.75
309.879	9149.81
309.945	9140.95
310.01	9130.31
310.076	9136.72
310.141	9130.75
310.207	9115.39
310.273	9125.59
310.338	9130.21
310.404	9116.59
310.469	9102.19
310.535	9088.47
310.601	9063.49
310.666	9064.16
310.732	9069.12
310.797	9063.24
310.863	9057.71
310.928	9050.87
310.994	9054.39
311.059	9045.29
311.125	9044.37
311.191	9058.62
311.256	9053.86
311.322	9059.01
311.387	9041.25
311.453	9376.44
311.518	9355.16
311.584	9354.29
311.649	9355.02
311.715	9342.65
311.78	9342.5
311.846	9337.45
311.911	9340.91
311.976	9346.5
312.042	9328.35
312.107	9314.15
312.173	9304.28
312.238	9297.15
312.304	9285.79
312.369	9280.01
312.434	9266.73
312.5	9259.22
312.565	9229.75
312.631	9229.99
312.696	9212.47
312.761	9212.57
312.827	8863.85
312.892	8900.05
312.958	8896.34
313.023	8900.44
313.088	8904.24
313.154	8891.05
313.219	8880.65
313.284	8877.04
313.35	8874.49
313.415	8869.82
313.48	8869.15
313.546	8871.08
313.611	8879.26
313.676	8871.51
313.741	8863.85
313.807	8873.15
313.872	8875.07
313.937	8878.87
314.003	8890.62
314.068	8900.78
314.133	8906.21
314.198	8898.18
314.264	8877.57
314.329	8868.71
314.394	8854.99
314.459	8847.63
314.525	8866.4
314.59	8861.87
314.655	8848.35
314.72	8853.07
314.785	8853.07
314.851	8847.29
314.916	8830.16
314.981	8808.64
315.046	8800.65
315.111	8790.11
315.176	8777.45
315.242	8784.29
315.307	8781.98
315.372	8762.05
315.437	8750.54
315.502	8741.88
315.567	8754.44
315.632	8728.74
315.698	8722.1
315.763	8726.19
315.828	8716.23
315.893	8712.96
315.958	8708.58
316.023	8703.14
316.088	8677.49
316.153	8656.36
316.218	8647.7
316.283	8631.72
316.348	8619.69
316.413	8615.46
316.479	8599.82
316.544	8563.88
316.609	8528.22
316.674	8491.74
316.739	8461.67
316.804	8430.64
316.869	8398.21
316.934	8363.99
316.999	8338.73
317.064	8292.69
317.129	8242.41
317.194	8208.16
317.259	8155.08
317.324	8105.3
317.389	8056.62
317.454	8019.92
317.518	7988.22
317.583	7960.95
317.648	7922.47
317.713	7884.67
317.778	7824.02
317.843	7794.83
317.908	7754.21
317.973	7714.87
318.038	7682.7
318.103	7643.8
318.168	7605.67
318.233	7575.53
318.297	7516.05
318.362	7479.22
318.427	7442.17
318.492	7411.83
318.557	7367.27
318.622	7335.64
318.687	7309.55
318.751	7275.72
318.816	7243.51
318.881	7204.68
318.946	7152.63
319.011	7116.21
319.075	7076.52
319.14	7043.52
319.205	6999.21
319.27	6971.3
319.335	6928.4
319.399	6889.63
319.464	6857.74
319.529	6806.64
319.594	6766.43
319.658	6741.59
319.723	6702.55
319.788	6674.31
319.853	6622.54
319.917	6588.93
319.982	6542.16
320.047	6504.37
320.112	6475.56
320.176	6427.07
320.241	6390.1
320.306	6361.73
320.37	6322.95
320.435	6295.11
320.5	6264.39
320.564	6222.73
320.629	6182.95
320.694	6147.82
320.758	6106.65
320.823	6065.92
320.888	6038.91
320.952	5988.3
321.017	5941
321.082	5898.45
321.146	5861.08
321.211	5825.73
321.275	5783.92
321.34	5739.99
321.405	5693.19
321.469	5645.87
321.534	5606.27
321.598	5561.15
321.663	5528.97
321.727	5494.5
321.792	5443.5
321.857	5399.49
321.921	5362.16
321.986	5313.39
322.05	5258.91
322.115	5220.01
322.179	5176.75
322.244	5121.52
322.308	5085.64
322.373	5041.53
322.437	5003.89
322.502	4975.14
322.566	4931.8
322.631	4896.65
322.695	4858.02
322.76	4820.87
322.824	4781.18
322.889	4736.43
322.953	4690.78
323.018	4622.42
323.082	4561.13
323.146	4509.51
323.211	4456.55
323.275	4413.06
323.34	4375.95
323.404	4345.43
323.468	4300.66
323.533	4254.04
323.597	4212.6
323.662	4165.93
323.726	4130.36
323.79	4083.75
323.855	4020.24
323.919	3967.43
323.983	3924.75
324.048	3856.97
324.112	3987.02
324.177	3864.09
324.241	3663.17
324.305	3466.15
324.37	3273.78
324.434	3088.48
324.498	3047.62
324.562	3001.93
324.627	2942.03
324.691	2885.17
324.755	2816
324.82	2742.76
324.884	2671.31
324.948	2599.28
325.012	2505.13
325.077	2385.39
