Data from 20250630_urea_2M_MAYP1162681_02-42-26-681.txt Node
Date: Tue Jul 01 02:42:26 BST 2025
User: adleo
Spectrometer: MAYP116268
Trigger mode: 0
Integration Time (sec): 1.000000E0
Scans to average: 1
Electric dark correction enabled: true
Nonlinearity correction enabled: true
Boxcar width: 10
XAxis mode: Wavelengths
Number of Pixels in Spectrum: 2068
>>>>>Begin Spectral Data<<<<<
179.565	1069.04
179.642	1118.93
179.718	1158.08
179.795	1193.78
179.871	1221.72
179.948	1235.52
180.024	1254.14
180.101	1273.4
180.177	1287.86
180.254	1307.51
180.33	1326.04
180.407	1371.42
180.483	1455.22
180.56	1533.52
180.636	1608.1
180.712	1599.73
180.789	1607.57
180.865	1615.98
180.942	1625.48
181.018	1634.69
181.095	1647.33
181.171	1652.6
181.248	1651.99
181.324	1664.01
181.4	1668.66
181.477	1678.64
181.553	1692.89
181.63	1711.66
181.706	1724.16
181.782	1728.67
181.859	1727.91
181.935	1733.66
182.011	1729.1
182.088	1745.97
182.164	1764.98
182.24	1777.43
182.317	1786.93
182.393	1785.41
182.469	1800
182.546	1807.32
182.622	1810.93
182.698	1807.37
182.775	1816.4
182.851	1830.32
182.927	1828.33
183.003	1823.62
183.08	1817.54
183.156	1822.2
183.232	1816.87
183.308	1807.75
183.385	1815.21
183.461	1831.7
183.537	1834.22
183.613	1846.06
183.69	1833.98
183.766	1821.91
183.842	1827.23
183.918	1832.03
183.995	1842.35
184.071	1847.58
184.147	1845.44
184.223	1835.7
184.299	1846.39
184.375	1838.46
184.452	1845.21
184.528	1890.33
184.604	1902.25
184.68	1912.66
184.756	1923.22
184.832	1931.54
184.908	1936.57
184.985	1938.19
185.061	1923.26
185.137	1929.49
185.213	1917.61
185.289	1923.74
185.365	1916.71
185.441	1916.85
185.517	1927.41
185.593	1927.41
185.669	1922.27
185.745	1929.55
185.822	1943.09
185.898	1938.48
185.974	1944.7
186.05	1936.29
186.126	1901.49
186.202	1893.79
186.278	1891.6
186.354	1880.19
186.43	1881.09
186.506	1881.09
186.582	1881.04
186.658	1886.13
186.734	1866.22
186.81	1869.54
186.886	1870.49
186.962	1884.47
187.038	1881.04
187.114	1873.77
187.19	1882.09
187.266	1872.77
187.341	1875.82
187.417	1871.54
187.493	1868.97
187.569	1871.68
187.645	1866.98
187.721	1855.52
187.797	1865.64
187.873	1869.78
187.949	1865.64
188.025	1860.56
188.101	1859.41
188.176	1861.98
188.252	1859.42
188.328	1868.68
188.404	1866.21
188.48	1859.32
188.556	1852.52
188.632	1850.95
188.707	1850.43
188.783	1844.58
188.859	1839.31
188.935	1830.37
189.011	1834.98
189.086	1830.84
189.162	1823.05
189.238	1818.82
189.314	1817.92
189.39	1810.6
189.465	1802.85
189.541	1819.68
189.617	1807.98
189.693	1806.56
189.768	1810.27
189.844	1833.57
189.92	1825.87
189.996	1835.71
190.071	1849.83
190.147	1847.88
190.223	1856.01
190.298	1848.92
190.374	1837.95
190.45	1852.3
190.526	1857.53
190.601	1853.77
190.677	1853.72
190.753	1881.93
190.828	1886.34
190.904	1901.37
190.98	1915.59
191.055	1925.95
191.131	1915.06
191.207	1933.03
191.282	1941.16
191.358	1934.17
191.433	1919.47
191.509	1933.54
191.585	1929.4
191.66	1928.16
191.736	1934.2
191.811	1927.35
191.887	1939.96
191.963	1960.59
192.038	1963.73
192.114	1963.92
192.189	1967.2
192.265	1963.68
192.34	1941.66
192.416	1940.66
192.491	1933.91
192.567	1936.43
192.642	1939.28
192.718	1939.95
192.793	1929.25
192.869	1924.73
192.944	1927.3
193.02	1933.1
193.095	1933.86
193.171	1939.19
193.246	1939.99
193.322	1939.66
193.397	1939.66
193.473	1930.1
193.548	1913.13
193.624	1920.59
193.699	1918.6
193.775	1934.58
193.85	1937.86
193.925	1946.65
194.001	1947.18
194.076	1941.28
194.152	1929.44
194.227	1925.11
194.302	1917.46
194.378	1921.36
194.453	1922.45
194.529	1930.53
194.604	1919.65
194.679	1916.65
194.755	1901.4
194.83	1910.72
194.905	1907.49
194.981	1915.85
195.056	1909.06
195.131	1914.47
195.207	1911.29
195.282	1902.21
195.357	1883.38
195.433	1897.55
195.508	1885.42
195.583	1892.93
195.659	1907.34
195.734	1912.9
195.809	1909.72
195.884	1917.13
195.96	1917.7
196.035	1929.73
196.11	1927.83
196.185	1936.34
196.261	1936.48
196.336	1963.87
196.411	1954.07
196.486	1961.58
196.561	1955.11
196.637	1964.86
196.712	1982.08
196.787	1987.07
196.862	2003.09
196.937	2012.93
197.013	2017.26
197.088	2028.1
197.163	2044.23
197.238	2057.08
197.313	2058.5
197.388	2071.06
197.464	2097.6
197.539	2108.69
197.614	2098.75
197.689	2109.12
197.764	2127.53
197.839	2147.89
197.914	2141.61
197.989	2159.78
198.065	2171.34
198.14	2216.23
198.215	2240.59
198.29	2251.58
198.365	2261.24
198.44	2271.28
198.515	2296.31
198.59	2309.88
198.665	2330.77
198.74	2341.05
198.815	2343.72
198.89	2364.09
198.965	2390.32
199.04	2389.56
199.115	2402.84
199.19	2443
199.265	2449.85
199.34	2457.95
199.415	2486.67
199.49	2509.23
199.565	2519.32
199.64	2540.75
199.715	2539.13
199.79	2542.03
199.865	2548.27
199.94	2544.7
200.015	2574.42
200.09	2579.9
200.165	2585.9
200.24	2595.47
200.315	2633.13
200.39	2644.56
200.464	2649.33
200.539	2651.47
200.614	2664.38
200.689	2683.72
200.764	2692.29
200.839	2705.2
200.914	2708.2
200.989	2701.91
201.063	2712.96
201.138	2697.01
201.213	2697.68
201.288	2681.58
201.363	2685.58
201.438	2683.15
201.512	2698.86
201.587	2681.52
201.662	2683.61
201.737	2692.28
201.812	2701.2
201.886	2669.59
201.961	2680.17
202.036	2673.26
202.111	2669.78
202.186	2642.89
202.26	2628.64
202.335	2610.82
202.41	2605.01
202.485	2590.87
202.559	2571.3
202.634	2547.96
202.709	2557.62
202.784	2537.1
202.858	2536.44
202.933	2521.15
203.008	2515.91
203.082	2497.82
203.157	2497.2
203.232	2458.18
203.306	2439.84
203.381	2408.65
203.456	2387.56
203.53	2368.36
203.605	2345.19
203.68	2324.57
203.754	2321.43
203.829	2307.34
203.904	2285.83
203.978	2275.5
204.053	2279.12
204.127	2268.27
204.202	2265.46
204.277	2246.38
204.351	2243.05
204.426	2233.58
204.5	2226.15
204.575	2194.28
204.65	2204.94
204.724	2195.47
204.799	2204.79
204.873	2201.7
204.948	2197.03
205.022	2188.09
205.097	2179.05
205.171	2192.93
205.246	2199.07
205.32	2197.12
205.395	2198.84
205.469	2190.94
205.544	2193.71
205.618	2176.34
205.693	2183
205.767	2172.72
205.842	2191.95
205.916	2187.43
205.991	2181.81
206.065	2186.33
206.14	2199.84
206.214	2196.27
206.289	2192.22
206.363	2203.07
206.438	2206.11
206.512	2215.63
206.586	2232.81
206.661	2239.14
206.735	2222.78
206.81	2224.06
206.884	2238.43
206.958	2223.92
207.033	2240.66
207.107	2248.04
207.181	2281.03
207.256	2280.75
207.33	2298.35
207.405	2313.16
207.479	2329.82
207.553	2335.43
207.628	2321.21
207.702	2334.39
207.776	2327.73
207.851	2329.16
207.925	2342.96
207.999	2339.82
208.073	2339.92
208.148	2338.92
208.222	2330.16
208.296	2354.14
208.371	2369.19
208.445	2375.8
208.519	2403.97
208.593	2416.68
208.668	2412.92
208.742	2410.97
208.816	2413.11
208.89	2424.49
208.965	2423.68
209.039	2431.3
209.113	2446.73
209.187	2465.23
209.261	2460.38
209.336	2477.42
209.41	2497.9
209.484	2498.99
209.558	2519.85
209.632	2529.85
209.707	2538.56
209.781	2556.94
209.855	2575.89
209.929	2592.05
210.003	2601.1
210.077	2603.2
210.151	2643.86
210.226	2676.6
210.3	2702.1
210.374	2722.34
210.448	2729.35
210.522	2736.78
210.596	2747.41
210.67	2756.74
210.744	2802.21
210.818	2832.69
210.892	2854.42
210.966	2849.7
211.041	2866.62
211.115	2861.19
211.189	2888.5
211.263	2909.08
211.337	2917.47
211.411	2930.2
211.485	2926.67
211.559	2938.63
211.633	2941.92
211.707	2919.69
211.781	2931.57
211.855	2901.87
211.929	2897.11
212.003	2882.96
212.077	2899.17
212.151	2917.25
212.225	2931.5
212.299	2928.3
212.373	2928.87
212.447	2932.98
212.52	2969.59
212.594	2983.18
212.668	3010.69
212.742	3008.4
212.816	3018.18
212.89	3027.19
212.964	3045.27
213.038	3067.4
213.112	3100.7
213.186	3132.94
213.26	3133.37
213.333	3115.19
213.407	3150.42
213.481	3181.56
213.555	3221.88
213.629	3242.89
213.703	3259.69
213.777	3293.38
213.85	3312.33
213.924	3379.85
213.998	3424.54
214.072	3457.26
214.146	3489.3
214.219	3532.47
214.293	3578.59
214.367	3629.98
214.441	3692.45
214.515	3733.44
214.588	3767.46
214.662	3791.44
214.736	3835.49
214.81	3908.99
214.883	3981.73
214.957	4035.87
215.031	4094.02
215.105	4145.81
215.178	4203.06
215.252	4268.47
215.326	4322.95
215.4	4384.78
215.473	4418
215.547	4476.44
215.621	4549.64
215.694	4640.85
215.768	4709.84
215.842	4789.75
215.915	4870.08
215.989	4940.92
216.063	5030.95
216.136	5126.9
216.21	5224.76
216.284	5333.03
216.357	5425.39
216.431	5523.37
216.504	5631.24
216.578	5756.79
216.652	5870.99
216.725	5981.44
216.799	6099.87
216.873	6210.31
216.946	6329.6
217.02	6438.63
217.093	6550.87
217.167	6645.13
217.24	6736.58
217.314	6848.29
217.387	6955.59
217.461	7058.21
217.535	7182.61
217.608	7284.59
217.682	7398.55
217.755	7529.21
217.829	7638.98
217.902	7760.72
217.976	7872.18
218.049	7985
218.123	8087.13
218.196	8213.31
218.27	8318.19
218.343	8416.59
218.417	8537.71
218.49	8652.77
218.563	8782.81
218.637	8900.98
218.71	9044.39
218.784	9176.35
218.857	9299.26
218.931	9424.83
219.004	9544.87
219.077	9664.4
219.151	9780.02
219.224	9893.21
219.298	9996.96
219.371	10118.64
219.444	10223.22
219.518	10343.84
219.591	10455.27
219.665	10586.81
219.738	10696.61
219.811	10803.57
219.885	10930.15
219.958	11042.09
220.031	11148.11
220.105	11267.96
220.178	11376.49
220.251	11466.91
220.325	11576.65
220.398	11684.47
220.471	11785.54
220.544	11903
220.618	12002.15
220.691	12111.12
220.764	12215.72
220.838	12331.16
220.911	12428.34
220.984	12543.5
221.057	12643.66
221.131	12737.76
221.204	12805.77
221.277	12914.72
221.35	13039.76
221.424	13127.98
221.497	13223.66
221.57	13320.94
221.643	13409.59
221.716	13515.26
221.79	13600.73
221.863	13676.56
221.936	13765.89
222.009	13856.37
222.082	13941.31
222.155	14024.61
222.229	14127.67
222.302	14219.07
222.375	14296.1
222.448	14380.94
222.521	14462.75
222.594	14540.93
222.667	14617.48
222.74	14712.01
222.814	14781.96
222.887	14840.43
222.96	14927.68
223.033	15013.04
223.106	15090.65
223.179	15172.6
223.252	15240.85
223.325	15318.36
223.398	15396.25
223.471	15461.95
223.544	15532.04
223.617	15598.94
223.69	15665.94
223.763	15720.07
223.837	15789.48
223.91	15859.99
223.983	15902.02
224.056	15952.2
224.129	16023.87
224.202	16098.39
224.275	16159.55
224.348	16212.67
224.42	16269.59
224.493	16307.76
224.566	16355.52
224.639	16412.4
224.712	16452.4
224.785	16497.17
224.858	16547.25
224.931	16588.17
225.004	16629.91
225.077	16681.24
225.15	16707.75
225.223	16760.95
225.296	16831.99
225.369	16868.14
225.442	16900.52
225.514	16964.58
225.587	17026.46
225.66	17070.02
225.733	17119.47
225.806	17164.92
225.879	17208.92
225.952	17246.41
226.025	17309.93
226.097	17366.94
226.17	17406.85
226.243	17437.11
226.316	17487.52
226.389	17527.28
226.461	17584.78
226.534	17637.16
226.607	17680.34
226.68	17750.61
226.753	17785.35
226.825	17797.01
226.898	17846.56
226.971	17890.12
227.044	17930.99
227.117	17964.24
227.189	18007.76
227.262	18061.92
227.335	18107.9
227.407	18150.11
227.48	18199.17
227.553	18234.49
227.626	18273.96
227.698	18308.56
227.771	18359.4
227.844	18387.64
227.916	18428.41
227.989	18454.05
228.062	18492.26
228.134	18543.54
228.207	18577.46
228.28	18612.45
228.352	18649.51
228.425	18683.14
228.498	18734.66
228.57	18757.98
228.643	18800.25
228.716	18836.24
228.788	18853.01
228.861	18885.59
228.934	18920.72
229.006	18944.19
229.079	18979.56
229.151	18993.15
229.224	19021.15
229.296	19041.77
229.369	19098.15
229.442	19148.99
229.514	19165.86
229.587	19203.11
229.659	19208.51
229.732	19232.65
229.804	19271.49
229.877	19327.35
229.949	19369.22
230.022	19405.99
230.094	19436.3
230.167	19463.92
230.239	19473.36
230.312	19493.65
230.384	19531.53
230.457	19552.2
230.529	19579.43
230.602	19599.47
230.674	19627.18
230.747	19657.25
230.819	19696.05
230.892	19680.67
230.964	19697.98
231.037	19733.73
231.109	19746.94
231.181	19781.06
231.254	19792.38
231.326	19806.55
231.399	19810.64
231.471	19814.98
231.544	19809.2
231.616	19831.46
231.688	19850.26
231.761	19860.91
231.833	19876.42
231.905	19865.29
231.978	19887.51
232.05	19901.97
232.122	19917.15
232.195	19926.11
232.267	19944.95
232.339	19949.48
232.412	19983.79
232.484	19987.22
232.556	19990.06
232.629	20017.86
232.701	20027.99
232.773	20041.43
232.846	20047.45
232.918	20061.62
232.99	20071.36
233.062	20093
233.135	20106.1
233.207	20101.91
233.279	20116.13
233.351	20130.92
233.424	20129.62
233.496	20112.46
233.568	20138.87
233.64	20126.49
233.713	20132.95
233.785	20140.56
233.857	20155.21
233.929	20134.78
234.001	20151.02
234.074	20161.04
234.146	20140.99
234.218	20145.67
234.29	20141.19
234.362	20128.22
234.434	20110.63
234.507	20093.48
234.579	20074.25
234.651	20054.59
234.723	20058.35
234.795	20063.17
234.867	20051.36
234.939	20059.5
235.012	20071.98
235.084	20063.7
235.156	20076.51
235.228	20067.79
235.3	20052.71
235.372	20040.23
235.444	20049.33
235.516	20017.09
235.588	20019.89
235.66	20016.37
235.732	19996.52
235.804	20032.03
235.876	20034.68
235.948	20037.67
236.02	20040.18
236.092	20030.15
236.164	20025.91
236.236	20004.52
236.308	19992.47
236.38	19988.76
236.452	19970.3
236.524	19946.45
236.596	19946.54
236.668	19924.47
236.74	19906.79
236.812	19899.32
236.884	19886.98
236.956	19868.67
237.028	19846.5
237.1	19810.6
237.172	19809.3
237.244	19812.81
237.316	19770.21
237.388	19750.55
237.46	19727.03
237.532	19715.28
237.604	19675.86
237.675	19680.58
237.747	19670.84
237.819	19638.41
237.891	19618.22
237.963	19584.2
238.035	19570.13
238.107	19508.25
238.178	19506.37
238.25	19481.12
238.322	19467.77
238.394	19423.97
238.466	19401.08
238.538	19396.69
238.609	19382.67
238.681	19344.07
238.753	19312.31
238.825	19288.5
238.897	19275.11
238.968	19263.4
239.04	19227.78
239.112	19234.58
239.184	19196.7
239.255	19173.96
239.327	19143.21
239.399	19115.65
239.471	19116.47
239.542	19100.61
239.614	19094.54
239.686	19032.47
239.758	19025.72
239.829	18997.2
239.901	18993.82
239.973	18962.55
240.044	18930.21
240.116	18898.26
240.188	18872.1
240.259	18836.97
240.331	18799.33
240.403	18772.25
240.474	18736.44
240.546	18709.41
240.618	18664.49
240.689	18631
240.761	18605.37
240.833	18613.17
240.904	18577.56
240.976	18545.03
241.048	18511.64
241.119	18487.54
241.191	18473.85
241.262	18454.15
241.334	18422.29
241.405	18391.74
241.477	18367.02
241.549	18343.16
241.62	18326.73
241.692	18302.44
241.763	18288.76
241.835	18262.3
241.906	18231.02
241.978	18178.98
242.049	18152.95
242.121	18145.39
242.192	18126.06
242.264	18082.11
242.335	18024.04
242.407	18003.51
242.478	17966.55
242.55	17940.53
242.621	17907.04
242.693	17872.48
242.764	17842.51
242.836	17804.53
242.907	17775.18
242.979	17747.09
243.05	17723.09
243.122	17690.99
243.193	17657.26
243.264	17603.72
243.336	17572.34
243.407	17549.41
243.479	17543.53
243.55	17516.78
243.622	17477.5
243.693	17437.45
243.764	17409.12
243.836	17372.49
243.907	17341.26
243.978	17311.14
244.05	17282.95
244.121	17237.11
244.192	17214.8
244.264	17164.82
244.335	17135.52
244.407	17090.65
244.478	17062.89
244.549	17012.87
244.62	16971.81
244.692	16939.18
244.763	16919.66
244.834	16882.89
244.906	16842.45
244.977	16811.37
245.048	16799.9
245.119	16770.16
245.191	16743.41
245.262	16701.63
245.333	16684.56
245.405	16649.86
245.476	16622.82
245.547	16593.91
245.618	16570
245.689	16543.93
245.761	16516.41
245.832	16482.33
245.903	16456.5
245.974	16426.14
246.045	16403.39
246.117	16388.64
246.188	16349.21
246.259	16301.21
246.33	16273.16
246.401	16244.04
246.473	16201.05
246.544	16151.41
246.615	16125
246.686	16080.41
246.757	16064.03
246.828	16015.63
246.899	15998.52
246.97	15949.07
247.042	15909.45
247.113	15885.69
247.184	15868.87
247.255	15826.55
247.326	15799.03
247.397	15761.96
247.468	15733.47
247.539	15705.71
247.61	15659.34
247.681	15633.8
247.752	15612.2
247.823	15563.71
247.894	15529.83
247.965	15490.3
248.037	15458.39
248.108	15412.21
248.179	15380.79
248.25	15350.13
248.321	15330.66
248.392	15295.61
248.463	15287.95
248.534	15259.37
248.605	15239.31
248.675	15205.86
248.746	15183.16
248.817	15161.76
248.888	15148.5
248.959	15099.14
249.03	15072.54
249.101	15043.52
249.172	15013.1
249.243	14966.15
249.314	14958.15
249.385	14933.23
249.456	14905.61
249.527	14868.49
249.598	14841.59
249.669	14821.87
249.739	14795.51
249.81	14771.07
249.881	14723.06
249.952	14698.62
250.023	14659.33
250.094	14616.57
250.165	14576.66
250.235	14544.36
250.306	14514.67
250.377	14473.31
250.448	14457.5
250.519	14415.7
250.59	14404.71
250.66	14373.81
250.731	14370.05
250.802	14340.6
250.873	14319.63
250.944	14298.04
251.014	14273.93
251.085	14273.06
251.156	14251.32
251.227	14230.02
251.297	14217.87
251.368	14203.02
251.439	14175.5
251.51	14169.18
251.58	14133.61
251.651	14103.09
251.722	14090.22
251.792	14049.44
251.863	14024.9
251.934	14011.64
252.005	14005.38
252.075	13973.9
252.146	13960.64
252.217	13941.94
252.287	13930.13
252.358	13894.6
252.429	13886.74
252.499	13852.61
252.57	13826.97
252.641	13803.78
252.711	13785.56
252.782	13736.53
252.852	13734.07
252.923	13714.07
252.994	13692.86
253.064	13683.55
253.135	13647.69
253.205	13620.21
253.276	13617.07
253.347	13599.62
253.417	13568.29
253.488	13541.44
253.558	13512.51
253.629	13480.41
253.699	13464.79
253.77	13440.98
253.841	13414.75
253.911	13397.88
253.982	13382.69
254.052	13361.92
254.123	13337.48
254.193	13313.71
254.264	13345
254.334	13308.36
254.405	13281.65
254.475	13245.69
254.546	13220.77
254.616	13214.31
254.687	13191.31
254.757	13170.15
254.827	13144.12
254.898	13125.27
254.968	13098.76
255.039	13077.02
255.109	13064.34
255.18	13024.52
255.25	12983.5
255.321	12972.22
255.391	12931.1
255.461	12924.59
255.532	12883.47
255.602	12866.98
255.673	12825.04
255.743	12779.2
255.813	12732.88
255.884	12719.76
255.954	12700.67
256.024	12690.41
256.095	12667.65
256.165	12638.15
256.235	12613.71
256.306	12586.86
256.376	12576.5
256.446	12561.46
256.517	12544.1
256.587	12535.52
256.657	12518.6
256.728	12498.41
256.798	12476.43
256.868	12449.14
256.938	12423.59
257.009	12410.68
257.079	12390.04
257.149	12389.66
257.219	12356.06
257.29	12352.35
257.36	12308.29
257.43	12300.34
257.5	12269.49
257.571	12249.87
257.641	12235.02
257.711	12206.49
257.781	12202.58
257.852	12173.95
257.922	12140.3
257.992	12119.05
258.062	12092.87
258.132	12081.25
258.202	12068.63
258.273	12049.01
258.343	12046.45
258.413	12020.86
258.483	12003.89
258.553	11978.44
258.623	11952.03
258.693	11929.9
258.764	11921.23
258.834	11911.63
258.904	11892.98
258.974	11859.05
259.044	11837.5
259.114	11820.78
259.184	11806.9
259.254	11778.84
259.324	11753.3
259.394	11742.21
259.464	11742.6
259.535	11721.49
259.605	11693.19
259.675	11665.62
259.745	11650.06
259.815	11622.97
259.885	11598.68
259.955	11600.94
260.025	11568.46
260.095	11555.21
260.165	11545.81
260.235	11537.13
260.305	11511.11
260.375	11479.25
260.445	11485.32
260.515	11482.57
260.585	11481.32
260.655	11461.61
260.725	11451.58
260.795	11443
260.865	11442.76
260.934	11407.96
261.004	11399.24
261.074	11388.98
261.144	11375.48
261.214	11370.18
261.284	11350.04
261.354	11339.29
261.424	11307.81
261.494	11314.71
261.564	11291.14
261.634	11286.22
261.703	11250.66
261.773	11245.55
261.843	11242.03
261.913	11219.62
261.983	11180.1
262.053	11171.38
262.123	11147.24
262.192	11122.71
262.262	11105.98
262.332	11069.41
262.402	11063.48
262.472	11042.42
262.541	11002.38
262.611	11004.88
262.681	10974.33
262.751	10967.29
262.821	10952.35
262.89	10927.58
262.96	10911.87
263.03	10914.09
263.1	10894.24
263.169	10879.54
263.239	10866.91
263.309	10869.76
263.379	10851.11
263.448	10847.93
263.518	10820.51
263.588	10815.11
263.657	10807.21
263.727	10799.16
263.797	10790.68
263.867	10768.71
263.936	10745.77
264.006	10743.84
264.076	10724.71
264.145	10715.27
264.215	10695.75
264.285	10686.12
264.354	10655.38
264.424	10633.21
264.494	10601.56
264.563	10580.69
264.633	10580.69
264.702	10568.4
264.772	10529.47
264.842	10514.49
264.911	10493.38
264.981	10474.78
265.05	10451.46
265.12	10436.38
265.19	10424.96
265.259	10413.02
265.329	10405.45
265.398	10391.82
265.468	10402.9
265.537	10379.29
265.607	10368.06
265.676	10361.66
265.746	10351.1
265.815	10348.46
265.885	10331.55
265.955	10310.64
266.024	10289.44
266.094	10259.09
266.163	10265.16
266.232	10263.43
266.302	10252.25
266.371	10245.75
266.441	10222.24
266.51	10221.37
266.58	10205.28
266.649	10179.26
266.719	10176.32
266.788	10165.58
266.858	10165.77
266.927	10121.55
266.996	10115.96
267.066	10106.91
267.135	10089.61
267.205	10083.3
267.274	10068.75
267.343	10067.16
267.413	10048.14
267.482	10048.86
267.552	10048.23
267.621	10012.58
267.69	9980.98
267.76	9973.81
267.829	9960.75
267.898	9958.06
267.968	9931.52
268.037	9921.74
268.106	9921.98
268.176	9901.6
268.245	9894.28
268.314	9878
268.384	9886.43
268.453	9868.61
268.522	9852.56
268.592	9841.05
268.661	9816.39
268.73	9808.83
268.799	9786.96
268.869	9798.38
268.938	9769.82
269.007	9748.43
269.076	9735.09
269.146	9735.86
269.215	9727.09
269.284	9731.91
269.353	9707.3
269.422	9697.86
269.492	9685.58
269.561	9646.81
269.63	9638.34
269.699	9611.75
269.768	9592.39
269.838	9581.5
269.907	9579.19
269.976	9547.12
270.045	9524.1
270.114	9521.31
270.183	9504.79
270.253	9497.95
270.322	9468.38
270.391	9461.26
270.46	9466.99
270.529	9465.45
270.598	9460.29
270.667	9437.08
270.736	9413.1
270.806	9413.39
270.875	9412.13
270.944	9392.01
271.013	9412.09
271.082	9396.82
271.151	9394.22
271.22	9372.84
271.289	9361.33
271.358	9346.21
271.427	9348.67
271.496	9339.91
271.565	9322.76
271.634	9315.59
271.703	9312.94
271.772	9313.57
271.841	9295.71
271.91	9270.04
271.979	9254.44
272.048	9234.5
272.117	9238.16
272.186	9226.13
272.255	9221.36
272.324	9221.74
272.393	9221.31
272.462	9204.46
272.531	9199.11
272.6	9183.08
272.669	9190.97
272.738	9174.7
272.807	9170.17
272.876	9151.35
272.945	9170.22
273.013	9169.45
273.082	9175.62
273.151	9164.06
273.22	9164.4
273.289	9165.07
273.358	9170.42
273.427	9163.39
273.496	9162.95
273.564	9154.67
273.633	9152.89
273.702	9133.34
273.771	9118.47
273.84	9118.61
273.909	9115.77
273.977	9105.9
274.046	9098.58
274.115	9098.15
274.184	9086.12
274.253	9077.59
274.322	9088.71
274.39	9058.82
274.459	9049.86
274.528	9021.99
274.597	9008.32
274.665	8998.01
274.734	9002.11
274.803	8992.86
274.872	8983.76
274.94	8963.88
275.009	8988.2
275.078	8975.01
275.147	8974.43
275.215	8964.47
275.284	8963.74
275.353	8948.48
275.421	8930.67
275.49	8947.38
275.559	8941.41
275.627	8933.85
275.696	8923.36
275.765	8917.58
275.833	8908.92
275.902	8903.14
275.971	8909.54
276.039	8921.48
276.108	8922.44
276.177	8917.77
276.245	8909.69
276.314	8907.47
276.383	8915.17
276.451	8882.77
276.52	8881.13
276.588	8890.14
276.657	8897.4
276.725	8890.76
276.794	8893.65
276.863	8903.13
276.931	8878.39
277	8879.49
277.068	8885.46
277.137	8899.76
277.205	8893.45
277.274	8909.34
277.342	8913.86
277.411	8897.84
277.48	8882.96
277.548	8870.54
277.617	8875.26
277.685	8864.14
277.754	8868.09
277.822	8853.41
277.89	8865.11
277.959	8861.64
278.027	8847.73
278.096	8835.02
278.164	8856.4
278.233	8848.26
278.301	8838.3
278.37	8842.01
278.438	8825.88
278.507	8827.08
278.575	8807.25
278.643	8804.03
278.712	8788.96
278.78	8777.79
278.849	8785.06
278.917	8794.78
278.985	8793.97
279.054	8792.23
279.122	8804.46
279.191	8796.71
279.259	8796.13
279.327	8776.83
279.396	8791.07
279.464	8784.48
279.532	8788.38
279.601	8779.23
279.669	8774.32
279.737	8784.28
279.806	8783.71
279.874	8789.19
279.942	8785.54
280.011	8776.54
280.079	8783.47
280.147	8798.15
280.215	8801.86
280.284	8804.74
280.352	8790.35
280.42	8790.35
280.488	8777.16
280.557	8773.02
280.625	8782.17
280.693	8783.56
280.761	8784.09
280.83	8761.76
280.898	8768.74
280.966	8752.52
281.034	8719.84
281.102	8708.57
281.171	8705.59
281.239	8711.03
281.307	8702.9
281.375	8693.27
281.443	8715.75
281.512	8712.04
281.58	8717.58
281.648	8696.79
281.716	8686.73
281.784	8690.1
281.852	8684.95
281.92	8681
281.989	8684.9
282.057	8662.86
282.125	8696.12
282.193	8690.49
282.261	8695.4
282.329	8693.47
282.397	8695.49
282.465	8709.84
282.533	8721.34
282.601	8709.93
282.67	8690.2
282.738	8684.33
282.806	8698.09
282.874	8684.95
282.942	8686.73
283.01	8677.34
283.078	8690.67
283.146	8689.9
283.214	8695.1
283.282	8705.79
283.35	8714.79
283.418	8707.71
283.486	8717.87
283.554	8680.75
283.622	8682.68
283.69	8679.07
283.758	8670.79
283.826	8677.53
283.894	8676.66
283.962	8689.51
284.03	8697.36
284.098	8698.95
284.165	8699.48
284.233	8696.15
284.301	8691.53
284.369	8679.07
284.437	8670.21
284.505	8658.95
284.573	8673.15
284.641	8660.15
284.709	8659.1
284.777	8650.48
284.845	8662.18
284.912	8660.44
284.98	8666.27
285.048	8659.87
285.116	8663.72
285.184	8678.2
285.252	8676.47
285.319	8666.99
285.387	8660.3
285.455	8650.87
285.523	8655.92
285.591	8652.55
285.659	8651.49
285.726	8660.39
285.794	8650.19
285.862	8644.95
285.93	8645.38
285.997	8635.9
286.065	8632.53
286.133	8622.95
286.201	8612.85
286.269	8594.22
286.336	8587.19
286.404	8576.37
286.472	8586.71
286.539	8566.5
286.607	8552.21
286.675	8551.58
286.743	8550.14
286.81	8540.22
286.878	8550.38
286.946	8540.47
287.013	8535.22
287.081	8530.07
287.149	8518.76
287.216	8535.99
287.284	8528.34
287.352	8533.78
287.419	8531.75
287.487	8547.4
287.555	8556.83
287.622	8558.37
287.69	8570.4
287.758	8585.18
287.825	8587.29
287.893	8574.93
287.96	8586.14
288.028	8596.05
288.096	8596.48
288.163	8602.21
288.231	8598.07
288.298	8592.92
288.366	8608.71
288.433	8613.28
288.501	8609.14
288.569	8609.96
288.636	8602.69
288.704	8615.25
288.771	8623.05
288.839	8616.94
288.906	8606.25
288.974	8605.14
289.041	8604.52
289.109	8587.29
289.176	8589.84
289.244	8592.82
289.311	8607.26
289.379	8611.88
289.446	8608.23
289.514	8610.68
289.581	8606.49
289.649	8604.38
289.716	8609.86
289.783	8600.77
289.851	8613.71
289.918	8613.37
289.986	8624.68
290.053	8636.52
290.121	8637.34
290.188	8631.47
290.255	8655.54
290.323	8655.05
290.39	8651.4
290.458	8656.55
290.525	8671.85
290.592	8661.07
290.66	8659.05
290.727	8649.52
290.794	8665.06
290.862	8666.75
290.929	8671.08
290.996	8675.41
291.064	8688.36
291.131	8703.38
291.198	8720.9
291.266	8721.23
291.333	8728.11
291.4	8733.94
291.468	8745.3
291.535	8738.22
291.602	8746.12
291.669	8744.19
291.737	8749.92
291.804	8747.18
291.871	8762.34
291.938	8765.61
292.006	8797
292.073	8806.57
292.14	8816.83
292.207	8809.46
292.275	8816.87
292.342	8824.62
292.409	8847.78
292.476	8866.99
292.543	8852.01
292.611	8846.62
292.678	8860.87
292.745	8885.37
292.812	8891.73
292.879	8888.36
292.946	8897.69
293.014	8911.8
293.081	8914.4
293.148	8925.95
293.215	8942.51
293.282	8939.09
293.349	8955.41
293.416	8943.38
293.484	8964.6
293.551	8978.08
293.618	8987.81
293.685	9003.16
293.752	8996.47
293.819	8998.35
293.886	8990.31
293.953	8996.13
294.02	9010.48
294.087	9015.49
294.154	9008.46
294.221	9023.96
294.288	9024.44
294.356	9046.59
294.423	9055.21
294.49	9051.11
294.557	9063.68
294.624	9064.26
294.691	9086.84
294.758	9085.87
294.825	9092.71
294.892	9084.72
294.959	9084.72
295.026	9098.68
295.093	9093.62
295.16	9099.74
295.226	9100.03
295.293	9120.59
295.36	9130.02
295.427	9143.12
295.494	9158.05
295.561	9161.99
295.628	9187.18
295.695	9207.45
295.762	9207.74
295.829	9203.07
295.896	9220.3
295.963	9228.92
296.03	9234.07
296.096	9235.81
296.163	9240.43
296.23	9257.04
296.297	9270.96
296.364	9268.89
296.431	9272.45
296.498	9273.32
296.564	9293.15
296.631	9292.29
296.698	9280.06
296.765	9297.1
296.832	9286.65
296.899	9271.68
296.965	9290.36
297.032	9262.04
297.099	9270.9
297.166	9279.76
297.233	9288.52
297.299	9283.66
297.366	9285.01
297.433	9291.32
297.5	9295.12
297.566	9300.76
297.633	9293.58
297.7	9293.58
297.767	9294.98
297.833	9301.04
297.9	9300.32
297.967	9285.64
298.033	9307.06
298.1	9333.21
298.167	9328.83
298.234	9332.68
298.3	9341.64
298.367	9337.06
298.434	9346.41
298.5	9340.1
298.567	9333.31
298.634	9330.18
298.7	9349.97
298.767	9348.81
298.834	9360.18
298.9	9359.74
298.967	9353.34
299.033	9364.27
299.1	9381.94
299.167	9397.3
299.233	9394.56
299.3	9412.04
299.366	9430.48
299.433	9435.54
299.5	9407.32
299.566	9414.78
299.633	9429.95
299.699	9441.12
299.766	9439.34
299.832	9438.04
299.899	9445.36
299.965	9457.54
300.032	9457.98
300.099	9461.3
300.165	9465.54
300.232	9460.91
300.298	9464.53
300.365	9478.54
300.431	9479.26
300.498	9471.17
300.564	9473
300.631	9482.05
300.697	9493.23
300.763	9494.24
300.83	9491.73
300.896	9514.03
300.963	9515.14
301.029	9520.19
301.096	9524.48
301.162	9536.37
301.229	9537.14
301.295	9527.37
301.361	9533.97
301.428	9537.24
301.494	9524.43
301.561	9528.24
301.627	9533.77
301.693	9531.99
301.76	9534.45
301.826	9527.18
301.892	9536.81
301.959	9550.24
302.025	9551.45
302.092	9548.75
302.158	9554.53
302.224	9557.95
302.291	9550.97
302.357	9552.51
302.423	9541.33
302.49	9533.63
302.556	9540.28
302.622	9539.36
302.688	9550.53
302.755	9557.37
302.821	9568.06
302.887	9580.92
302.954	9572.45
303.02	9575.38
303.086	9581.11
303.152	9580.01
303.219	9574.13
303.285	9573.5
303.351	9570.23
303.417	9565.41
303.483	9553.37
303.55	9548.94
303.616	9545.72
303.682	9542.68
303.748	9531.66
303.815	9547.69
303.881	9556.12
303.947	9543.74
304.013	9543.89
304.079	9532.62
304.145	9511.14
304.212	9502.81
304.278	9489.76
304.344	9491.98
304.41	9480.13
304.476	9473.19
304.542	9463.76
304.608	9471.99
304.674	9457.98
304.741	9453.21
304.807	9453.93
304.873	9463.03
304.939	9471.75
305.005	9453.4
305.071	9451.19
305.137	9460.87
305.203	9434.76
305.269	9421.62
305.335	9434.19
305.401	9441.7
305.467	9438.62
305.533	9450.94
305.599	9462.26
305.666	9475.12
305.732	9482.97
305.798	9490.39
305.864	9506.08
305.93	9510.13
305.996	9508.2
306.062	9511.48
306.128	9509.17
306.194	9500.93
306.259	9497.99
306.325	9488.46
306.391	9499.15
306.457	9505.65
306.523	9499.39
306.589	9525.54
306.655	9526.84
306.721	9507.67
306.787	9489.28
306.853	9503.77
306.919	9485.14
306.985	9471.51
307.051	9460.19
307.117	9444.45
307.183	9439.63
307.248	9416.71
307.314	9426.39
307.38	9429.81
307.446	9431.49
307.512	9423.4
307.578	9427.49
307.644	9418.1
307.709	9414.49
307.775	9411.36
307.841	9403.47
307.907	9412.76
307.973	9390.17
308.039	9383.58
308.104	9388.54
308.17	9388.05
308.236	9375.58
308.302	9378.04
308.368	9366.63
308.433	9369.03
308.499	9361.81
308.565	9350.3
308.631	9352.66
308.696	9322.95
308.762	9310.96
308.828	9308.12
308.894	9290.64
308.959	9274.51
309.025	9264.93
309.091	9262.38
309.156	9248.9
309.222	9249.14
309.288	9228.29
309.354	9209.66
309.419	9210.19
309.485	9200.27
309.551	9201.57
309.616	9184.43
309.682	9176.77
309.748	9173.4
309.813	9159
309.879	9162.42
309.945	9153.32
310.01	9145.28
310.076	9149.76
310.141	9140.32
310.207	9128.33
310.273	9129.78
310.338	9131.27
310.404	9116.78
310.469	9108.21
310.535	9102.82
310.601	9086.26
310.666	9091.89
310.732	9098.15
310.797	9086.45
310.863	9073.3
310.928	9069.21
310.994	9071.43
311.059	9070.22
311.125	9067.53
311.191	9085.34
311.256	9069.7
311.322	9076.63
311.387	9058.14
311.453	9352.27
311.518	9327.96
311.584	9318.23
311.649	9317.8
311.715	9304.95
311.78	9310.67
311.846	9299.65
311.911	9307.55
311.976	9307.98
312.042	9288.63
312.107	9280.25
312.173	9268.41
312.238	9264.85
312.304	9258.88
312.369	9254.78
312.434	9249.2
312.5	9243.61
312.565	9204.72
312.631	9209.38
312.696	9201.34
312.761	9207.94
312.827	8900.34
312.892	8933.79
312.958	8935.57
313.023	8938.13
313.088	8937.16
313.154	8923.11
313.219	8910.64
313.284	8895.09
313.35	8889.17
313.415	8880.03
313.48	8874.88
313.546	8883.83
313.611	8892.01
313.676	8885.32
313.741	8874.3
313.807	8879.69
313.872	8880.03
313.937	8883.11
314.003	8888.79
314.068	8888.98
314.133	8888.74
314.198	8885.03
314.264	8871.12
314.329	8857.83
314.394	8847.39
314.459	8842.62
314.525	8856.58
314.59	8856
314.655	8846.47
314.72	8852.25
314.785	8854.27
314.851	8843.11
314.916	8821.69
314.981	8803.25
315.046	8793.82
315.111	8782.94
315.176	8765.8
315.242	8763.4
315.307	8766.33
315.372	8744.62
315.437	8729.08
315.502	8722.19
315.567	8729.56
315.632	8709.58
315.698	8716.42
315.763	8717.43
315.828	8707.47
315.893	8702.6
315.958	8692.93
316.023	8682.25
316.088	8661.55
316.153	8638.84
316.218	8633.88
316.283	8614.92
316.348	8599.81
316.413	8592.6
316.479	8574.12
316.544	8545.68
316.609	8520.32
316.674	8484.91
316.739	8451.32
316.804	8421.16
316.869	8383.29
316.934	8343.16
316.999	8315.59
317.064	8255.65
317.129	8209.12
317.194	8172.99
317.259	8125.45
317.324	8080.34
317.389	8036.47
317.454	8000.01
317.518	7971
317.583	7942.43
317.648	7919.15
317.713	7877.5
317.778	7818.06
317.843	7786.32
317.908	7743.57
317.973	7705.43
318.038	7674.23
318.103	7637.45
318.168	7603.17
318.233	7571.2
318.297	7517.5
318.362	7471.49
318.427	7437.99
318.492	7411.21
318.557	7362.38
318.622	7330.65
318.687	7306.67
318.751	7267.8
318.816	7230.5
318.881	7194.36
318.946	7139.14
319.011	7092.33
319.075	7049.96
319.14	7019.06
319.205	6978.66
319.27	6946.14
319.335	6897.85
319.399	6858.46
319.464	6828.68
319.529	6780.22
319.594	6741.74
319.658	6714.27
319.723	6678.35
319.788	6647.62
319.853	6588.98
319.917	6559.07
319.982	6505.77
320.047	6466.3
320.112	6433.61
320.176	6384.01
320.241	6345.18
320.306	6310.71
320.37	6272.17
320.435	6242.17
320.5	6209.63
320.564	6171.19
320.629	6132.56
320.694	6099.98
320.758	6055.55
320.823	6012.8
320.888	5985.98
320.952	5938.2
321.017	5897.71
321.082	5854.02
321.146	5816.61
321.211	5780.26
321.275	5736.82
321.34	5694.68
321.405	5647.49
321.469	5603.82
321.534	5562.45
321.598	5513.27
321.663	5482.53
321.727	5448.5
321.792	5404.21
321.857	5357.23
321.921	5316.88
321.986	5267.96
322.05	5212.05
322.115	5173.25
322.179	5129.94
322.244	5071.26
322.308	5035.39
322.373	4986.68
322.437	4948.04
322.502	4924.37
322.566	4882.52
322.631	4849.58
322.695	4809.75
322.76	4768.21
322.824	4733.93
322.889	4689.33
322.953	4642.44
323.018	4578.94
323.082	4516.31
323.146	4462.25
323.211	4412.07
323.275	4363.8
323.34	4319.04
323.404	4286.29
323.468	4242.81
323.533	4199.39
323.597	4154.95
323.662	4101.26
323.726	4067.22
323.79	4021.1
323.855	3956.92
323.919	3910.08
323.983	3863.01
324.048	3799.5
324.112	3914.1
324.177	3783.75
324.241	3585.98
324.305	3395.03
324.37	3205.24
324.434	3022.28
324.498	2980.09
324.562	2930.5
324.627	2873.56
324.691	2822.19
324.755	2753.68
324.82	2677.65
324.884	2598.99
324.948	2527.75
325.012	2441.04
325.077	2320.06
