Data from 20250630_urea_2M_MAYP1162681_00-22-27-339.txt Node
Date: Tue Jul 01 00:22:27 BST 2025
User: adleo
Spectrometer: MAYP116268
Trigger mode: 0
Integration Time (sec): 1.000000E0
Scans to average: 1
Electric dark correction enabled: true
Nonlinearity correction enabled: true
Boxcar width: 10
XAxis mode: Wavelengths
Number of Pixels in Spectrum: 2068
>>>>>Begin Spectral Data<<<<<
179.565	1103.43
179.642	1153.51
179.718	1192.2
179.795	1224.8
179.871	1256.37
179.948	1270.97
180.024	1287.78
180.101	1307.98
180.177	1321.6
180.254	1342.04
180.33	1364.76
180.407	1412.22
180.483	1497.64
180.56	1578.93
180.636	1656.22
180.712	1644.62
180.789	1652.46
180.865	1663.53
180.942	1671.13
181.018	1679.73
181.095	1692.65
181.171	1696.69
181.248	1696.17
181.324	1709.86
181.4	1717.13
181.477	1724.49
181.553	1736.04
181.63	1755.95
181.706	1768.54
181.782	1776.19
181.859	1776.71
181.935	1780.28
182.011	1774.86
182.088	1791.83
182.164	1810.51
182.24	1821.25
182.317	1830.09
182.393	1830.47
182.469	1842.83
182.546	1854.76
182.622	1858.22
182.698	1854.75
182.775	1865.64
182.851	1879.8
182.927	1873.1
183.003	1869.16
183.08	1863.55
183.156	1873.48
183.232	1869.68
183.308	1859.65
183.385	1866.69
183.461	1879.95
183.537	1878.95
183.613	1891.17
183.69	1882.37
183.766	1872.86
183.842	1880.23
183.918	1885.7
183.995	1896.92
184.071	1897.72
184.147	1891.26
184.223	1881.19
184.299	1889.89
184.375	1879.71
184.452	1884.71
184.528	1935.49
184.604	1946.95
184.68	1959.12
184.756	1964.35
184.832	1967.67
184.908	1974.61
184.985	1973.52
185.061	1960.26
185.137	1970.53
185.213	1958.6
185.289	1958.69
185.365	1949.28
185.441	1946.66
185.517	1959.46
185.593	1957.89
185.669	1958.08
185.745	1971.87
185.822	1988.88
185.898	1981.56
185.974	1990.16
186.05	1984.79
186.126	1946.56
186.202	1937.57
186.278	1934.29
186.354	1926.73
186.43	1936.29
186.506	1932.92
186.582	1933.25
186.658	1937.24
186.734	1916.28
186.81	1918.89
186.886	1924.69
186.962	1937.43
187.038	1934.34
187.114	1924.45
187.19	1928.16
187.266	1919.17
187.341	1917.93
187.417	1911.09
187.493	1914.32
187.569	1916.22
187.645	1909.47
187.721	1901.67
187.797	1909.66
187.873	1916.7
187.949	1910.14
188.025	1902.1
188.101	1904.05
188.176	1910.37
188.252	1908.19
188.328	1918.26
188.404	1916.5
188.48	1911.13
188.556	1904.52
188.632	1906.38
188.707	1907.47
188.783	1905.76
188.859	1899.15
188.935	1889.6
189.011	1896.77
189.086	1889.83
189.162	1883.32
189.238	1881.66
189.314	1878.47
189.39	1871.3
189.465	1858.6
189.541	1875.95
189.617	1862.79
189.693	1860.03
189.768	1860.65
189.844	1884.14
189.92	1875.83
189.996	1885.62
190.071	1893.37
190.147	1894.51
190.223	1900.21
190.298	1890.52
190.374	1878.63
190.45	1892.89
190.526	1901.3
190.601	1895.65
190.677	1896.88
190.753	1923.43
190.828	1928.18
190.904	1940.87
190.98	1957.61
191.055	1969.92
191.131	1959.61
191.207	1978.81
191.282	1988.27
191.358	1979.24
191.433	1966.49
191.509	1976.71
191.585	1973.05
191.66	1975.61
191.736	1980.84
191.811	1973.28
191.887	1991.83
191.963	2013.37
192.038	2016.13
192.114	2015.08
192.189	2017.37
192.265	2015.23
192.34	1995.1
192.416	1991.82
192.491	1988.25
192.567	1990.2
192.642	1992.68
192.718	1995.48
192.793	1985.69
192.869	1982.55
192.944	1984.12
193.02	1992.35
193.095	1997.62
193.171	2004.99
193.246	2002.47
193.322	1999.53
193.397	1998.05
193.473	1985.02
193.548	1968.33
193.624	1972.85
193.699	1971.7
193.775	1990.54
193.85	1989.78
193.925	1997.58
194.001	1998.53
194.076	1992.87
194.152	1984.36
194.227	1977.7
194.302	1965.3
194.378	1969.96
194.453	1966.3
194.529	1979.8
194.604	1963.82
194.679	1958.07
194.755	1938.91
194.83	1952.9
194.905	1952.42
194.981	1963.36
195.056	1956.18
195.131	1962.46
195.207	1964.31
195.282	1955.99
195.357	1933.11
195.433	1949.18
195.508	1936.39
195.583	1944.38
195.659	1957.17
195.734	1964.4
195.809	1963.36
195.884	1971.48
195.96	1968.72
196.035	1983.46
196.11	1980.56
196.185	1992.16
196.261	1995.59
196.336	2022.74
196.411	2010.13
196.486	2015.93
196.561	2010.04
196.637	2017.07
196.712	2031.63
196.787	2032.82
196.862	2046.18
196.937	2058.44
197.013	2063.96
197.088	2074.85
197.163	2091.55
197.238	2106.5
197.313	2103.02
197.388	2115.53
197.464	2146.27
197.539	2158.11
197.614	2151.17
197.689	2161.44
197.764	2175.1
197.839	2195.84
197.914	2191.75
197.989	2209.4
198.065	2220.49
198.14	2267.29
198.215	2292.36
198.29	2303.88
198.365	2314.88
198.44	2324.25
198.515	2350.53
198.59	2363.71
198.665	2388.32
198.74	2400.27
198.815	2400.75
198.89	2423.97
198.965	2454.17
199.04	2448.21
199.115	2462.49
199.19	2497.76
199.265	2501.43
199.34	2514.48
199.415	2542.92
199.49	2564.58
199.565	2575.91
199.64	2596.43
199.715	2593.38
199.79	2600.15
199.865	2608.39
199.94	2606.91
200.015	2637.97
200.09	2643.68
200.165	2647.68
200.24	2654.16
200.315	2688.49
200.39	2703.54
200.464	2708.93
200.539	2710.36
200.614	2726.45
200.689	2746.94
200.764	2755.95
200.839	2771.76
200.914	2774.28
200.989	2763.32
201.063	2774.09
201.138	2755.05
201.213	2756.43
201.288	2739.61
201.363	2743.8
201.438	2739.94
201.512	2754.94
201.587	2739.31
201.662	2741.7
201.737	2754.7
201.812	2764.24
201.886	2735.24
201.961	2742.68
202.036	2732.34
202.111	2726.34
202.186	2699.01
202.26	2684.72
202.335	2665.75
202.41	2659.8
202.485	2640.75
202.559	2626.18
202.634	2605.51
202.709	2617.17
202.784	2596.69
202.858	2595.4
202.933	2579.59
203.008	2574.69
203.082	2557.83
203.157	2554.69
203.232	2516.08
203.306	2496.98
203.381	2465.73
203.456	2445.87
203.53	2425.81
203.605	2407.44
203.68	2386.77
203.754	2381.02
203.829	2366.5
203.904	2350.5
203.978	2340.79
204.053	2349.5
204.127	2335.27
204.202	2330.32
204.277	2314.57
204.351	2312.28
204.426	2305.81
204.5	2296.96
204.575	2266.32
204.65	2276.41
204.724	2271.22
204.799	2276.36
204.873	2273.12
204.948	2270.98
205.022	2257.37
205.097	2251.32
205.171	2263.27
205.246	2270.55
205.32	2270.98
205.395	2269.31
205.469	2259.66
205.544	2266.56
205.618	2248.86
205.693	2260.33
205.767	2251.86
205.842	2270.13
205.916	2262.9
205.991	2253.43
206.065	2259.62
206.14	2274.6
206.214	2268.03
206.289	2260.27
206.363	2273.64
206.438	2273.93
206.512	2280.21
206.586	2297.05
206.661	2299.24
206.735	2279.88
206.81	2280.26
206.884	2294.92
206.958	2283.12
207.033	2299.2
207.107	2302.58
207.181	2331.28
207.256	2327.38
207.33	2343.56
207.405	2354.85
207.479	2374.17
207.553	2382.64
207.628	2366.52
207.702	2375.51
207.776	2369.75
207.851	2373.65
207.925	2386.23
207.999	2385.61
208.073	2382.18
208.148	2385.51
208.222	2379.23
208.296	2408.78
208.371	2423.64
208.445	2434.16
208.519	2459.53
208.593	2468.81
208.668	2464.43
208.742	2466.34
208.816	2464.43
208.89	2476.82
208.965	2474.86
209.039	2483.34
209.113	2501.25
209.187	2521.75
209.261	2518.33
209.336	2535.9
209.41	2555.66
209.484	2552.99
209.558	2569.14
209.632	2582.47
209.707	2590.66
209.781	2610.52
209.855	2625.48
209.929	2642.55
210.003	2648.07
210.077	2649.22
210.151	2692.5
210.226	2725.82
210.3	2752.04
210.374	2776.04
210.448	2781.24
210.522	2794.54
210.596	2803.92
210.67	2808.78
210.744	2856.12
210.818	2886.27
210.892	2910.58
210.966	2905.82
211.041	2923.35
211.115	2925.31
211.189	2949.56
211.263	2969.2
211.337	2979.73
211.411	2996.85
211.485	2994.37
211.559	3010
211.633	3018.15
211.707	2996.07
211.781	3007.33
211.855	2982.67
211.929	2982.05
212.003	2971.29
212.077	2983.93
212.151	3007.92
212.225	3026.8
212.299	3022.6
212.373	3023.12
212.447	3028.61
212.52	3070.67
212.594	3092.71
212.668	3121.18
212.742	3126.43
212.816	3139.26
212.89	3152.38
212.964	3169.7
213.038	3197.29
213.112	3233.22
213.186	3269.28
213.26	3279.39
213.333	3268.94
213.407	3300.94
213.481	3339.06
213.555	3387.99
213.629	3416.64
213.703	3438.03
213.777	3482.3
213.85	3516.92
213.924	3597.13
213.998	3652.12
214.072	3695.23
214.146	3735.7
214.219	3790.12
214.293	3847.26
214.367	3911.49
214.441	3991.65
214.515	4051.52
214.588	4100.04
214.662	4141.02
214.736	4202.07
214.81	4285.43
214.883	4374.16
214.957	4453.92
215.031	4529.78
215.105	4595.26
215.178	4672.26
215.252	4759.09
215.326	4826.07
215.4	4900.71
215.473	4956.43
215.547	5031.12
215.621	5123.86
215.694	5235.73
215.768	5323.92
215.842	5422.65
215.915	5524.89
215.989	5611.41
216.063	5715.84
216.136	5831.48
216.21	5953.36
216.284	6087.01
216.357	6212.93
216.431	6328.69
216.504	6459.32
216.578	6605.3
216.652	6745.19
216.725	6878.67
216.799	7021.14
216.873	7156.85
216.946	7299.16
217.02	7426.93
217.093	7568.15
217.167	7682.91
217.24	7800.88
217.314	7933.59
217.387	8069.49
217.461	8199.23
217.535	8349.52
217.608	8483.19
217.682	8625.44
217.755	8770.54
217.829	8900.99
217.902	9033.74
217.976	9179.41
218.049	9306.13
218.123	9430.94
218.196	9574.77
218.27	9706.73
218.343	9831.24
218.417	9973.9
218.49	10109.64
218.563	10265.13
218.637	10401.37
218.71	10558.82
218.784	10700.22
218.857	10850.45
218.931	10984.89
219.004	11124.15
219.077	11262.27
219.151	11397.78
219.224	11525.11
219.298	11662.71
219.371	11799.98
219.444	11921.72
219.518	12047.71
219.591	12182.57
219.665	12336.19
219.738	12464.07
219.811	12590.84
219.885	12724.08
219.958	12858.23
220.031	12977.68
220.105	13105.13
220.178	13227.72
220.251	13342.25
220.325	13468.07
220.398	13587.23
220.471	13710.35
220.544	13831.4
220.618	13939.95
220.691	14059.84
220.764	14175.82
220.838	14278.07
220.911	14377.9
220.984	14507.62
221.057	14627.31
221.131	14739.97
221.204	14810.97
221.277	14932.01
221.35	15052.76
221.424	15145.45
221.497	15239.78
221.57	15340.19
221.643	15442.66
221.716	15550.01
221.79	15640.82
221.863	15736.98
221.936	15827.74
222.009	15917.01
222.082	16011.67
222.155	16091.44
222.229	16189.62
222.302	16275.22
222.375	16363.08
222.448	16453.26
222.521	16531.63
222.594	16613.22
222.667	16678.87
222.74	16777.09
222.814	16844.37
222.887	16909.97
222.96	16994.64
223.033	17081.59
223.106	17155.08
223.179	17221.78
223.252	17286.17
223.325	17362.99
223.398	17431.52
223.471	17492.77
223.544	17564.34
223.617	17617.06
223.69	17683.52
223.763	17732.05
223.837	17795.28
223.91	17853.83
223.983	17892.48
224.056	17938.5
224.129	17992.67
224.202	18064.86
224.275	18112.04
224.348	18156.95
224.42	18207.46
224.493	18244.95
224.566	18278.49
224.639	18340.42
224.712	18386.73
224.785	18435.06
224.858	18476.46
224.931	18516.55
225.004	18549.22
225.077	18596.64
225.15	18612.55
225.223	18666.37
225.296	18736.68
225.369	18765.79
225.442	18799.62
225.514	18851.33
225.587	18900.38
225.66	18944.38
225.733	18966.02
225.806	18999.75
225.879	19045
225.952	19074.64
226.025	19129.72
226.097	19186.25
226.17	19219.98
226.243	19236.65
226.316	19266.96
226.389	19309.32
226.461	19355.83
226.534	19408.4
226.607	19435
226.68	19509.12
226.753	19529.84
226.825	19528.97
226.898	19577.26
226.971	19619.67
227.044	19657.01
227.117	19690.99
227.189	19730.36
227.262	19783.22
227.335	19822.02
227.407	19834.07
227.48	19861.58
227.553	19888.28
227.626	19908.09
227.698	19933.24
227.771	19979.17
227.844	19998.97
227.916	20021.09
227.989	20037.67
228.062	20055.55
228.134	20099.21
228.207	20112.32
228.28	20130.54
228.352	20162.63
228.425	20186.25
228.498	20220.9
228.57	20242.58
228.643	20269.47
228.716	20279.21
228.788	20291.31
228.861	20307.98
228.934	20344.89
229.006	20369.86
229.079	20385.42
229.151	20401.18
229.224	20398.63
229.296	20414.39
229.369	20456.61
229.442	20495.88
229.514	20502.97
229.587	20532.56
229.659	20534.15
229.732	20557.14
229.804	20586.2
229.877	20628.18
229.949	20656.71
230.022	20685.05
230.094	20691.5
230.167	20713.19
230.239	20721
230.312	20741.24
230.384	20777.82
230.457	20798.5
230.529	20820.28
230.602	20832.95
230.674	20845.2
230.747	20876.47
230.819	20897.92
230.892	20876.81
230.964	20883.7
231.037	20903.22
231.109	20915.99
231.181	20940.77
231.254	20943.66
231.326	20953.73
231.399	20945.92
231.471	20941.29
231.544	20927.7
231.616	20953.25
231.688	20963.42
231.761	20970.21
231.833	20969.92
231.905	20963.03
231.978	20973.05
232.05	20974.36
232.122	20979.03
232.195	20981.63
232.267	21004.96
232.339	21005.11
232.412	21037.73
232.484	21031.8
232.556	21021.35
232.629	21046.02
232.701	21046.84
232.773	21049.11
232.846	21050.51
232.918	21057.35
232.99	21065.21
233.062	21062.31
233.135	21065.78
233.207	21053.64
233.279	21054.55
233.351	21063.13
233.424	21050.7
233.496	21030.22
233.568	21043.23
233.64	21037.3
233.713	21036.58
233.785	21021.54
233.857	21022.75
233.929	20990.55
234.001	20996.67
234.074	21007.76
234.146	20972.72
234.218	20958.07
234.29	20955.61
234.362	20934.88
234.434	20916.81
234.507	20890.79
234.579	20873.34
234.651	20852.76
234.723	20837.24
234.795	20823.26
234.867	20810.83
234.939	20811.02
235.012	20806.01
235.084	20791.26
235.156	20778.01
235.228	20757.19
235.3	20740.76
235.372	20721.53
235.444	20725.96
235.516	20681.67
235.588	20665.33
235.66	20658.15
235.732	20639.11
235.804	20667.21
235.876	20659.74
235.948	20661.28
236.02	20646.34
236.092	20631.84
236.164	20614.25
236.236	20602.73
236.308	20590.58
236.38	20567.55
236.452	20534.2
236.524	20516.17
236.596	20513.52
236.668	20504.32
236.74	20488.61
236.812	20472.22
236.884	20457.09
236.956	20430.05
237.028	20402.25
237.1	20368.22
237.172	20355.12
237.244	20353.53
237.316	20301.38
237.388	20280.9
237.46	20234.44
237.532	20230.78
237.604	20205.38
237.675	20204.85
237.747	20184.9
237.819	20151.94
237.891	20124.66
237.963	20103.41
238.035	20072.08
238.107	20013.96
238.178	20006.73
238.25	19968.18
238.322	19960.18
238.394	19914.35
238.466	19883.8
238.538	19874.64
238.609	19857.63
238.681	19808.33
238.753	19769.83
238.825	19749.59
238.897	19721.2
238.968	19712.63
239.04	19672.63
239.112	19662.56
239.184	19614.12
239.255	19585.02
239.327	19562.18
239.399	19540.73
239.471	19517.21
239.542	19492.2
239.614	19479.34
239.686	19416.93
239.758	19411.24
239.829	19375.68
239.901	19363.58
239.973	19335.59
240.044	19313.61
240.116	19293.47
240.188	19269.28
240.259	19236.46
240.331	19187.5
240.403	19168.17
240.474	19121.62
240.546	19082.88
240.618	19040.28
240.689	19008.09
240.761	18973.78
240.833	18958.02
240.904	18920.43
240.976	18885.3
241.048	18867.37
241.119	18838.32
241.191	18825.11
241.262	18801.4
241.334	18762.18
241.405	18729.79
241.477	18702.18
241.549	18669.7
241.62	18633.75
241.692	18606.62
241.763	18581.99
241.835	18557.85
241.906	18515.54
241.978	18471.59
242.049	18444.02
242.121	18417.47
242.192	18394.68
242.264	18352.85
242.335	18305.24
242.407	18281.67
242.478	18246.44
242.55	18209.19
242.621	18166.5
242.693	18119.32
242.764	18078.6
242.836	18041.1
242.907	18014.7
242.979	17989.68
243.05	17958.02
243.122	17922.46
243.193	17889.25
243.264	17829.98
243.336	17783.81
243.407	17758.32
243.479	17743.47
243.55	17723.23
243.622	17688.1
243.693	17656.63
243.764	17643.72
243.836	17593.5
243.907	17554.99
243.978	17529.4
244.05	17498.27
244.121	17450.32
244.192	17432.68
244.264	17389.6
244.335	17346.46
244.407	17297.16
244.478	17261.6
244.549	17215.96
244.62	17173.88
244.692	17140.2
244.763	17122.56
244.834	17092.1
244.906	17054.22
244.977	17026.12
245.048	16995.9
245.119	16959.47
245.191	16916.77
245.262	16851.9
245.333	16841.2
245.405	16810.06
245.476	16778.21
245.547	16748.47
245.618	16728.04
245.689	16684.66
245.761	16659.74
245.832	16642.78
245.903	16614.29
245.974	16583.06
246.045	16552.22
246.117	16539.25
246.188	16489.42
246.259	16450.62
246.33	16415
246.401	16374.13
246.473	16328.78
246.544	16297.5
246.615	16271.66
246.686	16235.18
246.757	16222.89
246.828	16179.65
246.899	16156.66
246.97	16104.94
247.042	16057.61
247.113	16033.8
247.184	16021.13
247.255	15978.62
247.326	15938.18
247.397	15906.66
247.468	15882.85
247.539	15851.52
247.61	15803.36
247.681	15792.71
247.752	15772.03
247.823	15734.49
247.894	15711.16
247.965	15669.95
248.037	15636.93
248.108	15596.15
248.179	15564.24
248.25	15537.92
248.321	15512.57
248.392	15478.59
248.463	15466.59
248.534	15443.4
248.605	15410.34
248.675	15374.43
248.746	15342.32
248.817	15326.51
248.888	15295.33
248.959	15240.67
249.03	15217.43
249.101	15191.26
249.172	15148.55
249.243	15092.54
249.314	15078.22
249.385	15056.19
249.456	15034.74
249.527	14994.69
249.598	14975.36
249.669	14943.78
249.739	14915.97
249.81	14896.83
249.881	14852
249.952	14828
250.023	14795.36
250.094	14765.04
250.165	14730.48
250.235	14710.52
250.306	14679.92
250.377	14648
250.448	14633.21
250.519	14587.07
250.59	14572.61
250.66	14540.46
250.731	14541.37
250.802	14509.17
250.873	14477.46
250.944	14457.5
251.014	14425.44
251.085	14416.57
251.156	14392.13
251.227	14374.54
251.297	14361.96
251.368	14346.39
251.439	14324.98
251.51	14318.52
251.58	14279.23
251.651	14241.44
251.722	14229.92
251.792	14186.82
251.863	14159.35
251.934	14147.87
252.005	14151.97
252.075	14126.52
252.146	14115.24
252.217	14089.21
252.287	14076.53
252.358	14050.11
252.429	14038.54
252.499	14015.26
252.57	13989.42
252.641	13985.95
252.711	13959.48
252.782	13912.1
252.852	13903.76
252.923	13881.87
252.994	13848.75
253.064	13838.92
253.135	13811.93
253.205	13778.42
253.276	13769.89
253.347	13761.79
253.417	13718.84
253.488	13690.35
253.558	13657.23
253.629	13631.25
253.699	13614.47
253.77	13598.42
253.841	13574.99
253.911	13552.77
253.982	13532.62
254.052	13509.19
254.123	13479.64
254.193	13456.84
254.264	13475.35
254.334	13438.81
254.405	13399.52
254.475	13371.65
254.546	13347.31
254.616	13341.53
254.687	13322.19
254.757	13299.15
254.827	13267.96
254.898	13250.42
254.968	13225.35
255.039	13201
255.109	13181.72
255.18	13148.36
255.25	13097.12
255.321	13082.46
255.391	13038.89
255.461	13035.17
255.532	12990.78
255.602	12956.84
255.673	12913.26
255.743	12877.59
255.813	12834.83
255.884	12828.95
255.954	12803.01
256.024	12794.87
256.095	12772.16
256.165	12732.68
256.235	12721.79
256.306	12694.89
256.376	12683.9
256.446	12668.14
256.517	12654.98
256.587	12649.43
256.657	12634.49
256.728	12624.12
256.798	12601.03
256.868	12580.07
256.938	12549.41
257.009	12541.31
257.079	12530.37
257.149	12541.55
257.219	12497.83
257.29	12487.37
257.36	12439.31
257.43	12434.59
257.5	12394.19
257.571	12364.59
257.641	12354.81
257.711	12320.54
257.781	12310.41
257.852	12295.37
257.922	12262.98
257.992	12239.26
258.062	12212.03
258.132	12197.71
258.202	12175.88
258.273	12156.35
258.343	12157.32
258.413	12127
258.483	12106.18
258.553	12078.8
258.623	12047.9
258.693	12034.31
258.764	12028.09
258.834	12024.86
258.904	12001.67
258.974	11977.19
259.044	11956.61
259.114	11945.62
259.184	11932.8
259.254	11912.79
259.324	11867.15
259.394	11846.57
259.464	11838.47
259.535	11815.24
259.605	11784.63
259.675	11760.96
259.745	11746.02
259.815	11714.16
259.885	11695.85
259.955	11705.1
260.025	11676.62
260.095	11655.7
260.165	11639.45
260.235	11635.07
260.305	11613.43
260.375	11585.71
260.445	11590
260.515	11590.92
260.585	11581.04
260.655	11556.84
260.725	11543.11
260.795	11538.96
260.865	11541.18
260.934	11514.57
261.004	11498.33
261.074	11490.57
261.144	11488.36
261.214	11482.04
261.284	11461.99
261.354	11452.55
261.424	11418.37
261.494	11416.01
261.564	11393.36
261.634	11387.67
261.703	11352.25
261.773	11339.24
261.843	11332.15
261.913	11312.59
261.983	11277.5
262.053	11266.94
262.123	11249.6
262.192	11220.78
262.262	11213.21
262.332	11178.95
262.402	11173.89
262.472	11166.56
262.541	11127.72
262.611	11113.69
262.681	11076.92
262.751	11070.56
262.821	11051.34
262.89	11022.85
262.96	11018.61
263.03	11021.26
263.1	11002.9
263.169	10988.11
263.239	10978.61
263.309	10975.53
263.379	10963.68
263.448	10954.62
263.518	10932.4
263.588	10917.22
263.657	10918.86
263.727	10914.91
263.797	10901.32
263.867	10883.1
263.936	10850.19
264.006	10846.63
264.076	10832.41
264.145	10823.01
264.215	10799.88
264.285	10796.66
264.354	10769.05
264.424	10739.46
264.494	10708.96
264.563	10688.14
264.633	10693.88
264.702	10679.81
264.772	10651.42
264.842	10627.52
264.911	10613.12
264.981	10586.9
265.05	10570.52
265.12	10549.27
265.19	10531.44
265.259	10528.94
265.329	10519.11
265.398	10509.43
265.468	10521.33
265.537	10496.18
265.607	10485.96
265.676	10486.59
265.746	10470.35
265.815	10464.04
265.885	10454.12
265.955	10429.55
266.024	10412.78
266.094	10368.6
266.163	10368.6
266.232	10360.79
266.302	10343.74
266.371	10333.33
266.441	10320.57
266.51	10318.06
266.58	10302.5
266.649	10277.5
266.719	10271.28
266.788	10256.1
266.858	10257.4
266.927	10221.27
266.996	10211.92
267.066	10197.23
267.135	10167.27
267.205	10160.86
267.274	10153.05
267.343	10148.14
267.413	10138.07
267.482	10136.15
267.552	10147.23
267.621	10113.21
267.69	10091.73
267.76	10086.62
267.829	10072.22
267.898	10058.78
267.968	10027.81
268.037	10016.2
268.106	10013.89
268.176	9991.92
268.245	9973.08
268.314	9949.72
268.384	9946.11
268.453	9928.82
268.522	9923.37
268.592	9917.69
268.661	9895.58
268.73	9881.8
268.799	9863.69
268.869	9872.6
268.938	9844.95
269.007	9822.22
269.076	9816.2
269.146	9808.06
269.215	9789.85
269.284	9792.07
269.353	9779.01
269.422	9772.08
269.492	9757.87
269.561	9721.65
269.63	9706.29
269.699	9689.67
269.768	9675.18
269.838	9670.07
269.907	9677.01
269.976	9652.4
270.045	9621.29
270.114	9615.46
270.183	9603.13
270.253	9600.24
270.322	9565.23
270.391	9558.25
270.46	9556.94
270.529	9555.21
270.598	9554.05
270.667	9547.94
270.736	9526.51
270.806	9520
270.875	9520.34
270.944	9502
271.013	9521.64
271.082	9517.36
271.151	9516.35
271.22	9496.7
271.289	9482.16
271.358	9463.37
271.427	9462.22
271.496	9459.33
271.565	9438.77
271.634	9431.01
271.703	9427.4
271.772	9433.9
271.841	9421.67
271.91	9400.2
271.979	9387.72
272.048	9358.35
272.117	9355.51
272.186	9339.71
272.255	9337.55
272.324	9330.56
272.393	9329.46
272.462	9307.5
272.531	9302.68
272.6	9288.72
272.669	9295.17
272.738	9276.63
272.807	9273.6
272.876	9251.21
272.945	9271.24
273.013	9274.13
273.082	9274.61
273.151	9247.89
273.22	9238.3
273.289	9223.33
273.358	9231.81
273.427	9220.06
273.496	9219.58
273.564	9214.76
273.633	9222.27
273.702	9201.38
273.771	9194.54
273.84	9190.98
273.909	9190.69
273.977	9178.02
274.046	9171.77
274.115	9171.67
274.184	9163.34
274.253	9149.91
274.322	9158.81
274.39	9131.51
274.459	9118.56
274.528	9095.17
274.597	9089.77
274.665	9084.19
274.734	9094.39
274.803	9085.68
274.872	9077.45
274.94	9068.01
275.009	9094.06
275.078	9072.74
275.147	9071.68
275.215	9064.22
275.284	9071
275.353	9061.37
275.421	9037.31
275.49	9043.04
275.559	9032.35
275.627	9021.47
275.696	9013.33
275.765	9004.09
275.833	8991.24
275.902	8988.45
275.971	8991.67
276.039	9006.69
276.108	9009.53
276.177	9006.02
276.245	8989.02
276.314	8987.92
276.383	8991.53
276.451	8954.88
276.52	8953
276.588	8959.41
276.657	8961.91
276.725	8948.58
276.794	8943.28
276.863	8961.76
276.931	8943.9
277	8951.65
277.068	8960.27
277.137	8974.91
277.205	8979.53
277.274	8993.34
277.342	9001.09
277.411	8986.56
277.48	8974.76
277.548	8963.98
277.617	8963.35
277.685	8960.46
277.754	8960.27
277.822	8950.93
277.89	8960.37
277.959	8958.78
278.027	8943.23
278.096	8938.03
278.164	8960.32
278.233	8954.98
278.301	8942.61
278.37	8947.9
278.438	8932.93
278.507	8928.7
278.575	8902.85
278.643	8892.16
278.712	8874.59
278.78	8861.02
278.849	8879.79
278.917	8884.36
278.985	8879.79
279.054	8874.78
279.122	8885.61
279.191	8885.28
279.259	8880.08
279.327	8859.43
279.396	8871.6
279.464	8867.9
279.532	8871.41
279.601	8866.69
279.669	8866.65
279.737	8874.78
279.806	8869.92
279.874	8873.48
279.942	8878.58
280.011	8876.22
280.079	8885.9
280.147	8907.22
280.215	8907.9
280.284	8888.6
280.352	8876.71
280.42	8886.04
280.488	8878.54
280.557	8866.45
280.625	8864.09
280.693	8863.37
280.761	8860.53
280.83	8841.13
280.898	8847.01
280.966	8820.82
281.034	8789.2
281.102	8775.09
281.171	8771.39
281.239	8779.86
281.307	8772.11
281.375	8756.18
281.443	8784.19
281.512	8778.18
281.58	8777.6
281.648	8765.04
281.716	8770.86
281.784	8769.51
281.852	8759.79
281.92	8757.86
281.989	8771.49
282.057	8756.71
282.125	8795.13
282.193	8796.33
282.261	8800.04
282.329	8792.87
282.397	8803.02
282.465	8805.57
282.533	8815.77
282.601	8805.18
282.67	8782.32
282.738	8777.7
282.806	8789.49
282.874	8771.44
282.942	8774.62
283.01	8769.03
283.078	8783.23
283.146	8779.04
283.214	8784
283.282	8786.41
283.35	8801.19
283.418	8790.84
283.486	8797.57
283.554	8759.49
283.622	8760.46
283.69	8756.37
283.758	8753.24
283.826	8756.32
283.894	8768.3
283.962	8789.97
284.03	8800.51
284.098	8808.4
284.165	8799.64
284.233	8800.99
284.301	8800.31
284.369	8790.78
284.437	8784.43
284.505	8774.8
284.573	8785.83
284.641	8772.01
284.709	8779.95
284.777	8759.5
284.845	8760.99
284.912	8755.02
284.98	8765.85
285.048	8755.7
285.116	8758.92
285.184	8770.47
285.252	8765.37
285.319	8745.64
285.387	8730.95
285.455	8709.68
285.523	8717.14
285.591	8720.56
285.659	8718.39
285.726	8731.29
285.794	8719.26
285.862	8709.64
285.93	8708.14
285.997	8702.66
286.065	8700.25
286.133	8689.47
286.201	8688.22
286.269	8676.47
286.336	8670.7
286.404	8657.56
286.472	8669.49
286.539	8652.12
286.607	8644.66
286.675	8649.57
286.743	8658.04
286.81	8652.51
286.878	8668.58
286.946	8657.32
287.013	8654.96
287.081	8658.04
287.149	8638.02
287.216	8655
287.284	8659.14
287.352	8657.8
287.419	8658.33
287.487	8675.94
287.555	8677.19
287.622	8675.41
287.69	8681.76
287.758	8701.55
287.825	8696.2
287.893	8683.84
287.96	8693.84
288.028	8701.45
288.096	8700.63
288.163	8703.95
288.231	8694.18
288.298	8696.92
288.366	8706.84
288.433	8706.7
288.501	8694.52
288.569	8697.45
288.636	8693.65
288.704	8703.28
288.771	8709.68
288.839	8696.88
288.906	8687.73
288.974	8696.93
289.041	8693.46
289.109	8690.62
289.176	8696.11
289.244	8701.69
289.311	8715.51
289.379	8726.38
289.446	8723.64
289.514	8724.6
289.581	8725.42
289.649	8729.37
289.716	8727.01
289.783	8721.95
289.851	8736.1
289.918	8734.85
289.986	8741.59
290.053	8743.47
290.121	8742.55
290.188	8747.03
290.255	8775.62
290.323	8768.59
290.39	8764.98
290.458	8773.84
290.525	8783.32
290.592	8775.18
290.66	8781.78
290.727	8775.18
290.794	8779.85
290.862	8776.63
290.929	8778.36
290.996	8776.68
291.064	8784.86
291.131	8796.75
291.198	8806.57
291.266	8804.21
291.333	8808.54
291.4	8808.4
291.468	8826.11
291.535	8822.79
291.602	8826.02
291.669	8823.18
291.737	8831.98
291.804	8829.96
291.871	8844.64
291.938	8853.36
292.006	8876.95
292.073	8886.72
292.14	8902.8
292.207	8901.64
292.275	8910.11
292.342	8919.93
292.409	8942.03
292.476	8960.56
292.543	8954.59
292.611	8957.77
292.678	8974.81
292.745	8999.7
292.812	9010.92
292.879	9004.37
292.946	9013.03
293.014	9021.99
293.081	9026.7
293.148	9039.51
293.215	9057.8
293.282	9046.54
293.349	9055.78
293.416	9043.41
293.484	9050.49
293.551	9057.71
293.618	9073.07
293.685	9093.38
293.752	9089.15
293.819	9087.41
293.886	9077.83
293.953	9089.24
294.02	9095.74
294.087	9102.15
294.154	9086.88
294.221	9106.58
294.288	9108.21
294.356	9125.35
294.423	9130.31
294.49	9126.37
294.557	9135.22
294.624	9121.74
294.691	9157.95
294.758	9155.73
294.825	9160.98
294.892	9160.02
294.959	9160.93
295.026	9165.36
295.093	9157.51
295.16	9158.43
295.226	9163.73
295.293	9193.72
295.36	9193.39
295.427	9209.23
295.494	9219.05
295.561	9233.16
295.628	9251.65
295.695	9263.16
295.762	9263.11
295.829	9270.57
295.896	9285.31
295.963	9297.2
296.03	9311.88
296.096	9310.39
296.163	9319.69
296.23	9333.36
296.297	9342.46
296.364	9342.65
296.431	9348.62
296.498	9355.12
296.564	9380.88
296.631	9382.66
296.698	9364.32
296.765	9379.34
296.832	9365.91
296.899	9349.05
296.965	9369.04
297.032	9351.89
297.099	9374.28
297.166	9377.41
297.233	9374.33
297.299	9366.77
297.366	9367.5
297.433	9370.05
297.5	9371.2
297.566	9367.54
297.633	9366.1
297.7	9370.43
297.767	9367.83
297.833	9375.63
297.9	9372.12
297.967	9359.84
298.033	9372.55
298.1	9401.54
298.167	9397.26
298.234	9402.36
298.3	9416.47
298.367	9412.91
298.434	9412.86
298.5	9398.36
298.567	9400.1
298.634	9406.5
298.7	9417.33
298.767	9418.44
298.834	9434
298.9	9434.14
298.967	9431.59
299.033	9441.51
299.1	9460.48
299.167	9472.38
299.233	9462.75
299.3	9478.83
299.366	9490.96
299.433	9506.18
299.5	9478.3
299.566	9477.29
299.633	9492.79
299.699	9505.03
299.766	9500.55
299.832	9510.32
299.899	9513.79
299.965	9523.81
300.032	9516.68
300.099	9528.91
300.165	9534.12
300.232	9525.35
300.298	9524.97
300.365	9536.47
300.431	9538.79
300.498	9529.3
300.564	9537.44
300.631	9553.14
300.697	9563.49
300.763	9561.37
300.83	9554.58
300.896	9568.88
300.963	9584.97
301.029	9591.23
301.096	9596.96
301.162	9610.88
301.229	9601.92
301.295	9596.48
301.361	9596.43
301.428	9600.81
301.494	9584.34
301.561	9593.64
301.627	9603.27
301.693	9607.07
301.76	9613.62
301.826	9611.22
301.892	9613.24
301.959	9624.03
302.025	9621.47
302.092	9618.25
302.158	9630.29
302.224	9628.55
302.291	9615.79
302.357	9615.45
302.423	9603.66
302.49	9592.72
302.556	9595.03
302.622	9597.11
302.688	9609.77
302.755	9625.18
302.821	9633.42
302.887	9648.49
302.954	9637.99
303.02	9639.73
303.086	9642.28
303.152	9636.26
303.219	9629.08
303.285	9641.12
303.351	9643.82
303.417	9647.58
303.483	9636.65
303.55	9628.12
303.616	9634.91
303.682	9642.04
303.748	9626.72
303.815	9643.68
303.881	9649.07
303.947	9639.39
304.013	9642.62
304.079	9629.57
304.145	9608.18
304.212	9608.71
304.278	9593.35
304.344	9586.51
304.41	9570.67
304.476	9560.51
304.542	9558.58
304.608	9566.05
304.674	9549.57
304.741	9540.62
304.807	9538.83
304.873	9543.75
304.939	9555.26
305.005	9537.24
305.071	9531.85
305.137	9536.86
305.203	9512.68
305.269	9515.96
305.335	9525.97
305.401	9522.75
305.467	9525.4
305.533	9534.69
305.599	9540.47
305.666	9555.16
305.732	9564.07
305.798	9581.26
305.864	9610.49
305.93	9613.29
305.996	9607.99
306.062	9602.79
306.128	9601.25
306.194	9582.23
306.259	9581.26
306.325	9574.71
306.391	9580.88
306.457	9594.51
306.523	9597.25
306.589	9616.95
306.655	9599.95
306.721	9581.45
306.787	9564.99
306.853	9579.92
306.919	9556.42
306.985	9546.93
307.051	9540.23
307.117	9529.64
307.183	9516.35
307.248	9482.35
307.314	9485.91
307.38	9488.27
307.446	9496.7
307.512	9483.36
307.578	9491.16
307.644	9482.35
307.709	9481.38
307.775	9477.87
307.841	9467.18
307.907	9465.49
307.973	9446.37
308.039	9450.27
308.104	9458.12
308.17	9464.77
308.236	9449.69
308.302	9456.96
308.368	9446.27
308.433	9441.75
308.499	9434.28
308.565	9426.43
308.631	9432.89
308.696	9409.29
308.762	9400.04
308.828	9395.61
308.894	9380.78
308.959	9364.99
309.025	9359.07
309.091	9352.57
309.156	9343.32
309.222	9344.62
309.288	9331.72
309.354	9311.16
309.419	9310.77
309.485	9295.51
309.551	9295.84
309.616	9279.14
309.682	9272.44
309.748	9264.02
309.813	9262.24
309.879	9252.9
309.945	9241.24
310.01	9231.85
310.076	9236.72
310.141	9225.69
310.207	9207.49
310.273	9207.49
310.338	9211.73
310.404	9192.33
310.469	9177.01
310.535	9165.31
310.601	9145.86
310.666	9154.05
310.732	9164.64
310.797	9148.99
310.863	9142.35
310.928	9134.83
310.994	9136.28
311.059	9135.17
311.125	9136.09
311.191	9142.92
311.256	9134.93
311.322	9142.15
311.387	9125.4
311.453	9522.67
311.518	9496.58
311.584	9502.16
311.649	9510.59
311.715	9495.52
311.78	9501.49
311.846	9496.34
311.911	9500.38
311.976	9498.51
312.042	9479.73
312.107	9461.68
312.173	9454.21
312.238	9447.19
312.304	9438.33
312.369	9432.26
312.434	9419.17
312.5	9409.2
312.565	9379.11
312.631	9382.48
312.696	9368.08
312.761	9378.34
312.827	8962.77
312.892	9000.08
312.958	8990.5
313.023	8980.83
313.088	8979.09
313.154	8962.78
313.219	8955.94
313.284	8951.22
313.35	8947.32
313.415	8934.81
313.48	8934.52
313.546	8937.6
313.611	8946.22
313.676	8942.99
313.741	8932.69
313.807	8939.14
313.872	8940.1
313.937	8946.17
314.003	8955.22
314.068	8960.66
314.133	8955.89
314.198	8959.98
314.264	8936.25
314.329	8928.35
314.394	8922.29
314.459	8918.15
314.525	8936.58
314.59	8929.32
314.655	8911.26
314.72	8917.28
314.785	8926.57
314.851	8918.97
314.916	8898.9
314.981	8880.41
315.046	8867.13
315.111	8858.12
315.176	8850.37
315.242	8850.61
315.307	8842.53
315.372	8823.37
315.437	8809.46
315.502	8801.27
315.567	8798.15
315.632	8789.24
315.698	8784.81
315.763	8782.65
315.828	8769.99
315.893	8759.83
315.958	8758.77
316.023	8751.36
316.088	8732.93
316.153	8704.68
316.218	8695.44
316.283	8681.29
316.348	8664.73
316.413	8664.35
316.479	8647.89
316.544	8610.84
316.609	8579.75
316.674	8546.07
316.739	8508.2
316.804	8476.59
316.869	8438.72
316.934	8405.9
316.999	8375.49
317.064	8324.25
317.129	8282.2
317.194	8250.2
317.259	8208.34
317.324	8153.22
317.389	8110.64
317.454	8069.03
317.518	8038.3
317.583	8009.91
317.648	7981.1
317.713	7941.9
317.778	7877.31
317.843	7844.6
317.908	7807.81
317.973	7767.23
318.038	7732.51
318.103	7697.7
318.168	7661.16
318.233	7629.52
318.297	7578.65
318.362	7539.27
318.427	7503.41
318.492	7474.8
318.557	7429.43
318.622	7397.89
318.687	7373.76
318.751	7335.7
318.816	7297.15
318.881	7258.32
318.946	7205.88
319.011	7158.21
319.075	7120.01
319.14	7086.71
319.205	7045.44
319.27	7009.98
319.335	6966.12
319.399	6929.61
319.464	6898.67
319.529	6850.73
319.594	6807.98
319.658	6777.43
319.723	6731.95
319.788	6706.4
319.853	6650.97
319.917	6617.36
319.982	6558.44
320.047	6518.92
320.112	6487.71
320.176	6438.21
320.241	6400.09
320.306	6371.58
320.37	6332.46
320.435	6300.44
320.5	6271.5
320.564	6225.57
320.629	6181.13
320.694	6151.33
320.758	6108.67
320.823	6065.25
320.888	6037.85
320.952	5992.81
321.017	5949.58
321.082	5909.62
321.146	5872.01
321.211	5836.42
321.275	5799.68
321.34	5761.38
321.405	5715.39
321.469	5669.26
321.534	5630.76
321.598	5582.78
321.663	5547.29
321.727	5515.17
321.792	5461.77
321.857	5420.25
321.921	5380.52
321.986	5340.71
322.05	5282.49
322.115	5245.07
322.179	5200.08
322.244	5143.94
322.308	5105.91
322.373	5057.58
322.437	5016.39
322.502	4986.73
322.566	4938.74
322.631	4897.61
322.695	4855.01
322.76	4809.62
322.824	4772.95
322.889	4729.21
322.953	4685.81
323.018	4618.03
323.082	4553.44
323.146	4503.55
323.211	4446.85
323.275	4403.94
323.34	4356.59
323.404	4320.63
323.468	4275.66
323.533	4233.05
323.597	4185.5
323.662	4138.64
323.726	4100.68
323.79	4055.69
323.855	3989.36
323.919	3943.72
323.983	3895.55
324.048	3831.65
324.112	3972.01
324.177	3841.5
324.241	3640.95
324.305	3443.9
324.37	3254.49
324.434	3071
324.498	3029.4
324.562	2981.42
324.627	2923.42
324.691	2870.88
324.755	2807.57
324.82	2730.67
324.884	2653.31
324.948	2585.58
325.012	2491.1
325.077	2377.26
