Data from 20250630_urea_2M_MAYP1162681_10-52-27-278.txt Node
Date: Tue Jul 01 10:52:27 BST 2025
User: adleo
Spectrometer: MAYP116268
Trigger mode: 0
Integration Time (sec): 1.000000E0
Scans to average: 1
Electric dark correction enabled: true
Nonlinearity correction enabled: true
Boxcar width: 10
XAxis mode: Wavelengths
Number of Pixels in Spectrum: 2068
>>>>>Begin Spectral Data<<<<<
179.565	1114.56
179.642	1170.39
179.718	1212.34
179.795	1248.15
179.871	1282.11
179.948	1297.55
180.024	1314.4
180.101	1337.47
180.177	1350.45
180.254	1373.7
180.33	1393.74
180.407	1441.97
180.483	1530.76
180.56	1614.42
180.636	1691.52
180.712	1680.4
180.789	1688.95
180.865	1700.83
180.942	1708.14
181.018	1716.69
181.095	1730.95
181.171	1738.46
181.248	1737.13
181.324	1751.1
181.4	1755.57
181.477	1762.03
181.553	1775.76
181.63	1795.44
181.706	1809.61
181.782	1817.68
181.859	1814.4
181.935	1820.63
182.011	1816.49
182.088	1832.85
182.164	1851.01
182.24	1864.98
182.317	1875.63
182.393	1874.11
182.469	1887.04
182.546	1901.25
182.622	1907.05
182.698	1904.67
182.775	1917.27
182.851	1931.63
182.927	1924.3
183.003	1920.93
183.08	1916.89
183.156	1924.54
183.232	1922.36
183.308	1910.57
183.385	1917.27
183.461	1933.67
183.537	1931.77
183.613	1941.42
183.69	1931.86
183.766	1920.07
183.842	1924.35
183.918	1926.91
183.995	1941.79
184.071	1944.03
184.147	1939.56
184.223	1928.25
184.299	1936.71
184.375	1925.21
184.452	1930.68
184.528	1982.33
184.604	1994.5
184.68	2003.91
184.756	2012.14
184.832	2015.37
184.908	2019.94
184.985	2018.37
185.061	2004.77
185.137	2017.28
185.213	2007.39
185.289	2008.72
185.365	2004.68
185.441	2004.2
185.517	2018.14
185.593	2013.29
185.669	2011.72
185.745	2022.32
185.822	2039.06
185.898	2030.78
185.974	2037.44
186.05	2029.59
186.126	1991.44
186.202	1984.83
186.278	1982.84
186.354	1973.56
186.43	1983.03
186.506	1984.74
186.582	1988.16
186.658	1992.92
186.734	1972.71
186.81	1973.14
186.886	1975.85
186.962	1986.55
187.038	1985.26
187.114	1976.36
187.19	1982.12
187.266	1971.8
187.341	1970.61
187.417	1961.72
187.493	1962.06
187.569	1966
187.645	1959.54
187.721	1950.41
187.797	1957.97
187.873	1960.3
187.949	1955.4
188.025	1948.17
188.101	1947.84
188.176	1948.5
188.252	1946.08
188.328	1953.82
188.404	1957.2
188.48	1953.58
188.556	1947.02
188.632	1946.55
188.707	1948.12
188.783	1946.07
188.859	1943.89
188.935	1933.09
189.011	1943.03
189.086	1936.99
189.162	1928
189.238	1925.2
189.314	1920.87
189.39	1914.55
189.465	1912.36
189.541	1929.34
189.617	1916.65
189.693	1912.89
189.768	1919.64
189.844	1944.09
189.92	1934.4
189.996	1943.05
190.071	1954.18
190.147	1950.61
190.223	1958.75
190.298	1948.95
190.374	1936.45
190.45	1947.09
190.526	1954.32
190.601	1948.66
190.677	1950.33
190.753	1978.35
190.828	1985.67
190.904	2002.07
190.98	2016.01
191.055	2022.24
191.131	2011.92
191.207	2029.99
191.282	2037.54
191.358	2026.13
191.433	2010.86
191.509	2026.59
191.585	2020.93
191.66	2021.6
191.736	2031.25
191.811	2023.79
191.887	2040.48
191.963	2061.74
192.038	2066.63
192.114	2068.3
192.189	2074.24
192.265	2074.2
192.34	2054.12
192.416	2052.31
192.491	2045.17
192.567	2049.17
192.642	2049.6
192.718	2048.74
192.793	2038.23
192.869	2034.43
192.944	2039.94
193.02	2046.41
193.095	2048.36
193.171	2057.21
193.246	2056.45
193.322	2053.93
193.397	2054.5
193.473	2039.66
193.548	2022.11
193.624	2025.01
193.699	2021.77
193.775	2033.14
193.85	2031.05
193.925	2037.33
194.001	2035.91
194.076	2030.86
194.152	2019.97
194.227	2015.6
194.302	2004.81
194.378	2007.56
194.453	2007.85
194.529	2017.22
194.604	2002.67
194.679	1997.53
194.755	1978.8
194.83	1989.36
194.905	1989.07
194.981	1996.4
195.056	1993.21
195.131	2001.53
195.207	2004.1
195.282	1997.92
195.357	1980.09
195.433	1996.4
195.508	1986.46
195.583	1994.25
195.659	2008
195.734	2017.23
195.809	2016.42
195.884	2027.88
195.96	2029.73
196.035	2042.76
196.11	2040.05
196.185	2053.84
196.261	2056.69
196.336	2084.66
196.411	2070.91
196.486	2075.19
196.561	2070.67
196.637	2079.09
196.712	2094.55
196.787	2093.07
196.862	2107.91
196.937	2118.37
197.013	2123.61
197.088	2132.31
197.163	2149.96
197.238	2165.58
197.313	2163.25
197.388	2177.38
197.464	2203.83
197.539	2213.25
197.614	2204.12
197.689	2213.83
197.764	2228.58
197.839	2247.8
197.914	2242.19
197.989	2264.6
198.065	2278.02
198.14	2324.02
198.215	2346.24
198.29	2357.62
198.365	2370.05
198.44	2376.37
198.515	2403.13
198.59	2415.6
198.665	2439.64
198.74	2447.02
198.815	2446.5
198.89	2466.78
198.965	2494.54
199.04	2492.21
199.115	2505.4
199.19	2548.82
199.265	2555.62
199.34	2565.2
199.415	2595.12
199.49	2618.3
199.565	2626.78
199.64	2648.79
199.715	2645.59
199.79	2653.64
199.865	2659.12
199.94	2656.93
200.015	2691.04
200.09	2696.04
200.165	2703.95
200.24	2711.67
200.315	2749.52
200.39	2765.96
200.464	2773.39
200.539	2774.63
200.614	2789.26
200.689	2810.89
200.764	2815.61
200.839	2829.28
200.914	2832.38
200.989	2821.32
201.063	2831.61
201.138	2816.8
201.213	2816.18
201.288	2798.41
201.363	2805.84
201.438	2806.75
201.512	2825.46
201.587	2810.31
201.662	2813.98
201.737	2825.41
201.812	2832.99
201.886	2801.62
201.961	2809.29
202.036	2797.72
202.111	2793.47
202.186	2767.47
202.26	2754.51
202.335	2736.45
202.41	2731.26
202.485	2718.59
202.559	2700.34
202.634	2675.81
202.709	2681.81
202.784	2664.99
202.858	2666.33
202.933	2646.51
203.008	2640.22
203.082	2620.79
203.157	2618.12
203.232	2576.99
203.306	2556.26
203.381	2524.45
203.456	2505.06
203.53	2485.43
203.605	2467.1
203.68	2447.96
203.754	2440.77
203.829	2423.01
203.904	2401.68
203.978	2390.06
204.053	2389.25
204.127	2377.74
204.202	2375.64
204.277	2361.89
204.351	2353.99
204.426	2344.42
204.5	2336.61
204.575	2304.16
204.65	2315.96
204.724	2307.96
204.799	2317.71
204.873	2316.29
204.948	2316.43
205.022	2306.91
205.097	2299.77
205.171	2312.85
205.246	2318.23
205.32	2318.42
205.395	2319.23
205.469	2309.58
205.544	2313.44
205.618	2296.92
205.693	2312.01
205.767	2300.3
205.842	2320.35
205.916	2314.35
205.991	2306.97
206.065	2311.07
206.14	2324.34
206.214	2315.1
206.289	2309.38
206.363	2318.86
206.438	2320.76
206.512	2325.33
206.586	2343.03
206.661	2348.99
206.735	2328.1
206.81	2328.43
206.884	2339.76
206.958	2327.48
207.033	2345.85
207.107	2351.99
207.181	2384.6
207.256	2375.37
207.33	2394.6
207.405	2402.55
207.479	2421.83
207.553	2427.92
207.628	2413.03
207.702	2426.21
207.776	2424.64
207.851	2427.93
207.925	2443.5
207.999	2438.55
208.073	2438.5
208.148	2437.5
208.222	2425.26
208.296	2456.91
208.371	2473.64
208.445	2485.78
208.519	2511.39
208.593	2520.77
208.668	2516.43
208.742	2518.05
208.816	2523.38
208.89	2534.77
208.965	2534.72
209.039	2541.15
209.113	2559.63
209.187	2580.52
209.261	2578.9
209.336	2593.38
209.41	2608.67
209.484	2607.9
209.558	2628.86
209.632	2643.05
209.707	2654.53
209.781	2676.78
209.855	2691.74
209.929	2706.71
210.003	2712.86
210.077	2713.9
210.151	2760.49
210.226	2792.76
210.3	2817.51
210.374	2838.8
210.448	2845.81
210.522	2854.86
210.596	2867.16
210.67	2871.97
210.744	2914.54
210.818	2942.84
210.892	2964.82
210.966	2962.53
211.041	2973.78
211.115	2970.11
211.189	2993.37
211.263	3012.44
211.337	3020.16
211.411	3031.47
211.485	3027.08
211.559	3039.37
211.633	3043.33
211.707	3014.13
211.781	3023.44
211.855	2990.54
211.929	2983.91
212.003	2967.57
212.077	2980.88
212.151	2994.99
212.225	3009.73
212.299	3004.48
212.373	2998.19
212.447	2998.09
212.52	3030.95
212.594	3042.2
212.668	3060.27
212.742	3051.83
212.816	3050.21
212.89	3050.78
212.964	3058.17
213.038	3067.29
213.112	3086.7
213.186	3109.68
213.26	3098.34
213.333	3064.87
213.407	3080.02
213.481	3094.18
213.555	3115.29
213.629	3115.33
213.703	3111.47
213.777	3121.63
213.85	3115.96
213.924	3161.58
213.998	3176.18
214.072	3187.45
214.146	3192.17
214.219	3205.82
214.293	3216.55
214.367	3237.35
214.441	3267.17
214.515	3280.73
214.588	3284.6
214.662	3276.48
214.736	3282.3
214.81	3314.78
214.883	3354.26
214.957	3375.78
215.031	3392.81
215.105	3404.73
215.178	3423.01
215.252	3450.08
215.326	3463.16
215.4	3480.72
215.473	3471.4
215.547	3494.57
215.621	3513.68
215.694	3558
215.768	3577.73
215.842	3613.15
215.915	3641.87
215.989	3655.77
216.063	3685.15
216.136	3728.82
216.21	3772.04
216.284	3825.46
216.357	3875.68
216.431	3916.78
216.504	3970.25
216.578	4045.27
216.652	4103.89
216.725	4155.24
216.799	4213.26
216.873	4265.08
216.946	4326.57
217.02	4375.29
217.093	4421.74
217.167	4460.96
217.24	4501.07
217.314	4550.57
217.387	4599.85
217.461	4648.9
217.535	4725.58
217.608	4771.34
217.682	4824.78
217.755	4896.5
217.829	4950.91
217.902	5014.28
217.976	5081.24
218.049	5132.49
218.123	5176.4
218.196	5244.66
218.27	5302.94
218.343	5349.96
218.417	5419.17
218.49	5484.84
218.563	5566.91
218.637	5642.77
218.71	5732.26
218.784	5811.55
218.857	5895.81
218.931	5975.81
219.004	6053.57
219.077	6131.67
219.151	6212.66
219.224	6291.13
219.298	6360.87
219.371	6444.99
219.444	6504.66
219.518	6573.5
219.591	6653.63
219.665	6753.89
219.738	6829.48
219.811	6893.49
219.885	6983.03
219.958	7067.83
220.031	7145.42
220.105	7220.77
220.178	7297.34
220.251	7363.62
220.325	7438.43
220.398	7505.38
220.471	7573.01
220.544	7649.55
220.618	7706.92
220.691	7782.75
220.764	7849.73
220.838	7930.49
220.911	7991.86
220.984	8089.16
221.057	8171.18
221.131	8254.5
221.204	8298.38
221.277	8391.3
221.35	8499.13
221.424	8568.09
221.497	8641.2
221.57	8708.47
221.643	8791.79
221.716	8869.63
221.79	8933.46
221.863	9005.91
221.936	9085.14
222.009	9164.76
222.082	9245.46
222.155	9315.7
222.229	9396.16
222.302	9471.08
222.375	9538.88
222.448	9622.68
222.521	9687.7
222.594	9760.37
222.667	9812.1
222.74	9891.86
222.814	9951.11
222.887	10012.96
222.96	10088.74
223.033	10158.45
223.106	10231.71
223.179	10296.66
223.252	10359.34
223.325	10433.77
223.398	10500.94
223.471	10571.95
223.544	10632.32
223.617	10698.14
223.69	10768.59
223.763	10829.64
223.837	10899.56
223.91	10974.06
223.983	11022.15
224.056	11070.39
224.129	11126.14
224.202	11200.26
224.275	11259.68
224.348	11311.34
224.42	11362.28
224.493	11405.27
224.566	11458
224.639	11519.16
224.712	11566.92
224.785	11623.22
224.858	11677.15
224.931	11731.28
225.004	11772.44
225.077	11834.04
225.15	11860.35
225.223	11923.69
225.296	11999.85
225.369	12044.63
225.442	12085.12
225.514	12145.28
225.587	12209.62
225.66	12276.58
225.733	12341.08
225.806	12396.99
225.879	12448.67
225.952	12494.36
226.025	12571.3
226.097	12642.79
226.17	12701.55
226.243	12753.08
226.316	12804.75
226.389	12869.25
226.461	12932.89
226.534	13001.24
226.607	13056.48
226.68	13146.87
226.753	13198.5
226.825	13237.88
226.898	13311.88
226.971	13365.53
227.044	13427.91
227.117	13489.86
227.189	13550.5
227.262	13615.53
227.335	13678.97
227.407	13737.49
227.48	13800.6
227.553	13850.68
227.626	13904.14
227.698	13959.58
227.771	14015.74
227.844	14064.38
227.916	14120.01
227.989	14154.91
228.062	14205.24
228.134	14287.09
228.207	14331.39
228.28	14381.52
228.352	14421.49
228.425	14466.9
228.498	14529.8
228.57	14570.01
228.643	14629.54
228.716	14674.13
228.788	14709.51
228.861	14742.29
228.934	14802.88
229.006	14855.38
229.079	14902.04
229.151	14930.77
229.224	14960.75
229.296	15006.06
229.369	15084.73
229.442	15144.83
229.514	15185.47
229.587	15242.45
229.659	15260.62
229.732	15311.13
229.804	15361.55
229.877	15435.4
229.949	15495.02
230.022	15557.97
230.094	15602.65
230.167	15642.66
230.239	15678.33
230.312	15729.28
230.384	15806.25
230.457	15856.04
230.529	15903.95
230.602	15952.1
230.674	16010.04
230.747	16070.58
230.819	16134.97
230.892	16145.96
230.964	16189.58
231.037	16243.9
231.109	16283.28
231.181	16339.48
231.254	16372.3
231.326	16416.93
231.399	16451.68
231.471	16482.96
231.544	16500.55
231.616	16554.67
231.688	16597.52
231.761	16635.16
231.833	16667.98
231.905	16682.97
231.978	16721.24
232.05	16748.37
232.122	16784.95
232.195	16811.7
232.267	16869.44
232.339	16895.03
232.412	16940.72
232.484	16968.82
232.556	16999.37
232.629	17056.63
232.701	17093.45
232.773	17125.4
232.846	17155.91
232.918	17192
232.99	17222.41
233.062	17262.75
233.135	17298.9
233.207	17323.28
233.279	17358.95
233.351	17390.18
233.424	17417.02
233.496	17430.27
233.568	17482.08
233.64	17493.31
233.713	17522.75
233.785	17536.73
233.857	17565.6
233.929	17579.53
234.001	17617.02
234.074	17656.05
234.146	17647.57
234.218	17668.73
234.29	17691.14
234.362	17701.84
234.434	17700.68
234.507	17710.46
234.579	17710.66
234.651	17712.97
234.723	17728.68
234.795	17746.9
234.867	17769.79
234.939	17801.59
235.012	17829.26
235.084	17845.98
235.156	17869.01
235.228	17876.53
235.3	17885.16
235.372	17908.14
235.444	17936.77
235.516	17920.14
235.588	17922.94
235.66	17941.88
235.732	17941.78
235.804	17998.7
235.876	18014.84
235.948	18044.72
236.02	18054.4
236.092	18068.09
236.164	18077.78
236.236	18084.04
236.308	18083.75
236.38	18088.62
236.452	18083.99
236.524	18080.57
236.596	18095.9
236.668	18112.96
236.74	18117.34
236.812	18131.03
236.884	18126.88
236.956	18130.84
237.028	18134.35
237.1	18139.61
237.172	18156.76
237.244	18176.91
237.316	18143.85
237.388	18143.9
237.46	18135.22
237.532	18153.2
237.604	18142.93
237.675	18156.57
237.747	18168.42
237.819	18169.58
237.891	18158.98
237.963	18151.89
238.035	18142.79
238.107	18102.16
238.178	18112.09
238.25	18112.72
238.322	18114.35
238.394	18093.68
238.466	18079.56
238.538	18075.8
238.609	18073.78
238.681	18045.68
238.753	18028.33
238.825	18030.36
238.897	18019.18
238.968	18028.24
239.04	18008.77
239.112	18029.3
239.184	18011.85
239.255	17993.25
239.327	17983.66
239.399	17975.08
239.471	17974.5
239.542	17984.19
239.614	17990.5
239.686	17954.75
239.758	17947.66
239.829	17920.39
239.901	17923.33
239.973	17912.19
240.044	17909.54
240.116	17891.09
240.188	17877.35
240.259	17864.72
240.331	17836.92
240.403	17832.39
240.474	17802.85
240.546	17779.23
240.618	17743.33
240.689	17724.34
240.761	17714.66
240.833	17697.26
240.904	17684.44
240.976	17664.49
241.048	17640.44
241.119	17629.16
241.191	17608.54
241.262	17608.34
241.334	17588.97
241.405	17568.54
241.477	17540.2
241.549	17509.02
241.62	17491.91
241.692	17483.14
241.763	17473.45
241.835	17455
241.906	17438.32
241.978	17398.08
242.049	17394.56
242.121	17388.35
242.192	17378.23
242.264	17337.5
242.335	17311.14
242.407	17294.51
242.478	17270.66
242.55	17244.15
242.621	17208.54
242.693	17190.95
242.764	17154.75
242.836	17130.32
242.907	17108.87
242.979	17100.34
243.05	17077.06
243.122	17054.7
243.193	17026.03
243.264	16968
243.336	16943.47
243.407	16929.2
243.479	16936.48
243.55	16911.81
243.622	16888.05
243.693	16860.96
243.764	16853.68
243.836	16820.52
243.907	16788.04
243.978	16755.22
244.05	16738.4
244.121	16702.35
244.192	16683.94
244.264	16650.39
244.335	16629.19
244.407	16588.89
244.478	16555.59
244.549	16543.2
244.62	16506.33
244.692	16483.49
244.763	16472.5
244.834	16448.88
244.906	16403.67
244.977	16371.48
245.048	16359.14
245.119	16314.22
245.191	16274.6
245.262	16228.43
245.333	16219.08
245.405	16201.39
245.476	16179.12
245.547	16149.91
245.618	16135.02
245.689	16099.31
245.761	16077.42
245.832	16051.45
245.903	16035.06
245.974	16012.31
246.045	15976.11
246.117	15972.64
246.188	15932.15
246.259	15899.33
246.33	15863.71
246.401	15840.67
246.473	15799.65
246.544	15761.53
246.615	15753.19
246.686	15721.76
246.757	15706.1
246.828	15668.4
246.899	15648.02
246.97	15604.39
247.042	15569.45
247.113	15551.71
247.184	15547.03
247.255	15514.21
247.326	15483.7
247.397	15448.99
247.468	15425.37
247.539	15399.49
247.61	15351.82
247.681	15329.55
247.752	15319.23
247.823	15283.9
247.894	15245.82
247.965	15204.03
248.037	15168.31
248.108	15116.2
248.179	15088.05
248.25	15057.3
248.321	15033.44
248.392	14987.7
248.463	14986.97
248.534	14962.44
248.605	14927.54
248.675	14893.75
248.746	14864.83
248.817	14841.59
248.888	14816.72
248.959	14774.3
249.03	14747.06
249.101	14716.5
249.172	14687.68
249.243	14633.4
249.314	14625.64
249.385	14614.84
249.456	14603.03
249.527	14571.84
249.598	14561.86
249.669	14543.54
249.739	14525.47
249.81	14508.79
249.881	14477.5
249.952	14440.1
250.023	14409.44
250.094	14379.79
250.165	14347.11
250.235	14330.24
250.306	14309.56
250.377	14277.84
250.448	14260.68
250.519	14216.76
250.59	14213
250.66	14184.61
250.731	14180.85
250.802	14143.01
250.873	14106.37
250.944	14081.21
251.014	14055.17
251.085	14050.55
251.156	14033.1
251.227	14016.99
251.297	14005.62
251.368	13987.2
251.439	13978.67
251.51	13965.22
251.58	13930.66
251.651	13900.67
251.722	13875.75
251.792	13833.09
251.863	13804.84
251.934	13795.92
252.005	13802.91
252.075	13774.57
252.146	13766.42
252.217	13754.9
252.287	13738.7
252.358	13714.31
252.429	13704.18
252.499	13679.89
252.57	13660.99
252.641	13643.44
252.711	13616.3
252.782	13580.49
252.852	13582.99
252.923	13553.06
252.994	13529.68
253.064	13510.2
253.135	13476.41
253.205	13442.28
253.276	13435.48
253.347	13425.89
253.417	13387.08
253.488	13358.16
253.558	13328.32
253.629	13294.19
253.699	13275.1
253.77	13254.75
253.841	13232.58
253.911	13211.8
253.982	13187.84
254.052	13162.53
254.123	13139.35
254.193	13112.64
254.264	13121.32
254.334	13081.36
254.405	13046.55
254.475	13016.95
254.546	12997.19
254.616	12992.08
254.687	12981.52
254.757	12966.91
254.827	12952.55
254.898	12938.91
254.968	12916.83
255.039	12894.7
255.109	12888.82
255.18	12848.67
255.25	12815.11
255.321	12804.46
255.391	12769.37
255.461	12768.16
255.532	12719.09
255.602	12692.53
255.673	12656.95
255.743	12620.56
255.813	12577.37
255.884	12569.8
255.954	12553.17
256.024	12547.77
256.095	12521.21
256.165	12488.48
256.235	12467.07
256.306	12433.52
256.376	12425.52
256.446	12417.33
256.517	12397.23
256.587	12383.58
256.657	12366.95
256.728	12348.2
256.798	12325.69
256.868	12300.05
256.938	12271.13
257.009	12267.41
257.079	12250.88
257.149	12257.34
257.219	12220.17
257.29	12208.03
257.36	12170.38
257.43	12168.36
257.5	12137.51
257.571	12116.06
257.641	12105.84
257.711	12075.62
257.781	12059.37
257.852	12045.11
257.922	12005.68
257.992	11983.79
258.062	11964.22
258.132	11950.77
258.202	11931.45
258.273	11911.54
258.343	11916.74
258.413	11887.44
258.483	11862.57
258.553	11837.17
258.623	11809.84
258.693	11794.27
258.764	11793.4
258.834	11794.22
258.904	11764.72
258.974	11736.67
259.044	11714.6
259.114	11702.06
259.184	11683.94
259.254	11665.34
259.324	11618.29
259.394	11597.28
259.464	11601.86
259.535	11575.06
259.605	11552.12
259.675	11526.53
259.745	11514.72
259.815	11476.93
259.885	11455.77
259.955	11471.44
260.025	11445.41
260.095	11419.58
260.165	11402.09
260.235	11397.27
260.305	11368.49
260.375	11338.18
260.445	11344.3
260.515	11347.58
260.585	11340.69
260.655	11323.58
260.725	11318.56
260.795	11312.97
260.865	11321.65
260.934	11283.91
261.004	11271.29
261.074	11252.3
261.144	11247.19
261.214	11237.94
261.284	11218.18
261.354	11210.32
261.424	11177.4
261.494	11179.04
261.564	11171.33
261.634	11168.25
261.703	11133.6
261.773	11125.4
261.843	11121.89
261.913	11097.31
261.983	11064.54
262.053	11049.07
262.123	11028.3
262.192	11000.06
262.262	10994.85
262.332	10960.4
262.402	10958.61
262.472	10942.13
262.541	10907.1
262.611	10907.1
262.681	10876.36
262.751	10869.28
262.821	10846.77
262.89	10814.1
262.96	10801.86
263.03	10793.14
263.1	10781.28
263.169	10760.95
263.239	10753.14
263.309	10748.04
263.379	10734.74
263.448	10719.32
263.518	10700.96
263.588	10684
263.657	10681.97
263.727	10671.61
263.797	10649.45
263.867	10625.26
263.936	10601.02
264.006	10601.7
264.076	10577.03
264.145	10566.04
264.215	10546.05
264.285	10543.45
264.354	10514.59
264.424	10492.33
264.494	10469.49
264.563	10444.38
264.633	10448.14
264.702	10427.86
264.772	10399.57
264.842	10377.46
264.911	10370.52
264.981	10345.37
265.05	10334
265.12	10316.61
265.19	10300.85
265.259	10305.77
265.329	10295.89
265.398	10280.24
265.468	10288.81
265.537	10271.71
265.607	10260.53
265.676	10252.58
265.746	10241.31
265.815	10240.49
265.885	10223.53
265.955	10199.35
266.024	10183.07
266.094	10147.47
266.163	10153.92
266.232	10151.47
266.302	10144.82
266.371	10129.64
266.441	10114.32
266.51	10114.23
266.58	10093.23
266.649	10072.12
266.719	10066.15
266.788	10058.3
266.858	10065.86
266.927	10028.77
266.996	10015.43
267.066	10008.2
267.135	9983.68
267.205	9976.55
267.274	9967.64
267.343	9961.28
267.413	9954.69
267.482	9951.75
267.552	9955.5
267.621	9918.56
267.69	9886.38
267.76	9874.63
267.829	9861.91
267.898	9856.52
267.968	9831.09
268.037	9828.63
268.106	9827.09
268.176	9802.86
268.245	9789.76
268.314	9766.92
268.384	9765.48
268.453	9756.71
268.522	9741.16
268.592	9744.38
268.661	9722.42
268.73	9712.64
268.799	9690.15
268.869	9694.1
268.938	9667.37
269.007	9644.59
269.076	9636.84
269.146	9641.22
269.215	9631.59
269.284	9635.97
269.353	9613.29
269.422	9597.88
269.492	9584.39
269.561	9544.57
269.63	9538.55
269.699	9527.61
269.768	9514.66
269.838	9510.76
269.907	9507.39
269.976	9484.18
270.045	9455.43
270.114	9451
270.183	9437.32
270.253	9438.62
270.322	9405.01
270.391	9393.12
270.46	9401.06
270.529	9399.38
270.598	9396.3
270.667	9384.35
270.736	9358.97
270.806	9355.51
270.875	9352.14
270.944	9336.15
271.013	9355.7
271.082	9341.25
271.151	9330.13
271.22	9308.17
271.289	9290.45
271.358	9278.7
271.427	9271.82
271.496	9270.95
271.565	9256.27
271.634	9247.12
271.703	9266.48
271.772	9271.34
271.841	9260.17
271.91	9236
271.979	9227.19
272.048	9198.54
272.117	9197.1
272.186	9183.37
272.255	9185.97
272.324	9188.38
272.393	9180.58
272.462	9161.47
272.531	9154.87
272.6	9143.12
272.669	9143.51
272.738	9129.79
272.807	9124.49
272.876	9109.04
272.945	9127.24
273.013	9135.57
273.082	9137.64
273.151	9095.84
273.22	9089.54
273.289	9084.48
273.358	9091.27
273.427	9078.61
273.496	9081.06
273.564	9078.12
273.633	9079.33
273.702	9056.65
273.771	9043.17
273.84	9040.04
273.909	9038.79
273.977	9033.98
274.046	9020.31
274.115	9029.89
274.184	9016.75
274.253	9000.67
274.322	9005.87
274.39	8968.75
274.459	8943.09
274.528	8918.01
274.597	8909.25
274.665	8904.24
274.734	8914.74
274.803	8902.8
274.872	8894.61
274.94	8875.21
275.009	8898.09
275.078	8883.84
275.147	8881.19
275.215	8880.18
275.284	8881.14
275.353	8870.46
275.421	8844.71
275.49	8863.38
275.559	8849.95
275.627	8846.1
275.696	8837.39
275.765	8833.11
275.833	8830.36
275.902	8835.37
275.971	8840.23
276.039	8856.16
276.108	8858.52
276.177	8854.86
276.245	8845.29
276.314	8838.88
276.383	8845.67
276.451	8809.27
276.52	8812.3
276.588	8822.55
276.657	8822.51
276.725	8816.63
276.794	8812.98
276.863	8827.08
276.931	8805.03
277	8810.08
277.068	8818.31
277.137	8838.87
277.205	8838.58
277.274	8853.93
277.342	8855.76
277.411	8841.37
277.48	8824.81
277.548	8820.05
277.617	8810.37
277.685	8810.32
277.754	8817.64
277.822	8807.87
277.89	8816.2
277.959	8809.41
278.027	8789.39
278.096	8782.12
278.164	8804.41
278.233	8802.2
278.301	8788.33
278.37	8788.67
278.438	8776.73
278.507	8774.57
278.575	8749.2
278.643	8745.64
278.712	8722.25
278.78	8711.03
278.849	8718.3
278.917	8728.17
278.985	8719.65
279.054	8721.14
279.122	8724.7
279.191	8717.15
279.259	8713.3
279.327	8691.97
279.396	8703.19
279.464	8701.69
279.532	8704.1
279.601	8702.03
279.669	8691.97
279.737	8705.26
279.806	8704.15
279.874	8709.88
279.942	8710.26
280.011	8708.72
280.079	8714.59
280.147	8736.4
280.215	8740.73
280.284	8744.67
280.352	8731.97
280.42	8736.15
280.488	8731
280.557	8723.74
280.625	8726.67
280.693	8728.26
280.761	8724.46
280.83	8712.67
280.898	8719.55
280.966	8700.25
281.034	8663.67
281.102	8655.58
281.171	8647.5
281.239	8665.07
281.307	8658.33
281.375	8648.08
281.443	8667.52
281.512	8665.41
281.58	8666.32
281.648	8653.81
281.716	8644.66
281.784	8640.96
281.852	8631.48
281.92	8634.17
281.989	8645.19
282.057	8632.01
282.125	8668.45
282.193	8674.41
282.261	8671.86
282.329	8674.56
282.397	8678.17
282.465	8682.64
282.533	8691.35
282.601	8684.23
282.67	8656.02
282.738	8643.17
282.806	8653.95
282.874	8644.47
282.942	8649
283.01	8642.35
283.078	8644.38
283.146	8642.74
283.214	8647.94
283.282	8650.92
283.35	8653.71
283.418	8649.09
283.486	8649.52
283.554	8616.84
283.622	8613.28
283.69	8616.41
283.758	8609.91
283.826	8611.93
283.894	8620.26
283.962	8638.79
284.03	8644.03
284.098	8645.28
284.165	8645.04
284.233	8642.97
284.301	8635.75
284.369	8625.55
284.437	8615.06
284.505	8613.37
284.573	8630.8
284.641	8619.05
284.709	8627.52
284.777	8607.17
284.845	8611.35
284.912	8617.47
284.98	8621.36
285.048	8618.77
285.116	8620.11
285.184	8632.34
285.252	8635.47
285.319	8621.66
285.387	8614.82
285.455	8602.69
285.523	8610.01
285.591	8608.66
285.659	8606.59
285.726	8613.28
285.794	8598.27
285.862	8599.57
285.93	8595.19
285.997	8588.16
286.065	8588.55
286.133	8576.51
286.201	8582.58
286.269	8567.13
286.336	8558.46
286.404	8552.83
286.472	8565.59
286.539	8542.44
286.607	8524.35
286.675	8525.02
286.743	8535.37
286.81	8525.6
286.878	8542.01
286.946	8532.19
287.013	8528.92
287.081	8528.68
287.149	8519.53
287.216	8544.03
287.284	8537.34
287.352	8537.44
287.419	8530.55
287.487	8545.14
287.555	8549.51
287.622	8547.83
287.69	8552.55
287.758	8565.64
287.825	8561.35
287.893	8541.72
287.96	8551.34
288.028	8560
288.096	8558.8
288.163	8557.21
288.231	8547.64
288.298	8542.05
288.366	8555.82
288.433	8553.94
288.501	8545.04
288.569	8547.64
288.636	8540.71
288.704	8554.08
288.771	8562.27
288.839	8558.61
288.906	8546.91
288.974	8555.38
289.041	8545.66
289.109	8537.87
289.176	8537.72
289.244	8537.39
289.311	8553.94
289.379	8561.11
289.446	8562.03
289.514	8568.24
289.581	8570.83
289.649	8577.57
289.716	8583.15
289.783	8581.28
289.851	8599.95
289.918	8602.16
289.986	8608.03
290.053	8615.2
290.121	8611.84
290.188	8616.89
290.255	8643.31
290.323	8640.38
290.39	8636.24
290.458	8650.82
290.525	8665.74
290.592	8665.06
290.66	8667.52
290.727	8658.57
290.794	8673.2
290.862	8674.83
290.929	8673.87
290.996	8671.51
291.064	8672.81
291.131	8681.28
291.198	8690.48
291.266	8688.99
291.333	8692.55
291.4	8696.78
291.468	8707.08
291.535	8707.08
291.602	8711.22
291.669	8701.6
291.737	8713.05
291.804	8713.34
291.871	8723.01
291.938	8726.38
292.006	8754.01
292.073	8769.8
292.14	8782.84
292.207	8777.98
292.275	8778.37
292.342	8785.01
292.409	8813.89
292.476	8844.02
292.543	8839.4
292.611	8837.48
292.678	8854.95
292.745	8874.97
292.812	8885.85
292.879	8884.46
292.946	8891.34
293.014	8905.25
293.081	8909.73
293.148	8917
293.215	8931.25
293.282	8928.16
293.349	8935.24
293.416	8919.5
293.484	8930.28
293.551	8943.62
293.618	8957.53
293.685	8984.25
293.752	8979.19
293.819	8974.52
293.886	8959.45
293.953	8964.51
294.02	8972.35
294.087	8977.26
294.154	8974.86
294.221	8990.6
294.288	8982.56
294.356	8994.55
294.423	8997.92
294.49	8995.32
294.557	9010.68
294.624	9001
294.691	9020.16
294.758	9034.07
294.825	9037.78
294.892	9028.1
294.959	9026.76
295.026	9029.26
295.093	9018.67
295.16	9019.87
295.226	9021.94
295.293	9049.43
295.36	9056.46
295.427	9069.17
295.494	9084.15
295.561	9093.25
295.628	9113.86
295.695	9134.03
295.762	9141.83
295.829	9151.55
295.896	9169.9
295.963	9183.04
296.03	9193.63
296.096	9203.07
296.163	9204.13
296.23	9218.53
296.297	9235.37
296.364	9232.73
296.431	9244.04
296.498	9246.5
296.564	9273.31
296.631	9274.28
296.698	9259.44
296.765	9277.98
296.832	9268.35
296.899	9253.86
296.965	9267.39
297.032	9247.5
297.099	9263.2
297.166	9263.44
297.233	9259.06
297.299	9249.24
297.366	9247.65
297.433	9254.53
297.5	9259.64
297.566	9265.51
297.633	9265.12
297.7	9268.88
297.767	9270.28
297.833	9276.44
297.9	9279.76
297.967	9264.4
298.033	9278.75
298.1	9307.79
298.167	9300.38
298.234	9307.36
298.3	9317.66
298.367	9313.13
298.434	9316.94
298.5	9308.37
298.567	9307.88
298.634	9303.98
298.7	9323.44
298.767	9320.79
298.834	9327.48
298.9	9322.67
298.967	9308.89
299.033	9316.36
299.1	9327.34
299.167	9343.08
299.233	9338.56
299.3	9352.71
299.366	9371.88
299.433	9386.61
299.5	9359.55
299.566	9360.27
299.633	9375.92
299.699	9386.76
299.766	9385.75
299.832	9389.55
299.899	9401.64
299.965	9412.86
300.032	9412.57
300.099	9414.78
300.165	9427.3
300.232	9424.46
300.298	9428.36
300.365	9447.24
300.431	9450.32
300.498	9447.19
300.564	9447.53
300.631	9461.3
300.697	9470.31
300.763	9470.26
300.83	9461.78
300.896	9476.23
300.963	9491.88
301.029	9496.4
301.096	9497.8
301.162	9510.51
301.229	9508.78
301.295	9497.51
301.361	9499.77
301.428	9501.75
301.494	9491.68
301.561	9488.07
301.627	9491.15
301.693	9491.97
301.76	9492.94
301.826	9488.7
301.892	9492.7
301.959	9502.57
302.025	9498.76
302.092	9493.27
302.158	9495.87
302.224	9497.99
302.291	9489.42
302.357	9483.5
302.423	9475.45
302.49	9471.41
302.556	9482.68
302.622	9478.78
302.688	9487.35
302.755	9499.25
302.821	9505.41
302.887	9518.99
302.954	9518.41
303.02	9521.78
303.086	9528.57
303.152	9528.14
303.219	9522.65
303.285	9530.16
303.351	9535.7
303.417	9534.5
303.483	9530.79
303.55	9527.66
303.616	9524.77
303.682	9526.94
303.748	9512.2
303.815	9529.11
303.881	9532.43
303.947	9518.99
304.013	9524.14
304.079	9519.33
304.145	9504.78
304.212	9508.64
304.278	9493.85
304.344	9488.6
304.41	9484.03
304.476	9473.44
304.542	9460.29
304.608	9472.95
304.674	9458.51
304.741	9457.78
304.807	9461.2
304.873	9465.68
304.939	9477.82
305.005	9467.03
305.071	9461.78
305.137	9473.19
305.203	9447.43
305.269	9447.38
305.335	9452.97
305.401	9453.79
305.467	9449.07
305.533	9454.08
305.599	9462.36
305.666	9475.36
305.732	9480.71
305.798	9494.72
305.864	9522.07
305.93	9532.86
305.996	9525.01
306.062	9528.33
306.128	9523.95
306.194	9515.19
306.259	9507.82
306.325	9495.2
306.391	9505.03
306.457	9514.03
306.523	9514.85
306.589	9532.28
306.655	9527.08
306.721	9513.45
306.787	9499.97
306.853	9512.49
306.919	9496.6
306.985	9490.92
307.051	9483.55
307.117	9477.58
307.183	9470.84
307.248	9440.3
307.314	9443.24
307.38	9446.95
307.446	9448.25
307.512	9436.16
307.578	9433.66
307.644	9436.31
307.709	9439.24
307.775	9429.13
307.841	9424.31
307.907	9420.75
307.973	9409.24
308.039	9403.37
308.104	9408.66
308.17	9408.28
308.236	9389.35
308.302	9392.48
308.368	9375.73
308.433	9372.79
308.499	9366.19
308.565	9347.89
308.631	9350.35
308.696	9322.9
308.762	9308.12
308.828	9306.97
308.894	9291.89
308.959	9276.58
309.025	9261.8
309.091	9256.99
309.156	9249.09
309.222	9252.85
309.288	9245.62
309.354	9220.78
309.419	9216.25
309.485	9203.54
309.551	9208.79
309.616	9200.08
309.682	9194.63
309.748	9192.47
309.813	9191.02
309.879	9177.3
309.945	9167.38
310.01	9156.79
310.076	9155.97
310.141	9153.47
310.207	9136.81
310.273	9138.3
310.338	9137.15
310.404	9123.28
310.469	9112.06
310.535	9102
310.601	9076.58
310.666	9078.22
310.732	9089.1
310.797	9081.35
310.863	9071.67
310.928	9067.82
310.994	9067.19
311.059	9064.21
311.125	9058.28
311.191	9063.34
311.256	9060.5
311.322	9067.34
311.387	9049.09
311.453	9413.14
311.518	9389.51
311.584	9385.46
311.649	9389.75
311.715	9383.68
311.78	9384.02
311.846	9371.31
311.911	9376.27
311.976	9379.64
312.042	9362.4
312.107	9349.17
312.173	9340.45
312.238	9335.21
312.304	9321
312.369	9314.65
312.434	9306.27
312.5	9305.16
312.565	9273.49
312.631	9272.33
312.696	9264.92
312.761	9271.75
312.827	8902.41
312.892	8936.2
312.958	8929.8
313.023	8918
313.088	8909.77
313.154	8895.33
313.219	8886.77
313.284	8874.73
313.35	8866.16
313.415	8856.44
313.48	8854.56
313.546	8860.72
313.611	8865.01
313.676	8859.09
313.741	8847.68
313.807	8854.28
313.872	8851.48
313.937	8859.14
314.003	8864.38
314.068	8866.26
314.133	8865.83
314.198	8861.88
314.264	8843.44
314.329	8837.13
314.394	8837.13
314.459	8837.09
314.525	8863.75
314.59	8864.57
314.655	8858.36
314.72	8862.31
314.785	8864.81
314.851	8852.44
314.916	8828.57
314.981	8810.81
315.046	8796.37
315.111	8792.04
315.176	8775.72
315.242	8776.15
315.307	8770.52
315.372	8751.36
315.437	8739.04
315.502	8729.22
315.567	8737.89
315.632	8720.51
315.698	8721.14
315.763	8720.46
315.828	8713.1
315.893	8698.13
315.958	8688.65
316.023	8679.46
316.088	8662.95
316.153	8638.98
316.218	8631.86
316.283	8614.59
316.348	8602.17
316.413	8605.93
316.479	8582.49
316.544	8544.82
316.609	8516.72
316.674	8482.79
316.739	8451.81
316.804	8421.01
316.869	8387.48
316.934	8343.74
316.999	8311.89
317.064	8263.77
317.129	8214.65
317.194	8176.26
317.259	8127.57
317.324	8077.12
317.389	8032.04
317.454	7993.22
317.518	7962.4
317.583	7930.6
317.648	7905.06
317.713	7867.88
317.778	7807.42
317.843	7779.29
317.908	7746.21
317.973	7701.39
318.038	7669.03
318.103	7630.48
318.168	7594.85
318.233	7566.86
318.297	7516.86
318.362	7481.1
318.427	7440.29
318.492	7416.49
318.557	7370.49
318.622	7343.86
318.687	7322
318.751	7283.79
318.816	7249.67
318.881	7211.13
318.946	7161.87
319.011	7119
319.075	7073.69
319.14	7040.54
319.205	6999.7
319.27	6969.34
319.335	6927.69
319.399	6889.49
319.464	6862.83
319.529	6812.21
319.594	6769.22
319.658	6742.94
319.723	6700.01
319.788	6668.6
319.853	6608.81
319.917	6577.8
319.982	6526.41
320.047	6486.94
320.112	6460.87
320.176	6414.88
320.241	6383.24
320.306	6354.05
320.37	6314.79
320.435	6286.37
320.5	6256.57
320.564	6214.33
320.629	6172.39
320.694	6137.75
320.758	6092.79
320.823	6044.85
320.888	6018.61
320.952	5968.96
321.017	5923.01
321.082	5882.24
321.146	5847.22
321.211	5815.9
321.275	5774.81
321.34	5728.87
321.405	5685.43
321.469	5635.03
321.534	5590.4
321.598	5541.21
321.663	5513.54
321.727	5476.2
321.792	5425.63
321.857	5380.42
321.921	5341.6
321.986	5296.61
322.05	5243.48
322.115	5207.26
322.179	5165.3
322.244	5109.01
322.308	5076.59
322.373	5033.19
322.437	4995.74
322.502	4970.2
322.566	4928.3
322.631	4892.24
322.695	4855.95
322.76	4814.97
322.824	4783.66
322.889	4738.63
322.953	4694.61
323.018	4624.48
323.082	4562.67
323.146	4515.83
323.211	4464.35
323.275	4422.06
323.34	4379.3
323.404	4342.24
323.468	4297.23
323.533	4253.96
323.597	4212.42
323.662	4161.69
323.726	4127.88
323.79	4080.31
323.855	4017.33
323.919	3969.91
323.983	3925.03
324.048	3855.78
324.112	3994.76
324.177	3860.72
324.241	3663.76
324.305	3466.46
324.37	3274.61
324.434	3091.12
324.498	3049.06
324.562	2999.45
324.627	2939.65
324.691	2886.04
324.755	2824.78
324.82	2752.68
324.884	2679.46
324.948	2606.93
325.012	2517.79
325.077	2395.67
