Data from 20250630_urea_2M_MAYP1162681_08-22-27-031.txt Node
Date: Tue Jul 01 08:22:27 BST 2025
User: adleo
Spectrometer: MAYP116268
Trigger mode: 0
Integration Time (sec): 1.000000E0
Scans to average: 1
Electric dark correction enabled: true
Nonlinearity correction enabled: true
Boxcar width: 10
XAxis mode: Wavelengths
Number of Pixels in Spectrum: 2068
>>>>>Begin Spectral Data<<<<<
179.565	1078.46
179.642	1130.33
179.718	1169.15
179.795	1204.86
179.871	1234.6
179.948	1248.41
180.024	1267.16
180.101	1287.04
180.177	1300.69
180.254	1321.09
180.33	1340.75
180.407	1383.46
180.483	1471.35
180.56	1549.79
180.636	1623.37
180.712	1610.02
180.789	1618.57
180.865	1627.92
180.942	1634.29
181.018	1646.73
181.095	1659.23
181.171	1664.93
181.248	1664.6
181.324	1676.48
181.4	1682.32
181.477	1690.21
181.553	1703.27
181.63	1721.57
181.706	1735.92
181.782	1741.62
181.859	1742.33
181.935	1747.04
182.011	1746.42
182.088	1759.54
182.164	1781.4
182.24	1794.66
182.317	1803.83
182.393	1803.92
182.469	1817.18
182.546	1830.25
182.622	1834.25
182.698	1831.49
182.775	1844.13
182.851	1856.06
182.927	1852.35
183.003	1850.17
183.08	1846.84
183.156	1856.97
183.232	1852.97
183.308	1843.23
183.385	1851.12
183.461	1866.85
183.537	1867.61
183.613	1878.69
183.69	1870.7
183.766	1856.63
183.842	1863.57
183.918	1868.23
183.995	1880.49
184.071	1881.92
184.147	1877.3
184.223	1866.8
184.299	1878.5
184.375	1864.62
184.452	1869.38
184.528	1923.4
184.604	1928.77
184.68	1941.42
184.756	1946.74
184.832	1953.92
184.908	1955.35
184.985	1955.11
185.061	1939.28
185.137	1947.55
185.213	1937.38
185.289	1938.38
185.365	1936.29
185.441	1935.24
185.517	1947.75
185.593	1942.09
185.669	1940.95
185.745	1950.51
185.822	1965.9
185.898	1958.49
185.974	1970.75
186.05	1965.71
186.126	1923.33
186.202	1919.53
186.278	1915.91
186.354	1908.64
186.43	1912.73
186.506	1915.39
186.582	1914.87
186.658	1920.14
186.734	1903.41
186.81	1905.26
186.886	1909.83
186.962	1917.2
187.038	1916.34
187.114	1909.63
187.19	1918.14
187.266	1911.2
187.341	1912.58
187.417	1905.98
187.493	1904.98
187.569	1905.26
187.645	1899.46
187.721	1889.34
187.797	1897.8
187.873	1901.22
187.949	1894.61
188.025	1888.29
188.101	1890.86
188.176	1894.99
188.252	1893.76
188.328	1898.22
188.404	1898.65
188.48	1893.52
188.556	1888.71
188.632	1885.96
188.707	1887.1
188.783	1884.44
188.859	1878.78
188.935	1865.99
189.011	1871.41
189.086	1866.99
189.162	1860.76
189.238	1858.77
189.314	1858.43
189.39	1851.3
189.465	1843.79
189.541	1858.34
189.617	1845.03
189.693	1839.38
189.768	1842.51
189.844	1864.82
189.92	1859.4
189.996	1866.77
190.071	1876.52
190.147	1876.56
190.223	1884.12
190.298	1875.71
190.374	1863.82
190.45	1875.28
190.526	1884.93
190.601	1880.98
190.677	1881.98
190.753	1907.33
190.828	1912.04
190.904	1924.3
190.98	1937.95
191.055	1945.08
191.131	1937.95
191.207	1958.53
191.282	1968.51
191.358	1959.01
191.433	1943.74
191.509	1955.95
191.585	1953.95
191.66	1953.57
191.736	1959.8
191.811	1953.43
191.887	1965.89
191.963	1986.48
192.038	1991.95
192.114	1991.95
192.189	1997.27
192.265	1994.42
192.34	1973.96
192.416	1971.35
192.491	1967.92
192.567	1973.63
192.642	1978.25
192.718	1977.77
192.793	1966.93
192.869	1962.08
192.944	1965.64
193.02	1970.97
193.095	1974.77
193.171	1978.91
193.246	1981.29
193.322	1977.82
193.397	1979.91
193.473	1971.63
193.548	1956.61
193.624	1961.46
193.699	1960.22
193.775	1974.06
193.85	1976.25
193.925	1984.95
194.001	1985.57
194.076	1979.44
194.152	1968.35
194.227	1960.89
194.302	1951.05
194.378	1952.9
194.453	1951.76
194.529	1962.37
194.604	1951.48
194.679	1943.54
194.755	1927.85
194.83	1938.13
194.905	1936.46
194.981	1940.79
195.056	1934.23
195.131	1941.12
195.207	1939.41
195.282	1930.95
195.357	1912.21
195.433	1923.67
195.508	1911.83
195.583	1917.68
195.659	1929.66
195.734	1935.27
195.809	1937.22
195.884	1945.87
195.96	1946.63
196.035	1959.18
196.11	1957.57
196.185	1969.64
196.261	1976.11
196.336	2003.07
196.411	1988.18
196.486	1992.41
196.561	1989.18
196.637	1995.41
196.712	2009.11
196.787	2012.15
196.862	2026.56
196.937	2037.16
197.013	2046.91
197.088	2056.33
197.163	2077.74
197.238	2093.44
197.313	2092.73
197.388	2103
197.464	2129.55
197.539	2140.68
197.614	2135.02
197.689	2144.72
197.764	2159.76
197.839	2176.12
197.914	2173.32
197.989	2195.11
198.065	2208.81
198.14	2253.7
198.215	2280.63
198.29	2292.29
198.365	2301.57
198.44	2313.33
198.515	2337.08
198.59	2348.55
198.665	2371.77
198.74	2379.72
198.815	2382.96
198.89	2402.57
198.965	2431.57
199.04	2430.95
199.115	2445.23
199.19	2483.79
199.265	2485.93
199.34	2492.83
199.415	2523.93
199.49	2543.5
199.565	2551.17
199.64	2572.88
199.715	2570.92
199.79	2573.73
199.865	2576.07
199.94	2579.26
200.015	2607.46
200.09	2616.41
200.165	2622.08
200.24	2630.7
200.315	2666.12
200.39	2682.08
200.464	2693.23
200.539	2694.33
200.614	2708.71
200.689	2728.48
200.764	2734.82
200.839	2754.29
200.914	2759.1
200.989	2752.57
201.063	2765.49
201.138	2752.54
201.213	2753.16
201.288	2735.44
201.363	2742.2
201.438	2743.06
201.512	2755.63
201.587	2738.95
201.662	2740.67
201.737	2752.67
201.812	2758.44
201.886	2725.35
201.961	2732.65
202.036	2720.22
202.111	2716.26
202.186	2686.27
202.26	2671.07
202.335	2651.2
202.41	2647.49
202.485	2632.96
202.559	2612.1
202.634	2583.19
202.709	2587.05
202.784	2571.47
202.858	2571.95
202.933	2551.62
203.008	2544.81
203.082	2527.57
203.157	2524.9
203.232	2484.49
203.306	2465.82
203.381	2435.91
203.456	2417.3
203.53	2393.71
203.605	2372.87
203.68	2351.58
203.754	2349.53
203.829	2334.87
203.904	2316.64
203.978	2302.69
204.053	2306.41
204.127	2298.32
204.202	2299.84
204.277	2286.9
204.351	2279.14
204.426	2271.43
204.5	2268.33
204.575	2239.03
204.65	2247.6
204.724	2241.93
204.799	2249.4
204.873	2242.26
204.948	2240.97
205.022	2231.89
205.097	2223.65
205.171	2237.49
205.246	2246.35
205.32	2244.97
205.395	2245.06
205.469	2237.5
205.544	2241.79
205.618	2225.37
205.693	2234.46
205.767	2224.56
205.842	2242.89
205.916	2235.84
205.991	2226.95
206.065	2232.66
206.14	2247.02
206.214	2244.78
206.289	2237.26
206.363	2249.2
206.438	2252.49
206.512	2259.29
206.586	2274.23
206.661	2283.85
206.735	2262.54
206.81	2261.25
206.884	2276.19
206.958	2266.54
207.033	2282.14
207.107	2289.04
207.181	2317.27
207.256	2309.94
207.33	2328.22
207.405	2341.93
207.479	2360.64
207.553	2370.06
207.628	2354.36
207.702	2365.26
207.776	2357.92
207.851	2361.59
207.925	2373.21
207.999	2371.92
208.073	2370.11
208.148	2374.97
208.222	2360.45
208.296	2393.61
208.371	2411.14
208.445	2419.67
208.519	2446.37
208.593	2458.03
208.668	2453.75
208.742	2456.94
208.816	2459.32
208.89	2470.61
208.965	2467.98
209.039	2475.46
209.113	2489.98
209.187	2506.64
209.261	2502.07
209.336	2519.54
209.41	2537.97
209.484	2540.4
209.558	2562.4
209.632	2577.64
209.707	2585.69
209.781	2609.31
209.855	2622.98
209.929	2635.33
210.003	2640.81
210.077	2639.23
210.151	2682.05
210.226	2716.26
210.3	2742.39
210.374	2764.44
210.448	2769.59
210.522	2780.88
210.596	2790.37
210.67	2798.75
210.744	2845.79
210.818	2877.52
210.892	2897.82
210.966	2892.63
211.041	2906.26
211.115	2900.68
211.189	2920.32
211.263	2937.76
211.337	2943.24
211.411	2957.02
211.485	2955.06
211.559	2967.45
211.633	2971.12
211.707	2943.65
211.781	2952.24
211.855	2922.01
211.929	2915.53
212.003	2900.86
212.077	2912.4
212.151	2929.33
212.225	2940.91
212.299	2933.32
212.373	2925.84
212.447	2926.03
212.52	2959.88
212.594	2966.37
212.668	2986.81
212.742	2980.71
212.816	2984.81
212.89	2990.2
212.964	2996.78
213.038	3008.76
213.112	3031.89
213.186	3057.73
213.26	3051.06
213.333	3019.68
213.407	3036.55
213.481	3054.37
213.555	3080.16
213.629	3083.73
213.703	3082.78
213.777	3100.05
213.85	3100.67
213.924	3147.48
213.998	3170.24
214.072	3185.37
214.146	3201.73
214.219	3223.92
214.293	3246.2
214.367	3274.26
214.441	3311.43
214.515	3332.44
214.588	3339.65
214.662	3338.98
214.736	3351.24
214.81	3391.59
214.883	3438.58
214.957	3465.11
215.031	3493.45
215.105	3510.96
215.178	3539.61
215.252	3578.47
215.326	3601.01
215.4	3628.27
215.473	3633.48
215.547	3658.32
215.621	3691.06
215.694	3742.57
215.768	3766.32
215.842	3808.88
215.915	3849.95
215.989	3877.24
216.063	3922.28
216.136	3979.73
216.21	4039.23
216.284	4109.47
216.357	4170.34
216.431	4226.05
216.504	4296.68
216.578	4384.19
216.652	4457.82
216.725	4523.9
216.799	4594.6
216.873	4664.76
216.946	4741.13
217.02	4804.43
217.093	4874.28
217.167	4927
217.24	4981.6
217.314	5054.76
217.387	5117.25
217.461	5178.76
217.535	5263.37
217.608	5324.08
217.682	5395.15
217.755	5476.35
217.829	5538.92
217.902	5615.01
217.976	5691.2
218.049	5760.35
218.123	5816.72
218.196	5894.61
218.27	5964.89
218.343	6030.39
218.417	6106.55
218.49	6180.5
218.563	6276.58
218.637	6360.59
218.71	6461.55
218.784	6552.01
218.857	6644.64
218.931	6734.42
219.004	6821.64
219.077	6906.67
219.151	6994.34
219.224	7077.55
219.298	7156.65
219.371	7250.7
219.444	7319.41
219.518	7399.82
219.591	7480.66
219.665	7589.24
219.738	7675.39
219.811	7748.26
219.885	7841.56
219.958	7928.8
220.031	8007.32
220.105	8089.91
220.178	8172.08
220.251	8248.44
220.325	8335.82
220.398	8418.25
220.471	8502.45
220.544	8592.01
220.618	8668.43
220.691	8754.92
220.764	8837.99
220.838	8922.76
220.911	8997.81
220.984	9102.13
221.057	9186.81
221.131	9267.78
221.204	9313.28
221.277	9409.69
221.35	9525.55
221.424	9602.89
221.497	9684.52
221.57	9766.53
221.643	9851.54
221.716	9932.56
221.79	9996.14
221.863	10067.63
221.936	10138.48
222.009	10218.45
222.082	10295.58
222.155	10368.52
222.229	10458.43
222.302	10534.02
222.375	10607.59
222.448	10685.99
222.521	10754.41
222.594	10826.01
222.667	10897.95
222.74	10983.82
222.814	11047.86
222.887	11102.71
222.96	11175.33
223.033	11257.17
223.106	11341.6
223.179	11412.54
223.252	11478.47
223.325	11563.59
223.398	11641.86
223.471	11715.41
223.544	11778.45
223.617	11847.81
223.69	11917.65
223.763	11965.42
223.837	12028.85
223.91	12096.18
223.983	12146.12
224.056	12195.53
224.129	12261.32
224.202	12337.43
224.275	12399.42
224.348	12456.21
224.42	12513.62
224.493	12565.05
224.566	12610.22
224.639	12666.19
224.712	12724.51
224.785	12787.33
224.858	12835.53
224.931	12875.59
225.004	12918.69
225.077	12977.35
225.15	13008.59
225.223	13072.61
225.296	13155.43
225.369	13206.48
225.442	13260.13
225.514	13325.79
225.587	13392.07
225.66	13454.45
225.733	13505.6
225.806	13568.79
225.879	13623.12
225.952	13668.53
226.025	13732.07
226.097	13803.13
226.17	13862.08
226.243	13894.28
226.316	13949.87
226.389	14009.93
226.461	14071.73
226.534	14139.22
226.607	14199.67
226.68	14277.09
226.753	14323.17
226.825	14358.8
226.898	14425.85
226.971	14481.09
227.044	14537.83
227.117	14596.54
227.189	14651.98
227.262	14714.98
227.335	14762.7
227.407	14805.12
227.48	14862.58
227.553	14916.62
227.626	14960.24
227.698	14998.95
227.771	15060.8
227.844	15098.97
227.916	15149.83
227.989	15192
228.062	15235.82
228.134	15300.31
228.207	15339.94
228.28	15380.52
228.352	15419.85
228.425	15468.15
228.498	15517.37
228.57	15547.73
228.643	15605.62
228.716	15648.66
228.788	15685.82
228.861	15733.01
228.934	15797.89
229.006	15844.89
229.079	15883.35
229.151	15918.44
229.224	15959.55
229.296	16005.49
229.369	16079.23
229.442	16141.89
229.514	16179.58
229.587	16232.74
229.659	16251.59
229.732	16306.19
229.804	16361.91
229.877	16429.53
229.949	16479.36
230.022	16541.73
230.094	16591.04
230.167	16625.01
230.239	16652.29
230.312	16690.99
230.384	16747.96
230.457	16794.18
230.529	16843.29
230.602	16890.52
230.674	16937.42
230.747	16993.32
230.819	17046.82
230.892	17054.48
230.964	17096.36
231.037	17144.85
231.109	17184.51
231.181	17238.82
231.254	17259.89
231.326	17294.83
231.399	17317.24
231.471	17347.89
231.544	17357.62
231.616	17407.31
231.688	17445.33
231.761	17482.59
231.833	17513.48
231.905	17524.9
231.978	17554.78
232.05	17582.44
232.122	17609.24
232.195	17631.4
232.267	17665.28
232.339	17689.72
232.412	17727.35
232.484	17743.02
232.556	17756.37
232.629	17796.89
232.701	17824.46
232.773	17863.69
232.846	17886.92
232.918	17915.16
232.99	17936.84
233.062	17976.7
233.135	18002.86
233.207	18016.45
233.279	18051.44
233.351	18078.14
233.424	18095.83
233.496	18102.76
233.568	18141.75
233.64	18148.88
233.713	18174.81
233.785	18191.87
233.857	18209.75
233.929	18213.36
234.001	18244.88
234.074	18279.19
234.146	18279.87
234.218	18290.95
234.29	18299.53
234.362	18307.82
234.434	18317.16
234.507	18318.47
234.579	18308.68
234.651	18308.78
234.723	18323.96
234.795	18336.34
234.867	18339.91
234.939	18361.55
235.012	18377.21
235.084	18382.56
235.156	18406.46
235.228	18407.52
235.3	18405.16
235.372	18412.53
235.444	18438.12
235.516	18422.03
235.588	18430.46
235.66	18436.53
235.732	18434.89
235.804	18489.64
235.876	18496.09
235.948	18515.42
236.02	18533.78
236.092	18538.21
236.164	18542.21
236.236	18541.15
236.308	18532.29
236.38	18541.54
236.452	18541.59
236.524	18548.62
236.596	18564.52
236.668	18575.42
236.74	18577.63
236.812	18586.16
236.884	18591.03
236.956	18588.04
237.028	18578.11
237.1	18564.81
237.172	18584.43
237.244	18603.08
237.316	18562.36
237.388	18563.22
237.46	18545.87
237.532	18548.19
237.604	18540.53
237.675	18552.09
237.747	18552.81
237.819	18555.75
237.891	18555.66
237.963	18531.95
238.035	18514.21
238.107	18472.1
238.178	18465.59
238.25	18455.28
238.322	18462.94
238.394	18432.92
238.466	18425.93
238.538	18425.83
238.609	18428.34
238.681	18390.56
238.753	18363.76
238.825	18353.84
238.897	18340.97
238.968	18345.55
239.04	18313.74
239.112	18324.44
239.184	18294.03
239.255	18282.61
239.327	18259.48
239.399	18234.61
239.471	18228.98
239.542	18217.65
239.614	18222.81
239.686	18180.83
239.758	18175.05
239.829	18146.71
239.901	18142.23
239.973	18119.58
240.044	18106.96
240.116	18087.25
240.188	18072.02
240.259	18050
240.331	18028.74
240.403	18015.39
240.474	17979.69
240.546	17956.75
240.618	17915.88
240.689	17891.59
240.761	17864.89
240.833	17863.79
240.904	17851.5
240.976	17836.89
241.048	17822.05
241.119	17797.23
241.191	17790.05
241.262	17780.32
241.334	17748.75
241.405	17725.14
241.477	17695.07
241.549	17662.3
241.62	17643.4
241.692	17626.63
241.763	17622.01
241.835	17600.47
241.906	17578.92
241.978	17533.14
242.049	17530.88
242.121	17517.43
242.192	17505.24
242.264	17465.48
242.335	17418.15
242.407	17403.89
242.478	17377.14
242.55	17349.91
242.621	17313.57
242.693	17282.49
242.764	17256.18
242.836	17232.99
242.907	17216.22
242.979	17205.86
243.05	17185.96
243.122	17161.57
243.193	17140.46
243.264	17090.29
243.336	17053.76
243.407	17038
243.479	17034.63
243.55	17006.15
243.622	16987.83
243.693	16963.25
243.764	16957.66
243.836	16931.3
243.907	16892.98
243.978	16860.07
244.05	16836.69
244.121	16796.26
244.192	16782.91
244.264	16733.65
244.335	16716.88
244.407	16674.85
244.478	16646.42
244.549	16618.22
244.62	16576.58
244.692	16541.06
244.763	16521.64
244.834	16492.24
244.906	16446.88
244.977	16426.64
245.048	16412.38
245.119	16375.89
245.191	16338.44
245.262	16293.71
245.333	16277.66
245.405	16256.7
245.476	16236.07
245.547	16209.42
245.618	16196.35
245.689	16163.53
245.761	16140.25
245.832	16099.23
245.903	16086.7
245.974	16069.93
246.045	16040
246.117	16028.96
246.188	15990.4
246.259	15949.29
246.33	15915.45
246.401	15888.6
246.473	15847.39
246.544	15807.77
246.615	15792.98
246.686	15761.31
246.757	15749.21
246.828	15713.98
246.899	15696.87
246.97	15651.65
247.042	15615.31
247.113	15593.04
247.184	15582.63
247.255	15550.38
247.326	15526.91
247.397	15491.29
247.468	15454.08
247.539	15431.42
247.61	15387.46
247.681	15362.5
247.752	15358.11
247.823	15332.51
247.894	15301.71
247.965	15262.43
248.037	15229.99
248.108	15179.09
248.179	15154.12
248.25	15115.99
248.321	15098.44
248.392	15058.92
248.463	15052.22
248.534	15021.66
248.605	14997.99
248.675	14966.03
248.746	14945.16
248.817	14926.12
248.888	14900.28
248.959	14851.93
249.03	14825.9
249.101	14800.84
249.172	14773.7
249.243	14716.77
249.314	14704.76
249.385	14681.1
249.456	14658.87
249.527	14624.74
249.598	14611.97
249.669	14586.37
249.739	14567.72
249.81	14541.83
249.881	14500.04
249.952	14475.94
250.023	14449.95
250.094	14407.2
250.165	14368.54
250.235	14349.83
250.306	14319.8
250.377	14284.56
250.448	14271.06
250.519	14226.14
250.59	14219.48
250.66	14182.03
250.731	14176.48
250.802	14137.29
250.873	14116.85
250.944	14095.11
251.014	14071.97
251.085	14060.16
251.156	14036.16
251.227	14018.37
251.297	14003.71
251.368	13993.78
251.439	13970.79
251.51	13963.75
251.58	13930.92
251.651	13904.51
251.722	13884.02
251.792	13844.63
251.863	13812.82
251.934	13798.55
252.005	13800.77
252.075	13768.9
252.146	13761.81
252.217	13755.98
252.287	13749.09
252.358	13720.16
252.429	13718.96
252.499	13684.54
252.57	13664
252.641	13647.52
252.711	13622.5
252.782	13577.47
252.852	13564.36
252.923	13541.66
252.994	13510.9
253.064	13509.84
253.135	13478.89
253.205	13448.04
253.276	13443.75
253.347	13438.83
253.417	13408.36
253.488	13375.49
253.558	13344.97
253.629	13320.53
253.699	13286.84
253.77	13267.31
253.841	13242.92
253.911	13216.94
253.982	13194.09
254.052	13179.29
254.123	13156.92
254.193	13134.02
254.264	13148.63
254.334	13115.85
254.405	13084.32
254.475	13058
254.546	13030.38
254.616	13016.78
254.687	12999.38
254.757	12975.95
254.827	12945.34
254.898	12926.88
254.968	12906.01
255.039	12885.33
255.109	12873.13
255.18	12840.93
255.25	12797.74
255.321	12790.17
255.391	12757.1
255.461	12765.97
255.532	12714.53
255.602	12692.26
255.673	12652.83
255.743	12618.03
255.813	12574.4
255.884	12564.33
255.954	12542.06
256.024	12533.72
256.095	12513.09
256.165	12481.08
256.235	12466.23
256.306	12450.66
256.376	12435.86
256.446	12427.14
256.517	12408.53
256.587	12393.59
256.657	12381.97
256.728	12361.77
256.798	12329.91
256.868	12306.05
256.938	12277.61
257.009	12272.84
257.079	12251.29
257.149	12255.82
257.219	12222.03
257.29	12212.29
257.36	12167.76
257.43	12160.19
257.5	12117.87
257.571	12089.19
257.641	12078.53
257.711	12045.9
257.781	12030.33
257.852	12022.23
257.922	11980.39
257.992	11952.73
258.062	11932.15
258.132	11916.14
258.202	11897.59
258.273	11882.26
258.343	11876.86
258.413	11844.32
258.483	11825.09
258.553	11792.32
258.623	11765.66
258.693	11743.39
258.764	11735.34
258.834	11736.21
258.904	11711.44
258.974	11687.68
259.044	11670.95
259.114	11645.5
259.184	11624.63
259.254	11602.8
259.324	11561.01
259.394	11552.19
259.464	11553.44
259.535	11529.83
259.605	11504.09
259.675	11477.34
259.745	11462.74
259.815	11434.4
259.885	11411.84
259.955	11411.07
260.025	11395.22
260.095	11373.38
260.165	11365.34
260.235	11366.35
260.305	11342.68
260.375	11318.01
260.445	11319.74
260.515	11317.72
260.585	11312.42
260.655	11301.24
260.725	11289.96
260.795	11273.04
260.865	11269.38
260.934	11244.66
261.004	11237.62
261.074	11220.95
261.144	11217.77
261.214	11213.72
261.284	11193.72
261.354	11186.92
261.424	11159.35
261.494	11158.25
261.564	11140.9
261.634	11124.13
261.703	11084.75
261.773	11068.27
261.843	11056.32
261.913	11040.9
261.983	11007.31
262.053	10997.58
262.123	10977
262.192	10946.79
262.262	10949.68
262.332	10918.5
262.402	10912.38
262.472	10892.14
262.541	10863.42
262.611	10860.34
262.681	10829.21
262.751	10824.29
262.821	10806.22
262.89	10777.31
262.96	10765.69
263.03	10771.48
263.1	10762.56
263.169	10745.26
263.239	10738.47
263.309	10743.24
263.379	10729.46
263.448	10717.94
263.518	10704.21
263.588	10685.18
263.657	10688.84
263.727	10683.49
263.797	10668.27
263.867	10643.06
263.936	10610.11
264.006	10609.48
264.076	10587.22
264.145	10568.53
264.215	10537.6
264.285	10534.08
264.354	10501.41
264.424	10474.58
264.494	10439.74
264.563	10419.21
264.633	10423.21
264.702	10410.35
264.772	10372.72
264.842	10354.12
264.911	10340.78
264.981	10311.1
265.05	10301.32
265.12	10281.85
265.19	10260.07
265.259	10257.28
265.329	10253.14
265.398	10247.74
265.468	10259.06
265.537	10239.94
265.607	10230.06
265.676	10235.12
265.746	10217.1
265.815	10222.21
265.885	10212.96
265.955	10187.09
266.024	10164.6
266.094	10134.53
266.163	10135.55
266.232	10138.1
266.302	10118.49
266.371	10112.04
266.441	10102.55
266.51	10095.03
266.58	10082.32
266.649	10061.55
266.719	10057.36
266.788	10042.72
266.858	10042.23
266.927	9999.55
266.996	9994.01
267.066	9985.63
267.135	9956.87
267.205	9954.27
267.274	9938.57
267.343	9942.23
267.413	9936.84
267.482	9940.5
267.552	9937.03
267.621	9903.46
267.69	9872.29
267.76	9866.51
267.829	9854.81
267.898	9844.35
267.968	9825.81
268.037	9816.08
268.106	9809.96
268.176	9779.81
268.245	9764.21
268.314	9742.53
268.384	9739.69
268.453	9723.99
268.522	9712.91
268.592	9710.6
268.661	9683.34
268.73	9675.87
268.799	9644.66
268.869	9648.9
268.938	9617.16
269.007	9601.08
269.076	9593.8
269.146	9598.96
269.215	9588.31
269.284	9593.18
269.353	9578.73
269.422	9564.57
269.492	9548.3
269.561	9513.48
269.63	9510.83
269.699	9493.93
269.768	9483.96
269.838	9476.35
269.907	9476.2
269.976	9451.6
270.045	9420.25
270.114	9418.66
270.183	9407.97
270.253	9402
270.322	9368.78
270.391	9358.57
270.46	9355.58
270.529	9349.04
270.598	9333.53
270.667	9321.78
270.736	9293.37
270.806	9287.15
270.875	9282.2
270.944	9265.49
271.013	9279.93
271.082	9272.9
271.151	9269.15
271.22	9242.38
271.289	9231.64
271.358	9211.18
271.427	9206.8
271.496	9200.59
271.565	9186.24
271.634	9177.81
271.703	9181.61
271.772	9188.31
271.841	9181.81
271.91	9163.03
271.979	9155.28
272.048	9136.6
272.117	9136.79
272.186	9126.39
272.255	9118.4
272.324	9116.9
272.393	9115.03
272.462	9098.17
272.531	9083.39
272.6	9071.5
272.669	9078
272.738	9068.85
272.807	9069.53
272.876	9052.68
272.945	9078.39
273.013	9081.71
273.082	9079.59
273.151	9058.02
273.22	9052.58
273.289	9041.22
273.358	9045.12
273.427	9033.76
273.496	9037.08
273.564	9033.09
273.633	9033.23
273.702	9015.8
273.771	9006.99
273.84	9001.07
273.909	9003.33
273.977	9006.08
274.046	8994.77
274.115	9000.78
274.184	8978.11
274.253	8967.71
274.322	8975.9
274.39	8945.62
274.459	8926.89
274.528	8901.09
274.597	8890.74
274.665	8887.9
274.734	8900.37
274.803	8891.7
274.872	8887.61
274.94	8870.91
275.009	8892.38
275.078	8876.45
275.147	8873.75
275.215	8867.93
275.284	8874.81
275.353	8859.99
275.421	8831.92
275.49	8844.25
275.559	8831.39
275.627	8828.51
275.696	8819.89
275.765	8815.85
275.833	8804.49
275.902	8807.62
275.971	8819.03
276.039	8836.35
276.108	8840.69
276.177	8833.61
276.245	8822.64
276.314	8816.57
276.383	8823.55
276.451	8786.53
276.52	8786.81
276.588	8797.5
276.657	8802.46
276.725	8787.01
276.794	8786.09
276.863	8801.01
276.931	8780.84
277	8785.22
277.068	8795.28
277.137	8810.11
277.205	8809.82
277.274	8826.71
277.342	8830.18
277.411	8809.39
277.48	8793.6
277.548	8774.78
277.617	8775.21
277.685	8766.45
277.754	8767.56
277.822	8758.56
277.89	8773.24
277.959	8773.43
278.027	8762.03
278.096	8752.88
278.164	8778.54
278.233	8770.31
278.301	8753.37
278.37	8760.2
278.438	8751.25
278.507	8750.86
278.575	8726.17
278.643	8722.76
278.712	8707.69
278.78	8695.32
278.849	8708.55
278.917	8718.71
278.985	8717.07
279.054	8712.21
279.122	8722.99
279.191	8717.84
279.259	8717.79
279.327	8696.18
279.396	8706.58
279.464	8695.46
279.532	8700.8
279.601	8697.29
279.669	8691.71
279.737	8703.64
279.806	8700.71
279.874	8708.74
279.942	8711.97
280.011	8706.19
280.079	8713.37
280.147	8720.97
280.215	8719.86
280.284	8706.87
280.352	8694.55
280.42	8707.16
280.488	8698.54
280.557	8693.25
280.625	8699.46
280.693	8697.34
280.761	8699.8
280.83	8685.98
280.898	8700.42
280.966	8678.67
281.034	8647.19
281.102	8644.11
281.171	8643.43
281.239	8654.36
281.307	8641.51
281.375	8620.14
281.443	8648.1
281.512	8643.39
281.58	8652.44
281.648	8642.18
281.716	8650.03
281.784	8649.55
281.852	8634.77
281.92	8642.9
281.989	8651.42
282.057	8632.61
282.125	8669.63
282.193	8659.62
282.261	8660.77
282.329	8653.46
282.397	8658.65
282.465	8662.26
282.533	8668.66
282.601	8656.44
282.67	8633.48
282.738	8623.9
282.806	8635.5
282.874	8614.71
282.942	8612.3
283.01	8606.91
283.078	8614.75
283.146	8606.91
283.214	8615.14
283.282	8619.86
283.35	8625.54
283.418	8616.63
283.486	8616.73
283.554	8578.51
283.622	8583.13
283.69	8577.35
283.758	8571.72
283.826	8575.62
283.894	8581.68
283.962	8598.58
284.03	8610.13
284.098	8615.28
284.165	8611.86
284.233	8609.89
284.301	8605.27
284.369	8599.78
284.437	8589.05
284.505	8583.32
284.573	8598.24
284.641	8581.64
284.709	8586.79
284.777	8569.7
284.845	8576.97
284.912	8584.14
284.98	8588.66
285.048	8585.77
285.116	8589.53
285.184	8600.26
285.252	8598.86
285.319	8581.54
285.387	8572.15
285.455	8556.32
285.523	8560.27
285.591	8559.98
285.659	8561.71
285.726	8573.74
285.794	8555.6
285.862	8550.89
285.93	8550.98
285.997	8540.88
286.065	8535.73
286.133	8524.23
286.201	8517.25
286.269	8506.42
286.336	8503.44
286.404	8493.04
286.472	8499.73
286.539	8478.7
286.607	8464.84
286.675	8466.53
286.743	8474.85
286.81	8471.44
286.878	8483.95
286.946	8472.11
287.013	8472.3
287.081	8469.17
287.149	8455.03
287.216	8471.48
287.284	8471.53
287.352	8464.12
287.419	8464.65
287.487	8484.38
287.555	8493.09
287.622	8492.03
287.69	8497.28
287.758	8503.1
287.825	8501.18
287.893	8489.91
287.96	8500.93
288.028	8512.58
288.096	8512.24
288.163	8517.01
288.231	8504.78
288.298	8503.63
288.366	8519.03
288.433	8518.79
288.501	8507.19
288.569	8508.25
288.636	8513.11
288.704	8527.64
288.771	8537.94
288.839	8535.49
288.906	8523.26
288.974	8528.85
289.041	8532.74
289.109	8519.94
289.176	8527.26
289.244	8531.01
289.311	8542.99
289.379	8550.93
289.446	8547.76
289.514	8550.02
289.581	8545.64
289.649	8550.93
289.716	8552.71
289.783	8547.32
289.851	8562.24
289.918	8572.39
289.986	8584.33
290.053	8583.7
290.121	8581.97
290.188	8580.48
290.255	8605.22
290.323	8604.83
290.39	8600.07
290.458	8604.06
290.525	8615.71
290.592	8609.79
290.66	8610.32
290.727	8603.34
290.794	8611.28
290.862	8610.32
290.929	8612.19
290.996	8616.38
291.064	8624.08
291.131	8637.85
291.198	8649.73
291.266	8643.29
291.333	8643.96
291.4	8652.67
291.468	8662.59
291.535	8659.6
291.602	8667.74
291.669	8658.98
291.737	8662.25
291.804	8656.81
291.871	8672.16
291.938	8678.56
292.006	8705.81
292.073	8718.13
292.14	8732.95
292.207	8727.47
292.275	8734.4
292.342	8743.88
292.409	8767.18
292.476	8787.35
292.543	8782.77
292.611	8781.14
292.678	8804.05
292.745	8830.47
292.812	8833.07
292.879	8838.51
292.946	8837.36
293.014	8853.43
293.081	8855.7
293.148	8867.87
293.215	8888.62
293.282	8882.41
293.349	8894.54
293.416	8878.32
293.484	8888.09
293.551	8888.71
293.618	8907.97
293.685	8928.28
293.752	8921.83
293.819	8918.61
293.886	8906.19
293.953	8909.03
294.02	8921.4
294.087	8925.39
294.154	8921.01
294.221	8940.66
294.288	8935.94
294.356	8955.96
294.423	8965.01
294.49	8965.74
294.557	8976.71
294.624	8961.79
294.691	8986
294.758	8981.19
294.825	8988.27
294.892	8984.27
294.959	8994.52
295.026	8995.29
295.093	8989.18
295.16	8989.52
295.226	8995.29
295.293	9023.7
295.36	9027.31
295.427	9035.35
295.494	9049.27
295.561	9054.85
295.628	9077.2
295.695	9099.25
295.762	9104.06
295.829	9111.52
295.896	9124.95
295.963	9135.35
296.03	9152.78
296.096	9151.24
296.163	9165.97
296.23	9184.03
296.297	9195.68
296.364	9189.9
296.431	9198.76
296.498	9196.26
296.564	9227.36
296.631	9229.96
296.698	9217.87
296.765	9235.25
296.832	9228.12
296.899	9218.35
296.965	9234.58
297.032	9214.11
297.099	9226.29
297.166	9237.32
297.233	9228.27
297.299	9225.67
297.366	9222.78
297.433	9219.46
297.5	9232.02
297.566	9232.7
297.633	9221.09
297.7	9228.65
297.767	9234.19
297.833	9237.56
297.9	9244.2
297.967	9226.1
298.033	9234.28
298.1	9258.7
298.167	9255.33
298.234	9260.19
298.3	9268.09
298.367	9259.57
298.434	9265.39
298.5	9251.19
298.567	9244.01
298.634	9247.53
298.7	9257.93
298.767	9263.99
298.834	9286.38
298.9	9282.53
298.967	9276.22
299.033	9292.07
299.1	9313.74
299.167	9329.82
299.233	9326.59
299.3	9336.41
299.366	9349.17
299.433	9363.86
299.5	9343.64
299.566	9349.22
299.633	9366.03
299.699	9374.84
299.766	9375.42
299.832	9380.76
299.899	9391.21
299.965	9404.31
300.032	9396.32
300.099	9406.57
300.165	9412.64
300.232	9401.23
300.298	9396.65
300.365	9409.27
300.431	9410.14
300.498	9399.4
300.564	9400.5
300.631	9418.22
300.697	9434.69
300.763	9435.99
300.83	9426.75
300.896	9440.23
300.963	9443.07
301.029	9447.84
301.096	9454.34
301.162	9465.08
301.229	9457.9
301.295	9453.52
301.361	9452.61
301.428	9458.48
301.494	9448.08
301.561	9446.2
301.627	9456.12
301.693	9462.62
301.76	9463.54
301.826	9464.31
301.892	9473.89
301.959	9483.09
302.025	9479.28
302.092	9474.42
302.158	9477.98
302.224	9490.36
302.291	9479.53
302.357	9482.9
302.423	9474.04
302.49	9463.2
302.556	9472.11
302.622	9474.76
302.688	9480.44
302.755	9494.02
302.821	9502.06
302.887	9506.64
302.954	9507.17
303.02	9510.83
303.086	9517.91
303.152	9522.67
303.219	9515.88
303.285	9517.14
303.351	9518.15
303.417	9518.58
303.483	9504.76
303.55	9502.5
303.616	9496.04
303.682	9497.01
303.748	9490.75
303.815	9500.76
303.881	9511.98
303.947	9496.67
304.013	9494.17
304.079	9487.71
304.145	9460.94
304.212	9463.3
304.278	9460.17
304.344	9463.25
304.41	9451.36
304.476	9437.34
304.542	9428.77
304.608	9438.55
304.674	9418.22
304.741	9414.95
304.807	9416.97
304.873	9430.84
304.939	9443.46
305.005	9429.78
305.071	9422.75
305.137	9423.23
305.203	9401.13
305.269	9396.36
305.335	9413.84
305.401	9415.1
305.467	9417.55
305.533	9429.16
305.599	9428.92
305.666	9433.83
305.732	9430.74
305.798	9440.28
305.864	9467.54
305.93	9472.4
305.996	9459.25
306.062	9461.9
306.128	9456.65
306.194	9443.7
306.259	9434.21
306.325	9426.22
306.391	9431.8
306.457	9442.3
306.523	9442.69
306.589	9471.97
306.655	9462.62
306.721	9443.02
306.787	9429.88
306.853	9441.82
306.919	9426.75
306.985	9422.85
307.051	9416.83
307.117	9406.82
307.183	9403.78
307.248	9378.64
307.314	9383.7
307.38	9388.66
307.446	9395.16
307.512	9389.53
307.578	9391.64
307.644	9391.64
307.709	9393.38
307.775	9389.81
307.841	9386.35
307.907	9382.4
307.973	9357.74
308.039	9355.62
308.104	9358.61
308.17	9359.91
308.236	9338.43
308.302	9347.24
308.368	9339.73
308.433	9333.57
308.499	9330.39
308.565	9318.5
308.631	9317.82
308.696	9290.23
308.762	9279.74
308.828	9274.87
308.894	9256.34
308.959	9240.01
309.025	9227.83
309.091	9220.08
309.156	9210.93
309.222	9209.73
309.288	9205.44
309.354	9186.47
309.419	9185.08
309.485	9173.81
309.551	9178.14
309.616	9169.38
309.682	9159.94
309.748	9146.75
309.813	9148.39
309.879	9135.63
309.945	9127.01
310.01	9119.5
310.076	9123.06
310.141	9118.64
310.207	9099.47
310.273	9098.22
310.338	9102.7
310.404	9088.69
310.469	9078.05
310.535	9070.78
310.601	9046.42
310.666	9043.63
310.732	9052.1
310.797	9040.88
310.863	9025.19
310.928	9016.23
310.994	9014.11
311.059	9014.11
311.125	9012.86
311.191	9023.21
311.256	9017.1
311.322	9018.45
311.387	8998.95
311.453	9283.96
311.518	9259.8
311.584	9263.6
311.649	9267.93
311.715	9254.41
311.78	9253.88
311.846	9243.72
311.911	9249.21
311.976	9254.36
312.042	9238.86
312.107	9225.71
312.173	9219.17
312.238	9215.8
312.304	9206.41
312.369	9199.48
312.434	9188.21
312.5	9180.66
312.565	9149.36
312.631	9150.81
312.696	9147.24
312.761	9156.92
312.827	8863.15
312.892	8895.79
312.958	8887.6
313.023	8886.79
313.088	8885.1
313.154	8874.08
313.219	8863.59
313.284	8850.73
313.35	8849.15
313.415	8841.25
313.48	8832.25
313.546	8825.18
313.611	8833.17
313.676	8824.93
313.741	8812.37
313.807	8816.46
313.872	8824.21
313.937	8827.2
314.003	8836.34
314.068	8828.79
314.133	8826.91
314.198	8821.81
314.264	8805.15
314.329	8798.41
314.394	8792.1
314.459	8788.01
314.525	8803.7
314.59	8796.68
314.655	8789.6
314.72	8792.2
314.785	8797.98
314.851	8792.44
314.916	8780.94
314.981	8766.4
315.046	8763.18
315.111	8758.9
315.176	8744.7
315.242	8736.08
315.307	8733.15
315.372	8714.9
315.437	8706.09
315.502	8693.1
315.567	8701.19
315.632	8683.81
315.698	8683.71
315.763	8674.33
315.828	8667.83
315.893	8660.23
315.958	8660.18
316.023	8644.63
316.088	8623.84
316.153	8595.79
316.218	8591.89
316.283	8575.14
316.348	8558.98
316.413	8547.38
316.479	8531.74
316.544	8501.53
316.609	8473.04
316.674	8430.31
316.739	8395.58
316.804	8365.6
316.869	8334.19
316.934	8294.39
316.999	8264.9
317.064	8216.5
317.129	8177.63
317.194	8138.47
317.259	8092.81
317.324	8040.86
317.389	7998.25
317.454	7960.44
317.518	7926.54
317.583	7895.41
317.648	7867.71
317.713	7834.33
317.778	7779.51
317.843	7747.77
317.908	7708.01
317.973	7668.1
318.038	7642.71
318.103	7612.04
318.168	7575.5
318.233	7544.63
318.297	7491.51
318.362	7454.15
318.427	7414.98
318.492	7382.39
318.557	7333.56
318.622	7301.98
318.687	7277.95
318.751	7240.04
318.816	7204.61
318.881	7170.5
318.946	7117.92
319.011	7076.74
319.075	7034.94
319.14	6999.87
319.205	6955.28
319.27	6923.58
319.335	6879.19
319.399	6843.45
319.464	6804.69
319.529	6754.6
319.594	6714.53
319.658	6686.97
319.723	6646.15
319.788	6613.3
319.853	6560.67
319.917	6533.02
319.982	6481.11
320.047	6447.55
320.112	6421.72
320.176	6367.96
320.241	6336.46
320.306	6304.4
320.37	6263.6
320.435	6227.6
320.5	6197.8
320.564	6159.41
320.629	6117.33
320.694	6089.45
320.758	6042
320.823	6001.55
320.888	5978.19
320.952	5926.44
321.017	5883.89
321.082	5845.03
321.146	5812.61
321.211	5783.98
321.275	5743.65
321.34	5702.56
321.405	5657.91
321.469	5609.63
321.534	5571.72
321.598	5517.55
321.663	5487.39
321.727	5454.55
321.792	5409.5
321.857	5366.93
321.921	5326.49
321.986	5283.75
322.05	5228.56
322.115	5193.54
322.179	5145.3
322.244	5085.53
322.308	5052.96
322.373	5006.65
322.437	4962.73
322.502	4933.46
322.566	4885
322.631	4846.26
322.695	4808.44
322.76	4758.66
322.824	4726.01
322.889	4684.04
322.953	4641.17
323.018	4578.62
323.082	4513.22
323.146	4461.03
323.211	4408.4
323.275	4366.54
323.34	4323.64
323.404	4289.26
323.468	4241.86
323.533	4202.95
323.597	4160.03
323.662	4109.41
323.726	4078.52
323.79	4035.59
323.855	3969.61
323.919	3922.68
323.983	3877.71
324.048	3808.18
324.112	3945.63
324.177	3813.83
324.241	3615.3
324.305	3421.82
324.37	3229.16
324.434	3047.92
324.498	3006.5
324.562	2959.03
324.627	2899.26
324.691	2843.32
324.755	2778.06
324.82	2706.52
324.884	2632.49
324.948	2564.2
325.012	2477.09
325.077	2351.07
