Data from 20250630_urea_2M_MAYP1162681_01-32-27-006.txt Node
Date: Tue Jul 01 01:32:27 BST 2025
User: adleo
Spectrometer: MAYP116268
Trigger mode: 0
Integration Time (sec): 1.000000E0
Scans to average: 1
Electric dark correction enabled: true
Nonlinearity correction enabled: true
Boxcar width: 10
XAxis mode: Wavelengths
Number of Pixels in Spectrum: 2068
>>>>>Begin Spectral Data<<<<<
179.565	1069.37
179.642	1119.52
179.718	1155.66
179.795	1192.19
179.871	1224.72
179.948	1238.9
180.024	1257.35
180.101	1278.78
180.177	1292.45
180.254	1314.77
180.33	1333.6
180.407	1378.36
180.483	1464.91
180.56	1543.02
180.636	1617.69
180.712	1605.24
180.789	1616.36
180.865	1626.9
180.942	1636.69
181.018	1646.85
181.095	1662.49
181.171	1668.81
181.248	1668.9
181.324	1685.44
181.4	1691.71
181.477	1700.26
181.553	1713.18
181.63	1733.33
181.706	1746.78
181.782	1752.05
181.859	1748.92
181.935	1754.57
182.011	1749.3
182.088	1764.6
182.164	1782.09
182.24	1794.45
182.317	1804.47
182.393	1802.14
182.469	1814.64
182.546	1828.23
182.622	1832.56
182.698	1826.62
182.775	1838.93
182.851	1854.04
182.927	1847.67
183.003	1842.45
183.08	1838.45
183.156	1847.58
183.232	1842.59
183.308	1832.56
183.385	1840.21
183.461	1857.65
183.537	1859.6
183.613	1873.24
183.69	1865.02
183.766	1858.08
183.842	1865.49
183.918	1869.63
183.995	1880.04
184.071	1884.18
184.147	1877.61
184.223	1870.3
184.299	1882.09
184.375	1869.35
184.452	1875.63
184.528	1926.79
184.604	1938.2
184.68	1947.75
184.756	1954.84
184.832	1958.93
184.908	1964.39
184.985	1965.3
185.061	1950.65
185.137	1957.26
185.213	1944.81
185.289	1945.47
185.365	1938.77
185.441	1937.77
185.517	1951
185.593	1950.61
185.669	1948.57
185.745	1959.17
185.822	1972.72
185.898	1965.59
185.974	1974.43
186.05	1966.2
186.126	1928.92
186.202	1921.22
186.278	1915.8
186.354	1905.91
186.43	1915.51
186.506	1912.66
186.582	1913.14
186.658	1918.27
186.734	1900.02
186.81	1902.87
186.886	1904.58
186.962	1914.18
187.038	1908.67
187.114	1900.63
187.19	1909
187.266	1899.35
187.341	1899.87
187.417	1895.31
187.493	1894.03
187.569	1895.64
187.645	1892.74
187.721	1879.76
187.797	1886.61
187.873	1890.08
187.949	1884.85
188.025	1874.29
188.101	1878
188.176	1881.71
188.252	1879.76
188.328	1889.55
188.404	1890.64
188.48	1885.36
188.556	1879.37
188.632	1879.09
188.707	1880.99
188.783	1875.95
188.859	1870.77
188.935	1858.31
189.011	1861.78
189.086	1856.94
189.162	1850.04
189.238	1845.34
189.314	1844.72
189.39	1839.25
189.465	1833.79
189.541	1849.19
189.617	1837.59
189.693	1832.98
189.768	1837.03
189.844	1858.38
189.92	1849.92
189.996	1857.57
190.071	1868.17
190.147	1868.98
190.223	1878.63
190.298	1868.89
190.374	1855.91
190.45	1867.98
190.526	1877.3
190.601	1871.17
190.677	1871.45
190.753	1899.37
190.828	1904.17
190.904	1916.39
190.98	1932.56
191.055	1941.97
191.131	1934.27
191.207	1950.67
191.282	1959.27
191.358	1950.76
191.433	1936.35
191.509	1948.51
191.585	1944.09
191.66	1944.8
191.736	1951.55
191.811	1943.09
191.887	1961.26
191.963	1984.7
192.038	1989.12
192.114	1990.02
192.189	1994.87
192.265	1991.59
192.34	1968.09
192.416	1966.53
192.491	1964.81
192.567	1966.62
192.642	1969.9
192.718	1968.62
192.793	1959.25
192.869	1955.97
192.944	1957.07
193.02	1964.68
193.095	1967.62
193.171	1973.52
193.246	1973.8
193.322	1971.52
193.397	1972.52
193.473	1958.25
193.548	1939.85
193.624	1945.98
193.699	1945.84
193.775	1961.06
193.85	1964.15
193.925	1975.32
194.001	1974.42
194.076	1965.05
194.152	1952.97
194.227	1945.65
194.302	1938.57
194.378	1943.32
194.453	1939.57
194.529	1951.12
194.604	1937.14
194.679	1930.39
194.755	1912.9
194.83	1923.99
194.905	1922.27
194.981	1932.07
195.056	1925.08
195.131	1930.88
195.207	1927.74
195.282	1917.24
195.357	1900.07
195.433	1912.81
195.508	1899.87
195.583	1903.34
195.659	1919.99
195.734	1927.45
195.809	1927.17
195.884	1936.01
195.96	1934.06
196.035	1948.09
196.11	1944.52
196.185	1956.17
196.261	1958.31
196.336	1988.69
196.411	1976.8
196.486	1982.65
196.561	1971.42
196.637	1977.03
196.712	1990.06
196.787	1992.59
196.862	2008.37
196.937	2017.98
197.013	2023.11
197.088	2033.53
197.163	2058.17
197.238	2071.73
197.313	2074.54
197.388	2087.05
197.464	2113.74
197.539	2129.34
197.614	2122.54
197.689	2133.67
197.764	2148.8
197.839	2170.87
197.914	2163.59
197.989	2183.57
198.065	2194.71
198.14	2245.97
198.215	2273.66
198.29	2286.04
198.365	2300.6
198.44	2310.4
198.515	2335.82
198.59	2350.14
198.665	2372.61
198.74	2377.13
198.815	2378.75
198.89	2398.65
198.965	2425.69
199.04	2419.79
199.115	2431.73
199.19	2471.57
199.265	2474.24
199.34	2484.19
199.415	2513.34
199.49	2533.91
199.565	2545.38
199.64	2567.52
199.715	2563.71
199.79	2570.71
199.865	2577.14
199.94	2574.52
200.015	2603.05
200.09	2607.29
200.165	2612.91
200.24	2622.15
200.315	2661.86
200.39	2676.73
200.464	2679.49
200.539	2682.59
200.614	2701.59
200.689	2724.84
200.764	2733.56
200.839	2752.32
200.914	2756.09
200.989	2747.6
201.063	2760.8
201.138	2742.28
201.213	2741.18
201.288	2721.27
201.363	2721.27
201.438	2720.94
201.512	2734.41
201.587	2718.64
201.662	2722.21
201.737	2734.7
201.812	2740.42
201.886	2707.23
201.961	2717.48
202.036	2709.29
202.111	2706.72
202.186	2677.1
202.26	2661.95
202.335	2640.51
202.41	2632.41
202.485	2617.84
202.559	2598.31
202.634	2571.69
202.709	2583.07
202.784	2564.49
202.858	2566.16
202.933	2551.02
203.008	2546.02
203.082	2530.5
203.157	2528.12
203.232	2489.75
203.306	2470.84
203.381	2443.69
203.456	2421.79
203.53	2398.02
203.605	2377.94
203.68	2354.7
203.754	2349.75
203.829	2333.28
203.904	2314.57
203.978	2302.58
204.053	2305.48
204.127	2296.82
204.202	2296.53
204.277	2279.26
204.351	2276.02
204.426	2269.98
204.5	2263.65
204.575	2232.34
204.65	2239.48
204.724	2230.29
204.799	2237.43
204.873	2233.62
204.948	2231.24
205.022	2220.97
205.097	2212.06
205.171	2225.91
205.246	2234.43
205.32	2231.38
205.395	2232.19
205.469	2222.97
205.544	2227.25
205.618	2210.36
205.693	2219.5
205.767	2208.32
205.842	2227.21
205.916	2220.74
205.991	2211.84
206.065	2221.84
206.14	2237.34
206.214	2235.24
206.289	2229.63
206.363	2243.48
206.438	2244
206.512	2247.95
206.586	2265.88
206.661	2274.5
206.735	2253.48
206.81	2253.38
206.884	2267.61
206.958	2255.09
207.033	2268.93
207.107	2279.5
207.181	2311.02
207.256	2304.16
207.33	2321.82
207.405	2333.06
207.479	2352.9
207.553	2358.85
207.628	2337.54
207.702	2347.2
207.776	2342.15
207.851	2347.44
207.925	2357.67
207.999	2355.01
208.073	2356.1
208.148	2358.2
208.222	2347.82
208.296	2378.17
208.371	2392.56
208.445	2405.6
208.519	2430.06
208.593	2442.58
208.668	2437.96
208.742	2439.15
208.816	2441.44
208.89	2453.92
208.965	2449.82
209.039	2456.11
209.113	2472.58
209.187	2496.27
209.261	2490.99
209.336	2507.65
209.41	2526.89
209.484	2522.13
209.558	2541.04
209.632	2551.23
209.707	2563.51
209.781	2583.85
209.855	2601
209.929	2616.63
210.003	2621.39
210.077	2621.54
210.151	2666.44
210.226	2698.09
210.3	2724.7
210.374	2749.27
210.448	2755.61
210.522	2767.85
210.596	2779.57
210.67	2790.44
210.744	2831.57
210.818	2862.15
210.892	2881.74
210.966	2875.93
211.041	2900.51
211.115	2898.66
211.189	2924.15
211.263	2940.69
211.337	2948.79
211.411	2960.52
211.485	2960.62
211.559	2975.72
211.633	2982.39
211.707	2957.97
211.781	2968.8
211.855	2941.1
211.929	2936.48
212.003	2924.99
212.077	2938.11
212.151	2953.75
212.225	2972.2
212.299	2972.58
212.373	2973.3
212.447	2980.07
212.52	3019.79
212.594	3034.49
212.668	3061.99
212.742	3060.75
212.816	3072.58
212.89	3084.03
212.964	3103.26
213.038	3124.87
213.112	3158.99
213.186	3197.91
213.26	3203.87
213.333	3189.17
213.407	3221.79
213.481	3256.17
213.555	3300.13
213.629	3327.63
213.703	3348.39
213.777	3381.1
213.85	3401.82
213.924	3472.35
213.998	3517.77
214.072	3556.47
214.146	3593.25
214.219	3640.97
214.293	3692.54
214.367	3747.19
214.441	3816.61
214.515	3865.36
214.588	3907.23
214.662	3941.45
214.736	3987.95
214.81	4062.91
214.883	4143.9
214.957	4208.77
215.031	4277.8
215.105	4338.66
215.178	4409.18
215.252	4488.4
215.326	4553.77
215.4	4621.61
215.473	4669.4
215.547	4741.46
215.621	4824.05
215.694	4922.53
215.768	5001.04
215.842	5090.56
215.915	5183.77
215.989	5261.17
216.063	5356.04
216.136	5462.56
216.21	5568.15
216.284	5690.58
216.357	5802.13
216.431	5909.76
216.504	6027.39
216.578	6159.75
216.652	6283.43
216.725	6402.3
216.799	6529.55
216.873	6648.62
216.946	6779.98
217.02	6902.92
217.093	7021.42
217.167	7125.55
217.24	7237.2
217.314	7363
217.387	7478.82
217.461	7599.3
217.535	7739.84
217.608	7862.12
217.682	7991.84
217.755	8132.24
217.829	8252.04
217.902	8378.03
217.976	8500.57
218.049	8627.37
218.123	8733.88
218.196	8870.57
218.27	8986.29
218.343	9097.55
218.417	9232.65
218.49	9360.52
218.563	9492.74
218.637	9628.79
218.71	9778.57
218.784	9915.65
218.857	10048.49
218.931	10183.3
219.004	10308.31
219.077	10440.13
219.151	10570.64
219.224	10682.71
219.298	10807.7
219.371	10939.11
219.444	11053.45
219.518	11181.87
219.591	11308.08
219.665	11455.41
219.738	11574.45
219.811	11689.05
219.885	11815.57
219.958	11932.11
220.031	12043.69
220.105	12164.43
220.178	12281.85
220.251	12387.71
220.325	12500.02
220.398	12619.13
220.471	12732.6
220.544	12839.37
220.618	12930.14
220.691	13034.56
220.764	13139.6
220.838	13246.47
220.911	13344.9
220.984	13469.37
221.057	13583.91
221.131	13685.04
221.204	13764.49
221.277	13880.71
221.35	14008.74
221.424	14096.96
221.497	14197.37
221.57	14294.12
221.643	14398.2
221.716	14496.2
221.79	14577.23
221.863	14661.68
221.936	14741.61
222.009	14828.13
222.082	14923.24
222.155	15011.5
222.229	15118.65
222.302	15221.52
222.375	15296.57
222.448	15386.85
222.521	15464.26
222.594	15531.12
222.667	15591.61
222.74	15681.65
222.814	15751.97
222.887	15813.77
222.96	15911.13
223.033	15986.51
223.106	16065.27
223.179	16137.37
223.252	16205
223.325	16277.53
223.398	16348.72
223.471	16423.28
223.544	16498.81
223.617	16576.12
223.69	16649.09
223.763	16698.58
223.837	16760.56
223.91	16828.81
223.983	16869.05
224.056	16922.69
224.129	16988.82
224.202	17067.62
224.275	17119.76
224.348	17161.4
224.42	17209.55
224.493	17248.1
224.566	17302.08
224.639	17362.99
224.712	17406.37
224.785	17454.66
224.858	17504.2
224.931	17555.09
225.004	17598.22
225.077	17645.07
225.15	17673.31
225.223	17717.55
225.296	17785.25
225.369	17810.94
225.442	17851.28
225.514	17907.04
225.587	17959.32
225.66	18011.75
225.733	18055.27
225.806	18104.96
225.879	18147.65
225.952	18190.98
226.025	18245
226.097	18302.2
226.17	18338.63
226.243	18363.98
226.316	18407.98
226.389	18455.01
226.461	18503.49
226.534	18543.34
226.607	18584.31
226.68	18629.27
226.753	18666.28
226.825	18678.61
226.898	18734.08
226.971	18769.4
227.044	18813.59
227.117	18850.6
227.189	18888.96
227.262	18925.68
227.335	18965.87
227.407	19004.67
227.48	19047.27
227.553	19080.95
227.626	19109.33
227.698	19137.24
227.771	19181.96
227.844	19208.41
227.916	19236.99
227.989	19255.45
228.062	19273.13
228.134	19317.51
228.207	19355.34
228.28	19388.4
228.352	19416.64
228.425	19448.16
228.498	19487.96
228.57	19499.29
228.643	19538.22
228.716	19563.04
228.788	19580.92
228.861	19596.82
228.934	19634.22
229.006	19650.89
229.079	19668.39
229.151	19680.48
229.224	19693.25
229.296	19723.42
229.369	19768.77
229.442	19817.73
229.514	19830.31
229.587	19878.55
229.659	19886.06
229.732	19907.03
229.804	19932.91
229.877	19973.77
229.949	20005.53
230.022	20047.22
230.094	20073.14
230.167	20090.4
230.239	20093.48
230.312	20117.57
230.384	20159.65
230.457	20184.18
230.529	20209.43
230.602	20228.9
230.674	20251.84
230.747	20291.5
230.819	20310
230.892	20295.5
230.964	20304.17
231.037	20327.06
231.109	20339.59
231.181	20354.68
231.254	20355.88
231.326	20373.91
231.399	20388.41
231.471	20392.94
231.544	20383.45
231.616	20408.03
231.688	20426.2
231.761	20438.44
231.833	20452.12
231.905	20438.77
231.978	20443.21
232.05	20446.2
232.122	20457.52
232.195	20470.77
232.267	20486.48
232.339	20491.74
232.412	20512.89
232.484	20498.87
232.556	20498.97
232.629	20526.58
232.701	20544.12
232.773	20559.69
232.846	20542.15
232.918	20539.84
232.99	20540.94
233.062	20543.31
233.135	20542.49
233.207	20526.34
233.279	20543.59
233.351	20550.63
233.424	20556.75
233.496	20546.97
233.568	20558.34
233.64	20550.53
233.713	20539.16
233.785	20534.44
233.857	20536.89
233.929	20528.65
234.001	20562.63
234.074	20575.55
234.146	20543.11
234.218	20533.42
234.29	20522.49
234.362	20523.26
234.434	20509.86
234.507	20500.03
234.579	20486.44
234.651	20479.93
234.723	20475.79
234.795	20468.51
234.867	20459.35
234.939	20455.06
235.012	20452.7
235.084	20451.83
235.156	20446.92
235.228	20427.69
235.3	20408.65
235.372	20404.65
235.444	20399.64
235.516	20351.69
235.588	20333.38
235.66	20326.97
235.732	20310.53
235.804	20351.88
235.876	20348.8
235.948	20347.64
236.02	20339.11
236.092	20311.98
236.164	20293.23
236.236	20282.39
236.308	20257.28
236.38	20239.16
236.452	20217.48
236.524	20195.12
236.596	20195.21
236.668	20180.13
236.74	20167.36
236.812	20160.23
236.884	20143.84
236.956	20136.47
237.028	20112.37
237.1	20091.07
237.172	20091.89
237.244	20087.26
237.316	20029.48
237.388	20007.99
237.46	19974.59
237.532	19955.89
237.604	19949.58
237.675	19948.76
237.747	19942.3
237.819	19921.05
237.891	19902.21
237.963	19864.72
238.035	19839.42
238.107	19776.04
238.178	19772.14
238.25	19749.73
238.322	19745.68
238.394	19710.51
238.466	19674.7
238.538	19665.4
238.609	19648.15
238.681	19599.09
238.753	19559.52
238.825	19544.44
238.897	19517.21
238.968	19511.86
239.04	19482.08
239.112	19472.73
239.184	19431.92
239.255	19394.28
239.327	19368.31
239.399	19333.42
239.471	19319.06
239.542	19297.37
239.614	19295.06
239.686	19237.13
239.758	19219.3
239.829	19173.33
239.901	19149.96
239.973	19129.33
240.044	19103.99
240.116	19084.9
240.188	19059.94
240.259	19031.46
240.331	18990.98
240.403	18967.51
240.474	18919.37
240.546	18881.69
240.618	18830.8
240.689	18795.57
240.761	18770.42
240.833	18755.81
240.904	18735.14
240.976	18703.43
241.048	18672.83
241.119	18643.19
241.191	18625.56
241.262	18612.26
241.334	18580.79
241.405	18549.56
241.477	18508.41
241.549	18474.19
241.62	18434.63
241.692	18414
241.763	18401.71
241.835	18370.34
241.906	18341.14
241.978	18302.59
242.049	18286.64
242.121	18263.74
242.192	18246.11
242.264	18189.68
242.335	18135.65
242.407	18106.5
242.478	18077.29
242.55	18046.11
242.621	18001.92
242.693	17960.82
242.764	17916.05
242.836	17879.04
242.907	17853.88
242.979	17826.7
243.05	17804.63
243.122	17782.56
243.193	17732.87
243.264	17676.68
243.336	17647.28
243.407	17627.81
243.479	17611.57
243.55	17576.92
243.622	17552.15
243.693	17518.18
243.764	17506.9
243.836	17475.82
243.907	17438.37
243.978	17406.13
244.05	17386.03
244.121	17343.09
244.192	17324.05
244.264	17278.75
244.335	17252.97
244.407	17202.32
244.478	17177.02
244.549	17135.38
244.62	17083.38
244.692	17060.97
244.763	17047.37
244.834	17005.59
244.906	16958.41
244.977	16937.01
245.048	16922.26
245.119	16880.82
245.191	16838.93
245.262	16791.51
245.333	16775.46
245.405	16742.3
245.476	16714.83
245.547	16682.11
245.618	16658.59
245.689	16625.14
245.761	16598.92
245.832	16555.06
245.903	16537.95
245.974	16493.47
246.045	16458.04
246.117	16446.09
246.188	16396.97
246.259	16351.19
246.33	16316.1
246.401	16279.08
246.473	16224.52
246.544	16182.98
246.615	16163.22
246.686	16127.41
246.757	16108.27
246.828	16060.99
246.899	16044.12
246.97	16003.01
247.042	15968.4
247.113	15943.34
247.184	15928.68
247.255	15893.06
247.326	15872.96
247.397	15835.37
247.468	15817.34
247.539	15783.8
247.61	15736.51
247.681	15717.76
247.752	15695.73
247.823	15662.19
247.894	15643.24
247.965	15613.31
248.037	15580.2
248.108	15538.98
248.179	15510.5
248.25	15469.57
248.321	15444.89
248.392	15401.42
248.463	15382.81
248.534	15346.18
248.605	15329.74
248.675	15293.45
248.746	15269.35
248.817	15238.98
248.888	15210.93
248.959	15162.58
249.03	15141.71
249.101	15116.78
249.172	15091.86
249.243	15041.44
249.314	15030.07
249.385	14999.65
249.456	14971.31
249.527	14933.9
249.598	14906.81
249.669	14875.33
249.739	14858.41
249.81	14839.37
249.881	14805
249.952	14783.02
250.023	14758.01
250.094	14716.74
250.165	14681.07
250.235	14649.55
250.306	14623.13
250.377	14583.22
250.448	14563.89
250.519	14520.84
250.59	14503.58
250.66	14466.9
250.731	14457.69
250.802	14427.03
250.873	14399.07
250.944	14378.49
251.014	14347.83
251.085	14345.95
251.156	14319.44
251.227	14301.6
251.297	14286.56
251.368	14270.99
251.439	14253.4
251.51	14229.34
251.58	14193.09
251.651	14163.2
251.722	14155.92
251.792	14112.15
251.863	14088.34
251.934	14077.11
252.005	14083.33
252.075	14055.41
252.146	14038.16
252.217	14017.62
252.287	13988.07
252.358	13962.09
252.429	13952.4
252.499	13927.86
252.57	13899.37
252.641	13895.51
252.711	13867.7
252.782	13820.02
252.852	13809.03
252.923	13770.76
252.994	13751.91
253.064	13734.84
253.135	13703.22
253.205	13662.15
253.276	13654.58
253.347	13646.34
253.417	13616.3
253.488	13580.82
253.558	13555.03
253.629	13530.59
253.699	13517.53
253.77	13503.55
253.841	13475.44
253.911	13448.98
253.982	13424.92
254.052	13408.63
254.123	13382.89
254.193	13363.31
254.264	13382.26
254.334	13346.83
254.405	13318.82
254.475	13285.94
254.546	13262.56
254.616	13255.96
254.687	13238.94
254.757	13227.71
254.827	13203.7
254.898	13182.4
254.968	13162.58
255.039	13135.3
255.109	13125.08
255.18	13087.86
255.25	13050.07
255.321	13034.6
255.391	13003.65
255.461	13003.02
255.532	12949.37
255.602	12918.03
255.673	12879.03
255.743	12840.71
255.813	12795.06
255.884	12789.42
255.954	12771.92
256.024	12767.15
256.095	12740.25
256.165	12709.74
256.235	12684.14
256.306	12657.1
256.376	12641.57
256.446	12627.16
256.517	12609.66
256.587	12595.54
256.657	12571.97
256.728	12554.71
256.798	12529.21
256.868	12500.48
256.938	12466.98
257.009	12457.67
257.079	12449.05
257.149	12447.5
257.219	12412.12
257.29	12403.54
257.36	12358.28
257.43	12346.66
257.5	12309.93
257.571	12285.39
257.641	12276.67
257.711	12253.63
257.781	12241.58
257.852	12225.38
257.922	12182.09
257.992	12163.83
258.062	12142.71
258.132	12137.7
258.202	12117.74
258.273	12102.56
258.343	12102.66
258.413	12084.1
258.483	12064.96
258.553	12034.21
258.623	12006.16
258.693	11992.03
258.764	11988.23
258.834	11982.88
258.904	11967.02
258.974	11931.74
259.044	11914.14
259.114	11894.81
259.184	11871.49
259.254	11847.39
259.324	11812.44
259.394	11806.08
259.464	11803.04
259.535	11775.81
259.605	11752.19
259.675	11724.19
259.745	11705.53
259.815	11670.11
259.885	11640.13
259.955	11649.72
260.025	11621.67
260.095	11599.31
260.165	11585.71
260.235	11583.4
260.305	11558.58
260.375	11524.22
260.445	11531.4
260.515	11527.06
260.585	11520.89
260.655	11500.02
260.725	11490.28
260.795	11472.6
260.865	11467.2
260.934	11435.48
261.004	11417.99
261.074	11399.19
261.144	11398.52
261.214	11393.55
261.284	11380.16
261.354	11374.33
261.424	11343.19
261.494	11342.71
261.564	11325.84
261.634	11311.04
261.703	11268.68
261.773	11259.04
261.843	11253.45
261.913	11229.79
261.983	11192.05
262.053	11178.8
262.123	11163.47
262.192	11134.99
262.262	11131.62
262.332	11103.38
262.402	11092.87
262.472	11080.44
262.541	11044.15
262.611	11036.44
262.681	11009.84
262.751	10998.71
262.821	10981.6
262.89	10955.87
262.96	10943.39
263.03	10954.47
263.1	10942.9
263.169	10937.07
263.239	10918.76
263.309	10916.93
263.379	10908.88
263.448	10900.79
263.518	10878.91
263.588	10863.01
263.657	10864.02
263.727	10857.47
263.797	10849.13
263.867	10832.6
263.936	10806.29
264.006	10801.67
264.076	10778.92
264.145	10764.18
264.215	10746.16
264.285	10740.91
264.354	10709.63
264.424	10687.81
264.494	10644.05
264.563	10622.47
264.633	10617.12
264.702	10602.95
264.772	10571.68
264.842	10547.3
264.911	10537.08
264.981	10511.69
265.05	10497.09
265.12	10480.61
265.19	10461
265.259	10443.99
265.329	10434.41
265.398	10421.98
265.468	10437.01
265.537	10417.21
265.607	10402.18
265.676	10395.53
265.746	10388.25
265.815	10383.1
265.885	10364.16
265.955	10348.56
266.024	10332.61
266.094	10303.89
266.163	10306.21
266.232	10300.57
266.302	10290.26
266.371	10274.55
266.441	10265.59
266.51	10265.88
266.58	10243.63
266.649	10219.54
266.719	10222.86
266.788	10211.88
266.858	10212.89
266.927	10173.53
266.996	10165.05
267.066	10159.94
267.135	10131.57
267.205	10122.13
267.274	10113.84
267.343	10110.13
267.413	10092.45
267.482	10086.34
267.552	10083.78
267.621	10051.85
267.69	10021.55
267.76	10013.12
267.829	10003.82
267.898	9990.24
267.968	9964.66
268.037	9959.89
268.106	9965.38
268.176	9941.39
268.245	9926.99
268.314	9911.33
268.384	9910.7
268.453	9902.85
268.522	9893.17
268.592	9891.2
268.661	9860.37
268.73	9852.03
268.799	9834.26
268.869	9842.79
268.938	9817.16
269.007	9790.67
269.076	9781.91
269.146	9781.38
269.215	9776.13
269.284	9776.94
269.353	9762.74
269.422	9746.27
269.492	9726.91
269.561	9686.26
269.63	9673.73
269.699	9656.73
269.768	9641.8
269.838	9626.68
269.907	9619.4
269.976	9596.43
270.045	9572.93
270.114	9567.34
270.183	9547.65
270.253	9543.79
270.322	9514.42
270.391	9501.32
270.46	9503.78
270.529	9503.97
270.598	9510.04
270.667	9498.04
270.736	9481.57
270.806	9474.21
270.875	9477.38
270.944	9464.19
271.013	9479.46
271.082	9470.16
271.151	9461.49
271.22	9434.67
271.289	9431.06
271.358	9415.84
271.427	9406.94
271.496	9390.95
271.565	9377.32
271.634	9367.6
271.703	9366.44
271.772	9371.79
271.841	9365.48
271.91	9347.85
271.979	9339.38
272.048	9308.99
272.117	9296.33
272.186	9277.89
272.255	9274.66
272.324	9270.76
272.393	9266.09
272.462	9248.37
272.531	9241.34
272.6	9233.97
272.669	9242.78
272.738	9225.06
272.807	9220.39
272.876	9201.13
272.945	9230.89
273.013	9235.47
273.082	9240.28
273.151	9214.14
273.22	9208.26
273.289	9196.66
273.358	9201.67
273.427	9185.44
273.496	9183.13
273.564	9186.98
273.633	9191.46
273.702	9173.26
273.771	9160.45
273.84	9151.55
273.909	9154.29
273.977	9156.27
274.046	9144.47
274.115	9145.19
274.184	9129.55
274.253	9118.81
274.322	9124.68
274.39	9094.83
274.459	9079.66
274.528	9047.51
274.597	9045.58
274.665	9033.74
274.734	9040.82
274.803	9028.39
274.872	9027.91
274.94	9011.5
275.009	9058.51
275.078	9043.34
275.147	9039.01
275.215	9031.4
275.284	9039.49
275.353	9025.19
275.421	8993.8
275.49	9000.88
275.559	8987.21
275.627	8980.13
275.696	8973.78
275.765	8974.5
275.833	8965.11
275.902	8956.21
275.971	8972.77
276.039	8980.37
276.108	8984.42
276.177	8981.33
276.245	8974.31
276.314	8965.74
276.383	8972.38
276.451	8911.31
276.52	8914.25
276.588	8925.03
276.657	8928.98
276.725	8921.71
276.794	8919.83
276.863	8930.95
276.931	8910.01
277	8917.04
277.068	8925.37
277.137	8939.23
277.205	8934.27
277.274	8946.6
277.342	8957.86
277.411	8936.15
277.48	8927.92
277.548	8920.22
277.617	8921.28
277.685	8914.16
277.754	8916.51
277.822	8906.31
277.89	8918.44
277.959	8906.6
278.027	8892.21
278.096	8882.29
278.164	8898.85
278.233	8887.25
278.301	8876.23
278.37	8882.44
278.438	8868.72
278.507	8874.16
278.575	8847.44
278.643	8844.55
278.712	8825.59
278.78	8809.7
278.849	8816.73
278.917	8824.63
278.985	8822.85
279.054	8825.06
279.122	8831.56
279.191	8831.41
279.259	8827.27
279.327	8801.23
279.396	8811.05
279.464	8811.87
279.532	8815.62
279.601	8817.98
279.669	8817.98
279.737	8828.76
279.806	8830.06
279.874	8838.68
279.942	8834.01
280.011	8829.29
280.079	8835.26
280.147	8847.2
280.215	8846.53
280.284	8844.31
280.352	8831.8
280.42	8836.37
280.488	8826.5
280.557	8822.36
280.625	8817.07
280.693	8817.4
280.761	8823.13
280.83	8814.51
280.898	8815
280.966	8792.33
281.034	8760.41
281.102	8743.42
281.171	8735.91
281.239	8742.99
281.307	8729.8
281.375	8718.92
281.443	8741.5
281.512	8735.77
281.58	8740.97
281.648	8729.56
281.716	8732.4
281.784	8731.01
281.852	8713.82
281.92	8712.04
281.989	8721.72
282.057	8710.89
282.125	8746.7
282.193	8739.2
282.261	8739.53
282.329	8739.15
282.397	8748.2
282.465	8749.11
282.533	8762.54
282.601	8755.32
282.67	8740.25
282.738	8735.87
282.806	8739
282.874	8726.72
282.942	8731.83
283.01	8722.92
283.078	8735.96
283.146	8729.42
283.214	8735.24
283.282	8742.75
283.35	8747.32
283.418	8739.67
283.486	8744.48
283.554	8709.29
283.622	8712.28
283.69	8707.08
283.758	8694.18
283.826	8695.82
283.894	8702.41
283.962	8718.58
284.03	8726.48
284.098	8724.98
284.165	8721.52
284.233	8727.63
284.301	8726.14
284.369	8712.33
284.437	8707.85
284.505	8702.75
284.573	8715.21
284.641	8708.86
284.709	8715.16
284.777	8699.43
284.845	8708.09
284.912	8710.3
284.98	8714.88
285.048	8710.16
285.116	8713.77
285.184	8727.97
285.252	8728.35
285.319	8709.97
285.387	8702.7
285.455	8688.26
285.523	8692.35
285.591	8683.31
285.659	8680.27
285.726	8689.23
285.794	8677.82
285.862	8674.12
285.93	8670.7
285.997	8660.64
286.065	8653.08
286.133	8646.01
286.201	8644.61
286.269	8623.77
286.336	8614.19
286.404	8606.59
286.472	8616.26
286.539	8595.48
286.607	8584.17
286.675	8585.18
286.743	8596.58
286.81	8591.62
286.878	8603.41
286.946	8594.8
287.013	8600.96
287.081	8600.62
287.149	8581.37
287.216	8600.48
287.284	8595.28
287.352	8593.5
287.419	8591.19
287.487	8595.28
287.555	8598.02
287.622	8600.33
287.69	8609.77
287.758	8619.44
287.825	8619.44
287.893	8608.37
287.96	8615.78
288.028	8627.33
288.096	8628.53
288.163	8625.93
288.231	8614.1
288.298	8613.04
288.366	8621.27
288.433	8618.38
288.501	8607.98
288.569	8609.91
288.636	8601.73
288.704	8614.05
288.771	8617.8
288.839	8615.92
288.906	8619.53
288.974	8630.46
289.041	8621.61
289.109	8609
289.176	8620.07
289.244	8617.66
289.311	8629.79
289.379	8641.34
289.446	8638.55
289.514	8636.24
289.581	8641.63
289.649	8650.58
289.716	8657.66
289.783	8648.99
289.851	8669.74
289.918	8670.46
289.986	8686.2
290.053	8694.86
290.121	8694.57
290.188	8698.42
290.255	8722.82
290.323	8719.41
290.39	8706.36
290.458	8717.48
290.525	8732.93
290.592	8723.35
290.66	8728.69
290.727	8720.22
290.794	8732.64
290.862	8728.83
290.929	8730.52
290.996	8727.53
291.064	8733.74
291.131	8742.65
291.198	8758.58
291.266	8753.53
291.333	8759.73
291.4	8758.92
291.468	8772.11
291.535	8770.47
291.602	8776.73
291.669	8771.87
291.737	8774.22
291.804	8784.76
291.871	8799.35
291.938	8807.63
292.006	8840.32
292.073	8852.4
292.14	8865.25
292.207	8854.81
292.275	8857.36
292.342	8873.72
292.409	8898.8
292.476	8919.84
292.543	8910.74
292.611	8914.83
292.678	8932.65
292.745	8957
292.812	8969.9
292.879	8966.39
292.946	8968.99
293.014	8982.42
293.081	8992.1
293.148	9001.67
293.215	9001.72
293.282	8993.11
293.349	9002.49
293.416	8973.17
293.484	8984.68
293.551	8995.71
293.618	9012.84
293.685	9041.29
293.752	9034.89
293.819	9027.91
293.886	9015.49
293.953	9016.93
294.02	9028.92
294.087	9033.3
294.154	9024.16
294.221	9039.85
294.288	9043.94
294.356	9060.84
294.423	9063.54
294.49	9054.92
294.557	9069.07
294.624	9067.1
294.691	9088.96
294.758	9090.88
294.825	9105.61
294.892	9096.08
294.959	9089.58
295.026	9097.62
295.093	9084.81
295.16	9083.95
295.226	9092.23
295.293	9110.24
295.36	9114.28
295.427	9122.66
295.494	9135.13
295.561	9147.41
295.628	9166.96
295.695	9177.26
295.762	9181.5
295.829	9191.56
295.896	9204.37
295.963	9212.65
296.03	9224.45
296.096	9231.43
296.163	9235.86
296.23	9245.87
296.297	9264.12
296.364	9267.25
296.431	9277.7
296.498	9278.42
296.564	9306.68
296.631	9309.86
296.698	9304.37
296.765	9328.01
296.832	9312.03
296.899	9297.82
296.965	9312.12
297.032	9288.86
297.099	9305.52
297.166	9316.55
297.233	9312.55
297.299	9310.29
297.366	9310.77
297.433	9318.28
297.5	9327.05
297.566	9335.19
297.633	9336.58
297.7	9338.65
297.767	9335.72
297.833	9333.36
297.9	9334.61
297.967	9316.79
298.033	9328.78
298.1	9351.9
298.167	9346.12
298.234	9352.19
298.3	9365.14
298.367	9357.82
298.434	9367.31
298.5	9357.67
298.567	9345.68
298.634	9348.62
298.7	9363.31
298.767	9368.7
298.834	9380.07
298.9	9374.24
298.967	9362.83
299.033	9374.09
299.1	9388.2
299.167	9409.44
299.233	9408.09
299.3	9425.62
299.366	9443.82
299.433	9459.81
299.5	9442.95
299.566	9441.6
299.633	9460
299.699	9467.7
299.766	9466.74
299.832	9466.98
299.899	9478.44
299.965	9498.19
300.032	9492.94
300.099	9504.16
300.165	9509.12
300.232	9500.84
300.298	9499.25
300.365	9512.06
300.431	9511.58
300.498	9511.05
300.564	9516.97
300.631	9525.97
300.697	9543.65
300.763	9540.76
300.83	9531.99
300.896	9542.49
300.963	9558.1
301.029	9562.24
301.096	9570.76
301.162	9581.89
301.229	9583.48
301.295	9573.99
301.361	9571.05
301.428	9574.71
301.494	9554.68
301.561	9559.49
301.627	9566.19
301.693	9573.65
301.76	9581.69
301.826	9579.82
301.892	9583.52
301.959	9588.92
302.025	9589.93
302.092	9574.04
302.158	9587.28
302.224	9591.42
302.291	9577.65
302.357	9575
302.423	9570.23
302.49	9554.72
302.556	9567.97
302.622	9562.14
302.688	9567.44
302.755	9584.97
302.821	9595.52
302.887	9606.4
302.954	9599.61
303.02	9606.54
303.086	9610.3
303.152	9602.26
303.219	9596.24
303.285	9597.73
303.351	9599.42
303.417	9592.87
303.483	9588.29
303.55	9578.08
303.616	9579.38
303.682	9581.21
303.748	9568.79
303.815	9583.86
303.881	9598.26
303.947	9582.71
304.013	9587.81
304.079	9581.41
304.145	9560.7
304.212	9558.72
304.278	9554.39
304.344	9554.49
304.41	9541.05
304.476	9529.01
304.542	9522.27
304.608	9530.41
304.674	9515.09
304.741	9509.31
304.807	9521.06
304.873	9531.03
304.939	9539.7
305.005	9516.44
305.071	9516.25
305.137	9522.75
305.203	9495.97
305.269	9492.79
305.335	9501.65
305.401	9500.59
305.467	9494.14
305.533	9502.23
305.599	9502.09
305.666	9508.83
305.732	9502.62
305.798	9514.95
305.864	9542.93
305.93	9547.6
305.996	9541.58
306.062	9542.98
306.128	9534.6
306.194	9519.76
306.259	9511.09
306.325	9507.87
306.391	9517.5
306.457	9523.52
306.523	9522.94
306.589	9542.93
306.655	9531.03
306.721	9512.54
306.787	9500.64
306.853	9521.83
306.919	9505.08
306.985	9500.55
307.051	9493.52
307.117	9486.25
307.183	9478.64
307.248	9447.04
307.314	9450.66
307.38	9450.9
307.446	9456.63
307.512	9447.38
307.578	9448.49
307.644	9447.96
307.709	9443.48
307.775	9442.61
307.841	9438.52
307.907	9440.69
307.973	9421.23
308.039	9415.21
308.104	9420.27
308.17	9421.33
308.236	9404.76
308.302	9402.79
308.368	9393.06
308.433	9388.2
308.499	9385.98
308.565	9371.06
308.631	9370.72
308.696	9350.69
308.762	9343.37
308.828	9340.29
308.894	9326.08
308.959	9307.4
309.025	9299.55
309.091	9291.75
309.156	9282.17
309.222	9282.41
309.288	9268.54
309.354	9256.46
309.419	9257.13
309.485	9240.61
309.551	9247.21
309.616	9228.15
309.682	9228.82
309.748	9224.77
309.813	9220.78
309.879	9214.52
309.945	9208.98
310.01	9204.84
310.076	9206.86
310.141	9193.48
310.207	9175.23
310.273	9180.28
310.338	9186.16
310.404	9166.47
310.469	9157.18
310.535	9148.51
310.601	9126.02
310.666	9128.05
310.732	9134.74
310.797	9124.29
310.863	9118.95
310.928	9102.09
310.994	9106.04
311.059	9096.75
311.125	9090.06
311.191	9096.32
311.256	9084.14
311.322	9088.62
311.387	9065.36
311.453	9286.65
311.518	9272.64
311.584	9273.17
311.649	9272.26
311.715	9258.06
311.78	9258.92
311.846	9246.55
311.911	9249.73
311.976	9252.52
312.042	9244.14
312.107	9224.79
312.173	9215.84
312.238	9211.22
312.304	9206.35
312.369	9197.54
312.434	9191.19
312.5	9187.53
312.565	9156.86
312.631	9162.01
312.696	9150.03
312.761	9155.56
312.827	8919.88
312.892	8950.4
312.958	8943.76
313.023	8944.39
313.088	8945.3
313.154	8927.83
313.219	8923.69
313.284	8917.72
313.35	8912.04
313.415	8897.12
313.48	8898.08
313.546	8902.6
313.611	8906.65
313.676	8900.05
313.741	8886.86
313.807	8890.38
313.872	8887.63
313.937	8898.56
314.003	8906.74
314.068	8909.01
314.133	8916.9
314.198	8910.74
314.264	8889.85
314.329	8881.42
314.394	8873.62
314.459	8863.61
314.525	8889.51
314.59	8883.2
314.655	8863.85
314.72	8867.99
314.785	8868.14
314.851	8858.32
314.916	8835.69
314.981	8819.52
315.046	8813.89
315.111	8808.55
315.176	8794.25
315.242	8792.13
315.307	8786.5
315.372	8766.04
315.437	8751.8
315.502	8742.12
315.567	8745.83
315.632	8727.82
315.698	8728.84
315.763	8726.19
315.828	8720.51
315.893	8709.97
315.958	8704.96
316.023	8700.05
316.088	8682.92
316.153	8659.92
316.218	8649.52
316.283	8633.79
316.348	8615.12
316.413	8606.69
316.479	8593.08
316.544	8563.15
316.609	8536.1
316.674	8499.25
316.739	8465.8
316.804	8435.2
316.869	8399.84
316.934	8366.2
316.999	8338.2
317.064	8281.14
317.129	8233.75
317.194	8197.57
317.259	8148.64
317.324	8095.68
317.389	8048.54
317.454	8010.01
317.518	7979.9
317.583	7953.4
317.648	7925.69
317.713	7894.29
317.778	7832.34
317.843	7799.16
317.908	7759.49
317.973	7718.23
318.038	7689.04
318.103	7647.21
318.168	7615.77
318.233	7585.04
318.297	7534.94
318.362	7499.75
318.427	7465.38
318.492	7440.05
318.557	7389.97
318.622	7356.75
318.687	7336.33
318.751	7294.71
318.816	7258.76
318.881	7224.73
318.946	7170.57
319.011	7128.76
319.075	7085.75
319.14	7055.87
319.205	7012.77
319.27	6979
319.335	6935.28
319.399	6893.05
319.464	6864.33
319.529	6807.51
319.594	6764.71
319.658	6732.82
319.723	6687.43
319.788	6657.66
319.853	6600.41
319.917	6575.64
319.982	6524.26
320.047	6480.66
320.112	6455.65
320.176	6404.04
320.241	6364.43
320.306	6332.79
320.37	6292.43
320.435	6257.58
320.5	6227.53
320.564	6188.22
320.629	6143.51
320.694	6111.69
320.758	6067.93
320.823	6026.48
320.888	5998.75
320.952	5949.05
321.017	5909.43
321.082	5868.13
321.146	5831.63
321.211	5799.73
321.275	5757.19
321.34	5713.95
321.405	5669.65
321.469	5624.72
321.534	5583.78
321.598	5532.01
321.663	5501.51
321.727	5467.28
321.792	5418.35
321.857	5371.22
321.921	5329.14
321.986	5288.86
322.05	5233.9
322.115	5195.77
322.179	5150.92
322.244	5099.3
322.308	5064.52
322.373	5021.22
322.437	4980.8
322.502	4953.06
322.566	4906.17
322.631	4870.21
322.695	4832.21
322.76	4789.99
322.824	4751.26
322.889	4708.52
322.953	4666.94
323.018	4599.41
323.082	4537.59
323.146	4493.2
323.211	4442.96
323.275	4399.9
323.34	4358.58
323.404	4323.44
323.468	4279.86
323.533	4236.44
323.597	4192.95
323.662	4141.46
323.726	4103.35
323.79	4056.36
323.855	3993.43
323.919	3944.83
323.983	3894.64
324.048	3828.5
324.112	3949.88
324.177	3820.86
324.241	3622.08
324.305	3425.4
324.37	3235.18
324.434	3050.64
324.498	3005.04
324.562	2954.63
324.627	2894.27
324.691	2836.79
324.755	2771.24
324.82	2696.15
324.884	2616.43
324.948	2544.65
325.012	2452.3
325.077	2326.3
