Data from 20250630_urea_2M_MAYP1162681_18-32-27-039.txt Node
Date: Mon Jun 30 18:32:27 BST 2025
User: adleo
Spectrometer: MAYP116268
Trigger mode: 0
Integration Time (sec): 1.000000E0
Scans to average: 1
Electric dark correction enabled: true
Nonlinearity correction enabled: true
Boxcar width: 10
XAxis mode: Wavelengths
Number of Pixels in Spectrum: 2068
>>>>>Begin Spectral Data<<<<<
179.565	1096.15
179.642	1149.29
179.718	1187.57
179.795	1222.67
179.871	1252.89
179.948	1268.67
180.024	1289.57
180.101	1308.6
180.177	1323.84
180.254	1346.13
180.33	1367.92
180.407	1415.34
180.483	1501.47
180.56	1583.04
180.636	1662.14
180.712	1648.64
180.789	1656.34
180.865	1664.88
180.942	1675.76
181.018	1688.87
181.095	1700.28
181.171	1705.51
181.248	1706.84
181.324	1720.71
181.4	1727.03
181.477	1735.02
181.553	1746.56
181.63	1763.76
181.706	1782.16
181.782	1787.19
181.859	1785.34
181.935	1788.86
182.011	1783.68
182.088	1801.07
182.164	1821.76
182.24	1830.17
182.317	1840.71
182.393	1839.86
182.469	1856.49
182.546	1866.9
182.622	1871.66
182.698	1869.75
182.775	1882.59
182.851	1894
182.927	1891.29
183.003	1887.63
183.08	1886.39
183.156	1896.76
183.232	1894.9
183.308	1881.5
183.385	1888.77
183.461	1907.31
183.537	1908.59
183.613	1920.24
183.69	1913.54
183.766	1902.26
183.842	1911.2
183.918	1916.43
183.995	1931.07
184.071	1935.35
184.147	1931.5
184.223	1919.57
184.299	1927.85
184.375	1917.82
184.452	1923.9
184.528	1974.13
184.604	1984.73
184.68	1994.14
184.756	2002.04
184.832	2006.22
184.908	2012.87
184.985	2015.01
185.061	1999.32
185.137	2005.74
185.213	1996.85
185.289	1996.23
185.365	1987.11
185.441	1984.06
185.517	1997
185.593	1990.2
185.669	1984.5
185.745	1994.67
185.822	2008.45
185.898	2002.41
185.974	2010.45
186.05	2002.7
186.126	1964.93
186.202	1956.8
186.278	1951.76
186.354	1940.87
186.43	1948.67
186.506	1946.2
186.582	1944.02
186.658	1949.1
186.734	1932.51
186.81	1931.56
186.886	1932.99
186.962	1946.49
187.038	1945.59
187.114	1937.83
187.19	1947.01
187.266	1938.93
187.341	1938.4
187.417	1935.46
187.493	1935.03
187.569	1937.07
187.645	1930.42
187.721	1918.96
187.797	1927.13
187.873	1931.17
187.949	1925.71
188.025	1917.24
188.101	1919.24
188.176	1926.7
188.252	1922.14
188.328	1930.55
188.404	1931.12
188.48	1929.36
188.556	1921.9
188.632	1921.9
188.707	1920.71
188.783	1917.33
188.859	1914.05
188.935	1904.83
189.011	1911.82
189.086	1904.83
189.162	1898.17
189.238	1896.18
189.314	1894.51
189.39	1887.86
189.465	1882.39
189.541	1897.37
189.617	1882.87
189.693	1878.97
189.768	1880.07
189.844	1903.65
189.92	1896.24
189.996	1904.09
190.071	1912.88
190.147	1913.07
190.223	1919.82
190.298	1912.69
190.374	1901.71
190.45	1911.6
190.526	1919.2
190.601	1913.83
190.677	1915.97
190.753	1942.51
190.828	1947.27
190.904	1961.3
190.98	1976.89
191.055	1988.21
191.131	1982.46
191.207	2002.23
191.282	2010.31
191.358	2000.19
191.433	1984.3
191.509	1994.8
191.585	1993.99
191.66	1995.33
191.736	2001.36
191.811	1991.19
191.887	2008.45
191.963	2028.28
192.038	2034.04
192.114	2034.27
192.189	2036.22
192.265	2033.52
192.34	2009.06
192.416	2008.73
192.491	2003.64
192.567	2007.11
192.642	2007.78
192.718	2008.68
192.793	1999.07
192.869	1995.46
192.944	2000.79
193.02	2009.58
193.095	2014.24
193.171	2019.24
193.246	2016.67
193.322	2016
193.397	2017.24
193.473	2004.06
193.548	1989.94
193.624	1994.22
193.699	1990.7
193.775	2007.25
193.85	2007.87
193.925	2017.33
194.001	2015.81
194.076	2007.16
194.152	1997.84
194.227	1991.56
194.302	1979.72
194.378	1981.81
194.453	1979.86
194.529	1987.71
194.604	1975.06
194.679	1966.84
194.755	1948.92
194.83	1961
194.905	1956.81
194.981	1965.42
195.056	1958.1
195.131	1962.66
195.207	1966.04
195.282	1959.15
195.357	1939.27
195.433	1955.72
195.508	1944.4
195.583	1952.48
195.659	1967.42
195.734	1973.5
195.809	1972.46
195.884	1980.92
195.96	1981.87
196.035	1994.9
196.11	1994.47
196.185	2003.31
196.261	2010.54
196.336	2040.88
196.411	2027.42
196.486	2034.31
196.561	2028.61
196.637	2037.64
196.712	2052.2
196.787	2050.15
196.862	2063.99
196.937	2073.21
197.013	2076.16
197.088	2086.05
197.163	2106.7
197.238	2123.46
197.313	2122.74
197.388	2134.78
197.464	2166.47
197.539	2177.17
197.614	2171.23
197.689	2183.22
197.764	2199.97
197.839	2216.72
197.914	2210.82
197.989	2233.61
198.065	2247.12
198.14	2294.39
198.215	2318.14
198.29	2332.66
198.365	2346.85
198.44	2356.36
198.515	2384.06
198.59	2400.1
198.665	2425.05
198.74	2431.81
198.815	2432.24
198.89	2457.32
198.965	2485.33
199.04	2480.94
199.115	2493.84
199.19	2537.12
199.265	2536.93
199.34	2548.69
199.415	2582.04
199.49	2604.32
199.565	2611.85
199.64	2637.43
199.715	2637
199.79	2643.43
199.865	2647.38
199.94	2647.05
200.015	2680.35
200.09	2685.83
200.165	2690.83
200.24	2697.78
200.315	2737.88
200.39	2751.22
200.464	2753.46
200.539	2755.89
200.614	2771.66
200.689	2795.72
200.764	2798.63
200.839	2817.87
200.914	2820.77
200.989	2807.24
201.063	2816
201.138	2800.58
201.213	2799.05
201.288	2778.28
201.363	2786.05
201.438	2783.14
201.512	2796.14
201.587	2780.75
201.662	2783.08
201.737	2798.14
201.812	2804.77
201.886	2773.72
201.961	2784.59
202.036	2771.68
202.111	2769.54
202.186	2738.35
202.26	2722.24
202.335	2702.75
202.41	2695.18
202.485	2675.03
202.559	2658.17
202.634	2636.21
202.709	2646.16
202.784	2625.78
202.858	2625.82
202.933	2603.63
203.008	2598.91
203.082	2581.25
203.157	2577.77
203.232	2536.88
203.306	2514.63
203.381	2484.96
203.456	2460.86
203.53	2439.7
203.605	2423.14
203.68	2402.04
203.754	2396.71
203.829	2380.28
203.904	2363.81
203.978	2354.58
204.053	2360.72
204.127	2349.87
204.202	2346.3
204.277	2328.88
204.351	2321.31
204.426	2313.22
204.5	2307.46
204.575	2274.58
204.65	2281.48
204.724	2272.34
204.799	2281.71
204.873	2276.76
204.948	2275.52
205.022	2265.01
205.097	2257.67
205.171	2270.24
205.246	2277.9
205.32	2277.71
205.395	2277.52
205.469	2266.87
205.544	2270.77
205.618	2253.69
205.693	2264.82
205.767	2255.93
205.842	2276.01
205.916	2271.4
205.991	2265.78
206.065	2272.44
206.14	2287.85
206.214	2286.95
206.289	2281.95
206.363	2295.84
206.438	2298.89
206.512	2305.51
206.586	2322.59
206.661	2330.35
206.735	2309.56
206.81	2306.23
206.884	2320.93
206.958	2308.8
207.033	2324.69
207.107	2332.12
207.181	2363.59
207.256	2355.73
207.33	2372.72
207.405	2383.01
207.479	2402.24
207.553	2409
207.628	2391.78
207.702	2403.34
207.776	2394.92
207.851	2396.92
207.925	2411.68
207.999	2410.87
208.073	2409.68
208.148	2410.92
208.222	2399.2
208.296	2430.8
208.371	2449
208.445	2458.19
208.519	2486.37
208.593	2498.94
208.668	2495.51
208.742	2496.6
208.816	2500.08
208.89	2513.79
208.965	2514.8
209.039	2521.46
209.113	2538.32
209.187	2558.97
209.261	2557.73
209.336	2576.88
209.41	2593.83
209.484	2589.54
209.558	2606.21
209.632	2618.64
209.707	2629.55
209.781	2649.22
209.855	2660.8
209.929	2675
210.003	2681.77
210.077	2680.72
210.151	2723.35
210.226	2758.15
210.3	2782.8
210.374	2805.75
210.448	2812.43
210.522	2824.87
210.596	2836.02
210.67	2846.5
210.744	2892.51
210.818	2922.33
210.892	2945.07
210.966	2945.64
211.041	2967.57
211.115	2969.85
211.189	2995.16
211.263	3016.66
211.337	3026.48
211.411	3048.08
211.485	3049.61
211.559	3066.77
211.633	3074.39
211.707	3049.73
211.781	3060.28
211.855	3038.77
211.929	3040.58
212.003	3030.24
212.077	3044.41
212.151	3066.97
212.225	3088.34
212.299	3090.44
212.373	3095.73
212.447	3104.56
212.52	3149.73
212.594	3166.91
212.668	3198.1
212.742	3204.69
212.816	3226.02
212.89	3247.68
212.964	3276.76
213.038	3307.16
213.112	3351.37
213.186	3399.66
213.26	3420.55
213.333	3419.17
213.407	3466.07
213.481	3512.12
213.555	3573.73
213.629	3615.33
213.703	3656.23
213.777	3711.71
213.85	3753.61
213.924	3846.2
213.998	3916.09
214.072	3980.18
214.146	4044.44
214.219	4119.56
214.293	4202.46
214.367	4290.83
214.441	4384.25
214.515	4456.85
214.588	4531.02
214.662	4591.7
214.736	4676.56
214.81	4790.3
214.883	4908.61
214.957	5010.16
215.031	5113.59
215.105	5211.81
215.178	5321.36
215.252	5435.77
215.326	5538.99
215.4	5653.37
215.473	5740.1
215.547	5856.59
215.621	5977.2
215.694	6126.28
215.768	6245.22
215.842	6376.74
215.915	6503.1
215.989	6634.02
216.063	6782.89
216.136	6935.65
216.21	7094.45
216.284	7262.75
216.357	7417.13
216.431	7574.38
216.504	7745.06
216.578	7932.75
216.652	8104.56
216.725	8278.28
216.799	8454.19
216.873	8627.12
216.946	8804.68
217.02	8975.56
217.093	9149.54
217.167	9309.66
217.24	9463.42
217.314	9638.82
217.387	9806.59
217.461	9972.46
217.535	10162.14
217.608	10322.99
217.682	10500.51
217.755	10682.04
217.829	10844.95
217.902	11028.24
217.976	11198.68
218.049	11364.16
218.123	11522.91
218.196	11704.36
218.27	11859.89
218.343	12018.85
218.417	12183.11
218.49	12347.14
218.563	12537.29
218.637	12709.37
218.71	12890.66
218.784	13065.74
218.857	13234.26
218.931	13408.32
219.004	13579.98
219.077	13742.48
219.151	13916.54
219.224	14076.39
219.298	14239.42
219.371	14408.86
219.444	14555.64
219.518	14713.46
219.591	14865.83
219.665	15037.67
219.738	15180.59
219.811	15327.95
219.885	15489.33
219.958	15648.87
220.031	15794.06
220.105	15934.94
220.178	16075.25
220.251	16215.84
220.325	16354.41
220.398	16491.15
220.471	16623.11
220.544	16764.57
220.618	16883.56
220.691	17005.88
220.764	17124.49
220.838	17256.35
220.911	17366.28
220.984	17497.6
221.057	17622.28
221.131	17740.35
221.204	17821.41
221.277	17950.08
221.35	18093.65
221.424	18203.14
221.497	18308.05
221.57	18413.92
221.643	18520.18
221.716	18612.08
221.79	18703.16
221.863	18800.51
221.936	18902.67
222.009	18991.39
222.082	19083.19
222.155	19159.96
222.229	19260.58
222.302	19359.8
222.375	19437.58
222.448	19527.6
222.521	19605.38
222.594	19678.58
222.667	19745.86
222.74	19844.84
222.814	19918.57
222.887	19983
222.96	20050.38
223.033	20121.27
223.106	20191.24
223.179	20257.17
223.252	20337.89
223.325	20403.29
223.398	20457.41
223.471	20511.91
223.544	20565.12
223.617	20618.9
223.69	20690.9
223.763	20739.48
223.837	20789.85
223.91	20841.27
223.983	20877.56
224.056	20919.06
224.129	20970.34
224.202	21038.53
224.275	21074.49
224.348	21109.09
224.42	21134.68
224.493	21161
224.566	21203.32
224.639	21255.8
224.712	21283.86
224.785	21311.28
224.858	21344.49
224.931	21380.25
225.004	21411.29
225.077	21449.13
225.15	21456.5
225.223	21487.59
225.296	21540.32
225.369	21561.82
225.442	21582.45
225.514	21614.55
225.587	21645.45
225.66	21672.73
225.733	21696.93
225.806	21730.43
225.879	21743.78
225.952	21763.25
226.025	21798.29
226.097	21829.72
226.17	21843.7
226.243	21849.68
226.316	21873.93
226.389	21890.03
226.461	21908.44
226.534	21924.3
226.607	21948.59
226.68	21992.6
226.753	22003.11
226.825	21992.02
226.898	22019.31
226.971	22041.77
227.044	22065.1
227.117	22080.62
227.189	22096.77
227.262	22113.06
227.335	22117.93
227.407	22132.92
227.48	22142.37
227.553	22144.93
227.626	22144.16
227.698	22143.82
227.771	22157.65
227.844	22144.88
227.916	22157.94
227.989	22152.83
228.062	22151.77
228.134	22174.81
228.207	22170.67
228.28	22163.25
228.352	22169.32
228.425	22171.44
228.498	22175.35
228.57	22161.03
228.643	22174.04
228.716	22161.85
228.788	22151.39
228.861	22146.57
228.934	22157.56
229.006	22159.34
229.079	22157.56
229.151	22154.28
229.224	22144.64
229.296	22152.16
229.369	22182.96
229.442	22188.07
229.514	22190.39
229.587	22205.48
229.659	22188.36
229.732	22193.76
229.804	22209.86
229.877	22224.61
229.949	22222.64
230.022	22246.12
230.094	22250.31
230.167	22242.69
230.239	22239.9
230.312	22240.04
230.384	22266.89
230.457	22268.29
230.529	22270.46
230.602	22277.02
230.674	22278.8
230.747	22293.12
230.819	22293.31
230.892	22262.31
230.964	22274.85
231.037	22270.89
231.109	22268.1
231.181	22262.36
231.254	22247.71
231.326	22241.3
231.399	22232.38
231.471	22219.07
231.544	22170.24
231.616	22173.37
231.688	22169.85
231.761	22162.28
231.833	22147.73
231.905	22103.18
231.978	22090.26
232.05	22072
232.122	22054.98
232.195	22039.84
232.267	22038.25
232.339	22022.49
232.412	22020.08
232.484	21982.38
232.556	21961.61
232.629	21968.84
232.701	21966.33
232.773	21957.07
232.846	21941.22
232.918	21922.08
232.99	21916.1
233.062	21908.92
233.135	21891.28
233.207	21858.93
233.279	21848.28
233.351	21834.16
233.424	21819.79
233.496	21798.78
233.568	21804.7
233.64	21775.64
233.713	21745.85
233.785	21721.99
233.857	21704.88
233.929	21679.04
234.001	21680.25
234.074	21687.24
234.146	21648.24
234.218	21623.08
234.29	21599.9
234.362	21572.42
234.434	21541.14
234.507	21498.82
234.579	21470.48
234.651	21453.37
234.723	21447.78
234.795	21426.23
234.867	21414.33
234.939	21405.46
235.012	21385.94
235.084	21371.57
235.156	21370.51
235.228	21347.86
235.3	21325.69
235.372	21306.12
235.444	21301.45
235.516	21255.42
235.588	21227.41
235.66	21201.29
235.732	21184.28
235.804	21212.38
235.876	21203.94
235.948	21198.59
236.02	21184.52
236.092	21161.34
236.164	21130.35
236.236	21088.9
236.308	21062.73
236.38	21036.7
236.452	21007.21
236.524	20984.99
236.596	20971.16
236.668	20951.11
236.74	20930.05
236.812	20905.47
236.884	20881.85
236.956	20851.54
237.028	20823.01
237.1	20787.68
237.172	20776.98
237.244	20756.69
237.316	20681.5
237.388	20643.24
237.46	20596.44
237.532	20587.28
237.604	20558.08
237.675	20537.07
237.747	20527.76
237.819	20492.39
237.891	20463.52
237.963	20427.72
238.035	20393.36
238.107	20327.52
238.178	20305.45
238.25	20277.4
238.322	20259.57
238.394	20205.07
238.466	20168.92
238.538	20146.42
238.609	20120.88
238.681	20066.76
238.753	20015.29
238.825	19990.86
238.897	19960.16
238.968	19951.34
239.04	19900.3
239.112	19900.79
239.184	19872.16
239.255	19831.34
239.327	19805.08
239.399	19770.19
239.471	19744.5
239.542	19703.16
239.614	19674.68
239.686	19619.26
239.758	19599.16
239.829	19551.6
239.901	19542.3
239.973	19504.85
240.044	19476.13
240.116	19433
240.188	19401.73
240.259	19375.08
240.331	19338.84
240.403	19310.89
240.474	19263.76
240.546	19224.87
240.618	19162.9
240.689	19113.74
240.761	19076.78
240.833	19061.51
240.904	19031.34
240.976	18998.38
241.048	18963.44
241.119	18938.28
241.191	18909.76
241.262	18886.63
241.334	18854.82
241.405	18824.22
241.477	18783.21
241.549	18739.07
241.62	18719.26
241.692	18695.36
241.763	18678.59
241.835	18648.23
241.906	18616.33
241.978	18562.79
242.049	18545.15
242.121	18524.82
242.192	18501.83
242.264	18463.71
242.335	18414.07
242.407	18384.58
242.478	18347.14
242.55	18328.63
242.621	18289.65
242.693	18252.25
242.764	18215.43
242.836	18178.62
242.907	18143.34
242.979	18117.41
243.05	18092.31
243.122	18066.48
243.193	18023.88
243.264	17957.32
243.336	17919.98
243.407	17883.3
243.479	17878.53
243.55	17847.59
243.622	17814.73
243.693	17780.37
243.764	17756.08
243.836	17710.44
243.907	17666.92
243.978	17633.52
244.05	17601.04
244.121	17556.22
244.192	17527.4
244.264	17475.93
244.335	17447.55
244.407	17399.55
244.478	17372.13
244.549	17328.66
244.62	17272.8
244.692	17242.1
244.763	17224.66
244.834	17181.81
244.906	17153.04
244.977	17113.62
245.048	17089.09
245.119	17040.32
245.191	17005.47
245.262	16954.29
245.333	16938.53
245.405	16912.6
245.476	16881.03
245.547	16850.33
245.618	16826.48
245.689	16794.28
245.761	16761.65
245.832	16726.33
245.903	16702.57
245.974	16676.54
246.045	16643.91
246.117	16633.69
246.188	16585.64
246.259	16539.03
246.33	16504.24
246.401	16462.55
246.473	16420.76
246.544	16373.82
246.615	16359.36
246.686	16325.09
246.757	16308.61
246.828	16265.52
246.899	16245.13
246.97	16206.04
247.042	16167.48
247.113	16140.68
247.184	16127
247.255	16094.32
247.326	16064.29
247.397	16032.09
247.468	15994.11
247.539	15976.81
247.61	15929.48
247.681	15915.12
247.752	15898.2
247.823	15864.65
247.894	15837.13
247.965	15789.99
248.037	15764.68
248.108	15717.25
248.179	15684.33
248.25	15650.25
248.321	15618.25
248.392	15568.94
248.463	15554.91
248.534	15518.71
248.605	15499.92
248.675	15462.32
248.746	15436.92
248.817	15412.1
248.888	15383.99
248.959	15348.23
249.03	15310.39
249.101	15283.16
249.172	15243.05
249.243	15199.33
249.314	15185.11
249.385	15164.72
249.456	15151.32
249.527	15124.04
249.598	15105.34
249.669	15076.41
249.739	15056.41
249.81	15045.9
249.881	15008.21
249.952	14985.02
250.023	14956.58
250.094	14903.27
250.165	14869.04
250.235	14834.24
250.306	14807.92
250.377	14775.38
250.448	14743.33
250.519	14700.47
250.59	14685.96
250.66	14665.09
250.731	14653.23
250.802	14622.19
250.873	14585.84
250.944	14558.41
251.014	14521.49
251.085	14518.74
251.156	14495.27
251.227	14479.36
251.297	14461.91
251.368	14448.46
251.439	14422.53
251.51	14412.98
251.58	14388.54
251.651	14357.93
251.722	14348.39
251.792	14300.76
251.863	14270.53
251.934	14265.86
252.005	14273.33
252.075	14238.72
252.146	14221.12
252.217	14207.43
252.287	14194.27
252.358	14171.18
252.429	14165.01
252.499	14133.19
252.57	14100.27
252.641	14086.24
252.711	14061.42
252.782	14015.81
252.852	14003.38
252.923	13977.1
252.994	13948.81
253.064	13935.36
253.135	13907.54
253.205	13876.3
253.276	13872.26
253.347	13860.64
253.417	13824.82
253.488	13786.21
253.558	13765.53
253.629	13741.81
253.699	13716.5
253.77	13695.96
253.841	13667.76
253.911	13647.9
253.982	13627.51
254.052	13616.71
254.123	13591.26
254.193	13559.64
254.264	13568.02
254.334	13543.1
254.405	13501.64
254.475	13467.85
254.546	13436.13
254.616	13427.79
254.687	13409.47
254.757	13392.84
254.827	13370.57
254.898	13353.36
254.968	13327.57
255.039	13297.01
255.109	13278.59
255.18	13245.81
255.25	13203.25
255.321	13191.82
255.391	13152.97
255.461	13147.9
255.532	13099.7
255.602	13072.99
255.673	13038.86
255.743	13014.81
255.813	12968
255.884	12971.42
255.954	12958.5
256.024	12957.2
256.095	12928.04
256.165	12888.12
256.235	12868.16
256.306	12836.16
256.376	12825.12
256.446	12817.79
256.517	12793.93
256.587	12782.89
256.657	12769.34
256.728	12749.24
256.798	12723.6
256.868	12693.13
256.938	12658.37
257.009	12648.44
257.079	12634.51
257.149	12637.02
257.219	12594.12
257.29	12583.13
257.36	12543.12
257.43	12535.74
257.5	12496.45
257.571	12466.81
257.641	12454.9
257.711	12423.28
257.781	12417.59
257.852	12398.84
257.922	12360.9
257.992	12348.18
258.062	12319.59
258.132	12304.07
258.202	12290.09
258.273	12269.8
258.343	12268.79
258.413	12247.72
258.483	12223.48
258.553	12193.98
258.623	12163.61
258.693	12144.38
258.764	12133.92
258.834	12119.94
258.904	12091.74
258.974	12065.9
259.044	12049.9
259.114	12041.61
259.184	12021.61
259.254	11996.88
259.324	11951.95
259.394	11935.57
259.464	11937.16
259.535	11916.48
259.605	11892.57
259.675	11863.36
259.745	11852.28
259.815	11820.75
259.885	11798.05
259.955	11808.51
260.025	11780.46
260.095	11762.68
260.165	11750.91
260.235	11749.23
260.305	11724.5
260.375	11704.07
260.445	11710.43
260.515	11715.34
260.585	11703.68
260.655	11693.46
260.725	11678.57
260.795	11676.54
260.865	11681.51
260.934	11654.08
261.004	11641.84
261.074	11618.42
261.144	11615.57
261.214	11611.43
261.284	11596.39
261.354	11590.22
261.424	11556.29
261.494	11557.97
261.564	11539.32
261.634	11525.15
261.703	11483.75
261.773	11475.22
261.843	11457.92
261.913	11430.54
261.983	11392.81
262.053	11381.67
262.123	11355.89
262.192	11333.05
262.262	11321.62
262.332	11283.45
262.402	11267.21
262.472	11251.88
262.541	11227.64
262.611	11221.09
262.681	11184.32
262.751	11172.99
262.821	11156.13
262.89	11126.82
262.96	11120.8
263.03	11125.47
263.1	11118.15
263.169	11110.15
263.239	11106.78
263.309	11112.46
263.379	11103.98
263.448	11089.43
263.518	11069.72
263.588	11057.81
263.657	11055.45
263.727	11052.42
263.797	11039.21
263.867	11021.05
263.936	10991.84
264.006	10985.48
264.076	10966.3
264.145	10953.53
264.215	10930.26
264.285	10921.83
264.354	10892.43
264.424	10867.71
264.494	10832.68
264.563	10810.7
264.633	10811.72
264.702	10789.98
264.772	10752.4
264.842	10733.22
264.911	10717.89
264.981	10697.61
265.05	10685.56
265.12	10668.7
265.19	10652.75
265.259	10649.56
265.329	10635.98
265.398	10621.62
265.468	10628.75
265.537	10609.81
265.607	10604.37
265.676	10601.62
265.746	10589.05
265.815	10586.16
265.885	10565.34
265.955	10542.94
266.024	10519.38
266.094	10481.07
266.163	10477.8
266.232	10475.29
266.302	10458.96
266.371	10448.65
266.441	10431.69
266.51	10420.42
266.58	10400.57
266.649	10369.97
266.719	10359.8
266.788	10354.17
266.858	10358.12
266.927	10315.91
266.996	10303.92
267.066	10287.54
267.135	10261.33
267.205	10256.32
267.274	10246.92
267.343	10246.54
267.413	10234.74
267.482	10243.02
267.552	10249.33
267.621	10221
267.69	10191.57
267.76	10185.07
267.829	10171.48
267.898	10156.6
267.968	10130.25
268.037	10119.31
268.106	10119.94
268.176	10099.46
268.245	10081.11
268.314	10062.37
268.384	10061.31
268.453	10041.85
268.522	10037.75
268.592	10036.89
268.661	10008.75
268.73	10002.54
268.799	9983.66
268.869	9987.56
268.938	9952.54
269.007	9929.13
269.076	9920.94
269.146	9920.84
269.215	9909.86
269.284	9919.4
269.353	9899.31
269.422	9890.59
269.492	9873.11
269.561	9835.44
269.63	9828.46
269.699	9807.51
269.768	9797.87
269.838	9796
269.907	9793.3
269.976	9761.51
270.045	9734.3
270.114	9733.58
270.183	9714.12
270.253	9711.57
270.322	9681.03
270.391	9672.17
270.46	9673.28
270.529	9668.46
270.598	9664.03
270.667	9648.23
270.736	9622.56
270.806	9624.34
270.875	9625.4
270.944	9616.92
271.013	9629.45
271.082	9621.07
271.151	9619.86
271.22	9592.36
271.289	9574.01
271.358	9562.02
271.427	9558.7
271.496	9547.63
271.565	9539
271.634	9532.55
271.703	9523.93
271.772	9529.03
271.841	9516.08
271.91	9490.75
271.979	9478.71
272.048	9451.79
272.117	9452.8
272.186	9435.51
272.255	9428.82
272.324	9421.93
272.393	9419.19
272.462	9402.24
272.531	9393.28
272.6	9383.6
272.669	9389.57
272.738	9380.95
272.807	9375.61
272.876	9356.06
272.945	9387.36
273.013	9377.97
273.082	9376.53
273.151	9355.96
273.22	9350.96
273.289	9344.74
273.358	9354.86
273.427	9339.35
273.496	9344.99
273.564	9333.62
273.633	9337.38
273.702	9319.03
273.771	9305.5
273.84	9295.73
273.909	9296.83
273.977	9289.08
274.046	9277.38
274.115	9274.4
274.184	9254.85
274.253	9249.31
274.322	9260.43
274.39	9231.78
274.459	9215.99
274.528	9186.81
274.597	9176.03
274.665	9167.31
274.734	9175.98
274.803	9161.2
274.872	9155.52
274.94	9141.5
275.009	9195.64
275.078	9182.79
275.147	9183.9
275.215	9183.46
275.284	9190.4
275.353	9179.8
275.421	9157.99
275.49	9168.2
275.559	9162.47
275.627	9158.57
275.696	9146.78
275.765	9147.5
275.833	9127.57
275.902	9127.57
275.971	9139.32
276.039	9154.67
276.108	9159.06
276.177	9156.99
276.245	9149.62
276.314	9147.21
276.383	9145.33
276.451	9085.51
276.52	9082.53
276.588	9085.08
276.657	9086.19
276.725	9073.77
276.794	9073.43
276.863	9081.32
276.931	9059.42
277	9063.51
277.068	9066.83
277.137	9084.5
277.205	9076.12
277.274	9088.64
277.342	9101.16
277.411	9081.28
277.48	9064.19
277.548	9051.14
277.617	9043
277.685	9036.51
277.754	9037.52
277.822	9033.38
277.89	9044.45
277.959	9040.26
278.027	9027.94
278.096	9020.76
278.164	9047.15
278.233	9040.7
278.301	9034.01
278.37	9041.61
278.438	9029.24
278.507	9031.46
278.575	9005.84
278.643	8998.14
278.712	8986.73
278.78	8967.91
278.849	8983.98
278.917	8993.71
278.985	8991.98
279.054	8988.08
279.122	8999.77
279.191	8996.36
279.259	8989.04
279.327	8966.7
279.396	8982.83
279.464	8976.23
279.532	8973.49
279.601	8961.07
279.669	8953.32
279.737	8962.12
279.806	8956.06
279.874	8963.62
279.942	8960.15
280.011	8951.39
280.079	8961.16
280.147	8975.85
280.215	8980.23
280.284	8969.11
280.352	8955.77
280.42	8962.22
280.488	8959.05
280.557	8946.92
280.625	8949.13
280.693	8949.47
280.761	8953.37
280.83	8932.43
280.898	8942.15
280.966	8925.25
281.034	8894.15
281.102	8883.66
281.171	8872.21
281.239	8882.22
281.307	8867.1
281.375	8856.71
281.443	8884.58
281.512	8877.02
281.58	8875.82
281.648	8859.11
281.716	8861.47
281.784	8858.34
281.852	8849.92
281.92	8848.19
281.989	8860.56
282.057	8846.69
282.125	8886.37
282.193	8876.02
282.261	8875.06
282.329	8867.59
282.397	8866.97
282.465	8873.18
282.533	8884.49
282.601	8884.2
282.67	8861.82
282.738	8854.45
282.806	8869.42
282.874	8855.89
282.942	8861.91
283.01	8859.31
283.078	8865.62
283.146	8862.82
283.214	8871.01
283.282	8870.38
283.35	8875.39
283.418	8863.55
283.486	8867.64
283.554	8826.23
283.622	8831.96
283.69	8832.1
283.758	8827.77
283.826	8836.39
283.894	8849.24
283.962	8862.67
284.03	8872.25
284.098	8876.39
284.165	8873.98
284.233	8868.06
284.301	8857.71
284.369	8845.49
284.437	8837.25
284.505	8831.33
284.573	8843.61
284.641	8836.15
284.709	8838.94
284.777	8827
284.845	8838.65
284.912	8839.37
284.98	8845.44
285.048	8835.04
285.116	8844.91
285.184	8856.41
285.252	8854.87
285.319	8832.16
285.387	8828.45
285.455	8809.29
285.523	8812.42
285.591	8809
285.659	8811.84
285.726	8826.62
285.794	8819.79
285.862	8818.77
285.93	8821.18
285.997	8807.8
286.065	8795.53
286.133	8786.43
286.201	8782.77
286.269	8765.06
286.336	8760.15
286.404	8752.3
286.472	8760.05
286.539	8732.52
286.607	8715.15
286.675	8716.35
286.743	8725.25
286.81	8712.98
286.878	8723.23
286.946	8720.39
287.013	8720.05
287.081	8711.63
287.149	8692.81
287.216	8706.77
287.284	8697.04
287.352	8694.3
287.419	8696.51
287.487	8715.53
287.555	8721.11
287.622	8720.73
287.69	8731.8
287.758	8739.79
287.825	8734.93
287.893	8724.34
287.96	8727.9
288.028	8742.87
288.096	8744.7
288.163	8750.37
288.231	8741.09
288.298	8745.32
288.366	8758.75
288.433	8757.31
288.501	8756.3
288.569	8760.58
288.636	8751.48
288.704	8767.03
288.771	8775.6
288.839	8766.6
288.906	8762.65
288.974	8772.09
289.041	8772.47
289.109	8758.75
289.176	8765.01
289.244	8773.72
289.311	8784.02
289.379	8799.18
289.446	8796.97
289.514	8799.62
289.581	8797.88
289.649	8797.35
289.716	8797.16
289.783	8788.54
289.851	8805.2
289.918	8803.08
289.986	8814.73
290.053	8820.26
290.121	8814.01
290.188	8819.11
290.255	8845.01
290.323	8833.55
290.39	8822.67
290.458	8824.4
290.525	8838.6
290.592	8835.95
290.66	8834.37
290.727	8829.46
290.794	8840.77
290.862	8847.03
290.929	8844.43
290.996	8840.14
291.064	8853.19
291.131	8860.99
291.198	8869.17
291.266	8871.24
291.333	8871.19
291.4	8877.69
291.468	8894.78
291.535	8894.16
291.602	8891.41
291.669	8887.22
291.737	8900.36
291.804	8899.98
291.871	8917.02
291.938	8920.87
292.006	8949.66
292.073	8961.26
292.14	8978.64
292.207	8975.7
292.275	8973.83
292.342	8983.84
292.409	9009.79
292.476	9030.78
292.543	9022.69
292.611	9021.92
292.678	9038.96
292.745	9066.11
292.812	9076.95
292.879	9070.06
292.946	9074.39
293.014	9089.56
293.081	9091.87
293.148	9100.25
293.215	9116.47
293.282	9110.93
293.349	9117.29
293.416	9096.68
293.484	9111.89
293.551	9117.58
293.618	9124.99
293.685	9149.93
293.752	9145.5
293.819	9142.9
293.886	9132.21
293.953	9138.95
294.02	9155.95
294.087	9160.67
294.154	9151.13
294.221	9162.93
294.288	9169.05
294.356	9189.03
294.423	9194.66
294.49	9193.94
294.557	9207.95
294.624	9205.45
294.691	9227.69
294.758	9234.38
294.825	9242.28
294.892	9231.16
294.959	9226.58
295.026	9239.73
295.093	9231.83
295.16	9232.12
295.226	9236.45
295.293	9261.64
295.36	9268.33
295.427	9276.9
295.494	9286.97
295.561	9299.68
295.628	9319.04
295.695	9330.5
295.762	9330.88
295.829	9341.57
295.896	9360.35
295.963	9367.62
296.03	9372.49
296.096	9370.66
296.163	9376.63
296.23	9390.78
296.297	9404.8
296.364	9409.37
296.431	9413.75
296.498	9410.33
296.564	9434.07
296.631	9432.38
296.698	9417.02
296.765	9437.06
296.832	9423.09
296.899	9408.36
296.965	9425.45
297.032	9404.26
297.099	9420.87
297.166	9425.88
297.233	9422.13
297.299	9411.48
297.366	9414.28
297.433	9419.72
297.5	9431.85
297.566	9433.39
297.633	9431.81
297.7	9437.92
297.767	9441.87
297.833	9445.48
297.9	9450.63
297.967	9440.23
298.033	9458.05
298.1	9487.72
298.167	9478.52
298.234	9488.58
298.3	9503.99
298.367	9496.34
298.434	9500.33
298.5	9493.3
298.567	9488.58
298.634	9491.52
298.7	9512.13
298.767	9514.1
298.834	9529.47
298.9	9526.29
298.967	9520.99
299.033	9530.19
299.1	9543.39
299.167	9551.33
299.233	9549.79
299.3	9560.53
299.366	9572.95
299.433	9574.64
299.5	9549.98
299.566	9558.5
299.633	9573.43
299.699	9578.06
299.766	9580.22
299.832	9586.15
299.899	9590.29
299.965	9605.22
300.032	9597.08
300.099	9596.36
300.165	9603.97
300.232	9597.66
300.298	9596.65
300.365	9607.29
300.431	9604.25
300.498	9590.19
300.564	9593.03
300.631	9600.45
300.697	9611
300.763	9605.8
300.83	9606.13
300.896	9618.41
300.963	9630.74
301.029	9633.73
301.096	9642.16
301.162	9652.47
301.229	9651.12
301.295	9635.08
301.361	9638.26
301.428	9645.96
301.494	9638.88
301.561	9646.21
301.627	9650.01
301.693	9651.07
301.76	9654.68
301.826	9651.36
301.892	9666.53
301.959	9682.62
302.025	9680.26
302.092	9674.14
302.158	9685.89
302.224	9689.21
302.291	9680.64
302.357	9670.62
302.423	9659.69
302.49	9646.97
302.556	9655.88
302.622	9651.98
302.688	9670.91
302.755	9679.58
302.821	9683.63
302.887	9688.35
302.954	9671.87
303.02	9676.79
303.086	9684.97
303.152	9680.98
303.219	9680.98
303.285	9684.97
303.351	9688.2
303.417	9689.45
303.483	9684.69
303.55	9676.84
303.616	9676.84
303.682	9683.34
303.748	9676.16
303.815	9693.02
303.881	9703.13
303.947	9687.48
304.013	9690.47
304.079	9685.22
304.145	9667.54
304.212	9667.49
304.278	9656.32
304.344	9658.97
304.41	9650.3
304.476	9643.7
304.542	9646.45
304.608	9646.21
304.674	9627.13
304.741	9620.63
304.807	9620.53
304.873	9623.52
304.939	9637.54
305.005	9616.78
305.071	9602.86
305.137	9605.08
305.203	9576.61
305.269	9575.12
305.335	9591.11
305.401	9591.93
305.467	9584.9
305.533	9596.26
305.599	9601.13
305.666	9613.02
305.732	9608.21
305.798	9616.59
305.864	9632.92
305.93	9632.43
305.996	9634.07
306.062	9638.31
306.128	9634.5
306.194	9623.57
306.259	9618.51
306.325	9611.34
306.391	9627.38
306.457	9637.82
306.523	9642.3
306.589	9667.2
306.655	9659.5
306.721	9636.04
306.787	9613.31
306.853	9620.68
306.919	9599.97
306.985	9593.13
307.051	9588.12
307.117	9582.06
307.183	9575.27
307.248	9549.45
307.314	9552.39
307.38	9555.66
307.446	9557.49
307.512	9548.92
307.578	9554.22
307.644	9553.79
307.709	9553.93
307.775	9542.85
307.841	9540.64
307.907	9533.56
307.973	9511.69
308.039	9509.24
308.104	9519.06
308.17	9522.14
308.236	9505.19
308.302	9506.35
308.368	9495.08
308.433	9495.95
308.499	9491.42
308.565	9473.84
308.631	9480.87
308.696	9458.63
308.762	9445.38
308.828	9439.41
308.894	9416.54
308.959	9395.54
309.025	9381.97
309.091	9372.04
309.156	9362.27
309.222	9363.47
309.288	9357.12
309.354	9341.85
309.419	9337.62
309.485	9319.37
309.551	9329.33
309.616	9322.83
309.682	9319.17
309.748	9309.98
309.813	9300.15
309.879	9294.76
309.945	9292.06
310.01	9282.96
310.076	9282.58
310.141	9275.31
310.207	9266.21
310.273	9270.49
310.338	9271.55
310.404	9263.65
310.469	9254.7
310.535	9253.93
310.601	9228.79
310.666	9233.8
310.732	9235.39
310.797	9221.67
310.863	9216.66
310.928	9204.38
310.994	9205.54
311.059	9202.45
311.125	9193.98
311.191	9208.14
311.256	9198.51
311.322	9200.34
311.387	9182.53
311.453	9463.11
311.518	9438.22
311.584	9433.41
311.649	9434.32
311.715	9426.95
311.78	9429.55
311.846	9419.2
311.911	9422.81
311.976	9425.32
312.042	9405.14
312.107	9395.51
312.173	9394.02
312.238	9381.22
312.304	9377.27
312.369	9364.99
312.434	9355.99
312.5	9357.19
312.565	9318.96
312.631	9317.86
312.696	9310.49
312.761	9307.55
312.827	9016.67
312.892	9053.16
312.958	9046.37
313.023	9046.28
313.088	9043.53
313.154	9023.65
313.219	9010.08
313.284	8993.37
313.35	8991.3
313.415	8980.08
313.48	8976.38
313.546	8978.74
313.611	8986.87
313.676	8974.4
313.741	8967.28
313.807	8972.48
313.872	8972.53
313.937	8986.34
314.003	8998.19
314.068	8996.07
314.133	8998.38
314.198	8991.45
314.264	8967.13
314.329	8960.34
314.394	8948.16
314.459	8946.77
314.525	8960.97
314.59	8962.46
314.655	8955.53
314.72	8961.5
314.785	8964.87
314.851	8951.53
314.916	8922.8
314.981	8905.18
315.046	8896.56
315.111	8892.28
315.176	8880.1
315.242	8876.54
315.307	8865.18
315.372	8841.01
315.437	8832.68
315.502	8829.84
315.567	8839.18
315.632	8827.73
315.698	8830.42
315.763	8828.45
315.828	8818.48
315.893	8814.44
315.958	8805.15
316.023	8797.21
316.088	8773.67
316.153	8750.81
316.218	8751.53
316.283	8741.23
316.348	8722.47
316.413	8724.87
316.479	8704.66
316.544	8667.32
316.609	8639.17
316.674	8604.86
316.739	8577.19
316.804	8545.28
316.869	8501.06
316.934	8460.01
316.999	8433.88
317.064	8381.63
317.129	8337.98
317.194	8295.21
317.259	8244.45
317.324	8199.67
317.389	8149.97
317.454	8108.94
317.518	8070.12
317.583	8042.02
317.648	8012.44
317.713	7977.57
317.778	7915.18
317.843	7882.14
317.908	7846.22
317.973	7810.67
318.038	7775.86
318.103	7732.73
318.168	7696.86
318.233	7671.32
318.297	7615.65
318.362	7572.9
318.427	7527.28
318.492	7498.82
318.557	7449.46
318.622	7421.77
318.687	7391.78
318.751	7354.77
318.816	7320.11
318.881	7291.76
318.946	7234.75
319.011	7188.76
319.075	7147.34
319.14	7106.45
319.205	7062.43
319.27	7025.63
319.335	6972.35
319.399	6933.43
319.464	6907.87
319.529	6857.24
319.594	6812.85
319.658	6785.91
319.723	6745.61
319.788	6719.72
319.853	6658.97
319.917	6634.1
319.982	6580.41
320.047	6543.82
320.112	6510.78
320.176	6458.74
320.241	6420.09
320.306	6384.32
320.37	6347.55
320.435	6317.64
320.5	6289.71
320.564	6253.76
320.629	6211.63
320.694	6182.83
320.758	6141.76
320.823	6096.79
320.888	6067.91
320.952	6020.94
321.017	5980.06
321.082	5931.71
321.146	5896.69
321.211	5870.88
321.275	5829.54
321.34	5788.92
321.405	5742.12
321.469	5701.6
321.534	5662.48
321.598	5607.26
321.663	5577.86
321.727	5541.27
321.792	5493.19
321.857	5451.29
321.921	5410.07
321.986	5366.47
322.05	5309.59
322.115	5271.64
322.179	5223.06
322.244	5164.38
322.308	5130.99
322.373	5083.04
322.437	5044.53
322.502	5014.25
322.566	4963.62
322.631	4923.16
322.695	4880.98
322.76	4837.23
322.824	4798.97
322.889	4755.13
322.953	4715.41
323.018	4649.4
323.082	4588.06
323.146	4537.15
323.211	4485.42
323.275	4440.06
323.34	4398.26
323.404	4357.52
323.468	4306.29
323.533	4266.17
323.597	4226.2
323.662	4175.37
323.726	4143.09
323.79	4097.87
323.855	4033.16
323.919	3987.14
323.983	3946.65
324.048	3880.98
324.112	4001.54
324.177	3869.36
324.241	3668.53
324.305	3470.61
324.37	3277.85
324.434	3089.73
324.498	3045.08
324.562	2992.67
324.627	2930.92
324.691	2874.77
324.755	2816.06
324.82	2747.18
324.884	2667.89
324.948	2591.53
325.012	2495.49
325.077	2367.41
