Data from 20250630_urea_2M_MAYP1162681_20-52-27-365.txt Node
Date: Mon Jun 30 20:52:27 BST 2025
User: adleo
Spectrometer: MAYP116268
Trigger mode: 0
Integration Time (sec): 1.000000E0
Scans to average: 1
Electric dark correction enabled: true
Nonlinearity correction enabled: true
Boxcar width: 10
XAxis mode: Wavelengths
Number of Pixels in Spectrum: 2068
>>>>>Begin Spectral Data<<<<<
179.565	1136.27
179.642	1190.51
179.718	1231.73
179.795	1267.41
179.871	1296.68
179.948	1314.12
180.024	1334.43
180.101	1356.48
180.177	1370.48
180.254	1392.52
180.33	1413.31
180.407	1460.21
180.483	1549
180.56	1632.28
180.636	1709.38
180.712	1698.83
180.789	1709.42
180.865	1719.54
180.942	1729.47
181.018	1740.16
181.095	1752.9
181.171	1755.99
181.248	1755.9
181.324	1770.44
181.4	1779.04
181.477	1790.36
181.553	1801.71
181.63	1818.25
181.706	1832.23
181.782	1839.16
181.859	1836.65
181.935	1844.35
182.011	1842.83
182.088	1859.8
182.164	1880.67
182.24	1896.64
182.317	1905.96
182.393	1902.2
182.469	1916.51
182.546	1927.16
182.622	1930.01
182.698	1925.07
182.775	1937.43
182.851	1949.93
182.927	1941.32
183.003	1933.53
183.08	1927.21
183.156	1937.62
183.232	1934.53
183.308	1923.59
183.385	1929.68
183.461	1945.6
183.537	1944.37
183.613	1953.54
183.69	1944.99
183.766	1934.19
183.842	1940.51
183.918	1941.65
183.995	1955.49
184.071	1957.15
184.147	1954.54
184.223	1946.22
184.299	1956.63
184.375	1947.98
184.452	1953.64
184.528	2011.06
184.604	2024.51
184.68	2034.21
184.756	2039.11
184.832	2046.34
184.908	2051.76
184.985	2051.19
185.061	2037.78
185.137	2045.06
185.213	2037.54
185.289	2039.49
185.365	2032.5
185.441	2030.55
185.517	2046.63
185.593	2042.64
185.669	2039.45
185.745	2048.34
185.822	2062.51
185.898	2055.38
185.974	2064.69
186.05	2059.65
186.126	2017.74
186.202	2009.32
186.278	2008.37
186.354	2000.52
186.43	2005.57
186.506	2003.24
186.582	2007.04
186.658	2015.36
186.734	1998.72
186.81	1999.62
186.886	2002.52
186.962	2012.13
187.038	2007.75
187.114	1998.57
187.19	2008.41
187.266	2000.66
187.341	2001.52
187.417	1994.63
187.493	1996.58
187.569	1994.67
187.645	1988.92
187.721	1978.03
187.797	1985.35
187.873	1988.54
187.949	1982.07
188.025	1975.75
188.101	1978.98
188.176	1980.59
188.252	1974.41
188.328	1978.31
188.404	1978.69
188.48	1972.89
188.556	1965.43
188.632	1967.09
188.707	1968.47
188.783	1963.81
188.859	1960.29
188.935	1948.73
189.011	1957.72
189.086	1952.59
189.162	1945.74
189.238	1945.55
189.314	1943.27
189.39	1936.71
189.465	1929.24
189.541	1946.31
189.617	1930.67
189.693	1924.64
189.768	1931.25
189.844	1953.27
189.92	1947.85
189.996	1956.6
190.071	1969.34
190.147	1970.91
190.223	1978.81
190.298	1970.63
190.374	1957.65
190.45	1970.1
190.526	1979.23
190.601	1972.24
190.677	1973.05
190.753	2001.36
190.828	2003.88
190.904	2018.91
190.98	2034.32
191.055	2046.06
191.131	2035.84
191.207	2058.99
191.282	2070.4
191.358	2059.23
191.433	2045.62
191.509	2060.12
191.585	2054.18
191.66	2051.94
191.736	2057.17
191.811	2048.09
191.887	2063.07
191.963	2084.9
192.038	2088.8
192.114	2088.66
192.189	2095.55
192.265	2090.46
192.34	2069.19
192.416	2065.15
192.491	2059.64
192.567	2062.63
192.642	2062.01
192.718	2064.01
192.793	2050.79
192.869	2046.51
192.944	2048.36
193.02	2057.45
193.095	2057.31
193.171	2064.15
193.246	2064.68
193.322	2065.82
193.397	2066.53
193.473	2054.73
193.548	2038.85
193.624	2044.51
193.699	2042.56
193.775	2056.98
193.85	2058.5
193.925	2066.44
194.001	2066.25
194.076	2058.97
194.152	2048.89
194.227	2043.37
194.302	2032.34
194.378	2037.91
194.453	2034.82
194.529	2044.37
194.604	2029.25
194.679	2025.07
194.755	2008.95
194.83	2021.41
194.905	2015.38
194.981	2024.75
195.056	2017.61
195.131	2023.89
195.207	2018.8
195.282	2010.48
195.357	1989.69
195.433	2006.91
195.508	1994.59
195.583	2002.01
195.659	2018.42
195.734	2027.31
195.809	2028.31
195.884	2040.39
195.96	2041.43
196.035	2057.46
196.11	2056.84
196.185	2068.64
196.261	2071.25
196.336	2100.07
196.411	2083.47
196.486	2092.79
196.561	2087.99
196.637	2097.26
196.712	2111.39
196.787	2117.57
196.862	2134.03
196.937	2145.21
197.013	2148.77
197.088	2158.29
197.163	2179.94
197.238	2193.32
197.313	2190.94
197.388	2204.74
197.464	2231.01
197.539	2240
197.614	2232.39
197.689	2242.62
197.764	2259.09
197.839	2281.36
197.914	2274.41
197.989	2298.25
198.065	2310.05
198.14	2354.29
198.215	2380.47
198.29	2394.37
198.365	2406.65
198.44	2413.65
198.515	2440.83
198.59	2456.5
198.665	2482.25
198.74	2490.3
198.815	2493.11
198.89	2513.87
198.965	2540.97
199.04	2538.49
199.115	2552.58
199.19	2594.49
199.265	2598.82
199.34	2609.87
199.415	2642.37
199.49	2662.89
199.565	2672.04
199.64	2696.09
199.715	2692.09
199.79	2695.37
199.865	2702.62
199.94	2702.71
200.015	2732.25
200.09	2736.78
200.165	2741.92
200.24	2751.36
200.315	2790.41
200.39	2803.09
200.464	2809.47
200.539	2813.24
200.614	2826.01
200.689	2847.78
200.764	2852.36
200.839	2868.75
200.914	2871.18
200.989	2859.02
201.063	2876.65
201.138	2860.08
201.213	2860.6
201.288	2844.59
201.363	2850.6
201.438	2848.5
201.512	2860.93
201.587	2845.16
201.662	2849.92
201.737	2861.46
201.812	2868.08
201.886	2834.32
201.961	2844.38
202.036	2833.61
202.111	2830.32
202.186	2804.13
202.26	2787.73
202.335	2769.62
202.41	2759.48
202.485	2745.33
202.559	2726.22
202.634	2700.92
202.709	2710.49
202.784	2689.72
202.858	2687.67
202.933	2671.43
203.008	2668
203.082	2652.14
203.157	2651.04
203.232	2608.67
203.306	2587.65
203.381	2555.54
203.456	2534.35
203.53	2510.71
203.605	2494.86
203.68	2467.76
203.754	2464.19
203.829	2450.28
203.904	2429.1
203.978	2421.72
204.053	2424.72
204.127	2414.86
204.202	2409.48
204.277	2392.49
204.351	2386.21
204.426	2383.44
204.5	2375.97
204.575	2339.32
204.65	2347.42
204.724	2337.56
204.799	2344.55
204.873	2342.7
204.948	2342.84
205.022	2328.76
205.097	2323.66
205.171	2335.65
205.246	2346.7
205.32	2344.84
205.395	2343.18
205.469	2333.67
205.544	2339.14
205.618	2319.96
205.693	2329.43
205.767	2318.63
205.842	2339.34
205.916	2335.48
205.991	2325.34
206.065	2328.2
206.14	2344.9
206.214	2339.56
206.289	2335.94
206.363	2349.56
206.438	2349.98
206.512	2357.65
206.586	2376.64
206.661	2383.73
206.735	2361.99
206.81	2361.84
206.884	2375.93
206.958	2365.61
207.033	2383.35
207.107	2389.83
207.181	2420.83
207.256	2414.83
207.33	2434.91
207.405	2445.87
207.479	2462.92
207.553	2467.96
207.628	2454.5
207.702	2463.68
207.776	2460.73
207.851	2466.06
207.925	2481.35
207.999	2479.64
208.073	2476.88
208.148	2482.31
208.222	2472.92
208.296	2505.19
208.371	2519.87
208.445	2529.68
208.519	2556.96
208.593	2568
208.668	2566.86
208.742	2568.29
208.816	2570.2
208.89	2579.2
208.965	2578.01
209.039	2586.34
209.113	2604.68
209.187	2623.81
209.261	2621.48
209.336	2637.39
209.41	2655.63
209.484	2654.44
209.558	2673.45
209.632	2686.36
209.707	2696.22
209.781	2715.7
209.855	2729.57
209.929	2748.21
210.003	2755.5
210.077	2757.55
210.151	2805.25
210.226	2834.95
210.3	2866.76
210.374	2890.1
210.448	2897.82
210.522	2909.03
210.596	2919.94
210.67	2928.52
210.744	2978.25
210.818	3011.46
210.892	3035.45
210.966	3031.49
211.041	3050.51
211.115	3053.66
211.189	3076.45
211.263	3097.38
211.337	3107.53
211.411	3125.61
211.485	3124.56
211.559	3138.62
211.633	3143.39
211.707	3117.53
211.781	3135.57
211.855	3105.85
211.929	3105.76
212.003	3097.41
212.077	3116.07
212.151	3137.44
212.225	3157.28
212.299	3158.53
212.373	3160.77
212.447	3170.98
212.52	3218.12
212.594	3240.17
212.668	3269.13
212.742	3282.01
212.816	3296.76
212.89	3318.18
212.964	3344.16
213.038	3375.43
213.112	3423.03
213.186	3476.49
213.26	3495.53
213.333	3486.74
213.407	3531.41
213.481	3575.45
213.555	3632.19
213.629	3672.47
213.703	3709.83
213.777	3771.34
213.85	3810.62
213.924	3906.19
213.998	3972.36
214.072	4032.3
214.146	4089.87
214.219	4164.14
214.293	4236.82
214.367	4326.85
214.441	4421.72
214.515	4496.62
214.588	4566.45
214.662	4624.79
214.736	4696.88
214.81	4802.58
214.883	4917.24
214.957	5014.86
215.031	5117.9
215.105	5209.16
215.178	5309.03
215.252	5422.76
215.326	5516.73
215.4	5622.9
215.473	5701.43
215.547	5809.76
215.621	5931.18
215.694	6072.09
215.768	6190.55
215.842	6320.58
215.915	6444.14
215.989	6560.45
216.063	6698.79
216.136	6844.57
216.21	6995.88
216.284	7161.66
216.357	7316.74
216.431	7469.83
216.504	7629.91
216.578	7811.1
216.652	7983.88
216.725	8153.63
216.799	8323.95
216.873	8489.78
216.946	8662.89
217.02	8826.68
217.093	8990.56
217.167	9136.67
217.24	9290.32
217.314	9445.77
217.387	9603.6
217.461	9766.57
217.535	9950.11
217.608	10110.02
217.682	10276.26
217.755	10454.5
217.829	10604.24
217.902	10771.72
217.976	10935.59
218.049	11099.03
218.123	11249.05
218.196	11415.07
218.27	11566.54
218.343	11722.99
218.417	11881.7
218.49	12040.85
218.563	12218.32
218.637	12385.28
218.71	12567.72
218.784	12734.75
218.857	12914.78
218.931	13078.43
219.004	13235.92
219.077	13391.62
219.151	13545.01
219.224	13697.67
219.298	13847.59
219.371	14013.46
219.444	14149.93
219.518	14300.09
219.591	14449.81
219.665	14611.92
219.738	14760.2
219.811	14896.09
219.885	15044.5
219.958	15193.54
220.031	15328.99
220.105	15460.97
220.178	15587.79
220.251	15705.25
220.325	15834.23
220.398	15966.44
220.471	16103.47
220.544	16236.4
220.618	16357.62
220.691	16491.42
220.764	16614.94
220.838	16734.81
220.911	16854.14
220.984	16985.91
221.057	17107.89
221.131	17224.52
221.204	17309.39
221.277	17429.49
221.35	17563.8
221.424	17655.8
221.497	17758.59
221.57	17860.33
221.643	17973.68
221.716	18089.14
221.79	18175.89
221.863	18270.2
221.936	18355.93
222.009	18438.82
222.082	18525.8
222.155	18601.36
222.229	18696.1
222.302	18786.51
222.375	18869.44
222.448	18947.46
222.521	19031.36
222.594	19100.23
222.667	19155.16
222.74	19245.33
222.814	19314.38
222.887	19370.91
222.96	19455.72
223.033	19535.38
223.106	19609.4
223.179	19673.55
223.252	19730.65
223.325	19810.41
223.398	19872.67
223.471	19934.69
223.544	19994.4
223.617	20051.22
223.69	20112.66
223.763	20154.11
223.837	20202.59
223.91	20249.91
223.983	20283.84
224.056	20309.96
224.129	20362.05
224.202	20437.43
224.275	20473.62
224.348	20507.35
224.42	20545.04
224.493	20572.12
224.566	20602.97
224.639	20643.69
224.712	20681.72
224.785	20720.03
224.858	20744.61
224.931	20771.17
225.004	20795.94
225.077	20835.84
225.15	20846.06
225.223	20884.81
225.296	20951.47
225.369	20967.13
225.442	20996.68
225.514	21031.18
225.587	21074.7
225.66	21110.9
225.733	21126.32
225.806	21171.39
225.879	21205.17
225.952	21222.96
226.025	21248.99
226.097	21290.53
226.17	21317.67
226.243	21312.13
226.316	21337.19
226.389	21359.55
226.461	21392.14
226.534	21417.73
226.607	21425.15
226.68	21477.11
226.753	21492.53
226.825	21472.24
226.898	21515.14
226.971	21532.54
227.044	21559.82
227.117	21582.33
227.189	21602.72
227.262	21642.77
227.335	21653.18
227.407	21650.87
227.48	21675.36
227.553	21691.45
227.626	21694.68
227.698	21707.89
227.771	21743.51
227.844	21743.22
227.916	21761.54
227.989	21758.55
228.062	21772.34
228.134	21811.57
228.207	21817.65
228.28	21822.03
228.352	21827.38
228.425	21824.3
228.498	21835.05
228.57	21838.08
228.643	21851.82
228.716	21857.22
228.788	21846.47
228.861	21856.01
228.934	21888.07
229.006	21888.45
229.079	21903.93
229.151	21898.82
229.224	21892.84
229.296	21893.03
229.369	21933.38
229.442	21951.6
229.514	21945.87
229.587	21955.27
229.659	21938.4
229.732	21942.64
229.804	21960.14
229.877	21994.8
229.949	22020.15
230.022	22053.27
230.094	22057.8
230.167	22058.09
230.239	22054.47
230.312	22046.47
230.384	22060.74
230.457	22058.28
230.529	22067.15
230.602	22064.6
230.674	22072.12
230.747	22085.33
230.819	22094.15
230.892	22047.19
230.964	22056.88
231.037	22069.27
231.109	22071.97
231.181	22080.7
231.254	22068.84
231.326	22057.17
231.399	22038.03
231.471	22021.11
231.544	21993.35
231.616	21999.13
231.688	22007.76
231.761	21990.22
231.833	21996.53
231.905	21972.57
231.978	21966.06
232.05	21953.63
232.122	21948.47
232.195	21940.66
232.267	21945.82
232.339	21930.39
232.412	21940.76
232.484	21924.75
232.556	21917.67
232.629	21921.67
232.701	21915.4
232.773	21904.27
232.846	21893.71
232.918	21894.43
232.99	21894.1
233.062	21882.53
233.135	21875.92
233.207	21844.88
233.279	21844.88
233.351	21830.27
233.424	21808.78
233.496	21783.37
233.568	21799.76
233.64	21771.57
233.713	21751.23
233.785	21717.92
233.857	21710.35
233.929	21681.24
234.001	21677
234.074	21661.57
234.146	21619.83
234.218	21610.96
234.29	21607.44
234.362	21579.92
234.434	21544.68
234.507	21510.12
234.579	21481.21
234.651	21445.78
234.723	21437.54
234.795	21414.88
234.867	21392.08
234.939	21384.23
235.012	21367.36
235.084	21342.87
235.156	21332.41
235.228	21314.73
235.3	21297.23
235.372	21277.76
235.444	21271.44
235.516	21231
235.588	21218.67
235.66	21205.07
235.732	21165.55
235.804	21181.84
235.876	21172.78
235.948	21162.42
236.02	21138.03
236.092	21116.83
236.164	21102.95
236.236	21067.23
236.308	21039.91
236.38	21019.28
236.452	20993.06
236.524	20974.75
236.596	20970.7
236.668	20943.56
236.74	20907.27
236.812	20882.65
236.884	20854.64
236.956	20832.96
237.028	20792.57
237.1	20752.09
237.172	20742.93
237.244	20733.77
237.316	20669.72
237.388	20639.02
237.46	20596.9
237.532	20581.38
237.604	20537.96
237.675	20522.25
237.747	20501.48
237.819	20473.67
237.891	20439.26
237.963	20397.53
238.035	20359.98
238.107	20284.17
238.178	20276.66
238.25	20253.14
238.322	20249.38
238.394	20202.3
238.466	20160.13
238.538	20140.61
238.609	20114.73
238.681	20057.67
238.753	20004.71
238.825	19970.45
238.897	19937.58
238.968	19930.21
239.04	19894.06
239.112	19898.83
239.184	19851.37
239.255	19812.72
239.327	19781.2
239.399	19751.23
239.471	19726.55
239.542	19700.53
239.614	19687.33
239.686	19621.79
239.758	19601.69
239.829	19551.24
239.901	19538.03
239.973	19515.09
240.044	19479.14
240.116	19449.12
240.188	19415.05
240.259	19395.1
240.331	19362.43
240.403	19337.56
240.474	19291.59
240.546	19252.17
240.618	19189.57
240.689	19146.2
240.761	19116.61
240.833	19098.11
240.904	19066.64
240.976	19020.95
241.048	18986.98
241.119	18956.48
241.191	18941.2
241.262	18928.33
241.334	18892.91
241.405	18855.95
241.477	18811.33
241.549	18781.11
241.62	18744.54
241.692	18721.12
241.763	18693.26
241.835	18656.4
241.906	18626.09
241.978	18576.55
242.049	18551.63
242.121	18525.23
242.192	18507.83
242.264	18459.01
242.335	18408.27
242.407	18381.28
242.478	18353.19
242.55	18321.48
242.621	18270.59
242.693	18223.94
242.764	18173.92
242.836	18136.86
242.907	18099.75
242.979	18077.58
243.05	18054.69
243.122	18026.16
243.193	17998.74
243.264	17945.59
243.336	17913.93
243.407	17878.22
243.479	17861.98
243.55	17841.59
243.622	17820.49
243.693	17785.45
243.764	17768.97
243.836	17734.99
243.907	17699.14
243.978	17664.29
244.05	17639.77
244.121	17597.64
244.192	17576.39
244.264	17532.73
244.335	17504.25
244.407	17460.83
244.478	17431.81
244.549	17387.57
244.62	17350.18
244.692	17302.13
244.763	17284.87
244.834	17248.39
244.906	17209.11
244.977	17180.97
245.048	17142.22
245.119	17105.06
245.191	17062.17
245.262	17009.16
245.333	16977.4
245.405	16942.55
245.476	16919.18
245.547	16886.69
245.618	16864.52
245.689	16828.43
245.761	16801.82
245.832	16762.4
245.903	16740.04
245.974	16697.67
246.045	16658.3
246.117	16636.03
246.188	16596.99
246.259	16552.07
246.33	16516.21
246.401	16483.15
246.473	16433.27
246.544	16397.41
246.615	16370.9
246.686	16329.36
246.757	16306.85
246.828	16267.9
246.899	16252.86
246.97	16210.31
247.042	16170.88
247.113	16152.66
247.184	16140.81
247.255	16088.32
247.326	16061.33
247.397	16023.59
247.468	16002.38
247.539	15975.53
247.61	15925.93
247.681	15907.91
247.752	15887.33
247.823	15840.62
247.894	15809.58
247.965	15771.36
248.037	15733.67
248.108	15688.45
248.179	15651.43
248.25	15620.54
248.321	15600.97
248.392	15553.49
248.463	15535.51
248.534	15500.81
248.605	15479.79
248.675	15443.5
248.746	15427.69
248.817	15402.67
248.888	15376.79
248.959	15328.15
249.03	15304.2
249.101	15274.94
249.172	15240.13
249.243	15194.01
249.314	15193.81
249.385	15172.02
249.456	15151.49
249.527	15123.2
249.598	15100.73
249.669	15085.98
249.739	15070.65
249.81	15038.94
249.881	14999.75
249.952	14978.39
250.023	14948.27
250.094	14889.31
250.165	14857.79
250.235	14832
250.306	14802.55
250.377	14769.72
250.448	14746.92
250.519	14698.18
250.59	14692.26
250.66	14655.81
250.731	14643.33
250.802	14604.86
250.873	14577.53
250.944	14549.62
251.014	14517.61
251.085	14510.28
251.156	14487.92
251.227	14469.6
251.297	14465.6
251.368	14453.45
251.439	14433.73
251.51	14416.38
251.58	14389.05
251.651	14350.92
251.722	14330.86
251.792	14288.1
251.863	14263.66
251.934	14256.67
252.005	14262.8
252.075	14233.2
252.146	14222.06
252.217	14205.53
252.287	14190.58
252.358	14164.26
252.429	14162.58
252.499	14133.51
252.57	14108.2
252.641	14093.5
252.711	14071.13
252.782	14024.56
252.852	14016.37
252.923	13990.39
252.994	13968.89
253.064	13962.09
253.135	13928.01
253.205	13903.18
253.276	13899.81
253.347	13887.85
253.417	13860.81
253.488	13824.75
253.558	13794.67
253.629	13768.88
253.699	13740.53
253.77	13720
253.841	13687.02
253.911	13665.09
253.982	13638.62
254.052	13624.02
254.123	13599.86
254.193	13576.1
254.264	13590.42
254.334	13555.51
254.405	13521.48
254.475	13492.89
254.546	13459.97
254.616	13457.03
254.687	13434.42
254.757	13411.76
254.827	13385.15
254.898	13357.96
254.968	13332.61
255.039	13308.17
255.109	13294.57
255.18	13268.64
255.25	13230.55
255.321	13219.66
255.391	13175.65
255.461	13181.24
255.532	13131.49
255.602	13103.92
255.673	13056.05
255.743	13027.85
255.813	12984.03
255.884	12972.27
255.954	12949.22
256.024	12948.21
256.095	12925.51
256.165	12885.4
256.235	12870.17
256.306	12841.34
256.376	12827.36
256.446	12813.33
256.517	12800.17
256.587	12785.03
256.657	12758.33
256.728	12742.52
256.798	12721.31
256.868	12710.41
256.938	12679.03
257.009	12672.52
257.079	12659.8
257.149	12668.62
257.219	12619.5
257.29	12611.06
257.36	12568.16
257.43	12560.3
257.5	12515.23
257.571	12493.59
257.641	12492
257.711	12457.77
257.781	12439.36
257.852	12422.2
257.922	12389.75
257.992	12361.36
258.062	12338.95
258.132	12334.56
258.202	12308.72
258.273	12292.87
258.343	12282.31
258.413	12253.44
258.483	12232.8
258.553	12197.71
258.623	12168.07
258.693	12155.25
258.764	12146.18
258.834	12146.86
258.904	12126.03
258.974	12105.98
259.044	12088.44
259.114	12070.55
259.184	12052.05
259.254	12030.74
259.324	11993.05
259.394	11978.01
259.464	11975.98
259.535	11950.63
259.605	11929.28
259.675	11899.83
259.745	11881.13
259.815	11849.22
259.885	11826.13
259.955	11834.08
260.025	11810.9
260.095	11788.05
260.165	11777.64
260.235	11774.56
260.305	11742.89
260.375	11709.97
260.445	11707.66
260.515	11696.33
260.585	11686.01
260.655	11668.76
260.725	11660.33
260.795	11653.63
260.865	11659.94
260.934	11634.15
261.004	11623.07
261.074	11602.97
261.144	11607.69
261.214	11601.96
261.284	11583.74
261.354	11574.73
261.424	11543.2
261.494	11544.99
261.564	11530.19
261.634	11520.89
261.703	11483.58
261.773	11469.17
261.843	11462.52
261.913	11444.45
261.983	11410.13
262.053	11396.44
262.123	11377.75
262.192	11354.37
262.262	11341.07
262.332	11299.86
262.402	11291
262.472	11276.92
262.541	11238.61
262.611	11227.67
262.681	11193.02
262.751	11187.19
262.821	11166.51
262.89	11136.2
262.96	11120.68
263.03	11123.81
263.1	11108.44
263.169	11089.12
263.239	11081.12
263.309	11082.08
263.379	11076.39
263.448	11061.65
263.518	11051.19
263.588	11038.13
263.657	11038.03
263.727	11030.08
263.797	11015.72
263.867	10995.29
263.936	10966.23
264.006	10971.87
264.076	10950.71
264.145	10938.62
264.215	10906.19
264.285	10899.1
264.354	10872.84
264.424	10850.39
264.494	10816.37
264.563	10797.81
264.633	10802.87
264.702	10789.14
264.772	10762.01
264.842	10738.16
264.911	10728.9
264.981	10695.41
265.05	10675.13
265.12	10654.51
265.19	10643.9
265.259	10637.78
265.329	10625.3
265.398	10612.78
265.468	10617.88
265.537	10599.38
265.607	10591
265.676	10596.93
265.746	10592.16
265.815	10584.93
265.885	10569.22
265.955	10546.58
266.024	10519.35
266.094	10483.51
266.163	10490.3
266.232	10481.87
266.302	10463.32
266.371	10452.96
266.441	10442.7
266.51	10443.62
266.58	10429.98
266.649	10407.67
266.719	10404.01
266.788	10394.52
266.858	10394.95
266.927	10351.49
266.996	10343.5
267.066	10328.27
267.135	10300.71
267.205	10288.38
267.274	10275.37
267.343	10274.02
267.413	10257.98
267.482	10262.66
267.552	10266.94
267.621	10229.03
267.69	10197.14
267.76	10196.03
267.829	10185.09
267.898	10176.52
267.968	10152.28
268.037	10142.31
268.106	10138.65
268.176	10117.26
268.245	10098.57
268.314	10079.4
268.384	10082.72
268.453	10069.38
268.522	10055.5
268.592	10052.9
268.661	10032.91
268.73	10031.03
268.799	10008.73
268.869	10015.95
268.938	9986.81
269.007	9967.69
269.076	9956.99
269.146	9959.79
269.215	9945.48
269.284	9943.94
269.353	9922.79
269.422	9911.14
269.492	9894.13
269.561	9852.23
269.63	9843.46
269.699	9830.17
269.768	9818.32
269.838	9808.49
269.907	9804.35
269.976	9788.02
270.045	9752.53
270.114	9746.51
270.183	9719.78
270.253	9716.74
270.322	9685.87
270.391	9673.69
270.46	9671.9
270.529	9669.98
270.598	9665.35
270.667	9649.27
270.736	9632.89
270.806	9622.44
270.875	9619.6
270.944	9608.52
271.013	9628.46
271.082	9614.64
271.151	9608.14
271.22	9583.14
271.289	9565.85
271.358	9554
271.427	9549.48
271.496	9545.19
271.565	9531.56
271.634	9528.1
271.703	9529.01
271.772	9533.87
271.841	9526.94
271.91	9506.04
271.979	9492.36
272.048	9470.31
272.117	9469.15
272.186	9447.87
272.255	9451.38
272.324	9451.62
272.393	9446.42
272.462	9428.41
272.531	9423.4
272.6	9416.37
272.669	9424.8
272.738	9418.97
272.807	9406.4
272.876	9386.9
272.945	9413.96
273.013	9414.01
273.082	9419.6
273.151	9393.79
273.22	9387.53
273.289	9376.84
273.358	9388.3
273.427	9377.37
273.496	9376.5
273.564	9371.98
273.633	9377.32
273.702	9360.8
273.771	9341.2
273.84	9324.16
273.909	9317.71
273.977	9313.95
274.046	9297.58
274.115	9297.44
274.184	9276.35
274.253	9268.02
274.322	9270.33
274.39	9234.84
274.459	9221.26
274.528	9195.26
274.597	9190.06
274.665	9186.36
274.734	9190.64
274.803	9172.63
274.872	9170.08
274.94	9155.11
275.009	9175.86
275.078	9158.39
275.147	9151.74
275.215	9152.85
275.284	9171.34
275.353	9162.24
275.421	9137.83
275.49	9157.04
275.559	9147.12
275.627	9140.96
275.696	9134.41
275.765	9133.06
275.833	9123.39
275.902	9115.16
275.971	9119.34
276.039	9131.91
276.108	9130.08
276.177	9123.34
276.245	9110.63
276.314	9103.46
276.383	9106.83
276.451	9078.61
276.52	9086.45
276.588	9099.45
276.657	9095.12
276.725	9075.19
276.794	9074.56
276.863	9089.05
276.931	9060.02
277	9065.08
277.068	9070.23
277.137	9090.64
277.205	9081.78
277.274	9102
277.342	9117.36
277.411	9101.91
277.48	9090.84
277.548	9081.45
277.617	9079.43
277.685	9076.3
277.754	9077.93
277.822	9069.75
277.89	9074.71
277.959	9062.72
278.027	9036.58
278.096	9025.46
278.164	9054.88
278.233	9050.55
278.301	9035.33
278.37	9042.84
278.438	9025.61
278.507	9028.54
278.575	8993.16
278.643	8996.53
278.712	8973.47
278.78	8957.53
278.849	8962.35
278.917	8966.34
278.985	8959.56
279.054	8962.35
279.122	8974.05
279.191	8968.56
279.259	8959.6
279.327	8942.66
279.396	8962.35
279.464	8961.39
279.532	8969.71
279.601	8960.42
279.669	8951.08
279.737	8960.37
279.806	8959.65
279.874	8968.36
279.942	8967.45
280.011	8965.67
280.079	8968.6
280.147	8979.63
280.215	8982.37
280.284	8976.6
280.352	8960.04
280.42	8966.1
280.488	8958.69
280.557	8944.92
280.625	8951.42
280.693	8959.12
280.761	8959.55
280.83	8934.28
280.898	8941.45
280.966	8919.65
281.034	8890.13
281.102	8879.35
281.171	8873.67
281.239	8885.42
281.307	8875.07
281.375	8865.68
281.443	8893.03
281.512	8889.37
281.58	8900.97
281.648	8882.39
281.716	8883.54
281.784	8886.43
281.852	8877.96
281.92	8875.75
281.989	8887.4
282.057	8865.88
282.125	8904.54
282.193	8900.88
282.261	8900.69
282.329	8890.39
282.397	8902.62
282.465	8903.19
282.533	8915.47
282.601	8909.26
282.67	8887.93
282.738	8876.38
282.806	8887.45
282.874	8873.54
282.942	8880.52
283.01	8868.58
283.078	8871.18
283.146	8871.32
283.214	8882.59
283.282	8884.37
283.35	8889.52
283.418	8884.61
283.486	8890.53
283.554	8846.71
283.622	8849.12
283.69	8851.33
283.758	8853.45
283.826	8854.46
283.894	8866.74
283.962	8883.78
284.03	8891.1
284.098	8887.44
284.165	8886.33
284.233	8885.22
284.301	8877.57
284.369	8866.16
284.437	8862.12
284.505	8861.06
284.573	8871.65
284.641	8856.92
284.709	8858.07
284.777	8847
284.845	8848.98
284.912	8853.36
284.98	8863.9
285.048	8850.23
285.116	8853.74
285.184	8862.98
285.252	8861.64
285.319	8844.6
285.387	8836.51
285.455	8823.7
285.523	8831.31
285.591	8827.84
285.659	8825.77
285.726	8836.56
285.794	8821.44
285.862	8815.33
285.93	8815.48
285.997	8810.66
286.065	8803.2
286.133	8798.82
286.201	8794.63
286.269	8785.63
286.336	8776.44
286.404	8762.43
286.472	8775.57
286.539	8755.7
286.607	8743.76
286.675	8740.29
286.743	8748.48
286.81	8744.91
286.878	8755.84
286.946	8747.42
287.013	8746.55
287.081	8744
287.149	8728.59
287.216	8747.65
287.284	8743.18
287.352	8739.38
287.419	8734.9
287.487	8750.16
287.555	8754.11
287.622	8753.53
287.69	8754.68
287.758	8767.15
287.825	8768.4
287.893	8753.86
287.96	8759.45
288.028	8765.37
288.096	8769.8
288.163	8770.71
288.231	8759.21
288.298	8762.96
288.366	8770.57
288.433	8768.02
288.501	8763.92
288.569	8765.08
288.636	8756.99
288.704	8763.83
288.771	8774.42
288.839	8763.3
288.906	8754.68
288.974	8762.05
289.041	8757.67
289.109	8754.2
289.176	8759.93
289.244	8765.37
289.311	8783.32
289.379	8788.91
289.446	8794.78
289.514	8794.59
289.581	8793.34
289.649	8793.05
289.716	8790.25
289.783	8783.03
289.851	8803.3
289.918	8797.71
289.986	8813.12
290.053	8818.8
290.121	8831.55
290.188	8837.62
290.255	8869.29
290.323	8863.71
290.39	8858.94
290.458	8865.83
290.525	8873.86
290.592	8868.42
290.66	8868.76
290.727	8862.84
290.794	8878.77
290.862	8881.08
290.929	8884.45
290.996	8882.77
291.064	8892.4
291.131	8900.63
291.198	8915.98
291.266	8912.57
291.333	8919.3
291.4	8918.49
291.468	8932.5
291.535	8920.89
291.602	8925.56
291.669	8915.45
291.737	8922.24
291.804	8919.11
291.871	8938.17
291.938	8947.32
292.006	8973.22
292.073	8978.86
292.14	8986.56
292.207	8983.38
292.275	8984.34
292.342	8993.44
292.409	9027.43
292.476	9052.42
292.543	9045.2
292.611	9048.76
292.678	9067.54
292.745	9089.2
292.812	9097.82
292.879	9096.28
292.946	9097.63
293.014	9103.93
293.081	9111.64
293.148	9125.89
293.215	9147.36
293.282	9140.04
293.349	9144.71
293.416	9126.12
293.484	9139.07
293.551	9148.46
293.618	9161.17
293.685	9182.89
293.752	9177.54
293.819	9167.19
293.886	9154.82
293.953	9160.11
294.02	9165.65
294.087	9175.33
294.154	9172.05
294.221	9185.58
294.288	9184.28
294.356	9206.33
294.423	9212.26
294.49	9205.37
294.557	9219.82
294.624	9209.27
294.691	9232.62
294.758	9235.95
294.825	9239.32
294.892	9234.79
294.959	9233.11
295.026	9242.21
295.093	9238.02
295.16	9239.08
295.226	9240.13
295.293	9262.48
295.36	9271.87
295.427	9280.73
295.494	9289.06
295.561	9301
295.628	9326.72
295.695	9346.22
295.762	9351.32
295.829	9356.86
295.896	9371.69
295.963	9378.82
296.03	9394.37
296.096	9396.3
296.163	9411.66
296.23	9428.95
296.297	9446.13
296.364	9448.35
296.431	9452.54
296.498	9451.14
296.564	9471.9
296.631	9474.59
296.698	9459.18
296.765	9476.42
296.832	9473.15
296.899	9457.35
296.965	9465.54
297.032	9437.51
297.099	9454.22
297.166	9457.54
297.233	9454.65
297.299	9450.46
297.366	9449.5
297.433	9447.96
297.5	9460.48
297.566	9452.34
297.633	9456.44
297.7	9455.04
297.767	9456.58
297.833	9459.71
297.9	9460.96
297.967	9442.91
298.033	9456.01
298.1	9483.99
298.167	9478.06
298.234	9483.22
298.3	9496.55
298.367	9492.46
298.434	9507.68
298.5	9489.47
298.567	9488.32
298.634	9485.62
298.7	9504.35
298.767	9506.09
298.834	9521.4
298.9	9511.43
298.967	9507.24
299.033	9512.35
299.1	9530.41
299.167	9540.14
299.233	9534.02
299.3	9544.28
299.366	9567.34
299.433	9578.66
299.5	9554.29
299.566	9556.17
299.633	9569.03
299.699	9579.82
299.766	9584.49
299.832	9591.04
299.899	9604.96
299.965	9617.04
300.032	9617.57
300.099	9621.38
300.165	9627.16
300.232	9621.62
300.298	9620.7
300.365	9632.41
300.431	9635.34
300.498	9628.07
300.564	9638.04
300.631	9650.85
300.697	9667.56
300.763	9665.4
300.83	9666.7
300.896	9684.13
300.963	9692.32
301.029	9695.79
301.096	9696.12
301.162	9700.46
301.229	9687.84
301.295	9679.03
301.361	9681.29
301.428	9687.93
301.494	9683.74
301.561	9684.61
301.627	9686.83
301.693	9694.77
301.76	9704.36
301.826	9696.99
301.892	9703.68
301.959	9712.35
302.025	9706.19
302.092	9697.95
302.158	9703.3
302.224	9706.67
302.291	9689.67
302.357	9685.34
302.423	9678.93
302.49	9670.55
302.556	9680.62
302.622	9687.07
302.688	9692.32
302.755	9705.76
302.821	9711.44
302.887	9713.17
302.954	9712.11
303.02	9716.02
303.086	9715.2
303.152	9708.26
303.219	9709.08
303.285	9705.03
303.351	9711.83
303.417	9715.25
303.483	9706.72
303.55	9702.77
303.616	9702.77
303.682	9704.41
303.748	9701.23
303.815	9715.58
303.881	9727.53
303.947	9709.85
304.013	9709.13
304.079	9707.49
304.145	9683.65
304.212	9685.14
304.278	9679.61
304.344	9672.72
304.41	9665.01
304.476	9657.69
304.542	9657.69
304.608	9659.47
304.674	9649.65
304.741	9643.15
304.807	9643.29
304.873	9651.67
304.939	9661.06
305.005	9636.16
305.071	9638.14
305.137	9639.68
305.203	9616.42
305.269	9611.31
305.335	9626.72
305.401	9623.98
305.467	9617.47
305.533	9627.11
305.599	9628.21
305.666	9632.84
305.732	9633.66
305.798	9639.05
305.864	9664.14
305.93	9662.84
305.996	9658.99
306.062	9662.8
306.128	9657.55
306.194	9651.53
306.259	9649.94
306.325	9644.06
306.391	9658.27
306.457	9665.25
306.523	9666.07
306.589	9690.87
306.655	9684.52
306.721	9667.28
306.787	9648.88
306.853	9663.42
306.919	9645.99
306.985	9638.91
307.051	9630.05
307.117	9630.34
307.183	9625.86
307.248	9594.41
307.314	9597.88
307.38	9601.63
307.446	9607.56
307.512	9593.11
307.578	9596
307.644	9584.63
307.709	9583.09
307.775	9573.12
307.841	9571.24
307.907	9571.97
307.973	9550.2
308.039	9544.27
308.104	9550.15
308.17	9555.45
308.236	9538.35
308.302	9541.57
308.368	9522.79
308.433	9523.37
308.499	9512.68
308.565	9512.15
308.631	9515.04
308.696	9492.02
308.762	9478.92
308.828	9471.75
308.894	9450.56
308.959	9428.75
309.025	9427.55
309.091	9425.67
309.156	9420.95
309.222	9422.1
309.288	9409.97
309.354	9388.4
309.419	9388.78
309.485	9373.85
309.551	9376.26
309.616	9360.18
309.682	9357.92
309.748	9362.1
309.813	9354.64
309.879	9351.37
309.945	9325.8
310.01	9319.73
310.076	9323.77
310.141	9316.6
310.207	9303.55
310.273	9313.95
310.338	9319.87
310.404	9300.03
310.469	9285.78
310.535	9281.06
310.601	9251.4
310.666	9260.45
310.732	9270.85
310.797	9256.65
310.863	9245.62
310.928	9237.34
310.994	9244.37
311.059	9242.35
311.125	9238.06
311.191	9248.18
311.256	9234.12
311.322	9244.47
311.387	9228.97
311.453	9562.24
311.518	9541.68
311.584	9538.12
311.649	9539.85
311.715	9521.56
311.78	9519.53
311.846	9505.57
311.911	9503.79
311.976	9506.24
312.042	9484.72
312.107	9466.14
312.173	9460.84
312.238	9456.6
312.304	9456.22
312.369	9450.1
312.434	9438.93
312.5	9427.43
312.565	9398.92
312.631	9404.36
312.696	9396.42
312.761	9400.95
312.827	9052.7
312.892	9088.96
312.958	9080.96
313.023	9075.57
313.088	9074.99
313.154	9063.44
313.219	9059.83
313.284	9047.46
313.35	9044.23
313.415	9030.22
313.48	9024.16
313.546	9022.14
313.611	9026.95
313.676	9011.5
313.741	8998.98
313.807	9003.84
313.872	9008.32
313.937	9013.52
314.003	9025.84
314.068	9023.29
314.133	9021.46
314.198	9014.72
314.264	8991.8
314.329	8984.73
314.394	8980.68
314.459	8981.21
314.525	9000.27
314.59	8997.72
314.655	8989.2
314.72	8995.32
314.785	9002.15
314.851	8999.36
314.916	8985.79
314.981	8967.78
315.046	8959.98
315.111	8946.94
315.176	8927.35
315.242	8927.25
315.307	8921.33
315.372	8895.38
315.437	8883.11
315.502	8875.36
315.567	8886.19
315.632	8874.59
315.698	8877.52
315.763	8871.89
315.828	8862.31
315.893	8857.26
315.958	8848.54
316.023	8837.23
316.088	8817.4
316.153	8792.9
316.218	8787.66
316.283	8770.43
316.348	8758.4
316.413	8756.38
316.479	8741.31
316.544	8706.96
316.609	8674.33
316.674	8635.44
316.739	8598.78
316.804	8567.31
316.869	8532.42
316.934	8494.25
316.999	8457.83
317.064	8402.78
317.129	8355.58
317.194	8317.33
317.259	8262.23
317.324	8212.06
317.389	8162.51
317.454	8122.24
317.518	8089.53
317.583	8053.01
317.648	8027.61
317.713	7987.5
317.778	7928.04
317.843	7900.86
317.908	7862.35
317.973	7826.47
318.038	7798.77
318.103	7763.43
318.168	7728.57
318.233	7694.28
318.297	7641.72
318.362	7602.68
318.427	7564.56
318.492	7536.82
318.557	7492.11
318.622	7463.75
318.687	7441.25
318.751	7404.63
318.816	7365.36
318.881	7331.9
318.946	7286.38
319.011	7237.98
319.075	7197.43
319.14	7154.81
319.205	7106.56
319.27	7071.44
319.335	7020.95
319.399	6979.34
319.464	6952.86
319.529	6903.77
319.594	6865.43
319.658	6833.01
319.723	6791.75
319.788	6761.97
319.853	6705.44
319.917	6672.35
319.982	6617.94
320.047	6576.88
320.112	6547.78
320.176	6498.61
320.241	6458.33
320.306	6424
320.37	6383.38
320.435	6351.7
320.5	6326.02
320.564	6280.81
320.629	6243.43
320.694	6215.5
320.758	6173.17
320.823	6125.18
320.888	6093.03
320.952	6044.23
321.017	6002.3
321.082	5963.01
321.146	5930
321.211	5901.03
321.275	5859.11
321.34	5817.06
321.405	5770.39
321.469	5724.74
321.534	5681.45
321.598	5631.54
321.663	5597.77
321.727	5566.75
321.792	5519.67
321.857	5478.87
321.921	5443.98
321.986	5399.65
322.05	5344.07
322.115	5304.48
322.179	5260.26
322.244	5206.56
322.308	5165.98
322.373	5123.16
322.437	5080.28
322.502	5048.22
322.566	5000.85
322.631	4966.46
322.695	4924.67
322.76	4883.44
322.824	4848.01
322.889	4810.54
322.953	4767.22
323.018	4702.69
323.082	4638.56
323.146	4585.16
323.211	4531.76
323.275	4487.35
323.34	4443.97
323.404	4408.29
323.468	4365.14
323.533	4321.66
323.597	4277.64
323.662	4228.86
323.726	4188.55
323.79	4143.46
323.855	4078.75
323.919	4033.19
323.983	3986.44
324.048	3923.92
324.112	4038.5
324.177	3909.16
324.241	3703.69
324.305	3502.85
324.37	3306.32
324.434	3116.14
324.498	3074.19
324.562	3022.02
324.627	2961.54
324.691	2905.75
324.755	2839.04
324.82	2761.49
324.884	2681.96
324.948	2609.8
325.012	2517.09
325.077	2394.75
