Data from 20250630_urea_2M_MAYP1162681_19-42-26-674.txt Node
Date: Mon Jun 30 19:42:26 BST 2025
User: adleo
Spectrometer: MAYP116268
Trigger mode: 0
Integration Time (sec): 1.000000E0
Scans to average: 1
Electric dark correction enabled: true
Nonlinearity correction enabled: true
Boxcar width: 10
XAxis mode: Wavelengths
Number of Pixels in Spectrum: 2068
>>>>>Begin Spectral Data<<<<<
179.565	1131.54
179.642	1182.37
179.718	1215.86
179.795	1249.27
179.871	1282.75
179.948	1302.31
180.024	1322.69
180.101	1344.18
180.177	1357.32
180.254	1379.12
180.33	1399.56
180.407	1446.79
180.483	1535.44
180.56	1617.3
180.636	1696.77
180.712	1684.41
180.789	1693.29
180.865	1707.73
180.942	1712.2
181.018	1719.14
181.095	1734.2
181.171	1738.81
181.248	1740.71
181.324	1759.77
181.4	1769.71
181.477	1775.12
181.553	1786.48
181.63	1806.3
181.706	1820.32
181.782	1828.3
181.859	1828.11
181.935	1835.48
182.011	1831.58
182.088	1846.18
182.164	1867.72
182.24	1876.17
182.317	1883.73
182.393	1882.35
182.469	1892.76
182.546	1908.45
182.622	1911.97
182.698	1908.35
182.775	1918.86
182.851	1930.41
182.927	1922.81
183.003	1918.91
183.08	1916.58
183.156	1925.71
183.232	1921.95
183.308	1910.11
183.385	1917.91
183.461	1934.26
183.537	1931.93
183.613	1944.11
183.69	1935.98
183.766	1926.04
183.842	1935.4
183.918	1939.97
183.995	1954.94
184.071	1959.51
184.147	1953.37
184.223	1945.96
184.299	1957.94
184.375	1950.43
184.452	1959.95
184.528	2013.6
184.604	2021.2
184.68	2033.66
184.756	2039.13
184.832	2043.46
184.908	2052.01
184.985	2053.39
185.061	2037.46
185.137	2047.93
185.213	2037.66
185.289	2040.79
185.365	2032.28
185.441	2031.62
185.517	2047.51
185.593	2041.85
185.669	2038.99
185.745	2047.65
185.822	2062.81
185.898	2052.83
185.974	2058.39
186.05	2046.5
186.126	2006.35
186.202	2000.26
186.278	1996.74
186.354	1987.71
186.43	1994.56
186.506	1992.42
186.582	1989.52
186.658	1994.13
186.734	1972.78
186.81	1972.83
186.886	1975.4
186.962	1985.29
187.038	1982.77
187.114	1974.35
187.19	1985.52
187.266	1975.35
187.341	1979.39
187.417	1972.55
187.493	1973.02
187.569	1977.3
187.645	1975.02
187.721	1965.22
187.797	1973.3
187.873	1977.68
187.949	1971.69
188.025	1962.84
188.101	1966.41
188.176	1969.97
188.252	1969.64
188.328	1978.29
188.404	1980.57
188.48	1974.91
188.556	1970.3
188.632	1970.11
188.707	1969.3
188.783	1965.02
188.859	1963.5
188.935	1950.99
189.011	1957.27
189.086	1949.19
189.162	1941.1
189.238	1938.06
189.314	1935.83
189.39	1928.6
189.465	1919.95
189.541	1938.11
189.617	1925.7
189.693	1918.62
189.768	1926.04
189.844	1949.87
189.92	1942.55
189.996	1950.97
190.071	1964.09
190.147	1961.48
190.223	1969.28
190.298	1962.53
190.374	1948.5
190.45	1957.1
190.526	1965.33
190.601	1962.62
190.677	1965.61
190.753	1992.35
190.828	1998.39
190.904	2012.42
190.98	2028.44
191.055	2040.62
191.131	2031.15
191.207	2049.74
191.282	2059.59
191.358	2048.27
191.433	2032.09
191.509	2045.54
191.585	2044.54
191.66	2044.97
191.736	2055.29
191.811	2047.01
191.887	2060.76
191.963	2084.59
192.038	2089.63
192.114	2089.58
192.189	2089.25
192.265	2084.59
192.34	2061.9
192.416	2057.66
192.491	2056.76
192.567	2057.38
192.642	2057.86
192.718	2058.28
192.793	2048.49
192.869	2042.4
192.944	2044.02
193.02	2050.53
193.095	2053.86
193.171	2058.14
193.246	2056.05
193.322	2053.62
193.397	2055.19
193.473	2043.73
193.548	2023.8
193.624	2028.41
193.699	2026.32
193.775	2044.21
193.85	2046.44
193.925	2054.91
194.001	2055.57
194.076	2045.44
194.152	2037.45
194.227	2030.65
194.302	2019.95
194.378	2021.95
194.453	2022.85
194.529	2036.88
194.604	2023
194.679	2016.34
194.755	1996.75
194.83	2009.5
194.905	2006.93
194.981	2014.26
195.056	2008.65
195.131	2017.06
195.207	2016.26
195.282	2009.22
195.357	1988.48
195.433	2005.45
195.508	1995.71
195.583	2001.22
195.659	2016.06
195.734	2022.1
195.809	2021.15
195.884	2029.61
195.96	2030.61
196.035	2042.93
196.11	2037.93
196.185	2049.78
196.261	2053.01
196.336	2084.44
196.411	2068.89
196.486	2073.74
196.561	2067.41
196.637	2075.02
196.712	2090.1
196.787	2093.53
196.862	2106.89
196.937	2118.4
197.013	2124.35
197.088	2133.2
197.163	2153.99
197.238	2166.32
197.313	2166.7
197.388	2179.31
197.464	2208.95
197.539	2219.71
197.614	2213.81
197.689	2223.85
197.764	2239.79
197.839	2260.2
197.914	2252.44
197.989	2277.09
198.065	2288.8
198.14	2338.37
198.215	2362.17
198.29	2373.26
198.365	2387.02
198.44	2399.68
198.515	2429.05
198.59	2442.77
198.665	2471.28
198.74	2479.62
198.815	2478.33
198.89	2498.09
198.965	2528.81
199.04	2523.24
199.115	2539.23
199.19	2577.13
199.265	2581.8
199.34	2592.37
199.415	2627.25
199.49	2651.06
199.565	2660.11
199.64	2683.49
199.715	2678.82
199.79	2684.92
199.865	2691.73
199.94	2690.21
200.015	2718.84
200.09	2723.23
200.165	2728.42
200.24	2733.09
200.315	2775.06
200.39	2793.49
200.464	2798.54
200.539	2797.35
200.614	2812.45
200.689	2834.99
200.764	2845.19
200.839	2861.91
200.914	2864.58
200.989	2849.66
201.063	2862.29
201.138	2845.71
201.213	2847.57
201.288	2832.23
201.363	2839.38
201.438	2838.66
201.512	2852.66
201.587	2833.98
201.662	2835.6
201.737	2844.66
201.812	2851.38
201.886	2816.65
201.961	2829.38
202.036	2817.95
202.111	2814.76
202.186	2790.24
202.26	2774.55
202.335	2752.68
202.41	2746.87
202.485	2730.86
202.559	2713.9
202.634	2686.27
202.709	2692.56
202.784	2675.69
202.858	2674.6
202.933	2655.83
203.008	2648.59
203.082	2630.35
203.157	2632.25
203.232	2591.97
203.306	2573.72
203.381	2543
203.456	2522.19
203.53	2498.73
203.605	2482.93
203.68	2466.21
203.754	2460.98
203.829	2442.93
203.904	2424.94
203.978	2411.75
204.053	2419.94
204.127	2406.85
204.202	2406.89
204.277	2393.14
204.351	2386.42
204.426	2377.9
204.5	2369.95
204.575	2338.83
204.65	2346.64
204.724	2337.54
204.799	2344.91
204.873	2345.44
204.948	2345.39
205.022	2332.16
205.097	2322.16
205.171	2334.63
205.246	2339.11
205.32	2337.11
205.395	2338.63
205.469	2331.54
205.544	2339.3
205.618	2317.5
205.693	2332.02
205.767	2320.03
205.842	2338.5
205.916	2329.6
205.991	2321.08
206.065	2325.84
206.14	2339.54
206.214	2335.4
206.289	2327.49
206.363	2341.44
206.438	2343.06
206.512	2352.58
206.586	2371.57
206.661	2382.33
206.735	2361.92
206.81	2361.35
206.884	2378.43
206.958	2365.63
207.033	2379
207.107	2383.72
207.181	2415.53
207.256	2411
207.33	2429.28
207.405	2442.14
207.479	2462.42
207.553	2468.18
207.628	2456.1
207.702	2467.66
207.776	2464.52
207.851	2470.47
207.925	2482.38
207.999	2476.95
208.073	2470.71
208.148	2472.33
208.222	2461.62
208.296	2492.98
208.371	2509.56
208.445	2517.13
208.519	2543.12
208.593	2553.93
208.668	2550.69
208.742	2553.46
208.816	2550.93
208.89	2564.89
208.965	2559.98
209.039	2566.6
209.113	2584.61
209.187	2599.69
209.261	2596.74
209.336	2612.84
209.41	2630.13
209.484	2630.08
209.558	2650.52
209.632	2663.04
209.707	2676.76
209.781	2696.43
209.855	2711.21
209.929	2726.9
210.003	2734.09
210.077	2735.66
210.151	2782.16
210.226	2816.19
210.3	2844.29
210.374	2867.2
210.448	2872.2
210.522	2884.69
210.596	2895.94
210.67	2905.81
210.744	2952.33
210.818	2984.78
210.892	3007.86
210.966	3007.09
211.041	3023.87
211.115	3026.54
211.189	3053.24
211.263	3068.25
211.337	3076.26
211.411	3092.1
211.485	3091.33
211.559	3105.02
211.633	3113.26
211.707	3087.97
211.781	3101.72
211.855	3072.53
211.929	3076.15
212.003	3067.76
212.077	3086.56
212.151	3108.69
212.225	3128.34
212.299	3133.12
212.373	3134.41
212.447	3146.38
212.52	3189.99
212.594	3215.23
212.668	3248.44
212.742	3254.69
212.816	3275.88
212.89	3300.83
212.964	3334.74
213.038	3368.16
213.112	3413.56
213.186	3464.01
213.26	3486.24
213.333	3483
213.407	3533.25
213.481	3580.07
213.555	3641.35
213.629	3686.88
213.703	3724.05
213.777	3779.87
213.85	3823.4
213.924	3920.93
213.998	3990.11
214.072	4054.88
214.146	4110.96
214.219	4181.18
214.293	4262.41
214.367	4352.83
214.441	4448.91
214.515	4523.78
214.588	4593.7
214.662	4655.78
214.736	4735.43
214.81	4845.93
214.883	4962.19
214.957	5064.57
215.031	5162.2
215.105	5256.17
215.178	5363.3
215.252	5480.44
215.326	5586.78
215.4	5693.49
215.473	5777.55
215.547	5891.65
215.621	6014.53
215.694	6161.68
215.768	6278.31
215.842	6410.27
215.915	6537.69
215.989	6655.22
216.063	6794.1
216.136	6946.38
216.21	7106.21
216.284	7279.04
216.357	7437.85
216.431	7596.4
216.504	7768.83
216.578	7954.21
216.652	8129.29
216.725	8292.62
216.799	8471.04
216.873	8643.97
216.946	8829.42
217.02	8992.41
217.093	9161.47
217.167	9311.88
217.24	9467.46
217.314	9640.6
217.387	9804.94
217.461	9974.24
217.535	10166.42
217.608	10334.44
217.682	10507.96
217.755	10687.71
217.829	10839.44
217.902	11005.73
217.976	11179.73
218.049	11333.99
218.123	11489.9
218.196	11663.63
218.27	11823.11
218.343	11983.37
218.417	12152.89
218.49	12314.22
218.563	12504.08
218.637	12681.8
218.71	12870.18
218.784	13044.19
218.857	13223.03
218.931	13395.4
219.004	13556.07
219.077	13719.58
219.151	13880.15
219.224	14040.29
219.298	14189.24
219.371	14356.75
219.444	14494.57
219.518	14650.56
219.591	14810.5
219.665	14990.39
219.738	15144.93
219.811	15290.45
219.885	15443.73
219.958	15590.5
220.031	15729.56
220.105	15863.61
220.178	15996.78
220.251	16121.66
220.325	16254.06
220.398	16379.86
220.471	16509.37
220.544	16651.45
220.618	16767.02
220.691	16900.96
220.764	17015.28
220.838	17144.68
220.911	17264.01
220.984	17411.1
221.057	17519.82
221.131	17632.74
221.204	17708.26
221.277	17827.77
221.35	17967.87
221.424	18069.26
221.497	18169.45
221.57	18278.03
221.643	18392.05
221.716	18495.9
221.79	18597.24
221.863	18701.48
221.936	18800.7
222.009	18892.5
222.082	18978.86
222.155	19060.78
222.229	19150.27
222.302	19250.94
222.375	19323.66
222.448	19407.75
222.521	19480.13
222.594	19554.25
222.667	19621.28
222.74	19723.11
222.814	19796.07
222.887	19859.06
222.96	19934.67
223.033	20022.43
223.106	20091.92
223.179	20155.92
223.252	20218.9
223.325	20277.31
223.398	20339.19
223.471	20395.77
223.544	20454.85
223.617	20516.35
223.69	20585.99
223.763	20634.08
223.837	20680.88
223.91	20750.09
223.983	20789.94
224.056	20827.87
224.129	20884.5
224.202	20944.4
224.275	20972.26
224.348	21007.11
224.42	21032.02
224.493	21056.84
224.566	21081.81
224.639	21124.22
224.712	21154.15
224.785	21185.72
224.858	21222.74
224.931	21250.36
225.004	21277.49
225.077	21315.33
225.15	21322.99
225.223	21343.47
225.296	21398.91
225.369	21413.65
225.442	21431.83
225.514	21454.82
225.587	21491.35
225.66	21514.1
225.733	21544.47
225.806	21578.06
225.879	21599.42
225.952	21619.56
226.025	21654.41
226.097	21692.73
226.17	21707.19
226.243	21705.02
226.316	21724.26
226.389	21744.45
226.461	21769.86
226.534	21792.37
226.607	21810.54
226.68	21848.18
226.753	21871.76
226.825	21855.85
226.898	21892.39
226.971	21901.59
227.044	21935.38
227.117	21940.97
227.189	21967.44
227.262	21987.06
227.335	22002.68
227.407	22010.68
227.48	22033.19
227.553	22056.28
227.626	22048.04
227.698	22061.63
227.771	22085.2
227.844	22087.71
227.916	22092.87
227.989	22082.07
228.062	22090.41
228.134	22122.85
228.207	22118.9
228.28	22112.78
228.352	22122.66
228.425	22131.33
228.498	22158.67
228.57	22145.51
228.643	22168.55
228.716	22170.48
228.788	22154.28
228.861	22147.48
228.934	22164.4
229.006	22150.57
229.079	22137.17
229.151	22137.41
229.224	22121.12
229.296	22137.79
229.369	22165.8
229.442	22187.55
229.514	22183.06
229.587	22192.41
229.659	22168.21
229.732	22179.69
229.804	22194.49
229.877	22220.08
229.949	22221.77
230.022	22231.32
230.094	22227.51
230.167	22230.06
230.239	22212.37
230.312	22225.24
230.384	22243.18
230.457	22237.87
230.529	22252.14
230.602	22254.99
230.674	22270.99
230.747	22293.55
230.819	22296.15
230.892	22261.69
230.964	22258.17
231.037	22260.58
231.109	22254.94
231.181	22253.64
231.254	22239.27
231.326	22229.92
231.399	22212.85
231.471	22194.29
231.544	22161.75
231.616	22173.56
231.688	22175.73
231.761	22168.36
231.833	22148.5
231.905	22121.12
231.978	22119.04
232.05	22107.04
232.122	22100.53
232.195	22071.08
232.267	22070.74
232.339	22048.08
232.412	22058.4
232.484	22040.08
232.556	22027.74
232.629	22033.28
232.701	22025.09
232.773	22014.05
232.846	22005.33
232.918	21990.29
232.99	21981.9
233.062	21984.69
233.135	21969.94
233.207	21929.79
233.279	21920.63
233.351	21910.65
233.424	21883.37
233.496	21860.23
233.568	21865.1
233.64	21836.33
233.713	21828.04
233.785	21799.07
233.857	21785.62
233.929	21748.12
234.001	21747.97
234.074	21748.94
234.146	21712.35
234.218	21696.64
234.29	21681.11
234.362	21657.59
234.434	21621.59
234.507	21593.87
234.579	21557.48
234.651	21537.19
234.723	21538.44
234.795	21531.5
234.867	21518.87
234.939	21530.63
235.012	21511.5
235.084	21494.43
235.156	21487.11
235.228	21458.96
235.3	21424.02
235.372	21412.16
235.444	21405.12
235.516	21362.8
235.588	21337.64
235.66	21313.35
235.732	21282.84
235.804	21306.94
235.876	21280.58
235.948	21284.43
236.02	21268.91
236.092	21240.19
236.164	21206.74
236.236	21164.76
236.308	21129.48
236.38	21096.95
236.452	21052.8
236.524	21027.21
236.596	21008.27
236.668	20978
236.74	20948.12
236.812	20936.31
236.884	20902.82
236.956	20874.57
237.028	20831.05
237.1	20789.51
237.172	20781.56
237.244	20766.04
237.316	20700.06
237.388	20666.66
237.46	20618.13
237.532	20595.09
237.604	20560.01
237.675	20551.14
237.747	20530.17
237.819	20485.5
237.891	20453.55
237.963	20419.91
238.035	20377.93
238.107	20314.7
238.178	20303.38
238.25	20272.3
238.322	20260.87
238.394	20212.97
238.466	20182.47
238.538	20165.69
238.609	20147
238.681	20090.66
238.753	20042.95
238.825	20015.48
238.897	19996.59
238.968	19996.35
239.04	19957.03
239.112	19955.19
239.184	19906.47
239.255	19871.24
239.327	19858.19
239.399	19833.61
239.471	19810.04
239.542	19784.16
239.614	19752.79
239.686	19688.22
239.758	19672.75
239.829	19623.74
239.901	19616.08
239.973	19581.04
240.044	19547.93
240.116	19513.24
240.188	19480.61
240.259	19459.22
240.331	19417.44
240.403	19377.44
240.474	19314.89
240.546	19281.35
240.618	19227.33
240.689	19182.56
240.761	19155.23
240.833	19138.08
240.904	19098.23
240.976	19058.13
241.048	19022.38
241.119	19005.56
241.191	18982.52
241.262	18957.71
241.334	18926.38
241.405	18886.1
241.477	18841.66
241.549	18810.68
241.62	18782.78
241.692	18760.8
241.763	18727.89
241.835	18694.54
241.906	18671.89
241.978	18630.59
242.049	18600.04
242.121	18581.44
242.192	18566.4
242.264	18512.91
242.335	18458.75
242.407	18436.29
242.478	18402.6
242.55	18375.71
242.621	18328.63
242.693	18283.67
242.764	18249.26
242.836	18206.66
242.907	18174.86
242.979	18150.47
243.05	18111.53
243.122	18078.28
243.193	18038.86
243.264	17988.89
243.336	17952.46
243.407	17919.25
243.479	17899.93
243.55	17871.35
243.622	17827.21
243.693	17802.24
243.764	17793.62
243.836	17751.5
243.907	17707.93
243.978	17672.27
244.05	17645.57
244.121	17601.81
244.192	17581.14
244.264	17531.55
244.335	17499.79
244.407	17447.07
244.478	17416.61
244.549	17384.37
244.62	17332.95
244.692	17298.34
244.763	17281.33
244.834	17244.41
244.906	17200.03
244.977	17172.46
245.048	17153.86
245.119	17120.27
245.191	17068.85
245.262	17004.36
245.333	16981.76
245.405	16951.93
245.476	16922.77
245.547	16887.39
245.618	16859.15
245.689	16826.81
245.761	16790.23
245.832	16754.57
245.903	16733.79
245.974	16703.38
246.045	16664.15
246.117	16643.43
246.188	16595.42
246.259	16546.22
246.33	16509.68
246.401	16483.75
246.473	16441.1
246.544	16401.92
246.615	16380.42
246.686	16340.56
246.757	16328.85
246.828	16287.25
246.899	16271.59
246.97	16224.26
247.042	16186.33
247.113	16167.87
247.184	16159.24
247.255	16126.18
247.326	16096.68
247.397	16062.55
247.468	16033.39
247.539	16005.34
247.61	15963.75
247.681	15944.76
247.752	15924.85
247.823	15891.3
247.894	15858.77
247.965	15811
248.037	15773.36
248.108	15726.8
248.179	15704.34
248.25	15671.13
248.321	15653.72
248.392	15603.31
248.463	15599.45
248.534	15571.06
248.605	15543.83
248.675	15501.99
248.746	15476.88
248.817	15456.39
248.888	15428.05
248.959	15375.32
249.03	15349.39
249.101	15324.66
249.172	15287.88
249.243	15237.41
249.314	15221.5
249.385	15189.26
249.456	15176.72
249.527	15145.2
249.598	15118.88
249.669	15090.97
249.739	15068.85
249.81	15038.04
249.881	15004.93
249.952	14973.89
250.023	14940.91
250.094	14896.18
250.165	14863.26
250.235	14825.76
250.306	14799.2
250.377	14762.9
250.448	14743.81
250.519	14699.41
250.59	14685.63
250.66	14650.73
250.731	14635.93
250.802	14613.32
250.873	14590.33
250.944	14565.12
251.014	14529.73
251.085	14525.2
251.156	14502.11
251.227	14489.1
251.297	14481.14
251.368	14466.63
251.439	14449.71
251.51	14429.42
251.58	14404.59
251.651	14366.41
251.722	14358.85
251.792	14312.23
251.863	14285
251.934	14274.78
252.005	14280.42
252.075	14249.85
252.146	14243.44
252.217	14230.28
252.287	14207.05
252.358	14182.94
252.429	14173.59
252.499	14142.45
252.57	14119.99
252.641	14104.46
252.711	14066.96
252.782	14019
252.852	14010.9
252.923	13984
252.994	13968.43
253.064	13943.75
253.135	13913.66
253.205	13879.1
253.276	13870.13
253.347	13857.89
253.417	13821.73
253.488	13782.06
253.558	13759.36
253.629	13735.11
253.699	13719.34
253.77	13702.18
253.841	13680.97
253.911	13654.46
253.982	13629.25
254.052	13614.98
254.123	13594.83
254.193	13582.68
254.264	13597.62
254.334	13557.42
254.405	13526.04
254.475	13488.58
254.546	13470.74
254.616	13462.6
254.687	13447.75
254.757	13431.02
254.827	13414.44
254.898	13401.37
254.968	13381.18
255.039	13353.26
255.109	13342.51
255.18	13307.47
255.25	13259.69
255.321	13233.04
255.391	13193.22
255.461	13200.11
255.532	13147.08
255.602	13107.31
255.673	13064.94
255.743	13033.61
255.813	12991.72
255.884	12973.45
255.954	12960.77
256.024	12952.96
256.095	12927.46
256.165	12892.65
256.235	12875.83
256.306	12843.72
256.376	12831.87
256.446	12823.28
256.517	12808.44
256.587	12795.08
256.657	12784.82
256.728	12774.45
256.798	12761.24
256.868	12745.53
256.938	12713.13
257.009	12704.51
257.079	12698
257.149	12701.37
257.219	12653.55
257.29	12634.61
257.36	12600.53
257.43	12590.5
257.5	12555.07
257.571	12534.59
257.641	12520.27
257.711	12491.25
257.781	12473.8
257.852	12459.48
257.922	12417.06
257.992	12393.88
258.062	12366.88
258.132	12349.96
258.202	12328.17
258.273	12312.03
258.343	12306.39
258.413	12285.42
258.483	12266.33
258.553	12239
258.623	12206.17
258.693	12198.8
258.764	12194.17
258.834	12190.36
258.904	12168.19
258.974	12143.12
259.044	12123.26
259.114	12110.1
259.184	12093.86
259.254	12077.91
259.324	12037.99
259.394	12031.44
259.464	12023.44
259.535	12002.08
259.605	11970.42
259.675	11939.95
259.745	11924.58
259.815	11894.21
259.885	11864.47
259.955	11873.34
260.025	11846.2
260.095	11830.11
260.165	11813.43
260.235	11813.53
260.305	11784.08
260.375	11752.26
260.445	11752.22
260.515	11749.52
260.585	11747.06
260.655	11724.36
260.725	11719.15
260.795	11705.94
260.865	11700.11
260.934	11680.21
261.004	11672.4
261.074	11659.63
261.144	11658.9
261.214	11646.37
261.284	11620.97
261.354	11617.79
261.424	11577.83
261.494	11580.24
261.564	11552.38
261.634	11542.21
261.703	11507.71
261.773	11495.95
261.843	11483.32
261.913	11465.25
261.983	11427.32
262.053	11405.92
262.123	11382.88
262.192	11342.01
262.262	11333.34
262.332	11299.98
262.402	11280.22
262.472	11258.34
262.541	11224.66
262.611	11219.02
262.681	11191.26
262.751	11185.48
262.821	11164.99
262.89	11138.63
262.96	11125.67
263.03	11136.7
263.1	11121.38
263.169	11105.38
263.239	11095.02
263.309	11100.46
263.379	11088.51
263.448	11073.09
263.518	11059.79
263.588	11046.35
263.657	11048.23
263.727	11041.91
263.797	11029
263.867	11016.52
263.936	10988.42
264.006	10979.51
264.076	10955.27
264.145	10936.72
264.215	10912.14
264.285	10897.4
264.354	10866.12
264.424	10842.8
264.494	10810.46
264.563	10787.91
264.633	10786.85
264.702	10776.88
264.772	10738.13
264.842	10714.62
264.911	10708.98
264.981	10680.12
265.05	10669.85
265.12	10650.82
265.19	10627.45
265.259	10630.97
265.329	10620.03
265.398	10601.72
265.468	10612.37
265.537	10596.71
265.607	10588.28
265.676	10591.46
265.746	10584.95
265.815	10588.76
265.885	10570.93
265.955	10543.76
266.024	10527.13
266.094	10498.66
266.163	10494.52
266.232	10502.37
266.302	10484.11
266.371	10476.79
266.441	10466.38
266.51	10459.83
266.58	10443.49
266.649	10427.35
266.719	10417.33
266.788	10405.19
266.858	10411.21
266.927	10378.88
266.996	10366.55
267.066	10352.48
267.135	10319.24
267.205	10313.02
267.274	10297.08
267.343	10295.2
267.413	10289.66
267.482	10283.97
267.552	10280.22
267.621	10250.39
267.69	10217.92
267.76	10220.57
267.829	10213.1
267.898	10203.56
267.968	10178.51
268.037	10171.63
268.106	10172.4
268.176	10141.85
268.245	10125.14
268.314	10103.22
268.384	10094.45
268.453	10081.97
268.522	10074.65
268.592	10083.8
268.661	10057.65
268.73	10050.08
268.799	10030.33
268.869	10032.93
268.938	10012.7
269.007	9994.73
269.076	9982.84
269.146	9976.57
269.215	9958.37
269.284	9952.01
269.353	9929.71
269.422	9920.17
269.492	9901.48
269.561	9861.26
269.63	9856.01
269.699	9838.86
269.768	9828.55
269.838	9826.48
269.907	9821.09
269.976	9795.95
270.045	9765.99
270.114	9768.69
270.183	9754.24
270.253	9743.06
270.322	9711.18
270.391	9695.72
270.46	9695.33
270.529	9693.79
270.598	9692.11
270.667	9680.35
270.736	9661.52
270.806	9659.35
270.875	9659.16
270.944	9648.37
271.013	9664.55
271.082	9656.46
271.151	9656.75
271.22	9636.38
271.289	9620.78
271.358	9604.21
271.427	9592.51
271.496	9576.38
271.565	9552.1
271.634	9542.62
271.703	9548.78
271.772	9549.65
271.841	9536.46
271.91	9517.14
271.979	9501.11
272.048	9471.06
272.117	9465.85
272.186	9446.21
272.255	9441.39
272.324	9438.31
272.393	9432.48
272.462	9415
272.531	9408.55
272.6	9387.89
272.669	9388.71
272.738	9379.7
272.807	9376.09
272.876	9362.9
272.945	9389.29
273.013	9394.05
273.082	9397.67
273.151	9374.94
273.22	9365.93
273.289	9358.23
273.358	9367.09
273.427	9355.63
273.496	9357.31
273.564	9350.67
273.633	9348.79
273.702	9326.54
273.771	9310.85
273.84	9306.61
273.909	9299.77
273.977	9290.48
274.046	9279.21
274.115	9280.27
274.184	9262.65
274.253	9260.15
274.322	9268.09
274.39	9236.6
274.459	9219.79
274.528	9191.24
274.597	9179.49
274.665	9176.56
274.734	9181.18
274.803	9171.88
274.872	9170.68
274.94	9156.04
275.009	9178.58
275.078	9168.09
275.147	9171.26
275.215	9166.35
275.284	9175.84
275.353	9175.5
275.421	9148.45
275.49	9166.26
275.559	9156.68
275.627	9148.88
275.696	9138.19
275.765	9138.39
275.833	9132.56
275.902	9128.85
275.971	9146.47
276.039	9161.54
276.108	9167.9
276.177	9168.72
276.245	9149.84
276.314	9141.13
276.383	9147.05
276.451	9113.34
276.52	9117.24
276.588	9128.61
276.657	9130.63
276.725	9109.88
276.794	9104.24
276.863	9115.8
276.931	9088.4
277	9096.39
277.068	9105.35
277.137	9114.4
277.205	9108.72
277.274	9122.97
277.342	9135.34
277.411	9108.67
277.48	9096.25
277.548	9084.55
277.617	9083.44
277.685	9079.88
277.754	9083.78
277.822	9075.21
277.89	9089.95
277.959	9079.02
278.027	9056.58
278.096	9043.34
278.164	9072.47
278.233	9062.6
278.301	9054.95
278.37	9062.17
278.438	9048.5
278.507	9049.12
278.575	9024.76
278.643	9018.6
278.712	8995.49
278.78	8975.75
278.849	8986.63
278.917	8987.64
278.985	8978.35
279.054	8975.75
279.122	8983.31
279.191	8972.67
279.259	8967.47
279.327	8945.47
279.396	8963.43
279.464	8961.98
279.532	8970.51
279.601	8957.74
279.669	8947.78
279.737	8956.2
279.806	8959.72
279.874	8963.52
279.942	8962.08
280.011	8957.84
280.079	8957.89
280.147	8975.27
280.215	8982.2
280.284	8976.14
280.352	8967.95
280.42	8980.9
280.488	8974.45
280.557	8968.53
280.625	8976.62
280.693	8974.31
280.761	8974.79
280.83	8948.74
280.898	8956.78
280.966	8939.21
281.034	8914.52
281.102	8906.33
281.171	8901.86
281.239	8905.32
281.307	8892.61
281.375	8879.71
281.443	8908.74
281.512	8910.62
281.58	8920.92
281.648	8901.91
281.716	8896.66
281.784	8893.05
281.852	8884.87
281.92	8880.87
281.989	8890.84
282.057	8871.59
282.125	8919.2
282.193	8916.51
282.261	8925.36
282.329	8918.87
282.397	8925.65
282.465	8927.05
282.533	8941.3
282.601	8930.08
282.67	8913.47
282.738	8918.14
282.806	8929.21
282.874	8908.41
282.942	8911.45
283.01	8897.2
283.078	8908.41
283.146	8910.82
283.214	8919.96
283.282	8915.63
283.35	8926.7
283.418	8920.4
283.486	8921.79
283.554	8875.38
283.622	8872.83
283.69	8862.96
283.758	8859.2
283.826	8859.64
283.894	8870.37
283.962	8888.57
284.03	8905.61
284.098	8900.85
284.165	8887.8
284.233	8887.03
284.301	8889.39
284.369	8883.71
284.437	8879.91
284.505	8868.07
284.573	8879.96
284.641	8866.57
284.709	8877.74
284.777	8860.51
284.845	8862.87
284.912	8871
284.98	8878.41
285.048	8872.93
285.116	8879.52
285.184	8891.22
285.252	8889.87
285.319	8868.55
285.387	8855.98
285.455	8839.86
285.523	8849.39
285.591	8851.17
285.659	8852.27
285.726	8855.64
285.794	8838.7
285.862	8836.58
285.93	8832.54
285.997	8828.11
286.065	8822.77
286.133	8811.36
286.201	8808.28
286.269	8796.73
286.336	8794.61
286.404	8786.52
286.472	8795.57
286.539	8773.1
286.607	8759.52
286.675	8759.52
286.743	8774.97
286.81	8772.04
286.878	8783.3
286.946	8773.48
287.013	8770.26
287.081	8772.76
287.149	8759.23
287.216	8773.58
287.284	8764.38
287.352	8771.84
287.419	8770.01
287.487	8787.1
287.555	8790.71
287.622	8792.25
287.69	8797.5
287.758	8798.41
287.825	8795.52
287.893	8780.32
287.96	8787.24
288.028	8795.52
288.096	8790.95
288.163	8787.24
288.231	8774.97
288.298	8775.84
288.366	8790.9
288.433	8789.41
288.501	8778.48
288.569	8784.12
288.636	8778.53
288.704	8792.35
288.771	8801.78
288.839	8791.87
288.906	8784.26
288.974	8789.94
289.041	8787.49
289.109	8776.66
289.176	8786.81
289.244	8788.21
289.311	8798.17
289.379	8813.91
289.446	8813.48
289.514	8817.09
289.581	8820.79
289.649	8823.2
289.716	8817.81
289.783	8807.31
289.851	8824.31
289.918	8819.25
289.986	8824.55
290.053	8834.41
290.121	8829.94
290.188	8824.35
290.255	8847.27
290.323	8846.98
290.39	8841.78
290.458	8845.92
290.525	8862.77
290.592	8853.09
290.66	8855.54
290.727	8855.54
290.794	8866.13
290.862	8863.68
290.929	8867.34
290.996	8869.41
291.064	8880.58
291.131	8894.2
291.198	8908.98
291.266	8905.99
291.333	8914.85
291.4	8917.5
291.468	8932.37
291.535	8931.65
291.602	8936.56
291.669	8928.71
291.737	8925.73
291.804	8928.96
291.871	8948.55
291.938	8954.81
292.006	8987.55
292.073	9002.42
292.14	9015.9
292.207	9009.55
292.275	9019.46
292.342	9033.04
292.409	9053.45
292.476	9072.13
292.543	9064.09
292.611	9067.56
292.678	9085.57
292.745	9104.1
292.812	9117.97
292.879	9112.14
292.946	9115.41
293.014	9133.03
293.081	9144.35
293.148	9154.6
293.215	9168.03
293.282	9159.8
293.349	9166.49
293.416	9147.86
293.484	9157.15
293.551	9163.07
293.618	9180.31
293.685	9203.71
293.752	9193.99
293.819	9190.52
293.886	9178.43
293.953	9181.23
294.02	9189.17
294.087	9196.97
294.154	9191.92
294.221	9204.68
294.288	9208.53
294.356	9223.65
294.423	9224.8
294.49	9218.88
294.557	9237.66
294.624	9228.27
294.691	9242.47
294.758	9239.49
294.825	9245.89
294.892	9237.94
294.959	9239.53
295.026	9239.97
295.093	9224.99
295.16	9227.45
295.226	9223.79
295.293	9247.77
295.36	9261.1
295.427	9267.6
295.494	9276.51
295.561	9277.19
295.628	9294.62
295.695	9308.59
295.762	9312.05
295.829	9326.65
295.896	9339.69
295.963	9350.38
296.03	9360.25
296.096	9369.21
296.163	9386.59
296.23	9409.85
296.297	9425.69
296.364	9421.36
296.431	9434.41
296.498	9431.72
296.564	9455.41
296.631	9464.7
296.698	9449.63
296.765	9463.45
296.832	9453.58
296.899	9443.75
296.965	9465.13
297.032	9451.36
297.099	9468.5
297.166	9477.31
297.233	9468.41
297.299	9463.73
297.366	9459.79
297.433	9466.72
297.5	9478.33
297.566	9471.3
297.633	9463.69
297.7	9464.17
297.767	9465.23
297.833	9471.97
297.9	9479.34
297.967	9460.56
298.033	9469.03
298.1	9498.51
298.167	9487.72
298.234	9495.66
298.3	9502.07
298.367	9502.55
298.434	9507.85
298.5	9492.53
298.567	9490.51
298.634	9489.93
298.7	9511.17
298.767	9512.42
298.834	9524.32
298.9	9515.21
298.967	9517.48
299.033	9524.89
299.1	9545.7
299.167	9562.02
299.233	9554.13
299.3	9568.19
299.366	9588.7
299.433	9605.46
299.5	9585.43
299.566	9591.64
299.633	9606.09
299.699	9617.26
299.766	9613.6
299.832	9616.68
299.899	9629.35
299.965	9636.09
300.032	9636.72
300.099	9639.61
300.165	9638.07
300.232	9637.87
300.298	9644.37
300.365	9656.9
300.431	9659.35
300.498	9646.83
300.564	9656.7
300.631	9667.49
300.697	9680.88
300.763	9681.65
300.83	9675.68
300.896	9684.3
300.963	9695.47
301.029	9699.57
301.096	9700.77
301.162	9710.55
301.229	9699.95
301.295	9688.44
301.361	9698.03
301.428	9706.89
301.494	9693.35
301.561	9703.8
301.627	9700.77
301.693	9700.48
301.76	9700.48
301.826	9701.64
301.892	9711.94
301.959	9714.45
302.025	9712.52
302.092	9702.99
302.158	9706.65
302.224	9709.97
302.291	9697.54
302.357	9694.94
302.423	9685.17
302.49	9676.11
302.556	9683.87
302.622	9688.87
302.688	9698.31
302.755	9704.72
302.821	9710.6
302.887	9721.14
302.954	9723.02
303.02	9729.33
303.086	9733.76
303.152	9727.89
303.219	9718.4
303.285	9720.61
303.351	9734.54
303.417	9735.64
303.483	9729.53
303.55	9727.26
303.616	9724.18
303.682	9723.41
303.748	9711.18
303.815	9733.82
303.881	9747.59
303.947	9741.47
304.013	9743.79
304.079	9739.55
304.145	9724.28
304.212	9720.43
304.278	9707.81
304.344	9698.9
304.41	9683.58
304.476	9676.89
304.542	9672.51
304.608	9679.83
304.674	9670.24
304.741	9657.28
304.807	9660.08
304.873	9663.5
304.939	9677.61
305.005	9656.18
305.071	9660.37
305.137	9663.79
305.203	9630.17
305.269	9624.68
305.335	9636.77
305.401	9630.31
305.467	9626.94
305.533	9633.49
305.599	9632.96
305.666	9647.17
305.732	9646.25
305.798	9658.25
305.864	9679.34
305.93	9683.1
305.996	9676.55
306.062	9670.39
306.128	9663.88
306.194	9646.5
306.259	9648.09
306.325	9633.69
306.391	9646.35
306.457	9655.74
306.523	9651.94
306.589	9674.19
306.655	9663.16
306.721	9635.56
306.787	9625.06
306.853	9631.42
306.919	9612.25
306.985	9607.39
307.051	9598.91
307.117	9597.61
307.183	9594.96
307.248	9569.68
307.314	9574.97
307.38	9576.71
307.446	9580.22
307.512	9574.83
307.578	9585.47
307.644	9573.77
307.709	9578.78
307.775	9579.21
307.841	9573.43
307.907	9582.29
307.973	9561.63
308.039	9564.33
308.104	9571.07
308.17	9573.43
308.236	9563.99
308.302	9571.5
308.368	9558.26
308.433	9551.28
308.499	9543
308.565	9525.37
308.631	9524.46
308.696	9507.36
308.762	9494.79
308.828	9496.33
308.894	9475
308.959	9446.98
309.025	9440.96
309.091	9434.5
309.156	9428.87
309.222	9424.24
309.288	9412.78
309.354	9394.73
309.419	9386.93
309.485	9370.7
309.551	9372.91
309.616	9353.12
309.682	9349.9
309.748	9344.65
309.813	9345.03
309.879	9338.48
309.945	9337.38
310.01	9334.49
310.076	9328.81
310.141	9321.25
310.207	9303.38
310.273	9306.46
310.338	9314.79
310.404	9302.9
310.469	9286.48
310.535	9267.31
310.601	9251.09
310.666	9257.01
310.732	9265.82
310.797	9255.61
310.863	9250.36
310.928	9242.23
310.994	9248.1
311.059	9240.01
311.125	9236.26
311.191	9246.37
311.256	9230.19
311.322	9231.54
311.387	9202.85
311.453	9608.02
311.518	9583.28
311.584	9581.06
311.649	9583.18
311.715	9566.67
311.78	9565.27
311.846	9557.09
311.911	9563.63
311.976	9565.27
312.042	9544.33
312.107	9530.46
312.173	9520.35
312.238	9517.61
312.304	9511.2
312.369	9500.27
312.434	9488.91
312.5	9483.71
312.565	9448.8
312.631	9455.45
312.696	9444.37
312.761	9457.56
312.827	9038.96
312.892	9078.1
312.958	9069.82
313.023	9066.69
313.088	9070.63
313.154	9050.61
313.219	9041.75
313.284	9029.09
313.35	9022.01
313.415	9012.53
313.48	9009.79
313.546	9012.72
313.611	9018.64
313.676	9009.26
313.741	8997.66
313.807	9006.37
313.872	9007.19
313.937	9013.4
314.003	9021.49
314.068	9018.69
314.133	9015.32
314.198	9010.22
314.264	8987.88
314.329	8982.63
314.394	8976.76
314.459	8969.25
314.525	8991.92
314.59	8991.54
314.655	8984.03
314.72	8989.32
314.785	8984.8
314.851	8976.57
314.916	8960.34
314.981	8940.22
315.046	8935.65
315.111	8929.2
315.176	8908.88
315.242	8905.95
315.307	8898.44
315.372	8879.9
315.437	8873.4
315.502	8865.56
315.567	8872.78
315.632	8857.52
315.698	8856.85
315.763	8851.74
315.828	8842.12
315.893	8833.88
315.958	8826.86
316.023	8821.23
316.088	8798.36
316.153	8780.07
316.218	8775.12
316.283	8758.32
316.348	8740.47
316.413	8732.48
316.479	8719.63
316.544	8690.71
316.609	8662.31
316.674	8627.71
316.739	8590.66
316.804	8557.17
316.869	8516.46
316.934	8479.55
316.999	8443.89
317.064	8391.21
317.129	8348.38
317.194	8315.04
317.259	8267.06
317.324	8214.58
317.389	8161.28
317.454	8120.91
317.518	8095.08
317.583	8070.64
317.648	8044.28
317.713	8010.7
317.778	7955.48
317.843	7919.69
317.908	7882.23
317.973	7843.03
318.038	7808.41
318.103	7771
318.168	7736.77
318.233	7712.58
318.297	7660.17
318.362	7625.26
318.427	7586.95
318.492	7558.82
318.557	7507.19
318.622	7480.99
318.687	7455.95
318.751	7421.73
318.816	7379.19
318.881	7334.83
318.946	7277.62
319.011	7229.6
319.075	7182.89
319.14	7144.6
319.205	7103.03
319.27	7066.13
319.335	7025.19
319.399	6984.45
319.464	6949.58
319.529	6898.75
319.594	6856.37
319.658	6827.98
319.723	6787.2
319.788	6758.05
319.853	6701.13
319.917	6672.61
319.982	6611.23
320.047	6570.6
320.112	6535.41
320.176	6495.47
320.241	6462.67
320.306	6426.57
320.37	6385.57
320.435	6356.53
320.5	6324.94
320.564	6282.08
320.629	6241.14
320.694	6205.62
320.758	6168.24
320.823	6129.66
320.888	6097.66
320.952	6047.81
321.017	6000.31
321.082	5959.92
321.146	5923.55
321.211	5891.7
321.275	5849.64
321.34	5807.87
321.405	5764.57
321.469	5720.12
321.534	5678.93
321.598	5623.07
321.663	5590.32
321.727	5559.15
321.792	5506.42
321.857	5462.22
321.921	5422.92
321.986	5378.16
322.05	5319.27
322.115	5283.42
322.179	5238.43
322.244	5180.62
322.308	5145.17
322.373	5101.96
322.437	5058.18
322.502	5032.69
322.566	4982.83
322.631	4948.77
322.695	4907.41
322.76	4862.07
322.824	4827.55
322.889	4782.18
322.953	4742.41
323.018	4678.6
323.082	4612.66
323.146	4563.95
323.211	4514.86
323.275	4471.69
323.34	4431.27
323.404	4396.55
323.468	4347.42
323.533	4303.18
323.597	4263.32
323.662	4211.58
323.726	4175.66
323.79	4131.54
323.855	4066.58
323.919	4021.93
323.983	3976.32
324.048	3914
324.112	4037.7
324.177	3908.03
324.241	3705.85
324.305	3505.16
324.37	3309.68
324.434	3123.37
324.498	3081.58
324.562	3028.57
324.627	2967.88
324.691	2907.26
324.755	2844.08
324.82	2768.73
324.884	2693.73
324.948	2621.61
325.012	2528.36
325.077	2405.49
