Data from 20250630_urea_2M_MAYP1162681_21-02-27-326.txt Node
Date: Mon Jun 30 21:02:27 BST 2025
User: adleo
Spectrometer: MAYP116268
Trigger mode: 0
Integration Time (sec): 1.000000E0
Scans to average: 1
Electric dark correction enabled: true
Nonlinearity correction enabled: true
Boxcar width: 10
XAxis mode: Wavelengths
Number of Pixels in Spectrum: 2068
>>>>>Begin Spectral Data<<<<<
179.565	1137.84
179.642	1193.34
179.718	1235.31
179.795	1265.73
179.871	1296.15
179.948	1311.67
180.024	1329.82
180.101	1351.72
180.177	1365.43
180.254	1387.2
180.33	1407.99
180.407	1455.79
180.483	1546.63
180.56	1630.24
180.636	1707.62
180.712	1696.79
180.789	1706.43
180.865	1718.69
180.942	1726.2
181.018	1734.89
181.095	1746.82
181.171	1751.81
181.248	1750.1
181.324	1763.55
181.4	1772.87
181.477	1781.57
181.553	1794.3
181.63	1816.26
181.706	1830.09
181.782	1835.55
181.859	1833.27
181.935	1838.64
182.011	1835.46
182.088	1852.53
182.164	1874.45
182.24	1887.37
182.317	1896.21
182.393	1894.6
182.469	1906.44
182.546	1918.56
182.622	1923.69
182.698	1918.32
182.775	1931.82
182.851	1945.23
182.927	1938.48
183.003	1936.29
183.08	1930.25
183.156	1936.19
183.232	1931.53
183.308	1922.22
183.385	1933.24
183.461	1951.12
183.537	1954.45
183.613	1966.9
183.69	1955.92
183.766	1941.27
183.842	1948.93
183.918	1953.2
183.995	1965.52
184.071	1967.9
184.147	1964.57
184.223	1956.01
184.299	1967.52
184.375	1955.59
184.452	1961.68
184.528	2014.05
184.604	2022.65
184.68	2038.91
184.756	2048.37
184.832	2051.51
184.908	2056.79
184.985	2055.55
185.061	2041.29
185.137	2044.47
185.213	2033.44
185.289	2036.53
185.365	2030.64
185.441	2032.3
185.517	2046.15
185.593	2040.68
185.669	2038.4
185.745	2047.57
185.822	2059.84
185.898	2051.18
185.974	2059.55
186.05	2051.42
186.126	2010.98
186.202	2007.51
186.278	2001.61
186.354	1993.34
186.43	1999.67
186.506	1998.05
186.582	1996.48
186.658	2002.85
186.734	1987.49
186.81	1992.53
186.886	1993.25
186.962	2005.66
187.038	2000.52
187.114	1992.1
187.19	2000.56
187.266	1990.53
187.341	1991.53
187.417	1986.45
187.493	1988.78
187.569	1992.39
187.645	1988.35
187.721	1980.45
187.797	1985.68
187.873	1990.25
187.949	1984.31
188.025	1980.22
188.101	1980.03
188.176	1984.92
188.252	1979.03
188.328	1985.49
188.404	1981.74
188.48	1976.51
188.556	1968.99
188.632	1967.71
188.707	1969.71
188.783	1967.66
188.859	1963.39
188.935	1951.54
189.011	1957.58
189.086	1951.07
189.162	1941.8
189.238	1940.75
189.314	1939.99
189.39	1934.38
189.465	1926.96
189.541	1944.37
189.617	1930.86
189.693	1929.2
189.768	1932.01
189.844	1953.6
189.92	1946.99
189.996	1957.17
190.071	1969.67
190.147	1968.86
190.223	1976.71
190.298	1968.06
190.374	1952.03
190.45	1967.1
190.526	1978.51
190.601	1974.14
190.677	1975.71
190.753	2002.21
190.828	2002.21
190.904	2013.29
190.98	2027.46
191.055	2035.55
191.131	2024.56
191.207	2042.63
191.282	2050.71
191.358	2041.44
191.433	2029.83
191.509	2042.71
191.585	2039.38
191.66	2038.48
191.736	2048.09
191.811	2041.71
191.887	2056.89
191.963	2083.24
192.038	2085.66
192.114	2082.76
192.189	2086.52
192.265	2083.57
192.34	2064.73
192.416	2065.96
192.491	2061.39
192.567	2064.11
192.642	2067.53
192.718	2069.39
192.793	2056.83
192.869	2053.36
192.944	2056.21
193.02	2063.68
193.095	2064.68
193.171	2070.77
193.246	2071
193.322	2064.39
193.397	2062.68
193.473	2051.31
193.548	2034.14
193.624	2039.23
193.699	2039.32
193.775	2051.6
193.85	2053.55
193.925	2061.3
194.001	2058.73
194.076	2054.45
194.152	2042.23
194.227	2037.18
194.302	2025.92
194.378	2032.58
194.453	2031.53
194.529	2043.99
194.604	2031.29
194.679	2028.34
194.755	2009.71
194.83	2023.31
194.905	2025.36
194.981	2033.82
195.056	2024.55
195.131	2028.69
195.207	2028.74
195.282	2018.56
195.357	2002.15
195.433	2014.61
195.508	2003.67
195.583	2012.66
195.659	2024.88
195.734	2033.78
195.809	2032.07
195.884	2042.05
195.96	2039.62
196.035	2051.89
196.11	2050.13
196.185	2059.12
196.261	2061.31
196.336	2090.94
196.411	2075.43
196.486	2081.71
196.561	2076.81
196.637	2086.6
196.712	2101.11
196.787	2102.73
196.862	2117.9
196.937	2128.41
197.013	2133.12
197.088	2142.59
197.163	2164.14
197.238	2181.62
197.313	2180.33
197.388	2193.32
197.464	2224.02
197.539	2235.86
197.614	2228.06
197.689	2238.05
197.764	2255.76
197.839	2276.51
197.914	2271.37
197.989	2293.97
198.065	2306.3
198.14	2353.49
198.215	2380.81
198.29	2394.38
198.365	2407.94
198.44	2416.75
198.515	2442.5
198.59	2458.97
198.665	2482.44
198.74	2487.44
198.815	2487.68
198.89	2512.15
198.965	2540.59
199.04	2534.3
199.115	2549.01
199.19	2591.39
199.265	2594.77
199.34	2605.58
199.415	2635.89
199.49	2656.69
199.565	2667.27
199.64	2688.61
199.715	2685.13
199.79	2690.32
199.865	2697.52
199.94	2694.61
200.015	2724.43
200.09	2730.2
200.165	2735.39
200.24	2743.06
200.315	2780.64
200.39	2794.31
200.464	2797.17
200.539	2798.31
200.614	2816.85
200.689	2839.24
200.764	2843.01
200.839	2862.11
200.914	2866.45
200.989	2855.77
201.063	2867.87
201.138	2851.44
201.213	2853.54
201.288	2835.05
201.363	2837.15
201.438	2835.58
201.512	2853.63
201.587	2841.14
201.662	2843.24
201.737	2856.01
201.812	2865.59
201.886	2837.17
201.961	2846.28
202.036	2836.42
202.111	2835.65
202.186	2805.08
202.26	2787.92
202.335	2767.76
202.41	2759.09
202.485	2740.61
202.559	2722.89
202.634	2695.11
202.709	2699.97
202.784	2681.72
202.858	2682.87
202.933	2665.48
203.008	2661.29
203.082	2639.52
203.157	2635.19
203.232	2596.91
203.306	2577.94
203.381	2546.02
203.456	2521.97
203.53	2499
203.605	2481.58
203.68	2455.24
203.754	2451.62
203.829	2436.91
203.904	2419.67
203.978	2406.44
204.053	2412.58
204.127	2399.96
204.202	2398.58
204.277	2384.16
204.351	2376.88
204.426	2371.21
204.5	2366.17
204.575	2330.9
204.65	2341.85
204.724	2335.57
204.799	2343.99
204.873	2338.03
204.948	2333.23
205.022	2323.57
205.097	2311.81
205.171	2323.51
205.246	2332.85
205.32	2334.75
205.395	2333.08
205.469	2324.33
205.544	2334.66
205.618	2317.53
205.693	2330.38
205.767	2321.91
205.842	2341.85
205.916	2334.15
205.991	2325.43
206.065	2331.24
206.14	2345.65
206.214	2341.27
206.289	2334.89
206.363	2345.03
206.438	2347.41
206.512	2357.07
206.586	2379.78
206.661	2391.44
206.735	2372.22
206.81	2373.55
206.884	2384.55
206.958	2375.08
207.033	2390.02
207.107	2396.54
207.181	2423.68
207.256	2416.92
207.33	2431.77
207.405	2442.11
207.479	2463.39
207.553	2467.91
207.628	2450.36
207.702	2462.68
207.776	2455.78
207.851	2460.3
207.925	2474.78
207.999	2470.26
208.073	2466.74
208.148	2465.78
208.222	2456.69
208.296	2484.48
208.371	2502.64
208.445	2513.45
208.519	2541.3
208.593	2553.3
208.668	2547.29
208.742	2553.39
208.816	2558.96
208.89	2575.35
208.965	2574.97
209.039	2583.74
209.113	2602.64
209.187	2625.01
209.261	2619.06
209.336	2641.11
209.41	2660.79
209.484	2660.74
209.558	2686.04
209.632	2699.66
209.707	2708.18
209.781	2727.62
209.855	2745.96
209.929	2758.65
210.003	2766.08
210.077	2767.56
210.151	2814.25
210.226	2849.1
210.3	2875.71
210.374	2892.77
210.448	2900.06
210.522	2910.26
210.596	2918.46
210.67	2928.52
210.744	2974.82
210.818	3008.79
210.892	3027.15
210.966	3023.43
211.041	3042.78
211.115	3039.16
211.189	3063.57
211.263	3083.78
211.337	3095.99
211.411	3108.19
211.485	3107.24
211.559	3118.92
211.633	3124.64
211.707	3101.97
211.781	3110.8
211.855	3083.76
211.929	3088.05
212.003	3075.61
212.077	3094.88
212.151	3116.02
212.225	3138.05
212.299	3138.2
212.373	3145.92
212.447	3158.09
212.52	3202.13
212.594	3225.99
212.668	3256.85
212.742	3266.45
212.816	3287.78
212.89	3307.58
212.964	3337.37
213.038	3370.94
213.112	3417.92
213.186	3469.03
213.26	3483.49
213.333	3482.72
213.407	3527.92
213.481	3574.36
213.555	3636.35
213.629	3677.91
213.703	3715.13
213.777	3768.71
213.85	3807.84
213.924	3897.87
213.998	3966.29
214.072	4026.65
214.146	4082.26
214.219	4158.63
214.293	4233.5
214.367	4313.34
214.441	4406.34
214.515	4481
214.588	4555.33
214.662	4614.49
214.736	4684.8
214.81	4792.59
214.883	4903.43
214.957	5000.76
215.031	5095.56
215.105	5183.05
215.178	5282.58
215.252	5401.59
215.326	5496.22
215.4	5601.28
215.473	5686.05
215.547	5797.31
215.621	5915.94
215.694	6051.99
215.768	6165.07
215.842	6291.63
215.915	6411.27
215.989	6527.1
216.063	6658.94
216.136	6802.09
216.21	6950.17
216.284	7113.43
216.357	7267.06
216.431	7419.09
216.504	7584.8
216.578	7769.68
216.652	7943.33
216.725	8104.6
216.799	8266.7
216.873	8431.41
216.946	8602.29
217.02	8758.58
217.093	8912.74
217.167	9057.92
217.24	9208.42
217.314	9365.94
217.387	9522.75
217.461	9689.02
217.535	9868.56
217.608	10028.94
217.682	10193.54
217.755	10371.15
217.829	10530.37
217.902	10691.77
217.976	10856.75
218.049	11010.22
218.123	11155.08
218.196	11320.81
218.27	11485.15
218.343	11639.81
218.417	11810.13
218.49	11978.29
218.563	12156.82
218.637	12327.26
218.71	12507.91
218.784	12677.29
218.857	12844.31
218.931	13005.65
219.004	13169.64
219.077	13335.8
219.151	13497.57
219.224	13647.78
219.298	13797.79
219.371	13966.41
219.444	14108.67
219.518	14257.67
219.591	14406.33
219.665	14582.08
219.738	14720.29
219.811	14842.68
219.885	14991
219.958	15128.52
220.031	15259
220.105	15393.15
220.178	15534.09
220.251	15660.9
220.325	15791.81
220.398	15932.75
220.471	16068.43
220.544	16188.4
220.618	16300.84
220.691	16417.77
220.764	16528.05
220.838	16652.68
220.911	16754.96
220.984	16896.46
221.057	17008.22
221.131	17128.47
221.204	17202.11
221.277	17319.99
221.35	17454.89
221.424	17559.75
221.497	17667.75
221.57	17776.14
221.643	17885.82
221.716	17985.58
221.79	18073.72
221.863	18168.95
221.936	18257.38
222.009	18344.27
222.082	18444.02
222.155	18523.82
222.229	18639.48
222.302	18746.99
222.375	18826.46
222.448	18912.19
222.521	18990.16
222.594	19071.36
222.667	19124.61
222.74	19218.39
222.814	19294.34
222.887	19368.89
222.96	19437.17
223.033	19508.98
223.106	19578.27
223.179	19651.38
223.252	19705.83
223.325	19779.03
223.398	19838.7
223.471	19901.73
223.544	19962.4
223.617	20024.04
223.69	20086.35
223.763	20119.99
223.837	20169.14
223.91	20220.08
223.983	20247.74
224.056	20282.3
224.129	20337.19
224.202	20403.84
224.275	20445.28
224.348	20479.74
224.42	20511.74
224.493	20545.09
224.566	20575.84
224.639	20611.98
224.712	20637.14
224.785	20670.06
224.858	20693.24
224.931	20726.92
225.004	20746.73
225.077	20794.83
225.15	20798.35
225.223	20832.13
225.296	20887.46
225.369	20905.01
225.442	20930.6
225.514	20971.76
225.587	21007.85
225.66	21042.41
225.733	21073.64
225.806	21096.2
225.879	21126.85
225.952	21138.76
226.025	21175.34
226.097	21224.31
226.17	21252.07
226.243	21255.93
226.316	21283.54
226.389	21313.62
226.461	21349.09
226.534	21383.46
226.607	21394.4
226.68	21447.56
226.753	21468.67
226.825	21472.19
226.898	21499.18
226.971	21515.18
227.044	21539.96
227.117	21560.59
227.189	21575.92
227.262	21597.22
227.335	21611.63
227.407	21629.32
227.48	21657.66
227.553	21674.63
227.626	21676.8
227.698	21690.63
227.771	21717.58
227.844	21723.36
227.916	21740.23
227.989	21738.01
228.062	21741.63
228.134	21770.31
228.207	21778.02
228.28	21775.42
228.352	21774.7
228.425	21783.95
228.498	21803.42
228.57	21809.69
228.643	21826.37
228.716	21830.9
228.788	21829.74
228.861	21836.15
228.934	21850.66
229.006	21851.1
229.079	21857.03
229.151	21855.77
229.224	21856.74
229.296	21863.1
229.369	21902.87
229.442	21930.06
229.514	21929.62
229.587	21946.3
229.659	21933.05
229.732	21931.65
229.804	21953.29
229.877	21987.23
229.949	22005.69
230.022	22035.38
230.094	22043.48
230.167	22049.65
230.239	22039.43
230.312	22045.56
230.384	22072.5
230.457	22078.19
230.529	22088.41
230.602	22093.66
230.674	22100.61
230.747	22102.24
230.819	22108.75
230.892	22070.14
230.964	22064.6
231.037	22066.77
231.109	22063.34
231.181	22072.45
231.254	22070.19
231.326	22063.2
231.399	22048.4
231.471	22031.57
231.544	22006.41
231.616	22004.43
231.688	21989.35
231.761	21990.26
231.833	21984.53
231.905	21951.79
231.978	21941.86
232.05	21928.61
232.122	21912.65
232.195	21900.02
232.267	21904.41
232.339	21893.9
232.412	21909.33
232.484	21888.41
232.556	21870.04
232.629	21879.2
232.701	21877.71
232.773	21860.88
232.846	21851.29
232.918	21837.7
232.99	21836.68
233.062	21833.7
233.135	21814.9
233.207	21797.35
233.279	21786.31
233.351	21779.76
233.424	21776.82
233.496	21759.8
233.568	21768.58
233.64	21749.92
233.713	21736.14
233.785	21725.58
233.857	21716.28
233.929	21689.72
234.001	21692.03
234.074	21689.96
234.146	21656.75
234.218	21640.99
234.29	21631.49
234.362	21602.09
234.434	21577.12
234.507	21545.79
234.579	21500.1
234.651	21482.99
234.723	21467.42
234.795	21465.25
234.867	21439.85
234.939	21425.05
235.012	21404.62
235.084	21382.68
235.156	21364.95
235.228	21337.19
235.3	21309.47
235.372	21272.75
235.444	21259.2
235.516	21208.74
235.588	21195.53
235.66	21183.1
235.732	21147.82
235.804	21176.06
235.876	21171.68
235.948	21159.91
236.02	21142.81
236.092	21131.24
236.164	21110.08
236.236	21084.54
236.308	21043.91
236.38	21024.77
236.452	20984.05
236.524	20955.57
236.596	20945.44
236.668	20931.27
236.74	20908.96
236.812	20880.96
236.884	20874.21
236.956	20851.42
237.028	20817.92
237.1	20777.05
237.172	20759.46
237.244	20738.69
237.316	20663.98
237.388	20620.95
237.46	20588.95
237.532	20566.73
237.604	20525.23
237.675	20518.25
237.747	20501.28
237.819	20463.79
237.891	20428.13
237.963	20398.63
238.035	20365.91
238.107	20304.37
238.178	20287.74
238.25	20261.09
238.322	20250.25
238.394	20206.2
238.466	20161.04
238.538	20143.21
238.609	20118.78
238.681	20053.87
238.753	20016.32
238.825	19993.63
238.897	19960.71
238.968	19938.64
239.04	19902.74
239.112	19903.32
239.184	19854.35
239.255	19812.04
239.327	19790.74
239.399	19760.53
239.471	19734.02
239.542	19709.06
239.614	19691.04
239.686	19627.18
239.758	19603.47
239.829	19557.5
239.901	19540.78
239.973	19509.41
240.044	19483.87
240.116	19444.35
240.188	19433.84
240.259	19399.87
240.331	19360.93
240.403	19342.86
240.474	19293.37
240.546	19252.51
240.618	19200.36
240.689	19157.28
240.761	19132.13
240.833	19109.43
240.904	19071.94
240.976	19038.01
241.048	19014.21
241.119	18983.94
241.191	18957.87
241.262	18935.75
241.334	18906.7
241.405	18869.2
241.477	18835.95
241.549	18798.99
241.62	18785.64
241.692	18741.98
241.763	18733.26
241.835	18694.28
241.906	18657.22
241.978	18614.23
242.049	18605.9
242.121	18577.51
242.192	18563.2
242.264	18508.5
242.335	18466.1
242.407	18445.28
242.478	18414
242.55	18375.3
242.621	18330.68
242.693	18295.41
242.764	18250.93
242.836	18210.16
242.907	18173.1
242.979	18141.1
243.05	18109.34
243.122	18065.63
243.193	18036.81
243.264	17971.08
243.336	17935.95
243.407	17905.01
243.479	17884.82
243.55	17838.46
243.622	17809.88
243.693	17770.51
243.764	17761.02
243.836	17711.19
243.907	17673.74
243.978	17635.91
244.05	17598.75
244.121	17553.21
244.192	17525.31
244.264	17480.68
244.335	17446.22
244.407	17405.07
244.478	17376.87
244.549	17337.74
244.62	17293.16
244.692	17253.69
244.763	17233.69
244.834	17199.52
244.906	17165.26
244.977	17136.44
245.048	17114.51
245.119	17068.73
245.191	17024.97
245.262	16967.52
245.333	16951.03
245.405	16922.21
245.476	16893.83
245.547	16872.86
245.618	16849.25
245.689	16818.31
245.761	16793.34
245.832	16758.35
245.903	16726.4
245.974	16691.12
246.045	16651.89
246.117	16640.51
246.188	16602.92
246.259	16557.57
246.33	16524.26
246.401	16481.37
246.473	16439.82
246.544	16395.72
246.615	16373.6
246.686	16335.96
246.757	16316.34
246.828	16272.58
246.899	16253.11
246.97	16206.74
247.042	16160.13
247.113	16135.02
247.184	16124.9
247.255	16079.98
247.326	16050.34
247.397	16019.73
247.468	15990.28
247.539	15970.13
247.61	15917.26
247.681	15895.28
247.752	15878.02
247.823	15838.21
247.894	15818.06
247.965	15774.54
248.037	15753.14
248.108	15711.01
248.179	15680.07
248.25	15642.81
248.321	15624.88
248.392	15582.03
248.463	15580.39
248.534	15558.7
248.605	15535.8
248.675	15498.83
248.746	15477
248.817	15455.65
248.888	15424.07
248.959	15377.56
249.03	15346.57
249.101	15325.4
249.172	15285.4
249.243	15231.79
249.314	15221.96
249.385	15191.74
249.456	15173.08
249.527	15139.2
249.598	15116.35
249.669	15089.31
249.739	15077.79
249.81	15049.35
249.881	15001.63
249.952	14963.79
250.023	14926.91
250.094	14885.65
250.165	14839.62
250.235	14805.54
250.306	14771.89
250.377	14737.71
250.448	14715.44
250.519	14677.02
250.59	14663.77
250.66	14638.56
250.731	14630.55
250.802	14600.09
250.873	14580.76
250.944	14549.38
251.014	14504.59
251.085	14498.76
251.156	14473.21
251.227	14445.21
251.297	14429.39
251.368	14412.81
251.439	14400.76
251.51	14386.78
251.58	14344.89
251.651	14315.97
251.722	14313.89
251.792	14273.4
251.863	14251.32
251.934	14239.85
252.005	14235.27
252.075	14206.88
252.146	14188.03
252.217	14174.48
252.287	14153.95
252.358	14122.08
252.429	14121.31
252.499	14093.4
252.57	14065.25
252.641	14055.46
252.711	14036.61
252.782	13997.18
252.852	13998.44
252.923	13967.44
252.994	13943.62
253.064	13933.36
253.135	13900.87
253.205	13864.66
253.276	13863.94
253.347	13852.47
253.417	13825.33
253.488	13797.37
253.558	13765.45
253.629	13742.7
253.699	13724.72
253.77	13700.23
253.841	13674.87
253.911	13652.6
253.982	13632.02
254.052	13622.18
254.123	13599.04
254.193	13571.9
254.264	13587.72
254.334	13547.61
254.405	13509.48
254.475	13477.76
254.546	13460.79
254.616	13451.1
254.687	13431
254.757	13405.83
254.827	13380.62
254.898	13360.52
254.968	13334.78
255.039	13309.18
255.109	13290.81
255.18	13257.84
255.25	13220.33
255.321	13206.5
255.391	13167.84
255.461	13170.3
255.532	13117.41
255.602	13093.94
255.673	13046.6
255.743	13010.2
255.813	12965.76
255.884	12966.09
255.954	12950.91
256.024	12944.64
256.095	12928.83
256.165	12897.93
256.235	12890.36
256.306	12867.75
256.376	12864.24
256.446	12852.67
256.517	12834.93
256.587	12823.55
256.657	12799.88
256.728	12784.5
256.798	12760.45
256.868	12735.62
256.938	12708.97
257.009	12703.37
257.079	12689.88
257.149	12703.04
257.219	12659.41
257.29	12644.85
257.36	12600.75
257.43	12588.7
257.5	12540.1
257.571	12511.09
257.641	12494.55
257.711	12453.82
257.781	12432.08
257.852	12406.34
257.922	12363.77
257.992	12343.53
258.062	12320.63
258.132	12313.3
258.202	12289.97
258.273	12266.4
258.343	12265.53
258.413	12232.08
258.483	12201.76
258.553	12166.91
258.623	12140.25
258.693	12125.5
258.764	12122.56
258.834	12119.19
258.904	12100.15
258.974	12076
259.044	12065.3
259.114	12055.56
259.184	12038.89
259.254	12017
259.324	11974.92
259.394	11968.71
259.464	11961.91
259.535	11938.58
259.605	11909.51
259.675	11886.28
259.745	11881.03
259.815	11848.83
259.885	11820.73
259.955	11834.61
260.025	11804.1
260.095	11781.55
260.165	11770.56
260.235	11765.35
260.305	11737.88
260.375	11701.82
260.445	11707.95
260.515	11699.37
260.585	11689.05
260.655	11672.18
260.725	11667.51
260.795	11664.9
260.865	11663.65
260.934	11632.95
261.004	11621.91
261.074	11601.09
261.144	11601.91
261.214	11580.8
261.284	11563.54
261.354	11559.06
261.424	11527.2
261.494	11535.59
261.564	11510.33
261.634	11497.66
261.703	11456.5
261.773	11443.87
261.843	11435.48
261.913	11414.76
261.983	11376.4
262.053	11357.36
262.123	11338.13
262.192	11306.23
262.262	11296.63
262.332	11261.45
262.402	11254.61
262.472	11238.27
262.541	11209.11
262.611	11193.84
262.681	11174.56
262.751	11164.68
262.821	11146.9
262.89	11113.69
262.96	11094.42
263.03	11109.16
263.1	11095.09
263.169	11087.91
263.239	11076.05
263.309	11080.73
263.379	11068.87
263.448	11062.47
263.518	11055.81
263.588	11031.62
263.657	11033.31
263.727	11019.82
263.797	11007.14
263.867	10991.67
263.936	10966.23
264.006	10959.82
264.076	10942.67
264.145	10923.78
264.215	10903.68
264.285	10895.59
264.354	10873.13
264.424	10862.24
264.494	10824.99
264.563	10799.26
264.633	10801.72
264.702	10788.95
264.772	10749.14
264.842	10731.84
264.911	10712.67
264.981	10678.98
265.05	10673.92
265.12	10653.01
265.19	10641.01
265.259	10633.25
265.329	10619.67
265.398	10603.62
265.468	10620.53
265.537	10601.26
265.607	10595.53
265.676	10585.07
265.746	10573.75
265.815	10565.61
265.885	10540.12
265.955	10515.74
266.024	10502.73
266.094	10471.17
266.163	10470.59
266.232	10473.73
266.302	10455.27
266.371	10450.36
266.441	10437.3
266.51	10429.69
266.58	10412.3
266.649	10388.74
266.719	10392.01
266.788	10385.07
266.858	10390.57
266.927	10344.75
266.996	10334.2
267.066	10319.17
267.135	10296.86
267.205	10294.93
267.274	10285.35
267.343	10284.24
267.413	10270.36
267.482	10269.02
267.552	10258.66
267.621	10226.81
267.69	10195.55
267.76	10183.07
267.829	10171.56
267.898	10163.32
267.968	10138.22
268.037	10137.4
268.106	10130.95
268.176	10092.65
268.245	10074.72
268.314	10050.83
268.384	10053.77
268.453	10036.81
268.522	10028.57
268.592	10030.45
268.661	10004.78
268.73	9990.95
268.799	9970.72
268.869	9980.45
268.938	9948.71
269.007	9936.14
269.076	9926.98
269.146	9928.24
269.215	9924.86
269.284	9924.82
269.353	9906.03
269.422	9894.76
269.492	9869.76
269.561	9833.59
269.63	9832.34
269.699	9818.42
269.768	9806.95
269.838	9796.36
269.907	9792.17
269.976	9766.06
270.045	9737.79
270.114	9737.26
270.183	9723.63
270.253	9720.07
270.322	9684.09
270.391	9678.41
270.46	9683.51
270.529	9675.32
270.598	9667.57
270.667	9648.45
270.736	9626.68
270.806	9620.46
270.875	9620.9
270.944	9609.29
271.013	9630.05
271.082	9623.02
271.151	9618.01
271.22	9594.46
271.289	9580.83
271.358	9574.52
271.427	9564.31
271.496	9545.92
271.565	9521.94
271.634	9516.35
271.703	9514.95
271.772	9522.85
271.841	9509.56
271.91	9479.56
271.979	9477.34
272.048	9452.69
272.117	9450.37
272.186	9436.84
272.255	9431.78
272.324	9432.56
272.393	9428.7
272.462	9416.37
272.531	9403.42
272.6	9388.15
272.669	9392.34
272.738	9380.45
272.807	9370.29
272.876	9357.14
272.945	9386.28
273.013	9392.34
273.082	9394.94
273.151	9371.83
273.22	9368.41
273.289	9362.3
273.358	9368.56
273.427	9354.78
273.496	9356.61
273.564	9355.31
273.633	9354.4
273.702	9337.5
273.771	9320.55
273.84	9316.94
273.909	9305.09
273.977	9303.74
274.046	9293.44
274.115	9294.93
274.184	9273.75
274.253	9262.82
274.322	9272.11
274.39	9243.55
274.459	9222.8
274.528	9197.48
274.597	9191.41
274.665	9182.41
274.734	9187.56
274.803	9175.57
274.872	9164.4
274.94	9147.16
275.009	9193.64
275.078	9174.53
275.147	9168.27
275.215	9165.38
275.284	9167.26
275.353	9156.04
275.421	9133.08
275.49	9156.19
275.559	9144.44
275.627	9147.52
275.696	9150.89
275.765	9143
275.833	9133.27
275.902	9136.21
275.971	9141.26
276.039	9153.88
276.108	9152
276.177	9145.31
276.245	9140.93
276.314	9138.33
276.383	9144.49
276.451	9084.77
276.52	9087.51
276.588	9100.85
276.657	9097.33
276.725	9076.92
276.794	9076.87
276.863	9083.42
276.931	9052.22
277	9059.2
277.068	9062.76
277.137	9071.77
277.205	9074.17
277.274	9090.49
277.342	9095.36
277.411	9073.07
277.48	9055.4
277.548	9050.49
277.617	9054.2
277.685	9047.79
277.754	9050.83
277.822	9045.92
277.89	9054.82
277.959	9052.66
278.027	9030.66
278.096	9024.93
278.164	9059.16
278.233	9051.27
278.301	9038.22
278.37	9039.04
278.438	9025.8
278.507	9022.04
278.575	8992.97
278.643	8989.64
278.712	8969.67
278.78	8957.68
278.849	8975.29
278.917	8984.35
278.985	8974.96
279.054	8965.71
279.122	8970.87
279.191	8962.68
279.259	8958.3
279.327	8938.71
279.396	8952.38
279.464	8956.37
279.532	8963.21
279.601	8957.05
279.669	8952.38
279.737	8963.45
279.806	8966.1
279.874	8967.3
279.942	8966.24
280.011	8965.42
280.079	8968.31
280.147	8979.19
280.215	8981.65
280.284	8971.92
280.352	8958.44
280.42	8960.27
280.488	8961.81
280.557	8952.62
280.625	8958.49
280.693	8958.44
280.761	8958.64
280.83	8936.97
280.898	8942.46
280.966	8921.86
281.034	8884.74
281.102	8872.37
281.171	8866.5
281.239	8877.52
281.307	8872.95
281.375	8862.84
281.443	8885.28
281.512	8879.98
281.58	8889.22
281.648	8876.28
281.716	8879.36
281.784	8876.23
281.852	8871.85
281.92	8871.99
281.989	8881.38
282.057	8865.83
282.125	8911.09
282.193	8912.63
282.261	8910.08
282.329	8903.01
282.397	8906.04
282.465	8914.36
282.533	8932.65
282.601	8925.24
282.67	8897.95
282.738	8892.03
282.806	8908.92
282.874	8890.68
282.942	8896.79
283.01	8885.86
283.078	8895.83
283.146	8889.38
283.214	8897.41
283.282	8903.82
283.35	8909.59
283.418	8907.86
283.486	8913.83
283.554	8870.78
283.622	8865.49
283.69	8870.97
283.758	8867.32
283.826	8867.89
283.894	8873.72
283.962	8891.48
284.03	8901.69
284.098	8906.36
284.165	8900.92
284.233	8890.28
284.301	8885.66
284.369	8869.39
284.437	8860.05
284.505	8847.01
284.573	8859.13
284.641	8843.64
284.709	8847.01
284.777	8832.08
284.845	8834.35
284.912	8836.66
284.98	8840.46
285.048	8839.01
285.116	8836.94
285.184	8849.99
285.252	8853.26
285.319	8840.65
285.387	8829.82
285.455	8817.06
285.523	8815.19
285.591	8810.95
285.659	8813.12
285.726	8824.38
285.794	8813.17
285.862	8811.19
285.93	8814.95
285.997	8809.85
286.065	8810.71
286.133	8800.22
286.201	8791.8
286.269	8777.79
286.336	8769.94
286.404	8757.81
286.472	8769.36
286.539	8754.69
286.607	8733.41
286.675	8727.83
286.743	8739.04
286.81	8724.6
286.878	8737.6
286.946	8735.19
287.013	8734.95
287.081	8737.26
287.149	8724.02
287.216	8739.91
287.284	8739.14
287.352	8736.34
287.419	8735.96
287.487	8752.32
287.555	8759.64
287.622	8760.56
287.69	8765.9
287.758	8779.57
287.825	8777.93
287.893	8763.06
287.96	8767.49
288.028	8779.47
288.096	8785.82
288.163	8786.02
288.231	8783.13
288.298	8778.7
288.366	8793.91
288.433	8793.09
288.501	8777.26
288.569	8781.59
288.636	8786.5
288.704	8794.06
288.771	8803.06
288.839	8787.85
288.906	8779.62
288.974	8784.77
289.041	8785.83
289.109	8779.18
289.176	8781.59
289.244	8780.73
289.311	8795.21
289.379	8800.99
289.446	8805.37
289.514	8802.92
289.581	8798.25
289.649	8790.69
289.716	8791.36
289.783	8778.13
289.851	8797.48
289.918	8805.99
289.986	8812.35
290.053	8806.96
290.121	8805.08
290.188	8803.3
290.255	8837.96
290.323	8832.95
290.39	8824.09
290.458	8825.68
290.525	8835.84
290.592	8825.73
290.66	8829
290.727	8818.7
290.794	8831.55
290.862	8832.95
290.929	8841.13
290.996	8837.33
291.064	8851.38
291.131	8860.14
291.198	8876.75
291.266	8877.81
291.333	8875.36
291.4	8888.4
291.468	8905.16
291.535	8905.59
291.602	8914.49
291.669	8903.28
291.737	8910.5
291.804	8917.14
291.871	8935.19
291.938	8944.29
292.006	8976.93
292.073	8985.02
292.14	8992.58
292.207	8990.31
292.275	8985.93
292.342	8988.63
292.409	9015.2
292.476	9040.43
292.543	9032.1
292.611	9032.06
292.678	9042.12
292.745	9063.49
292.812	9067.68
292.879	9061.47
292.946	9065.17
293.014	9073.89
293.081	9078.85
293.148	9087.37
293.215	9097.33
293.282	9092.76
293.349	9102.1
293.416	9083.51
293.484	9105.28
293.551	9120.2
293.618	9137.77
293.685	9166.37
293.752	9164.06
293.819	9160.55
293.886	9146.87
293.953	9157.27
294.02	9162.42
294.087	9171.62
294.154	9167.05
294.221	9181.69
294.288	9181.11
294.356	9198.15
294.423	9204.99
294.49	9203.59
294.557	9218.9
294.624	9209.95
294.691	9227.28
294.758	9224.34
294.825	9232.14
294.892	9224.44
294.959	9217.79
295.026	9222.61
295.093	9214.14
295.16	9219.91
295.226	9226.8
295.293	9251.93
295.36	9258.77
295.427	9277.26
295.494	9286.07
295.561	9296.47
295.628	9316.56
295.695	9336.73
295.762	9336.73
295.829	9346.22
295.896	9361.24
295.963	9369.62
296.03	9387.15
296.096	9391.96
296.163	9408.33
296.23	9419.99
296.297	9429.14
296.364	9436.12
296.431	9444.69
296.498	9440.93
296.564	9463.85
296.631	9464.63
296.698	9453.65
296.765	9475.94
296.832	9460.05
296.899	9444.98
296.965	9463.08
297.032	9438.62
297.099	9456.24
297.166	9468.28
297.233	9465.54
297.299	9460.48
297.366	9461.11
297.433	9460.24
297.5	9478.21
297.566	9474.83
297.633	9476.91
297.7	9476.33
297.767	9473.54
297.833	9473.87
297.9	9478.69
297.967	9463.57
298.033	9476.09
298.1	9499.06
298.167	9486.68
298.234	9492.51
298.3	9509.89
298.367	9503.54
298.434	9515.72
298.5	9502.52
298.567	9497.08
298.634	9498.67
298.7	9512.59
298.767	9516.68
298.834	9532.77
298.9	9521.45
298.967	9514.95
299.033	9522.41
299.1	9540.95
299.167	9559.11
299.233	9553.38
299.3	9564.5
299.366	9576.11
299.433	9595.37
299.5	9570.81
299.566	9573.07
299.633	9586.17
299.699	9593.98
299.766	9595.76
299.832	9597.35
299.899	9608.86
299.965	9620.85
300.032	9609.77
300.099	9617.43
300.165	9616.13
300.232	9611.07
300.298	9609
300.365	9624.41
300.431	9626.73
300.498	9615.84
300.564	9611.8
300.631	9628.27
300.697	9647.48
300.763	9648.88
300.83	9635.97
300.896	9650.76
300.963	9663.57
301.029	9673.59
301.096	9673.83
301.162	9678.93
301.229	9677.87
301.295	9670.5
301.361	9672.43
301.428	9686.83
301.494	9676.14
301.561	9682.06
301.627	9685
301.693	9690.44
301.76	9690.39
301.826	9682.93
301.892	9699.74
301.959	9714.95
302.025	9704.7
302.092	9685.91
302.158	9697.57
302.224	9702.43
302.291	9697.57
302.357	9694.58
302.423	9686.49
302.49	9676.47
302.556	9685.04
302.622	9682.49
302.688	9682.83
302.755	9695.83
302.821	9701.32
302.887	9708.02
302.954	9705.32
303.02	9709.56
303.086	9713.27
303.152	9707.2
303.219	9703.78
303.285	9702.34
303.351	9705.95
303.417	9709.61
303.483	9708.6
303.55	9695.02
303.616	9694.63
303.682	9685.77
303.748	9679.17
303.815	9694.49
303.881	9707.01
303.947	9694.34
304.013	9695.79
304.079	9694.68
304.145	9673.49
304.212	9668.19
304.278	9657.55
304.344	9659.04
304.41	9643
304.476	9634.86
304.542	9636.74
304.608	9646.81
304.674	9632.79
304.741	9630.05
304.807	9635.83
304.873	9642.28
304.939	9657.26
305.005	9633.95
305.071	9639.39
305.137	9637.18
305.203	9611.89
305.269	9615.94
305.335	9633.13
305.401	9630.72
305.467	9627.88
305.533	9636.79
305.599	9645.46
305.666	9662.27
305.732	9653.89
305.798	9669.35
305.864	9690.64
305.93	9691.17
305.996	9686.83
306.062	9684.42
306.128	9680.81
306.194	9664.58
306.259	9660.15
306.325	9652.11
306.391	9663.81
306.457	9663.86
306.523	9669.73
306.589	9688.18
306.655	9674.4
306.721	9657.55
306.787	9645.31
306.853	9655.91
306.919	9638.72
306.985	9628.12
307.051	9614.78
307.117	9612.61
307.183	9604.81
307.248	9571.29
307.314	9573.89
307.38	9572.88
307.446	9579.33
307.512	9564.74
307.578	9568.3
307.644	9563.78
307.709	9561.18
307.775	9555.64
307.841	9552.85
307.907	9548.94
307.973	9534.45
308.039	9534.93
308.104	9536.9
308.17	9533.87
308.236	9515.18
308.302	9522.5
308.368	9511.52
308.433	9508.83
308.499	9505.12
308.565	9493.56
308.631	9504.25
308.696	9482.77
308.762	9472.47
308.828	9469
308.894	9452.29
308.959	9434.28
309.025	9431.01
309.091	9427.06
309.156	9420.32
309.222	9420.03
309.288	9410.59
309.354	9388.39
309.419	9388.59
309.485	9375.3
309.551	9376.45
309.616	9367.11
309.682	9361.23
309.748	9355.46
309.813	9350.93
309.879	9345.34
309.945	9333.5
310.01	9318.91
310.076	9320.21
310.141	9312.94
310.207	9300.61
310.273	9299.55
310.338	9303.21
310.404	9280.34
310.469	9267.82
310.535	9262.81
310.601	9241
310.666	9245.48
310.732	9256.27
310.797	9235.56
310.863	9225.35
310.928	9215.24
310.994	9219.57
311.059	9212.4
311.125	9206.53
311.191	9214.42
311.256	9197.19
311.322	9205.28
311.387	9190.01
311.453	9458.31
311.518	9435.3
311.584	9428.89
311.649	9437.61
311.715	9432.07
311.78	9435.73
311.846	9425.47
311.911	9425.14
311.976	9437.41
312.042	9420.32
312.107	9403.85
312.173	9396.39
312.238	9392.59
312.304	9393.31
312.369	9380.02
312.434	9371.11
312.5	9362.02
312.565	9329.57
312.631	9327.5
312.696	9313.73
312.761	9315.99
312.827	9040.62
312.892	9073.07
312.958	9069.26
313.023	9060.84
313.088	9054.53
313.154	9039.75
313.219	9030.46
313.284	9027.43
313.35	9018.96
313.415	9003.84
313.48	8999.36
313.546	9002.44
313.611	9007.11
313.676	8991.56
313.741	8981.7
313.807	8982.71
313.872	8988.39
313.937	8996.81
314.003	9012.65
314.068	9015.59
314.133	9019.68
314.198	9003.89
314.264	8981.5
314.329	8971.58
314.394	8967.25
314.459	8960.56
314.525	8982.51
314.59	8975.97
314.655	8959.74
314.72	8957.09
314.785	8961.52
314.851	8954.98
314.916	8935.43
314.981	8921.09
315.046	8920.51
315.111	8910.02
315.176	8899.28
315.242	8897.6
315.307	8893.84
315.372	8869.53
315.437	8856.82
315.502	8846.38
315.567	8859.61
315.632	8848.25
315.698	8853.89
315.763	8852.59
315.828	8845.32
315.893	8832.22
315.958	8827.32
316.023	8817.21
316.088	8803.83
316.153	8775.96
316.218	8766.91
316.283	8751.47
316.348	8728.08
316.413	8719.03
316.479	8706.08
316.544	8672.98
316.609	8642.51
316.674	8601.71
316.739	8574.04
316.804	8541.75
316.869	8503.69
316.934	8462.16
316.999	8431.98
317.064	8382.13
317.129	8335.5
317.194	8297.11
317.259	8251.78
317.324	8204.49
317.389	8162.4
317.454	8120.4
317.518	8092.21
317.583	8058.97
317.648	8036.07
317.713	8004.81
317.778	7946.56
317.843	7914.33
317.908	7875.96
317.973	7838.44
318.038	7812.86
318.103	7765.69
318.168	7737.17
318.233	7711.06
318.297	7661.25
318.362	7624.9
318.427	7577.4
318.492	7552.83
318.557	7506.4
318.622	7476.01
318.687	7449.09
318.751	7404.64
318.816	7367.14
318.881	7334.27
318.946	7286.92
319.011	7237.75
319.075	7191.52
319.14	7155.1
319.205	7108.25
319.27	7077.5
319.335	7030.17
319.399	6988.32
319.464	6964.3
319.529	6905.07
319.594	6862.46
319.658	6830.95
319.723	6777.06
319.788	6751.03
319.853	6691.61
319.917	6660.06
319.982	6604.4
320.047	6566.7
320.112	6536.98
320.176	6487.38
320.241	6447.72
320.306	6412.38
320.37	6371.86
320.435	6345.12
320.5	6316.32
320.564	6280.18
320.629	6235.64
320.694	6204.69
320.758	6159.48
320.823	6113.03
320.888	6086.93
320.952	6040.68
321.017	5999.61
321.082	5968.77
321.146	5931.77
321.211	5900.83
321.275	5861.36
321.34	5814.52
321.405	5766.66
321.469	5723.5
321.534	5683.13
321.598	5633.03
321.663	5605.73
321.727	5571.17
321.792	5516.99
321.857	5472.12
321.921	5431.28
321.986	5383.84
322.05	5325.19
322.115	5286.19
322.179	5241.11
322.244	5188.84
322.308	5151.57
322.373	5104.67
322.437	5060.5
322.502	5035.82
322.566	4987.49
322.631	4948.51
322.695	4914.85
322.76	4872.68
322.824	4837.91
322.889	4791.97
322.953	4744.69
323.018	4674.74
323.082	4607.9
323.146	4559.58
323.211	4504.93
323.275	4458.95
323.34	4419.3
323.404	4383.96
323.468	4341.43
323.533	4298.44
323.597	4255.13
323.662	4202.57
323.726	4166.66
323.79	4119.71
323.855	4052.07
323.919	4005.66
323.983	3963.97
324.048	3892.76
324.112	4045.87
324.177	3912.52
324.241	3711.93
324.305	3515.64
324.37	3322.02
324.434	3137.86
324.498	3095.86
324.562	3049.92
324.627	2992.34
324.691	2936.5
324.755	2875.86
324.82	2802.13
324.884	2730.26
324.948	2656.14
325.012	2567.73
325.077	2449.3
