Data from 20250630_urea_2M_MAYP1162681_05-52-26-760.txt Node
Date: Tue Jul 01 05:52:26 BST 2025
User: adleo
Spectrometer: MAYP116268
Trigger mode: 0
Integration Time (sec): 1.000000E0
Scans to average: 1
Electric dark correction enabled: true
Nonlinearity correction enabled: true
Boxcar width: 10
XAxis mode: Wavelengths
Number of Pixels in Spectrum: 2068
>>>>>Begin Spectral Data<<<<<
179.565	1046.59
179.642	1095.34
179.718	1131.91
179.795	1163.39
179.871	1189.15
179.948	1203.9
180.024	1222.89
180.101	1246.09
180.177	1257.83
180.254	1278.96
180.33	1298.69
180.407	1339.12
180.483	1423.55
180.56	1502.08
180.636	1574.28
180.712	1560.79
180.789	1570.62
180.865	1582.49
180.942	1592.37
181.018	1599.11
181.095	1609.18
181.171	1614.6
181.248	1617.02
181.324	1628.9
181.4	1639.97
181.477	1654.22
181.553	1666.71
181.63	1685.72
181.706	1697.08
181.782	1703.44
181.859	1701.87
181.935	1707.53
182.011	1705.96
182.088	1717.13
182.164	1733.53
182.24	1748.11
182.317	1758.28
182.393	1756
182.469	1767.07
182.546	1778.24
182.622	1783.6
182.698	1780.85
182.775	1792.78
182.851	1803.61
182.927	1798.48
183.003	1791.64
183.08	1781.56
183.156	1788.36
183.232	1783.41
183.308	1773.44
183.385	1781.75
183.461	1798.86
183.537	1796.63
183.613	1808.46
183.69	1805.09
183.766	1796.91
183.842	1800.85
183.918	1803.66
183.995	1816.87
184.071	1820.77
184.147	1817.35
184.223	1809.98
184.299	1822.1
184.375	1811.65
184.452	1819.26
184.528	1872.41
184.604	1878.25
184.68	1891.7
184.756	1899.69
184.832	1904.35
184.908	1911.05
184.985	1910.48
185.061	1892.66
185.137	1901.92
185.213	1892.47
185.289	1890.57
185.365	1882.72
185.441	1881.54
185.517	1893.42
185.593	1889.19
185.669	1883.73
185.745	1892.28
185.822	1904.87
185.898	1898.17
185.974	1907.25
186.05	1899.07
186.126	1861.46
186.202	1857.7
186.278	1852.86
186.354	1845.68
186.43	1850.72
186.506	1847.2
186.582	1849.81
186.658	1856.61
186.734	1838.93
186.81	1841.88
186.886	1845.92
186.962	1855.61
187.038	1851.1
187.114	1844.3
187.19	1852
187.266	1847.39
187.341	1848.86
187.417	1844.49
187.493	1843.25
187.569	1845.25
187.645	1840.35
187.721	1829.7
187.797	1837.45
187.873	1842.2
187.949	1835.12
188.025	1828.51
188.101	1831.56
188.176	1835.74
188.252	1833.22
188.328	1840.73
188.404	1840.01
188.48	1834.07
188.556	1827.75
188.632	1829.23
188.707	1829.75
188.783	1828.89
188.859	1824.09
188.935	1812.12
189.011	1817.72
189.086	1812.59
189.162	1806.41
189.238	1804.8
189.314	1801.42
189.39	1797.76
189.465	1789.73
189.541	1802.7
189.617	1790.78
189.693	1784.22
189.768	1787.26
189.844	1808.13
189.92	1800.87
189.996	1809.04
190.071	1821.11
190.147	1821.97
190.223	1830.05
190.298	1823.3
190.374	1811.75
190.45	1822.58
190.526	1831.57
190.601	1828.95
190.677	1829.81
190.753	1854.06
190.828	1855.78
190.904	1869.75
190.98	1880.73
191.055	1893.09
191.131	1886.67
191.207	1905.12
191.282	1916.43
191.358	1904.54
191.433	1892.13
191.509	1904.68
191.585	1898.69
191.66	1898.35
191.736	1904.34
191.811	1897.88
191.887	1911.81
191.963	1930.82
192.038	1935.06
192.114	1934.82
192.189	1937.05
192.265	1932.16
192.34	1911.42
192.416	1909.66
192.491	1905.76
192.567	1911.9
192.642	1912.52
192.718	1911.9
192.793	1901.91
192.869	1897.11
192.944	1901.34
193.02	1909.86
193.095	1914.04
193.171	1921.07
193.246	1920.55
193.322	1919.46
193.397	1920.69
193.473	1908.09
193.548	1893.5
193.624	1901.82
193.699	1898.44
193.775	1911.57
193.85	1914.94
193.925	1923.17
194.001	1924.78
194.076	1918.32
194.152	1907.76
194.227	1902.58
194.302	1895.45
194.378	1899.54
194.453	1896.26
194.529	1905.81
194.604	1891.79
194.679	1885.37
194.755	1866.5
194.83	1876.87
194.905	1872.97
194.981	1877.16
195.056	1870.36
195.131	1873.5
195.207	1867.74
195.282	1861.57
195.357	1844.88
195.433	1858.9
195.508	1847.11
195.583	1851.48
195.659	1865.7
195.734	1870.83
195.809	1868.65
195.884	1877.91
195.96	1878.53
196.035	1892.27
196.11	1890.8
196.185	1901.21
196.261	1905.01
196.336	1933.86
196.411	1921.64
196.486	1929.82
196.561	1927.68
196.637	1936.61
196.712	1950.83
196.787	1957.11
196.862	1971.47
196.937	1980.69
197.013	1983.21
197.088	1992.81
197.163	2014.98
197.238	2030.3
197.313	2029.5
197.388	2042.91
197.464	2070.45
197.539	2078.82
197.614	2073.35
197.689	2081.2
197.764	2095.09
197.839	2112.45
197.914	2106.84
197.989	2126.96
198.065	2140.37
198.14	2184.07
198.215	2210.47
198.29	2221.89
198.365	2232.6
198.44	2242.4
198.515	2268.53
198.59	2284.85
198.665	2306.97
198.74	2314.3
198.815	2314.02
198.89	2335.34
198.965	2360.76
199.04	2355.57
199.115	2368.94
199.19	2408.78
199.265	2414.39
199.34	2421.77
199.415	2451.73
199.49	2472.57
199.565	2482.04
199.64	2501.75
199.715	2498.61
199.79	2503.8
199.865	2507.66
199.94	2505.28
200.015	2531.32
200.09	2534.52
200.165	2540.99
200.24	2547.33
200.315	2582.17
200.39	2597.55
200.464	2601.41
200.539	2605.27
200.614	2619.7
200.689	2640.03
200.764	2645.37
200.839	2659.32
200.914	2663.98
200.989	2653.88
201.063	2668.17
201.138	2652.47
201.213	2654.28
201.288	2639.7
201.363	2642.42
201.438	2645.61
201.512	2660.6
201.587	2646.41
201.662	2651.13
201.737	2661.03
201.812	2669.94
201.886	2636.72
201.961	2644.3
202.036	2632.59
202.111	2627.54
202.186	2601.31
202.26	2585.3
202.335	2563.92
202.41	2561.96
202.485	2547.78
202.559	2530.92
202.634	2506.11
202.709	2513.1
202.784	2492.34
202.858	2489.06
202.933	2473.78
203.008	2470.73
203.082	2451.35
203.157	2450.78
203.232	2411.19
203.306	2393.42
203.381	2366.66
203.456	2352.19
203.53	2329.32
203.605	2317
203.68	2293.58
203.754	2291.96
203.829	2281.25
203.904	2264.98
203.978	2253.55
204.053	2258.74
204.127	2248.65
204.202	2245.85
204.277	2231.62
204.351	2227.01
204.426	2218.53
204.5	2212.4
204.575	2176.15
204.65	2185.1
204.724	2177
204.799	2182.9
204.873	2178.38
204.948	2173.91
205.022	2160.78
205.097	2153.54
205.171	2163.87
205.246	2173.05
205.32	2167.58
205.395	2164.58
205.469	2156.17
205.544	2160.45
205.618	2144.75
205.693	2154.03
205.767	2142.8
205.842	2159.93
205.916	2154.51
205.991	2148.99
206.065	2154.18
206.14	2170.53
206.214	2166.58
206.289	2163.58
206.363	2174.57
206.438	2177.57
206.512	2182.56
206.586	2200.21
206.661	2206.16
206.735	2184.72
206.81	2188.14
206.884	2202.55
206.958	2194.52
207.033	2207.02
207.107	2212.88
207.181	2240.77
207.256	2236.96
207.33	2256.37
207.405	2269.52
207.479	2287.22
207.553	2292.74
207.628	2275.33
207.702	2286.75
207.776	2278.99
207.851	2276.42
207.925	2293.08
207.999	2287.42
208.073	2286.85
208.148	2286.66
208.222	2278.57
208.296	2307.3
208.371	2319.63
208.445	2331.06
208.519	2357.66
208.593	2368.32
208.668	2366.37
208.742	2367.94
208.816	2369.13
208.89	2379.8
208.965	2379.75
209.039	2386.18
209.113	2405.46
209.187	2425.96
209.261	2423.67
209.336	2444.33
209.41	2464.18
209.484	2462.76
209.558	2484.99
209.632	2497.13
209.707	2507.17
209.781	2528.36
209.855	2544.03
209.929	2557.52
210.003	2561.14
210.077	2558.42
210.151	2602.22
210.226	2635.29
210.3	2659.51
210.374	2678.98
210.448	2682.7
210.522	2691.65
210.596	2700.42
210.67	2705.37
210.744	2745.59
210.818	2774.45
210.892	2793.94
210.966	2791.08
211.041	2808.33
211.115	2804.9
211.189	2828.96
211.263	2844.49
211.337	2850.4
211.411	2864.37
211.485	2862.41
211.559	2876.37
211.633	2885.85
211.707	2860.44
211.781	2870.69
211.855	2844
211.929	2840.53
212.003	2828.95
212.077	2841.3
212.151	2857.46
212.225	2872.52
212.299	2867.8
212.373	2862.94
212.447	2864.51
212.52	2899.17
212.594	2910.66
212.668	2930.44
212.742	2929.58
212.816	2935.4
212.89	2941.07
212.964	2951.75
213.038	2969.02
213.112	2994.39
213.186	3018.89
213.26	3019.75
213.333	2993
213.407	3014.4
213.481	3035.13
213.555	3066.77
213.629	3079.17
213.703	3087.04
213.777	3108.94
213.85	3119.91
213.924	3176.7
213.998	3208.63
214.072	3229.3
214.146	3243.95
214.219	3275.73
214.293	3305.6
214.367	3344.93
214.441	3393.28
214.515	3424.36
214.588	3445.56
214.662	3456.35
214.736	3483.65
214.81	3534.14
214.883	3587.3
214.957	3628.2
215.031	3669.4
215.105	3695.93
215.178	3735.82
215.252	3788.18
215.326	3820.42
215.4	3863.08
215.473	3881.15
215.547	3923.8
215.621	3972.24
215.694	4041.04
215.768	4080.14
215.842	4130.72
215.915	4186.88
215.989	4229.45
216.063	4287.68
216.136	4358
216.21	4431.71
216.284	4515.61
216.357	4590.31
216.431	4659.22
216.504	4744.05
216.578	4844.03
216.652	4935.87
216.725	5016.67
216.799	5107.71
216.873	5192.05
216.946	5281.35
217.02	5360.87
217.093	5442.88
217.167	5513.63
217.24	5588
217.314	5675.76
217.387	5760.8
217.461	5846.47
217.535	5949.07
217.608	6027.7
217.682	6117.19
217.755	6214.51
217.829	6290.68
217.902	6387.03
217.976	6480.48
218.049	6565.66
218.123	6645.4
218.196	6743.31
218.27	6825.97
218.343	6902.27
218.417	6996.57
218.49	7086.31
218.563	7190.48
218.637	7286.85
218.71	7399.61
218.784	7500.23
218.857	7610.6
218.931	7712.61
219.004	7808.26
219.077	7908.88
219.151	8017
219.224	8108.39
219.298	8200.03
219.371	8313.23
219.444	8391.85
219.518	8494.81
219.591	8589.32
219.665	8707.34
219.738	8800.8
219.811	8894.99
219.885	8994.24
219.958	9094.56
220.031	9190.45
220.105	9294.98
220.178	9388.73
220.251	9474.45
220.325	9577.85
220.398	9670.41
220.471	9767.26
220.544	9861.32
220.618	9945.67
220.691	10032.22
220.764	10125.05
220.838	10222.5
220.911	10305.32
220.984	10417.56
221.057	10508.86
221.131	10601.17
221.204	10658.18
221.277	10767.89
221.35	10880.94
221.424	10965.31
221.497	11050.65
221.57	11139.89
221.643	11227.03
221.716	11317.63
221.79	11398.16
221.863	11471.61
221.936	11547.91
222.009	11626.66
222.082	11713.03
222.155	11792.55
222.229	11884.52
222.302	11963.23
222.375	12038.76
222.448	12115.88
222.521	12181.67
222.594	12256.92
222.667	12324.5
222.74	12413.33
222.814	12476.38
222.887	12541.56
222.96	12627.17
223.033	12713.99
223.106	12793.04
223.179	12863.61
223.252	12937.03
223.325	13020.96
223.398	13093.12
223.471	13161.43
223.544	13233.01
223.617	13299.35
223.69	13363.94
223.763	13419.28
223.837	13495.79
223.91	13569.59
223.983	13620.93
224.056	13674.01
224.129	13732.24
224.202	13800.55
224.275	13850.92
224.348	13903.76
224.42	13954.28
224.493	13997.86
224.566	14048.67
224.639	14103.96
224.712	14157.95
224.785	14210.06
224.858	14247.66
224.931	14300.54
225.004	14345.95
225.077	14402.35
225.15	14431.61
225.223	14478.32
225.296	14561.71
225.369	14593.63
225.442	14633.49
225.514	14695.43
225.587	14756.56
225.66	14821.87
225.733	14884.78
225.806	14950.33
225.879	15002.78
225.952	15051.08
226.025	15119.38
226.097	15185.13
226.17	15234.34
226.243	15270.06
226.316	15321.4
226.389	15386.9
226.461	15446.96
226.534	15505.48
226.607	15558.31
226.68	15643.09
226.753	15709.61
226.825	15739.16
226.898	15811.94
226.971	15865.59
227.044	15922.22
227.117	15991.72
227.189	16043.3
227.262	16094.96
227.335	16144.9
227.407	16195.94
227.48	16249.68
227.553	16297.88
227.626	16335.86
227.698	16385.26
227.771	16439.39
227.844	16477.75
227.916	16525.08
227.989	16550.72
228.062	16590.77
228.134	16647.55
228.207	16674.3
228.28	16705.72
228.352	16746.59
228.425	16780.33
228.498	16831.03
228.57	16857.73
228.643	16896.29
228.716	16931.47
228.788	16963.03
228.861	16990.65
228.934	17037.16
229.006	17065.11
229.079	17095.91
229.151	17125.69
229.224	17146.56
229.296	17188.15
229.369	17256.53
229.442	17297.26
229.514	17326.17
229.587	17387.91
229.659	17410.13
229.732	17455.28
229.804	17502.32
229.877	17559.14
229.949	17617.64
230.022	17665.79
230.094	17708.68
230.167	17745.64
230.239	17767.09
230.312	17805.64
230.384	17867.9
230.457	17900.43
230.529	17944.14
230.602	17981.97
230.674	18030.4
230.747	18089.82
230.819	18127.85
230.892	18124.71
230.964	18159.46
231.037	18205.39
231.109	18224.95
231.181	18264.42
231.254	18288.56
231.326	18314.49
231.399	18331.84
231.471	18341.67
231.544	18351.98
231.616	18391.64
231.688	18416.32
231.761	18444.94
231.833	18465.66
231.905	18474.58
231.978	18511.2
232.05	18541.61
232.122	18568.21
232.195	18579.44
232.267	18607.63
232.339	18626.33
232.412	18660.25
232.484	18678.37
232.556	18693.79
232.629	18732.06
232.701	18754.85
232.773	18777.98
232.846	18789.02
232.918	18812.34
232.99	18844.05
233.062	18874.65
233.135	18886.75
233.207	18895.56
233.279	18923.95
233.351	18952.72
233.424	18950.21
233.496	18947.8
233.568	18975.56
233.64	18972.96
233.713	18980.91
233.785	18985.25
233.857	19002.3
233.929	19002.21
234.001	19023.8
234.074	19049.87
234.146	19042.4
234.218	19046.59
234.29	19053.87
234.362	19061.72
234.434	19050.3
234.507	19041.68
234.579	19035.7
234.651	19033.44
234.723	19046.88
234.795	19049.82
234.867	19042.4
234.939	19056.61
235.012	19059.12
235.084	19062.49
235.156	19078.69
235.228	19091.36
235.3	19084.28
235.372	19088.18
235.444	19109.29
235.516	19094.25
235.588	19095.41
235.66	19100.42
235.732	19090.4
235.804	19142.2
235.876	19147.74
235.948	19165.96
236.02	19164.9
236.092	19149.67
236.164	19155.98
236.236	19145.09
236.308	19136.71
236.38	19127.36
236.452	19122.39
236.524	19121.77
236.596	19128.27
236.668	19127.55
236.74	19115.6
236.812	19116.85
236.884	19107.79
236.956	19095.75
237.028	19073.05
237.1	19049.96
237.172	19049.82
237.244	19069.53
237.316	19026.4
237.388	19011.94
237.46	18992.57
237.532	18987.7
237.604	18980.23
237.675	18979.41
237.747	18973.54
237.819	18955.85
237.891	18956.19
237.963	18933.3
238.035	18927.18
238.107	18876.19
238.178	18873.69
238.25	18856.1
238.322	18859.18
238.394	18832.05
238.466	18809.59
238.538	18806.17
238.609	18798.22
238.681	18770.37
238.753	18746.8
238.825	18731.09
238.897	18724.44
238.968	18725.17
239.04	18699.29
239.112	18702.52
239.184	18670.33
239.255	18650.76
239.327	18644.64
239.399	18621.65
239.471	18621.99
239.542	18606.62
239.614	18613.32
239.686	18569.46
239.758	18561.18
239.829	18525.71
239.901	18521.47
239.973	18505.27
240.044	18489.61
240.116	18473.13
240.188	18450.92
240.259	18416.07
240.331	18386.2
240.403	18367.16
240.474	18327.12
240.546	18299.41
240.618	18258.44
240.689	18229.24
240.761	18213
240.833	18201.05
240.904	18169.15
240.976	18146.21
241.048	18111.85
241.119	18087.56
241.191	18070.98
241.262	18057.34
241.334	18034.5
241.405	18010.6
241.477	17977.54
241.549	17946.26
241.62	17923.04
241.692	17907.66
241.763	17899.86
241.835	17868.97
241.906	17839.33
241.978	17801.5
242.049	17791.81
242.121	17774.32
242.192	17762.85
242.264	17712.82
242.335	17668.54
242.407	17656.2
242.478	17618.75
242.55	17593.89
242.621	17558.13
242.693	17516.58
242.764	17485.84
242.836	17448.49
242.907	17415.19
242.979	17399.53
243.05	17382.13
243.122	17358.37
243.193	17322.61
243.264	17265.07
243.336	17235.14
243.407	17215.86
243.479	17201.79
243.55	17170.27
243.622	17147.86
243.693	17120.78
243.764	17110.17
243.836	17075.86
243.907	17035.52
243.978	17011.37
244.05	16990.75
244.121	16943.71
244.192	16936.48
244.264	16900.57
244.335	16882.98
244.407	16843.46
244.478	16813.15
244.549	16786.69
244.62	16739.41
244.692	16705.43
244.763	16689.48
244.834	16667.79
244.906	16631.79
244.977	16610.44
245.048	16598.34
245.119	16563.69
245.191	16525.28
245.262	16481.18
245.333	16467.68
245.405	16444.79
245.476	16418.13
245.547	16391.1
245.618	16375.72
245.689	16335.09
245.761	16307.47
245.832	16274.46
245.903	16254.36
245.974	16231.9
246.045	16192.47
246.117	16183.32
246.188	16151.12
246.259	16110.2
246.33	16071.78
246.401	16040.31
246.473	15985.99
246.544	15945.26
246.615	15921.36
246.686	15886.56
246.757	15871.95
246.828	15826.07
246.899	15815.94
246.97	15772.76
247.042	15730.34
247.113	15705.42
247.184	15696.46
247.255	15659.97
247.326	15631.63
247.397	15595.72
247.468	15573.69
247.539	15549.49
247.61	15509.15
247.681	15486.45
247.752	15479.84
247.823	15437.95
247.894	15400.12
247.965	15367.87
248.037	15338.51
248.108	15296.05
248.179	15262.79
248.25	15232.18
248.321	15210.3
248.392	15170.77
248.463	15167.97
248.534	15137.22
248.605	15117.36
248.675	15077.4
248.746	15051.37
248.817	15020.19
248.888	15001
248.959	14945.62
249.03	14918.19
249.101	14886.32
249.172	14856.53
249.243	14797.24
249.314	14786.01
249.385	14763.98
249.456	14742.44
249.527	14704.69
249.598	14683.53
249.669	14658.56
249.739	14633.2
249.81	14613.83
249.881	14565.67
249.952	14534.48
250.023	14506.86
250.094	14462.66
250.165	14432.96
250.235	14400.57
250.306	14382.83
250.377	14348.17
250.448	14327.68
250.519	14288.78
250.59	14275.28
250.66	14241.3
250.731	14237.54
250.802	14218.54
250.873	14199.36
250.944	14186.29
251.014	14160.84
251.085	14151.97
251.156	14136.88
251.227	14117.46
251.297	14102.03
251.368	14097.26
251.439	14077.16
251.51	14065.25
251.58	14029.87
251.651	13996.27
251.722	13982.33
251.792	13939.14
251.863	13905.25
251.934	13889.34
252.005	13886.55
252.075	13856.27
252.146	13837.91
252.217	13821.18
252.287	13793.03
252.358	13757.4
252.429	13740.24
252.499	13707.36
252.57	13684.27
252.641	13661.86
252.711	13641.71
252.782	13597.6
252.852	13582.75
252.923	13560.87
252.994	13535.61
253.064	13525.1
253.135	13498.49
253.205	13461.8
253.276	13455.15
253.347	13449.46
253.417	13419.76
253.488	13387.66
253.558	13367.41
253.629	13352.08
253.699	13324.51
253.77	13314.87
253.841	13297.8
253.911	13281.07
253.982	13262.27
254.052	13246.56
254.123	13231.08
254.193	13202.93
254.264	13218.5
254.334	13185.14
254.405	13141.71
254.475	13107.53
254.546	13080.63
254.616	13076.54
254.687	13056.72
254.757	13032.09
254.827	13010.25
254.898	12997.72
254.968	12976.89
255.039	12950.62
255.109	12926.47
255.18	12903.04
255.25	12856.09
255.321	12837.63
255.391	12801.95
255.461	12808.03
255.532	12757.32
255.602	12725.26
255.673	12682.98
255.743	12648.95
255.813	12607.54
255.884	12600.7
255.954	12592.98
256.024	12596.31
256.095	12566.62
256.165	12546.42
256.235	12539.09
256.306	12509.16
256.376	12492.86
256.446	12479.66
256.517	12457.82
256.587	12452.52
256.657	12423.3
256.728	12407.98
256.798	12389.37
256.868	12356.3
256.938	12320.58
257.009	12309.83
257.079	12296.19
257.149	12300.87
257.219	12259.32
257.29	12249
257.36	12212.22
257.43	12197.62
257.5	12156.11
257.571	12136.88
257.641	12123.1
257.711	12084.39
257.781	12069.06
257.852	12050.98
257.922	12015.89
257.992	11998.54
258.062	11971.69
258.132	11966.97
258.202	11946.05
258.273	11925.81
258.343	11929.23
258.413	11898.72
258.483	11879.1
258.553	11844.83
258.623	11825.5
258.693	11807.62
258.764	11798.22
258.834	11788.58
258.904	11774.99
258.974	11748.96
259.044	11724.72
259.114	11708.18
259.184	11698.74
259.254	11674.2
259.324	11637
259.394	11623.93
259.464	11616.27
259.535	11595.88
259.605	11574.05
259.675	11547.59
259.745	11538.82
259.815	11509.75
259.885	11493.75
259.955	11501.32
260.025	11482.57
260.095	11463
260.165	11455.97
260.235	11455.77
260.305	11432.21
260.375	11394.57
260.445	11399
260.515	11396.54
260.585	11383.58
260.655	11359.67
260.725	11352.49
260.795	11345.65
260.865	11336.78
260.934	11309.55
261.004	11292.92
261.074	11273.98
261.144	11271.48
261.214	11257.16
261.284	11240.58
261.354	11234.08
261.424	11203.43
261.494	11202.99
261.564	11178.03
261.634	11170.7
261.703	11132.92
261.773	11119.43
261.843	11110.56
261.913	11086.13
261.983	11055.33
262.053	11049.6
262.123	11034.8
262.192	11013.31
262.262	11002.85
262.332	10980.78
262.402	10971.1
262.472	10958.95
262.541	10923.63
262.611	10920.6
262.681	10893.56
262.751	10881.95
262.821	10855.78
262.89	10831.59
262.96	10819.74
263.03	10822.48
263.1	10800.85
263.169	10784.08
263.239	10781.52
263.309	10784.61
263.379	10777.24
263.448	10759.5
263.518	10743.6
263.588	10725.44
263.657	10719.56
263.727	10713.1
263.797	10695.22
263.867	10676.48
263.936	10652.29
264.006	10651.67
264.076	10624.59
264.145	10606.57
264.215	10588.02
264.285	10582.14
264.354	10553.04
264.424	10528.13
264.494	10495.27
264.563	10475.32
264.633	10480.67
264.702	10462.84
264.772	10434.99
264.842	10410.66
264.911	10404.2
264.981	10370.81
265.05	10357.56
265.12	10345.9
265.19	10329.86
265.259	10320.9
265.329	10309.14
265.398	10291.17
265.468	10298.64
265.537	10285.63
265.607	10280.04
265.676	10275.61
265.746	10261.25
265.815	10259.23
265.885	10243
265.955	10222.09
266.024	10206.1
266.094	10172.37
266.163	10169.19
266.232	10164.81
266.302	10148.91
266.371	10136.15
266.441	10123.53
266.51	10113.65
266.58	10095.3
266.649	10071.16
266.719	10071.79
266.788	10069.38
266.858	10076.51
266.927	10041.92
266.996	10029.97
267.066	10019.86
267.135	9989.46
267.205	9982.09
267.274	9966.73
267.343	9960.85
267.413	9949.29
267.482	9947.8
267.552	9943.9
267.621	9912.2
267.69	9875.4
267.76	9866.68
267.829	9859.89
267.898	9855.02
267.968	9831.76
268.037	9822.9
268.106	9821.02
268.176	9792.75
268.245	9774.54
268.314	9747.66
268.384	9741.45
268.453	9725.7
268.522	9713.66
268.592	9712.31
268.661	9700.65
268.73	9701.28
268.799	9690.3
268.869	9693.96
268.938	9662.12
269.007	9646.08
269.076	9644.69
269.146	9649.26
269.215	9643.05
269.284	9639.73
269.353	9618.54
269.422	9609.48
269.492	9585.79
269.561	9544.42
269.63	9535.03
269.699	9518.8
269.768	9508.26
269.838	9506.28
269.907	9500.17
269.976	9477.58
270.045	9447
270.114	9432.08
270.183	9414.26
270.253	9405.49
270.322	9374.96
270.391	9368.99
270.46	9367.36
270.529	9359.51
270.598	9352.09
270.667	9333.7
270.736	9312.89
270.806	9305.33
270.875	9301.77
270.944	9290.21
271.013	9317.95
271.082	9308.13
271.151	9307.64
271.22	9290.21
271.289	9266.96
271.358	9252.13
271.427	9249.09
271.496	9242.45
271.565	9232.92
271.634	9223.62
271.703	9225.98
271.772	9235.71
271.841	9224.54
271.91	9203.93
271.979	9194.78
272.048	9170.03
272.117	9171.19
272.186	9159.25
272.255	9164.4
272.324	9159.97
272.393	9154.58
272.462	9126.85
272.531	9117.07
272.6	9100.07
272.669	9094.3
272.738	9087.03
272.807	9086.26
272.876	9064.16
272.945	9086.74
273.013	9086.69
273.082	9086.6
273.151	9059.83
273.22	9049.29
273.289	9040.57
273.358	9048.95
273.427	9033.98
273.496	9037.25
273.564	9030.75
273.633	9028.39
273.702	9004.71
273.771	8992
273.84	8989.01
273.909	8989.83
273.977	8986.94
274.046	8978.57
274.115	8982.71
274.184	8968.41
274.253	8956.9
274.322	8966.15
274.39	8933.41
274.459	8921.28
274.528	8893.94
274.597	8889.75
274.665	8881.61
274.734	8885.13
274.803	8869.72
274.872	8862.16
274.94	8845.65
275.009	8895.06
275.078	8885.97
275.147	8879.04
275.215	8883.27
275.284	8889.29
275.353	8880.05
275.421	8858.29
275.49	8863.59
275.559	8854.1
275.627	8843.61
275.696	8830.14
275.765	8824.94
275.833	8819.69
275.902	8811.36
275.971	8822.58
276.039	8836.35
276.108	8844.19
276.177	8848.86
276.245	8839.14
276.314	8840.58
276.383	8847.61
276.451	8791.41
276.52	8787.13
276.588	8801.52
276.657	8797.19
276.725	8787.27
276.794	8783.13
276.863	8793.14
276.931	8775.67
277	8783.08
277.068	8792.76
277.137	8810.28
277.205	8803.44
277.274	8820.43
277.342	8832.03
277.411	8810.23
277.48	8798.2
277.548	8783.18
277.617	8781.73
277.685	8778.56
277.754	8777.21
277.822	8765.95
277.89	8776.25
277.959	8775.19
278.027	8753
278.096	8749.54
278.164	8773.51
278.233	8767.74
278.301	8750.55
278.37	8758.11
278.438	8748.39
278.507	8752.86
278.575	8731.11
278.643	8730.15
278.712	8708.92
278.78	8694.14
278.849	8707.38
278.917	8711.47
278.985	8706.8
279.054	8703.62
279.122	8715.32
279.191	8708.63
279.259	8707.91
279.327	8687.11
279.396	8700.88
279.464	8700.25
279.532	8701.75
279.601	8689.81
279.669	8685.28
279.737	8702.32
279.806	8700.59
279.874	8707.04
279.942	8704.77
280.011	8704.97
280.079	8714.59
280.147	8732.45
280.215	8736.39
280.284	8729.46
280.352	8715.75
280.42	8726.91
280.488	8717.53
280.557	8707.32
280.625	8709.63
280.693	8713.63
280.761	8712.52
280.83	8695.58
280.898	8706.5
280.966	8688.6
281.034	8659.58
281.102	8645.62
281.171	8641.34
281.239	8648.08
281.307	8640.23
281.375	8628.88
281.443	8649.62
281.512	8638.84
281.58	8643.27
281.648	8627.39
281.716	8627.87
281.784	8625.08
281.852	8617.66
281.92	8615.64
281.989	8625.17
282.057	8613.43
282.125	8644.19
282.193	8638.66
282.261	8635.58
282.329	8626.62
282.397	8629.9
282.465	8638.46
282.533	8654.73
282.601	8642.12
282.67	8623.44
282.738	8612.71
282.806	8626.96
282.874	8609.48
282.942	8613.86
283.01	8608.91
283.078	8610.69
283.146	8603.47
283.214	8609.29
283.282	8610.88
283.35	8622
283.418	8616.17
283.486	8617.14
283.554	8576.99
283.622	8578.92
283.69	8572.61
283.758	8565.73
283.826	8573.67
283.894	8576.22
283.962	8589.94
284.03	8602.31
284.098	8599.04
284.165	8598.7
284.233	8589.17
284.301	8587.87
284.369	8575.89
284.437	8562.36
284.505	8562.22
284.573	8576.7
284.641	8568.43
284.709	8572.04
284.777	8554.52
284.845	8556.92
284.912	8562.02
284.98	8569.72
285.048	8566.74
285.116	8572.66
285.184	8587.24
285.252	8577.95
285.319	8570.93
285.387	8566.4
285.455	8556.97
285.523	8564.86
285.591	8563.08
285.659	8564.96
285.726	8570.54
285.794	8561.45
285.862	8561.01
285.93	8555.1
285.997	8552.54
286.065	8545.62
286.133	8542.49
286.201	8540.27
286.269	8530.36
286.336	8523.29
286.404	8513.61
286.472	8520.98
286.539	8509.76
286.607	8498.65
286.675	8506.49
286.743	8510.63
286.81	8505.58
286.878	8513.08
286.946	8504.42
287.013	8503.65
287.081	8499.56
287.149	8490.71
287.216	8511.21
287.284	8499.27
287.352	8501.2
287.419	8496.24
287.487	8516.79
287.555	8517.37
287.622	8517.85
287.69	8523.14
287.758	8534.45
287.825	8533.68
287.893	8524.3
287.96	8527.71
288.028	8537.34
288.096	8535.17
288.163	8536.18
288.231	8524.49
288.298	8525.02
288.366	8535.56
288.433	8524.54
288.501	8525.26
288.569	8525.6
288.636	8523.62
288.704	8546.24
288.771	8555.72
288.839	8545.09
288.906	8536.09
288.974	8541
289.041	8538.49
289.109	8530.51
289.176	8538.06
289.244	8542.49
289.311	8557.36
289.379	8562.65
289.446	8562.17
289.514	8559.43
289.581	8560.83
289.649	8564.15
289.716	8561.35
289.783	8555.96
289.851	8574.87
289.918	8574.01
289.986	8587.63
290.053	8589.36
290.121	8586.71
290.188	8590.27
290.255	8618.57
290.323	8618.81
290.39	8613.81
290.458	8620.93
290.525	8635.42
290.592	8629.5
290.66	8629.54
290.727	8616.31
290.794	8625.84
290.862	8627.18
290.929	8634.21
290.996	8631.03
291.064	8638.69
291.131	8650.82
291.198	8663.57
291.266	8665.3
291.333	8663.47
291.4	8667.85
291.468	8686.34
291.535	8681.14
291.602	8690.96
291.669	8686.87
291.737	8687.01
291.804	8685.33
291.871	8702.27
291.938	8709.2
292.006	8736.3
292.073	8754.3
292.14	8767.39
292.207	8764.41
292.275	8763.98
292.342	8768.41
292.409	8795.94
292.476	8823.14
292.543	8820.97
292.611	8829.06
292.678	8847.69
292.745	8876.18
292.812	8883.64
292.879	8874.06
292.946	8878.39
293.014	8881.57
293.081	8887.73
293.148	8903.57
293.215	8920.61
293.282	8914.16
293.349	8918.49
293.416	8898.94
293.484	8907.66
293.551	8921.23
293.618	8938.51
293.685	8963.3
293.752	8959.41
293.819	8949.58
293.886	8933.84
293.953	8940
294.02	8942.84
294.087	8945.83
294.154	8934.9
294.221	8948.48
294.288	8949.01
294.356	8970.67
294.423	8977.36
294.49	8969.56
294.557	8977.22
294.624	8964.75
294.691	8984.73
294.758	8989.06
294.825	8993.87
294.892	8982.66
294.959	8980.15
295.026	8991.28
295.093	8983.14
295.16	8984.25
295.226	8991.13
295.293	9015.93
295.36	9019.3
295.427	9032.63
295.494	9046.11
295.561	9056.03
295.628	9075.29
295.695	9086.56
295.762	9089.16
295.829	9097.82
295.896	9114
295.963	9122.67
296.03	9139.76
296.096	9143.99
296.163	9156.42
296.23	9177.46
296.297	9200.76
296.364	9203.4
296.431	9205.86
296.498	9206.97
296.564	9229.01
296.631	9236.38
296.698	9218.13
296.765	9236.57
296.832	9223.62
296.899	9212.26
296.965	9233.2
297.032	9218.47
297.099	9243.84
297.166	9242.98
297.233	9241.34
297.299	9239.56
297.366	9239.61
297.433	9242.69
297.5	9252.99
297.566	9247.55
297.633	9243.51
297.7	9241.2
297.767	9243.84
297.833	9249.19
297.9	9249.33
297.967	9243.27
298.033	9249.96
298.1	9279.96
298.167	9271.39
298.234	9278.13
298.3	9288.87
298.367	9282.56
298.434	9284.82
298.5	9269.65
298.567	9266.76
298.634	9262.09
298.7	9271.24
298.767	9276.92
298.834	9285.88
298.9	9275.57
298.967	9271.43
299.033	9279.86
299.1	9288.72
299.167	9300.42
299.233	9297.34
299.3	9312.02
299.366	9325.22
299.433	9343.66
299.5	9320.64
299.566	9326.81
299.633	9340.29
299.699	9352.04
299.766	9347.37
299.832	9345.25
299.899	9351.27
299.965	9368.55
300.032	9375.34
300.099	9393.98
300.165	9395.33
300.232	9388.59
300.298	9390.56
300.365	9406.11
300.431	9408.57
300.498	9408.28
300.564	9415.94
300.631	9424.8
300.697	9435.39
300.763	9433.9
300.83	9422.1
300.896	9437.61
300.963	9443.77
301.029	9455.38
301.096	9451.23
301.162	9466.74
301.229	9469.29
301.295	9461.06
301.361	9465.25
301.428	9468.04
301.494	9450.61
301.561	9457.93
301.627	9469.44
301.693	9471.94
301.76	9472.32
301.826	9463.9
301.892	9474.06
301.959	9476.03
302.025	9471.65
302.092	9467.03
302.158	9474.88
302.224	9479.64
302.291	9468.76
302.357	9466.74
302.423	9455.42
302.49	9447.77
302.556	9452.63
302.622	9451.47
302.688	9460.24
302.755	9475.31
302.821	9484.03
302.887	9487.83
302.954	9486.05
303.02	9488.99
303.086	9498.91
303.152	9491.69
303.219	9492.26
303.285	9491.83
303.351	9495.49
303.417	9503.97
303.483	9500.59
303.55	9492.46
303.616	9491.45
303.682	9489.86
303.748	9484.9
303.815	9493.18
303.881	9505.03
303.947	9498.24
304.013	9503.48
304.079	9500.31
304.145	9475.65
304.212	9471.51
304.278	9468.09
304.344	9462.02
304.41	9451.67
304.476	9433.95
304.542	9435.05
304.608	9438.09
304.674	9427.93
304.741	9422.77
304.807	9417.81
304.873	9416.95
304.939	9429.27
305.005	9412.37
305.071	9408.76
305.137	9409.24
305.203	9394.27
305.269	9388.49
305.335	9400.91
305.401	9397.49
305.467	9392.05
305.533	9394.56
305.599	9394.22
305.666	9402.5
305.732	9399.23
305.798	9410.01
305.864	9439.58
305.93	9440.93
305.996	9447.05
306.062	9444.4
306.128	9442.23
306.194	9433.51
306.259	9435.73
306.325	9429.28
306.391	9439.29
306.457	9450.22
306.523	9455.47
306.589	9479.02
306.655	9474.45
306.721	9452.78
306.787	9439
306.853	9448.92
306.919	9435.06
306.985	9433.03
307.051	9421.57
307.117	9417
307.183	9407.56
307.248	9380.06
307.314	9383.14
307.38	9379.29
307.446	9382.71
307.512	9376.98
307.578	9381.89
307.644	9373.61
307.709	9373.71
307.775	9367.74
307.841	9365.23
307.907	9363.11
307.973	9338.36
308.039	9336.96
308.104	9336.53
308.17	9337.4
308.236	9326.95
308.302	9330.41
308.368	9316.06
308.433	9323.34
308.499	9316.93
308.565	9306.39
308.631	9304.8
308.696	9285.92
308.762	9277.88
308.828	9269.17
308.894	9248.03
308.959	9226.99
309.025	9219.48
309.091	9215.29
309.156	9207.39
309.222	9200.46
309.288	9188.18
309.354	9168.2
309.419	9169.93
309.485	9158.91
309.551	9159.97
309.616	9143.41
309.682	9138.64
309.748	9134.74
309.813	9120.44
309.879	9107.88
309.945	9093.1
310.01	9086.12
310.076	9084.72
310.141	9069.65
310.207	9056.46
310.273	9061.22
310.338	9066.62
310.404	9047.79
310.469	9037.68
310.535	9027.76
310.601	9012.84
310.666	9014.77
310.732	9026.75
310.797	9011.92
310.863	9004.17
310.928	9001.72
310.994	9008.46
311.059	9004.75
311.125	8996.18
311.191	9005.28
311.256	8999.99
311.322	9007.54
311.387	8993.25
311.453	9335.08
311.518	9315.64
311.584	9320.02
311.649	9323.78
311.715	9310.2
311.78	9314.44
311.846	9303.27
311.911	9308.13
311.976	9308.95
312.042	9297.83
312.107	9278.23
312.173	9266.58
312.238	9262.49
312.304	9252.82
312.369	9241.31
312.434	9232.55
312.5	9228.22
312.565	9198.85
312.631	9201.88
312.696	9191.63
312.761	9192.98
312.827	8837.09
312.892	8867.27
312.958	8857.54
313.023	8851.04
313.088	8849.31
313.154	8840.02
313.219	8829.53
313.284	8821.01
313.35	8812.63
313.415	8801.42
313.48	8795.74
313.546	8801.95
313.611	8807.39
313.676	8800.46
313.741	8788.14
313.807	8796.42
313.872	8803.64
313.937	8813.89
314.003	8824.96
314.068	8825.92
314.133	8829.44
314.198	8828.62
314.264	8814.51
314.329	8809.36
314.394	8799.83
314.459	8792.56
314.525	8806.14
314.59	8804.64
314.655	8796.03
314.72	8802.86
314.785	8800.75
314.851	8796.7
314.916	8775.62
314.981	8756.18
315.046	8747.8
315.111	8747.13
315.176	8733.79
315.242	8733.31
315.307	8725.61
315.372	8706.84
315.437	8695.05
315.502	8687.35
315.567	8693.94
315.632	8674.83
315.698	8675.31
315.763	8673.49
315.828	8664.44
315.893	8656.06
315.958	8648.03
316.023	8634.74
316.088	8614.72
316.153	8595.14
316.218	8588.3
316.283	8574.93
316.348	8561.46
316.413	8552.79
316.479	8531.72
316.544	8496.45
316.609	8466.37
316.674	8432.98
316.739	8402.04
316.804	8375.49
316.869	8341.47
316.934	8298.07
316.999	8269.35
317.064	8217.63
317.129	8173.22
317.194	8137.29
317.259	8091.49
317.324	8043.78
317.389	8000.49
317.454	7960.32
317.518	7928.34
317.583	7902.94
317.648	7871.01
317.713	7830.95
317.778	7772.9
317.843	7744.29
317.908	7708.61
317.973	7665
318.038	7630.67
318.103	7586.2
318.168	7548.46
318.233	7512.06
318.297	7467.83
318.362	7426.54
318.427	7386.89
318.492	7360.25
318.557	7316.04
318.622	7285.18
318.687	7259.23
318.751	7221.41
318.816	7185.95
318.881	7148.66
318.946	7089.06
319.011	7043.99
319.075	7004.89
319.14	6970.44
319.205	6923.79
319.27	6892.95
319.335	6849.53
319.399	6811.24
319.464	6785.69
319.529	6735.12
319.594	6700.92
319.658	6665.67
319.723	6628.5
319.788	6596.71
319.853	6545.81
319.917	6518.3
319.982	6468.17
320.047	6429.42
320.112	6399.18
320.176	6347.05
320.241	6309.8
320.306	6284.94
320.37	6244.77
320.435	6213.23
320.5	6182.14
320.564	6143.22
320.629	6097.4
320.694	6066.02
320.758	6023.65
320.823	5976.11
320.888	5948
320.952	5895.95
321.017	5854.61
321.082	5811.63
321.146	5772.93
321.211	5735.24
321.275	5692.7
321.34	5650.51
321.405	5602.76
321.469	5559.37
321.534	5523.04
321.598	5477.88
321.663	5443.88
321.727	5412.73
321.792	5361.88
321.857	5321.9
321.921	5282.8
321.986	5241.41
322.05	5183.49
322.115	5145.02
322.179	5102.49
322.244	5048.95
322.308	5010.59
322.373	4966.15
322.437	4928.12
322.502	4902.02
322.566	4858.25
322.631	4814.78
322.695	4776.2
322.76	4734.75
322.824	4694.5
322.889	4652.29
322.953	4605.93
323.018	4540.07
323.082	4479.5
323.146	4431.48
323.211	4379.58
323.275	4334.04
323.34	4287.75
323.404	4254.66
323.468	4207.65
323.533	4164.53
323.597	4120.94
323.662	4075.81
323.726	4036.28
323.79	3990.97
323.855	3929.77
323.919	3880.22
323.983	3841.79
324.048	3769.31
324.112	3895.96
324.177	3766.97
324.241	3569.58
324.305	3375.44
324.37	3186.4
324.434	3003.2
324.498	2961.12
324.562	2909.92
324.627	2852.69
324.691	2798.7
324.755	2734.96
324.82	2663.85
324.884	2588.31
324.948	2517.2
325.012	2422.2
325.077	2309.84
