Data from 20250630_urea_2M_MAYP1162681_21-12-27-281.txt Node
Date: Mon Jun 30 21:12:27 BST 2025
User: adleo
Spectrometer: MAYP116268
Trigger mode: 0
Integration Time (sec): 1.000000E0
Scans to average: 1
Electric dark correction enabled: true
Nonlinearity correction enabled: true
Boxcar width: 10
XAxis mode: Wavelengths
Number of Pixels in Spectrum: 2068
>>>>>Begin Spectral Data<<<<<
179.565	1132.28
179.642	1186.86
179.718	1230.05
179.795	1265.42
179.871	1294.62
179.948	1308.14
180.024	1328.63
180.101	1362.98
180.177	1376.95
180.254	1396.17
180.33	1418.54
180.407	1469.43
180.483	1558.89
180.56	1642.65
180.636	1721.6
180.712	1710.67
180.789	1719.89
180.865	1730.48
180.942	1737.41
181.018	1746.58
181.095	1759.04
181.171	1766.17
181.248	1765.98
181.324	1778.53
181.4	1784.51
181.477	1795.92
181.553	1810.46
181.63	1829.9
181.706	1834.27
181.782	1840.07
181.859	1843.25
181.935	1846.63
182.011	1841.21
182.088	1855.8
182.164	1871.97
182.24	1883.85
182.317	1894.59
182.393	1891.55
182.469	1903.91
182.546	1920.4
182.622	1927.01
182.698	1920.88
182.775	1929.34
182.851	1942.75
182.927	1934.33
183.003	1934.28
183.08	1925.35
183.156	1932.29
183.232	1932.15
183.308	1921.31
183.385	1928.63
183.461	1943.08
183.537	1946.03
183.613	1956.01
183.69	1950.64
183.766	1942.98
183.842	1949.17
183.918	1952.54
183.995	1964.66
184.071	1967.8
184.147	1963.48
184.223	1951.21
184.299	1966.14
184.375	1956.73
184.452	1963.01
184.528	2019.38
184.604	2026.32
184.68	2039.77
184.756	2048.38
184.832	2049.47
184.908	2055.75
184.985	2057.84
185.061	2041.58
185.137	2048.71
185.213	2039.68
185.289	2040.25
185.365	2033.74
185.441	2034.4
185.517	2046.87
185.593	2044.68
185.669	2043.58
185.745	2049.96
185.822	2065.03
185.898	2054.61
185.974	2062.31
186.05	2053.46
186.126	2013.22
186.202	2006.61
186.278	2002.04
186.354	1995.29
186.43	2001.19
186.506	1997.39
186.582	1994.2
186.658	2000
186.734	1979.51
186.81	1983.12
186.886	1984.41
186.962	1994.91
187.038	1992.49
187.114	1983.73
187.19	1991.15
187.266	1980.93
187.341	1982.31
187.417	1974.56
187.493	1975.56
187.569	1975.99
187.645	1971.71
187.721	1958.3
187.797	1966.24
187.873	1971.04
187.949	1964
188.025	1957.82
188.101	1958.06
188.176	1965.52
188.252	1962.96
188.328	1971.18
188.404	1967.42
188.48	1963.81
188.556	1958.2
188.632	1955.49
188.707	1960.15
188.783	1957.53
188.859	1955.87
188.935	1948.21
189.011	1955.82
189.086	1950.59
189.162	1943.79
189.238	1942.75
189.314	1941.56
189.39	1935.09
189.465	1929.34
189.541	1946.55
189.617	1932.77
189.693	1930.15
189.768	1931.77
189.844	1955.27
189.92	1948.56
189.996	1959.5
190.071	1970.67
190.147	1968.25
190.223	1977.24
190.298	1966.01
190.374	1953.13
190.45	1963.97
190.526	1969.06
190.601	1963.78
190.677	1965.68
190.753	1994.6
190.828	1996.7
190.904	2015.77
190.98	2032.46
191.055	2041.78
191.131	2032.65
191.207	2050.81
191.282	2060.42
191.358	2050.53
191.433	2037.16
191.509	2047.99
191.585	2043.9
191.66	2044.14
191.736	2054.56
191.811	2048.14
191.887	2066.74
191.963	2091.9
192.038	2094.61
192.114	2097.51
192.189	2099.46
192.265	2095.28
192.34	2074.96
192.416	2074.24
192.491	2067.01
192.567	2065.73
192.642	2069.15
192.718	2069.39
192.793	2059.73
192.869	2054.93
192.944	2058.02
193.02	2064.73
193.095	2069.3
193.171	2076.14
193.246	2075.72
193.322	2072.24
193.397	2071.29
193.473	2055.17
193.548	2036.9
193.624	2042.27
193.699	2039.61
193.775	2058.21
193.85	2060.78
193.925	2068.2
194.001	2066.96
194.076	2060.64
194.152	2052.6
194.227	2047.51
194.302	2035
194.378	2038.86
194.453	2036.19
194.529	2048.32
194.604	2032.53
194.679	2025.92
194.755	2006.38
194.83	2018.13
194.905	2013.81
194.981	2023.13
195.056	2018.23
195.131	2022.46
195.207	2019.37
195.282	2011.29
195.357	1991.69
195.433	2006.19
195.508	1995.35
195.583	2000.68
195.659	2013.61
195.734	2022.41
195.809	2019.94
195.884	2032.4
195.96	2030.54
196.035	2046.14
196.11	2043
196.185	2055.03
196.261	2060.59
196.336	2090.7
196.411	2076.09
196.486	2083.42
196.561	2077.23
196.637	2084.41
196.712	2098.92
196.787	2104.49
196.862	2117.05
196.937	2127.65
197.013	2131.93
197.088	2139.49
197.163	2164.05
197.238	2178.19
197.313	2176.67
197.388	2189.89
197.464	2217.5
197.539	2228.1
197.614	2222.16
197.689	2232.96
197.764	2249.66
197.839	2270.13
197.914	2266.79
197.989	2288.45
198.065	2301.67
198.14	2348.01
198.215	2374.18
198.29	2385.95
198.365	2398.61
198.44	2408.7
198.515	2433.55
198.59	2447.88
198.665	2475.82
198.74	2483.2
198.815	2485.25
198.89	2506.91
198.965	2534.25
199.04	2529.3
199.115	2542.63
199.19	2584.82
199.265	2587.34
199.34	2598.29
199.415	2626.7
199.49	2643.22
199.565	2656.6
199.64	2678.37
199.715	2679.18
199.79	2686.28
199.865	2690.56
199.94	2688.66
200.015	2722.35
200.09	2730.21
200.165	2737.73
200.24	2742.36
200.315	2782.47
200.39	2799.33
200.464	2803.81
200.539	2806.1
200.614	2825.3
200.689	2849.89
200.764	2855.61
200.839	2871.8
200.914	2875.76
200.989	2868.27
201.063	2884.24
201.138	2863
201.213	2863.09
201.288	2842.79
201.363	2845.94
201.438	2849.27
201.512	2865.66
201.587	2848.02
201.662	2850.93
201.737	2861.03
201.812	2870.47
201.886	2833.65
201.961	2839.75
202.036	2829.56
202.111	2825.84
202.186	2793.31
202.26	2775.01
202.335	2755.85
202.41	2752.28
202.485	2735.51
202.559	2715.17
202.634	2688.44
202.709	2698.49
202.784	2682.29
202.858	2680.95
202.933	2666.33
203.008	2657.99
203.082	2639.13
203.157	2637.61
203.232	2598.04
203.306	2577.93
203.381	2545.4
203.456	2525.58
203.53	2506.76
203.605	2486.34
203.68	2465.57
203.754	2460.53
203.829	2448
203.904	2426.96
203.978	2415.01
204.053	2418.01
204.127	2405.16
204.202	2404.73
204.277	2387.45
204.351	2380.93
204.426	2375.78
204.5	2367.12
204.575	2334.86
204.65	2344.09
204.724	2336.81
204.799	2342.71
204.873	2340.23
204.948	2339.52
205.022	2326.34
205.097	2318.29
205.171	2334.32
205.246	2342.51
205.32	2344.85
205.395	2344.65
205.469	2333.95
205.544	2342.14
205.618	2325.29
205.693	2337.95
205.767	2325.34
205.842	2347.77
205.916	2342.67
205.991	2331.35
206.065	2336.39
206.14	2351.8
206.214	2345.9
206.289	2338.14
206.363	2350.42
206.438	2352.99
206.512	2363.37
206.586	2382.4
206.661	2388.16
206.735	2366.09
206.81	2366.09
206.884	2378.32
206.958	2367.37
207.033	2387.97
207.107	2391.07
207.181	2422.4
207.256	2417.16
207.33	2435.77
207.405	2447.54
207.479	2466.16
207.553	2473.39
207.628	2456.6
207.702	2467.69
207.776	2461.88
207.851	2466.88
207.925	2481.93
207.999	2476.5
208.073	2471.93
208.148	2474.88
208.222	2462.45
208.296	2492.29
208.371	2506.92
208.445	2518.11
208.519	2545.34
208.593	2552.2
208.668	2554.58
208.742	2556.63
208.816	2556.3
208.89	2566.3
208.965	2561.54
209.039	2569.35
209.113	2588.21
209.187	2607.01
209.261	2604.48
209.336	2624.63
209.41	2638.82
209.484	2636.68
209.558	2661.21
209.632	2674.69
209.707	2687.51
209.781	2710.56
209.855	2726.81
209.929	2740.64
210.003	2745.73
210.077	2743.21
210.151	2793.71
210.226	2823.42
210.3	2853.23
210.374	2879.05
210.448	2885.72
210.522	2897.54
210.596	2907.12
210.67	2916.37
210.744	2967.15
210.818	2998.93
210.892	3021.01
210.966	3020.58
211.041	3037.93
211.115	3037.98
211.189	3065.87
211.263	3084.56
211.337	3091.04
211.411	3108.07
211.485	3109.36
211.559	3127.14
211.633	3138.38
211.707	3111.28
211.781	3126.03
211.855	3095.98
211.929	3093.74
212.003	3085.73
212.077	3105.58
212.151	3128.76
212.225	3148.66
212.299	3150.14
212.373	3154.19
212.447	3164.97
212.52	3212.3
212.594	3235.97
212.668	3265.74
212.742	3269.51
212.816	3287.22
212.89	3308.25
212.964	3333.42
213.038	3365.16
213.112	3406.8
213.186	3451.47
213.26	3466.83
213.333	3461.43
213.407	3507.91
213.481	3557.26
213.555	3619.2
213.629	3659.72
213.703	3691.87
213.777	3749.41
213.85	3786.64
213.924	3880.05
213.998	3942.53
214.072	4001.94
214.146	4058.55
214.219	4126.83
214.293	4205.44
214.367	4289.73
214.441	4383.19
214.515	4458.66
214.588	4526.13
214.662	4585.57
214.736	4666.55
214.81	4774.29
214.883	4884.51
214.957	4980.21
215.031	5075.25
215.105	5161.4
215.178	5259.2
215.252	5372.77
215.326	5466.11
215.4	5571.02
215.473	5647.68
215.547	5762.76
215.621	5879.57
215.694	6017.63
215.768	6130.59
215.842	6248.94
215.915	6368.01
215.989	6484.98
216.063	6622.45
216.136	6772.06
216.21	6919.12
216.284	7080.53
216.357	7227.95
216.431	7374.3
216.504	7536.87
216.578	7719.34
216.652	7894.1
216.725	8052.04
216.799	8223.74
216.873	8387.54
216.946	8561.65
217.02	8723.89
217.093	8879.39
217.167	9024.33
217.24	9172.71
217.314	9340.86
217.387	9504.07
217.461	9663.69
217.535	9845.15
217.608	10000
217.682	10162.57
217.755	10337.62
217.829	10485
217.902	10662.58
217.976	10826.68
218.049	10984.54
218.123	11133.25
218.196	11302.01
218.27	11463.99
218.343	11606.98
218.417	11771.57
218.49	11917.03
218.563	12088.27
218.637	12251.81
218.71	12435.12
218.784	12599.83
218.857	12764.29
218.931	12926.74
219.004	13090.92
219.077	13254.28
219.151	13410.27
219.224	13561.88
219.298	13710.45
219.371	13873.62
219.444	13999.58
219.518	14152.78
219.591	14301.01
219.665	14461.09
219.738	14600.45
219.811	14730.94
219.885	14883.55
219.958	15030.76
220.031	15171.08
220.105	15320.41
220.178	15459.71
220.251	15579.01
220.325	15718.21
220.398	15855.77
220.471	15984.18
220.544	16119.33
220.618	16234.42
220.691	16360.75
220.764	16479.27
220.838	16600.39
220.911	16715.87
220.984	16854.48
221.057	16971.45
221.131	17084.42
221.204	17167.8
221.277	17293.58
221.35	17427.51
221.424	17528.33
221.497	17628.14
221.57	17736.96
221.643	17831.32
221.716	17931.32
221.79	18019.03
221.863	18113.53
221.936	18193.28
222.009	18278.92
222.082	18364.6
222.155	18443.01
222.229	18542.67
222.302	18636.06
222.375	18716.63
222.448	18793.26
222.521	18866.51
222.594	18940.24
222.667	19004.42
222.74	19093.38
222.814	19153.09
222.887	19228.65
222.96	19302.87
223.033	19380.45
223.106	19450.81
223.179	19516.97
223.252	19582.27
223.325	19652.25
223.398	19708.44
223.471	19768.38
223.544	19833.44
223.617	19886.88
223.69	19947.27
223.763	19985.29
223.837	20035.22
223.91	20103.99
223.983	20143.84
224.056	20184.27
224.129	20246.01
224.202	20307.79
224.275	20343.4
224.348	20374.49
224.42	20391.79
224.493	20420.08
224.566	20451.59
224.639	20493.43
224.712	20523.02
224.785	20562.97
224.858	20598.05
224.931	20634.2
225.004	20664.18
225.077	20704.47
225.15	20722.35
225.223	20755.99
225.296	20818.16
225.369	20842.11
225.442	20852.96
225.514	20887.08
225.587	20924.86
225.66	20955.52
225.733	20986.6
225.806	21024.39
225.879	21061.11
225.952	21089.11
226.025	21125.31
226.097	21165.99
226.17	21190.62
226.243	21198.71
226.316	21213.08
226.389	21243.3
226.461	21263.01
226.534	21289.33
226.607	21303.64
226.68	21349.43
226.753	21366.39
226.825	21366.25
226.898	21394.25
226.971	21415.56
227.044	21442.35
227.117	21459.46
227.189	21476.14
227.262	21500.82
227.335	21520.44
227.407	21527.48
227.48	21550.76
227.553	21571.72
227.626	21571.77
227.698	21590.91
227.771	21619.49
227.844	21623.92
227.916	21634.82
227.989	21646.09
228.062	21660.99
228.134	21700.56
228.207	21711.99
228.28	21721.05
228.352	21728.62
228.425	21731.36
228.498	21761.1
228.57	21762.12
228.643	21780.43
228.716	21780.05
228.788	21782.22
228.861	21781.35
228.934	21808.58
229.006	21812.25
229.079	21818.27
229.151	21826.8
229.224	21821.6
229.296	21831.91
229.369	21873.51
229.442	21887.88
229.514	21886.38
229.587	21905.76
229.659	21888.65
229.732	21893.13
229.804	21905.38
229.877	21937.72
229.949	21957.05
230.022	21967.99
230.094	21976.38
230.167	21982.89
230.239	21978.16
230.312	21976.24
230.384	22011.09
230.457	22012.92
230.529	22018.71
230.602	22013.84
230.674	22018.22
230.747	22036.59
230.819	22055.29
230.892	22016.73
230.964	22024.54
231.037	22028.25
231.109	22026.66
231.181	22029.7
231.254	22013.89
231.326	22007.67
231.399	21990.26
231.471	21984.09
231.544	21947.07
231.616	21954.98
231.688	21954.93
231.761	21947.22
231.833	21944.18
231.905	21909.04
231.978	21905.81
232.05	21895.06
232.122	21903.59
232.195	21895.54
232.267	21887.3
232.339	21865.13
232.412	21878.24
232.484	21859.82
232.556	21850.95
232.629	21854.09
232.701	21857.7
232.773	21845.12
232.846	21835.63
232.918	21817.93
232.99	21816.49
233.062	21829.21
233.135	21820.92
233.207	21791.04
233.279	21784.72
233.351	21777.11
233.424	21755.75
233.496	21733.24
233.568	21743.46
233.64	21710.98
233.713	21693
233.785	21676.85
233.857	21670.44
233.929	21650.34
234.001	21654.72
234.074	21651.74
234.146	21616.16
234.218	21592.06
234.29	21582.04
234.362	21564.25
234.434	21534.8
234.507	21499.18
234.579	21463.66
234.651	21438.98
234.723	21436.62
234.795	21428.67
234.867	21409.72
234.939	21412.52
235.012	21394.25
235.084	21382.35
235.156	21370.63
235.228	21348.66
235.3	21328.32
235.372	21301.9
235.444	21279.73
235.516	21236.06
235.588	21206.66
235.66	21185.94
235.732	21144.39
235.804	21174.76
235.876	21155.92
235.948	21154.81
236.02	21138.95
236.092	21113.55
236.164	21083.28
236.236	21050.37
236.308	21019.76
236.38	20988.05
236.452	20958.84
236.524	20929.11
236.596	20909.68
236.668	20886.5
236.74	20861.54
236.812	20834.59
236.884	20810.06
236.956	20786.45
237.028	20747.99
237.1	20713.48
237.172	20702.98
237.244	20695.6
237.316	20634.97
237.388	20596.32
237.46	20561.09
237.532	20538.1
237.604	20507.98
237.675	20499.64
237.747	20474.2
237.819	20445.81
237.891	20422.34
237.963	20382.25
238.035	20351.93
238.107	20283.84
238.178	20269.19
238.25	20242.82
238.322	20240.17
238.394	20194.63
238.466	20171.12
238.538	20152.51
238.609	20130.1
238.681	20080.32
238.753	20038.64
238.825	20008.28
238.897	19980.81
238.968	19965.53
239.04	19928.66
239.112	19927.32
239.184	19886.4
239.255	19861.05
239.327	19831.75
239.399	19804.67
239.471	19777.15
239.542	19755.85
239.614	19747.8
239.686	19688.15
239.758	19647.62
239.829	19596.39
239.901	19577.93
239.973	19532.59
240.044	19511.62
240.116	19478.61
240.188	19452.74
240.259	19425.89
240.331	19379.87
240.403	19366.04
240.474	19322.86
240.546	19281.08
240.618	19223.83
240.689	19180.27
240.761	19146.44
240.833	19125.77
240.904	19090.78
240.976	19057.39
241.048	19024.09
241.119	18990.93
241.191	18969.54
241.262	18959.61
241.334	18926.84
241.405	18889.93
241.477	18858.55
241.549	18810.85
241.62	18779.33
241.692	18745.02
241.763	18727.57
241.835	18692.88
241.906	18655.39
241.978	18604.5
242.049	18582.72
242.121	18559.68
242.192	18538.67
242.264	18481.71
242.335	18431.35
242.407	18393.71
242.478	18357.86
242.55	18324.18
242.621	18277.09
242.693	18237.19
242.764	18196.33
242.836	18150.55
242.907	18126.21
242.979	18095.61
243.05	18071.37
243.122	18049.2
243.193	18019.03
243.264	17955.03
243.336	17921.64
243.407	17890.6
243.479	17872.72
243.55	17847.71
243.622	17817.11
243.693	17785.88
243.764	17775.91
243.836	17730.41
243.907	17697.07
243.978	17662.22
244.05	17628.39
244.121	17579.33
244.192	17553.64
244.264	17505.79
244.335	17482.42
244.407	17430.95
244.478	17396.1
244.549	17353.21
244.62	17301.07
244.692	17253.31
244.763	17231.52
244.834	17192.97
244.906	17158.08
244.977	17133.26
245.048	17109.55
245.119	17066.56
245.191	17019.42
245.262	16965.4
245.333	16952.05
245.405	16917.73
245.476	16897.35
245.547	16864.48
245.618	16847.27
245.689	16815.41
245.761	16789.29
245.832	16746.54
245.903	16722.45
245.974	16701.77
246.045	16663.84
246.117	16646.3
246.188	16612.37
246.259	16575.98
246.33	16545.18
246.401	16503.59
246.473	16452.02
246.544	16409.07
246.615	16383.87
246.686	16350.18
246.757	16328.15
246.828	16286.8
246.899	16269.54
246.97	16217.2
247.042	16177.1
247.113	16148.42
247.184	16135.84
247.255	16099.55
247.326	16077.47
247.397	16048.46
247.468	16009.9
247.539	15986.96
247.61	15940.35
247.681	15921.45
247.752	15907.04
247.823	15873.3
247.894	15843.61
247.965	15799.36
248.037	15763.94
248.108	15728.94
248.179	15691.97
248.25	15663.15
248.321	15636.64
248.392	15590.03
248.463	15579.81
248.534	15554.89
248.605	15533.87
248.675	15502.79
248.746	15466.88
248.817	15442.29
248.888	15421.95
248.959	15373.61
249.03	15351.58
249.101	15321.89
249.172	15283.81
249.243	15229
249.314	15214.1
249.385	15186.77
249.456	15169.37
249.527	15141.85
249.598	15105.5
249.669	15079.47
249.739	15051.47
249.81	15023.85
249.881	14983.36
249.952	14952.6
250.023	14919.92
250.094	14882.56
250.165	14841.06
250.235	14824.96
250.306	14799.27
250.377	14747.69
250.448	14731.16
250.519	14684.4
250.59	14675.29
250.66	14644.77
250.731	14632
250.802	14600.28
250.873	14572.52
250.944	14545.04
251.014	14503.92
251.085	14502.52
251.156	14485.46
251.227	14472.78
251.297	14463.67
251.368	14454.12
251.439	14438.6
251.51	14420.86
251.58	14379.89
251.651	14342.62
251.722	14327.78
251.792	14278.17
251.863	14251.18
251.934	14237.63
252.005	14238.89
252.075	14205.67
252.146	14190.58
252.217	14175.69
252.287	14159.64
252.358	14135.92
252.429	14127.15
252.499	14098.7
252.57	14076.1
252.641	14054.45
252.711	14030.97
252.782	13976.74
252.852	13973.32
252.923	13947.39
252.994	13923.33
253.064	13917.83
253.135	13894.07
253.205	13863.55
253.276	13858.83
253.347	13857.82
253.417	13826.63
253.488	13794.91
253.558	13774.42
253.629	13748.73
253.699	13725.59
253.77	13707.94
253.841	13682.92
253.911	13665.43
253.982	13645.66
254.052	13628.26
254.123	13611.92
254.193	13579.38
254.264	13605.99
254.334	13563.95
254.405	13525.58
254.475	13501.04
254.546	13479.2
254.616	13464.6
254.687	13441.6
254.757	13415.14
254.827	13387.03
254.898	13368.23
254.968	13340.27
255.039	13306.43
255.109	13296.16
255.18	13264.64
255.25	13219.08
255.321	13198.16
255.391	13160.37
255.461	13161.62
255.532	13114.52
255.602	13089.6
255.673	13060.87
255.743	13023.56
255.813	12982.73
255.884	12973.33
255.954	12957.32
256.024	12941.89
256.095	12924.59
256.165	12888.72
256.235	12879.13
256.306	12851.85
256.376	12842.69
256.446	12835.99
256.517	12826.63
256.587	12812.56
256.657	12798.58
256.728	12780.7
256.798	12761.99
256.868	12736.54
256.938	12708.29
257.009	12698.02
257.079	12684.28
257.149	12684.62
257.219	12644.47
257.29	12633.38
257.36	12593.52
257.43	12574.33
257.5	12531.77
257.571	12502.6
257.641	12494.55
257.711	12463.6
257.781	12454.3
257.852	12434.25
257.922	12393.95
257.992	12371.58
258.062	12335.14
258.132	12318.27
258.202	12303.76
258.273	12289.06
258.343	12292.86
258.413	12260.71
258.483	12234.78
258.553	12202.15
258.623	12164.69
258.693	12143.15
258.764	12139.43
258.834	12134.86
258.904	12123.33
258.974	12106.13
259.044	12090.46
259.114	12070.99
259.184	12055.27
259.254	12031.13
259.324	11992.18
259.394	11979.36
259.464	11969.72
259.535	11965.38
259.605	11946.63
259.675	11918.05
259.745	11899.44
259.815	11860.35
259.885	11833.36
259.955	11848.59
260.025	11821.6
260.095	11808.92
260.165	11801.31
260.235	11801.16
260.305	11771.86
260.375	11740
260.445	11735.13
260.515	11727.08
260.585	11723.47
260.655	11701.87
260.725	11699.27
260.795	11692.38
260.865	11691.12
260.934	11662.2
261.004	11640.9
261.074	11616.13
261.144	11608.56
261.214	11602.87
261.284	11585.76
261.354	11584.51
261.424	11546.96
261.494	11546.91
261.564	11524.36
261.634	11509.71
261.703	11465.36
261.773	11456.83
261.843	11446.42
261.913	11423.58
261.983	11395.14
262.053	11386.18
262.123	11369.79
262.192	11331.96
262.262	11320.92
262.332	11290.42
262.402	11278.03
262.472	11258.17
262.541	11221.26
262.611	11208.49
262.681	11182.8
262.751	11173.31
262.821	11150.66
262.89	11123.62
262.96	11114.32
263.03	11120.63
263.1	11109.11
263.169	11100.15
263.239	11094.61
263.309	11091.62
263.379	11086.56
263.448	11068.35
263.518	11047.38
263.588	11024.35
263.657	11023.14
263.727	11015.58
263.797	10999.58
263.867	10984.11
263.936	10959.82
264.006	10961.89
264.076	10947.05
264.145	10927.25
264.215	10904.12
264.285	10892.7
264.354	10862.68
264.424	10839.21
264.494	10809.28
264.563	10789.48
264.633	10788.32
264.702	10769.91
264.772	10731.22
264.842	10714.02
264.911	10701.92
264.981	10671.27
265.05	10657.4
265.12	10637.4
265.19	10618.61
265.259	10614.7
265.329	10605.84
265.398	10590.61
265.468	10600.97
265.537	10584.64
265.607	10571.82
265.676	10568.69
265.746	10565.7
265.815	10566.09
265.885	10550.72
265.955	10517.86
266.024	10493.34
266.094	10457.01
266.163	10456.38
266.232	10462.84
266.302	10438.6
266.371	10429.55
266.441	10416.83
266.51	10417.69
266.58	10400.98
266.649	10382.14
266.719	10376.69
266.788	10368.5
266.858	10373.7
266.927	10335.84
266.996	10317.87
267.066	10306.88
267.135	10278.36
267.205	10278.07
267.274	10267.76
267.343	10267.04
267.413	10261.89
267.482	10264.78
267.552	10260.15
267.621	10231.97
267.69	10198.82
267.76	10200.27
267.829	10188.13
267.898	10181.14
267.968	10160.67
268.037	10152.09
268.106	10142.84
268.176	10108.78
268.245	10093.56
268.314	10076.7
268.384	10075.49
268.453	10069.18
268.522	10062.92
268.592	10068.12
268.661	10040.04
268.73	10025.01
268.799	10001.74
268.869	10003.14
268.938	9973.37
269.007	9960.75
269.076	9947.7
269.146	9953.86
269.215	9937.19
269.284	9944.81
269.353	9926.02
269.422	9904.54
269.492	9888.26
269.561	9852.95
269.63	9849.87
269.699	9837.35
269.768	9826.51
269.838	9813.41
269.907	9816.39
269.976	9792.22
270.045	9756.91
270.114	9746.27
270.183	9736.54
270.253	9725.99
270.322	9704.66
270.391	9698.11
270.46	9702.49
270.529	9704.8
270.598	9700.9
270.667	9685.25
270.736	9661.64
270.806	9653.02
270.875	9658.42
270.944	9649.46
271.013	9667.33
271.082	9660.44
271.151	9647.96
271.22	9619.79
271.289	9608.76
271.358	9584.35
271.427	9577.36
271.496	9570.24
271.565	9555.98
271.634	9541.82
271.703	9541.2
271.772	9540.67
271.841	9527.47
271.91	9497.23
271.979	9485.72
272.048	9454.56
272.117	9451.33
272.186	9431.11
272.255	9431.11
272.324	9422.82
272.393	9416.28
272.462	9396.05
272.531	9384.01
272.6	9376.59
272.669	9383.14
272.738	9375.2
272.807	9372.21
272.876	9352.66
272.945	9371.92
273.013	9369.03
273.082	9373.95
273.151	9353
273.22	9352.37
273.289	9342.5
273.358	9354.11
273.427	9335.52
273.496	9334.46
273.564	9332.58
273.633	9333.93
273.702	9311.59
273.771	9300.08
273.84	9294.69
273.909	9296.42
273.977	9296.37
274.046	9288.04
274.115	9293.77
274.184	9278.7
274.253	9268.06
274.322	9276.01
274.39	9249.48
274.459	9236.57
274.528	9206.82
274.597	9201.04
274.665	9191.75
274.734	9193.91
274.803	9180.53
274.872	9174.08
274.94	9161.32
275.009	9187.71
275.078	9171.44
275.147	9168.31
275.215	9164.55
275.284	9167.88
275.353	9161.13
275.421	9133.16
275.49	9142.07
275.559	9125.6
275.627	9115.78
275.696	9104.61
275.765	9097.58
275.833	9088.92
275.902	9085.84
275.971	9100.95
276.039	9112.37
276.108	9111.16
276.177	9117.66
276.245	9101.39
276.314	9098.07
276.383	9103.46
276.451	9063.1
276.52	9069.6
276.588	9081.06
276.657	9081.11
276.725	9066.14
276.794	9058.92
276.863	9074.22
276.931	9050.25
277	9057.81
277.068	9065.89
277.137	9080.34
277.205	9077.64
277.274	9090.93
277.342	9103.73
277.411	9078.46
277.48	9059.2
277.548	9046.64
277.617	9043.85
277.685	9041.68
277.754	9044.28
277.822	9033.74
277.89	9049.39
277.959	9039.71
278.027	9022.33
278.096	9013.18
278.164	9039.38
278.233	9034.61
278.301	9014.2
278.37	9018.82
278.438	9005.92
278.507	9006.54
278.575	8986.71
278.643	8983.68
278.712	8967.16
278.78	8956.72
278.849	8963.89
278.917	8977.85
278.985	8974.91
279.054	8968.85
279.122	8974.96
279.191	8977.08
279.259	8974.53
279.327	8948.05
279.396	8960.13
279.464	8956.91
279.532	8963.12
279.601	8963.12
279.669	8957.82
279.737	8978.33
279.806	8974.33
279.874	8980.01
279.942	8971.73
280.011	8961.77
280.079	8967.21
280.147	8985.89
280.215	8985.45
280.284	8989.83
280.352	8979.92
280.42	8985.4
280.488	8982.9
280.557	8979.72
280.625	8977.46
280.693	8975.1
280.761	8979.92
280.83	8967.06
280.898	8975.05
280.966	8958.16
281.034	8922.15
281.102	8905.2
281.171	8894.04
281.239	8903.9
281.307	8889.51
281.375	8880.51
281.443	8910.31
281.512	8907.9
281.58	8910.5
281.648	8890.14
281.716	8887.44
281.784	8880.22
281.852	8871.75
281.92	8870.6
281.989	8880.18
282.057	8860.63
282.125	8911.38
282.193	8910.37
282.261	8903.92
282.329	8897.9
282.397	8898.82
282.465	8905.46
282.533	8921.2
282.601	8916.14
282.67	8896.75
282.738	8888.76
282.806	8899.97
282.874	8880.09
282.942	8877.34
283.01	8872.96
283.078	8885.57
283.146	8876.04
283.214	8885.24
283.282	8890.92
283.35	8901.08
283.418	8892.7
283.486	8896.12
283.554	8845.03
283.622	8844.45
283.69	8843.15
283.758	8839.98
283.826	8843.63
283.894	8851.38
283.962	8875.94
284.03	8884.12
284.098	8884.51
284.165	8877.67
284.233	8876.28
284.301	8871.46
284.369	8867.42
284.437	8854.95
284.505	8844.46
284.573	8866.99
284.641	8860.01
284.709	8866.26
284.777	8843.35
284.845	8849.22
284.912	8857.5
284.98	8858.71
285.048	8852.5
285.116	8857.12
285.184	8865.97
285.252	8862.94
285.319	8842.63
285.387	8828.23
285.455	8813.79
285.523	8814.42
285.591	8819.09
285.659	8819.09
285.726	8828.18
285.794	8807.73
285.862	8804.84
285.93	8805.56
285.997	8793.58
286.065	8786.12
286.133	8770.18
286.201	8767.1
286.269	8755.84
286.336	8745.44
286.404	8743.56
286.472	8749.34
286.539	8732.35
286.607	8715.02
286.675	8719.55
286.743	8727.44
286.81	8724.07
286.878	8733.22
286.946	8736.63
287.013	8733.75
287.081	8734.61
287.149	8723.88
287.216	8747.85
287.284	8749.53
287.352	8749.1
287.419	8750.54
287.487	8758.58
287.555	8767.68
287.622	8773.16
287.69	8778.41
287.758	8788.76
287.825	8779.33
287.893	8767.53
287.96	8774.46
288.028	8789.72
288.096	8789.77
288.163	8792.03
288.231	8772.49
288.298	8772.97
288.366	8777.88
288.433	8776.05
288.501	8767.15
288.569	8770.95
288.636	8763.78
288.704	8766.19
288.771	8777.16
288.839	8767.05
288.906	8762.43
288.974	8764.79
289.041	8753.19
289.109	8741.21
289.176	8748.72
289.244	8756.9
289.311	8768.11
289.379	8775.57
289.446	8775.91
289.514	8773.17
289.581	8771.48
289.649	8777.55
289.716	8777.45
289.783	8769.22
289.851	8792.37
289.918	8792.8
289.986	8800.7
290.053	8803.97
290.121	8803.97
290.188	8806.33
290.255	8834.78
290.323	8831.41
290.39	8830.35
290.458	8839.64
290.525	8853.36
290.592	8847.1
290.66	8848.64
290.727	8847.24
290.794	8864.72
290.862	8866.98
290.929	8869.39
290.996	8872.28
291.064	8885.42
291.131	8897.07
291.198	8906.55
291.266	8900.39
291.333	8903.23
291.4	8908.38
291.468	8928.89
291.535	8930.09
291.602	8927.35
291.669	8921.95
291.737	8930.04
291.804	8927.39
291.871	8947.85
291.938	8951.85
292.006	8979.77
292.073	8990.79
292.14	9003.55
292.207	8997.25
292.275	8997.29
292.342	9012.7
292.409	9039.03
292.476	9053.72
292.543	9044.57
292.611	9046.21
292.678	9064.36
292.745	9088.81
292.812	9099.07
292.879	9089.1
292.946	9088.09
293.014	9103.98
293.081	9111.68
293.148	9124.92
293.215	9138.16
293.282	9134.41
293.349	9148.61
293.416	9129.11
293.484	9142.73
293.551	9151.35
293.618	9158.62
293.685	9178.02
293.752	9166.85
293.819	9158.09
293.886	9152.89
293.953	9162.66
294.02	9171.91
294.087	9175.62
294.154	9169.36
294.221	9177.98
294.288	9181.15
294.356	9202
294.423	9206.86
294.49	9195.69
294.557	9206.57
294.624	9205.03
294.691	9222.9
294.758	9221.5
294.825	9230.26
294.892	9222.13
294.959	9215.91
295.026	9227.57
295.093	9225.35
295.16	9227.95
295.226	9235.08
295.293	9259.49
295.36	9269.36
295.427	9280.92
295.494	9291.61
295.561	9299.75
295.628	9322.33
295.695	9330.28
295.762	9333.84
295.829	9345.78
295.896	9360.52
295.963	9368.95
296.03	9380.41
296.096	9383.15
296.163	9391.14
296.23	9402.32
296.297	9418.78
296.364	9428.46
296.431	9428.17
296.498	9415.99
296.564	9440.11
296.631	9440.45
296.698	9425.42
296.765	9439.34
296.832	9436.12
296.899	9425.71
296.965	9441.99
297.032	9423.5
297.099	9450.27
297.166	9459.61
297.233	9453.02
297.299	9442.18
297.366	9440.88
297.433	9439.44
297.5	9445.22
297.566	9448.83
297.633	9449.89
297.7	9448.11
297.767	9440.26
297.833	9453.65
297.9	9463.61
297.967	9451.62
298.033	9466.31
298.1	9494.73
298.167	9487.94
298.234	9490.05
298.3	9495.3
298.367	9488.9
298.434	9501.03
298.5	9488.08
298.567	9478.83
298.634	9484.9
298.7	9504.16
298.767	9506.81
298.834	9522.03
298.9	9518.8
298.967	9513.12
299.033	9518.95
299.1	9538.98
299.167	9554.1
299.233	9547.89
299.3	9561.61
299.366	9574.66
299.433	9585.36
299.5	9558.29
299.566	9561.66
299.633	9580.1
299.699	9592.77
299.766	9592.58
299.832	9591.23
299.899	9606.3
299.965	9624.46
300.032	9619.69
300.099	9628.46
300.165	9632.6
300.232	9626.72
300.298	9624.7
300.365	9632.21
300.431	9640.84
300.498	9632.17
300.564	9638.91
300.631	9653.79
300.697	9669.25
300.763	9668.53
300.83	9666.31
300.896	9677.77
300.963	9680.13
301.029	9682.4
301.096	9685.29
301.162	9694.68
301.229	9692.27
301.295	9673.78
301.361	9674.6
301.428	9675.17
301.494	9664.67
301.561	9668.77
301.627	9675.13
301.693	9683.6
301.76	9688.71
301.826	9678.59
301.892	9686.88
301.959	9691.69
302.025	9686.44
302.092	9680.08
302.158	9689.04
302.224	9689.48
302.291	9682.83
302.357	9681
302.423	9677.29
302.49	9669.34
302.556	9680.09
302.622	9672.72
302.688	9684.52
302.755	9699.21
302.821	9705.52
302.887	9717.12
302.954	9714.86
303.02	9721.41
303.086	9723.48
303.152	9722.42
303.219	9715.2
303.285	9718.28
303.351	9725.07
303.417	9722.66
303.483	9716.02
303.55	9710.67
303.616	9707.83
303.682	9710.19
303.748	9706.91
303.815	9723.53
303.881	9732.15
303.947	9716.11
304.013	9722.42
304.079	9714.04
304.145	9689.33
304.212	9686.3
304.278	9678.16
304.344	9665.4
304.41	9649.7
304.476	9639.54
304.542	9638.28
304.608	9649.36
304.674	9627.88
304.741	9624.27
304.807	9621.04
304.873	9624.41
304.939	9635.25
305.005	9614.54
305.071	9615.12
305.137	9624.22
305.203	9595.42
305.269	9596.57
305.335	9613.29
305.401	9612.23
305.467	9614.54
305.533	9621.81
305.599	9631.44
305.666	9637.85
305.732	9647.72
305.798	9660.29
305.864	9686.25
305.93	9690.01
305.996	9682.06
306.062	9689.57
306.128	9685.72
306.194	9676.81
306.259	9673.68
306.325	9666.94
306.391	9679.17
306.457	9681.39
306.523	9674.88
306.589	9697.47
306.655	9685.1
306.721	9666.36
306.787	9654.08
306.853	9667.9
306.919	9650.33
306.985	9640.36
307.051	9627.74
307.117	9622.54
307.183	9615.31
307.248	9589.98
307.314	9594.17
307.38	9606.59
307.446	9613.58
307.512	9597.11
307.578	9604.28
307.644	9598.74
307.709	9597.83
307.775	9593.01
307.841	9584.44
307.907	9583.77
307.973	9562.91
308.039	9564.89
308.104	9566.23
308.17	9568.4
308.236	9550.63
308.302	9553.33
308.368	9544.18
308.433	9546.54
308.499	9539.02
308.565	9526.74
308.631	9525.83
308.696	9496.55
308.762	9472.13
308.828	9467.17
308.894	9447.96
308.959	9423.07
309.025	9414.01
309.091	9404.67
309.156	9401.49
309.222	9408.33
309.288	9396.44
309.354	9373.9
309.419	9366.39
309.485	9346.26
309.551	9350.16
309.616	9334.18
309.682	9332.25
309.748	9323.97
309.813	9316.36
309.879	9306.54
309.945	9297
310.01	9293.44
310.076	9295.41
310.141	9294.79
310.207	9275.24
310.273	9282.03
310.338	9287.51
310.404	9269.6
310.469	9259.88
310.535	9251.02
310.601	9229.11
310.666	9237.53
310.732	9247.93
310.797	9239.8
310.863	9235.9
310.928	9219.57
310.994	9222.75
311.059	9221.5
311.125	9217.41
311.191	9229.49
311.256	9221.4
311.322	9221.65
311.387	9196.51
311.453	9457
311.518	9431.77
311.584	9428.54
311.649	9433.02
311.715	9424.26
311.78	9429.41
311.846	9419.4
311.911	9419.06
311.976	9420.7
312.042	9402.5
312.107	9386.56
312.173	9377.17
312.238	9373.08
312.304	9372.17
312.369	9360.42
312.434	9349.44
312.5	9344.19
312.565	9306.69
312.631	9308.27
312.696	9297.97
312.761	9308.85
312.827	9043.12
312.892	9080.91
312.958	9082.41
313.023	9081.44
313.088	9078.84
313.154	9062.43
313.219	9048.04
313.284	9039.71
313.35	9033.98
313.415	9023.97
313.48	9021.13
313.546	9024.78
313.611	9031.67
313.676	9016.41
313.741	9006.44
313.807	9014.48
313.872	9015.98
313.937	9024.35
314.003	9032.58
314.068	9042.02
314.133	9038.17
314.198	9023.63
314.264	8997.87
314.329	8988.43
314.394	8975.68
314.459	8970.67
314.525	8990.65
314.59	8996.42
314.655	8978.47
314.72	8982.85
314.785	8983.67
314.851	8975.68
314.916	8954.4
314.981	8942.41
315.046	8936.25
315.111	8927.73
315.176	8910.55
315.242	8910.31
315.307	8910.02
315.372	8886.09
315.437	8865.68
315.502	8861.78
315.567	8874.39
315.632	8863.27
315.698	8859.9
315.763	8857.98
315.828	8848.35
315.893	8839.16
315.958	8831.74
316.023	8824.57
316.088	8798.63
316.153	8772.11
316.218	8765.42
316.283	8748.05
316.348	8729.33
316.413	8730.87
316.479	8718.07
316.544	8684.91
316.609	8653.87
316.674	8613.73
316.739	8583.71
316.804	8560.32
316.869	8513.16
316.934	8469.51
316.999	8437.08
317.064	8391.13
317.129	8344.55
317.194	8306.93
317.259	8261.02
317.324	8209.07
317.389	8163.8
317.454	8126.76
317.518	8097.13
317.583	8068.02
317.648	8044.45
317.713	8007.31
317.778	7943.68
317.843	7910.92
317.908	7868.41
317.973	7829.55
318.038	7801.75
318.103	7761.94
318.168	7723.42
318.233	7699.09
318.297	7650.33
318.362	7612.49
318.427	7569.13
318.492	7542.59
318.557	7499.33
318.622	7464.85
318.687	7439.72
318.751	7403.43
318.816	7370.31
318.881	7331.96
318.946	7276.01
319.011	7228.38
319.075	7183.83
319.14	7147.31
319.205	7100.12
319.27	7068.65
319.335	7018.78
319.399	6977.46
319.464	6949.07
319.529	6894.16
319.594	6854
319.658	6824.17
319.723	6778.25
319.788	6750.3
319.853	6695.92
319.917	6665.96
319.982	6613.9
320.047	6577.64
320.112	6551.56
320.176	6495.15
320.241	6461.93
320.306	6434.17
320.37	6393.46
320.435	6363.94
320.5	6339.65
320.564	6301.68
320.629	6256.29
320.694	6231.95
320.758	6186.99
320.823	6141.02
320.888	6117.46
320.952	6066.12
321.017	6024.28
321.082	5985.86
321.146	5947.62
321.211	5913.03
321.275	5865.41
321.34	5822.92
321.405	5774.67
321.469	5721.97
321.534	5688.08
321.598	5636.72
321.663	5599.51
321.727	5568
321.792	5515.27
321.857	5469.77
321.921	5430.89
321.986	5389.44
322.05	5328.35
322.115	5287.33
322.179	5242.63
322.244	5181.36
322.308	5147.15
322.373	5101.12
322.437	5060.07
322.502	5034.86
322.566	4990.03
322.631	4957.47
322.695	4914.71
322.76	4870.47
322.824	4838.06
322.889	4790.01
322.953	4749.32
323.018	4688.91
323.082	4620
323.146	4571.25
323.211	4517.84
323.275	4474.53
323.34	4429.14
323.404	4397.1
323.468	4356.63
323.533	4316.36
323.597	4273.77
323.662	4225.95
323.726	4188.65
323.79	4145.18
323.855	4079.22
323.919	4031.75
323.983	3984.95
324.048	3922.62
324.112	4051.28
324.177	3921.4
324.241	3721.62
324.305	3519.06
324.37	3320.95
324.434	3136.08
324.498	3093.42
324.562	3043.21
324.627	2981.45
324.691	2928.49
324.755	2860.12
324.82	2783.91
324.884	2704.63
324.948	2636.06
325.012	2539.1
325.077	2416.95
