Data from 20250630_urea_2M_MAYP1162681_07-32-27-277.txt Node
Date: Tue Jul 01 07:32:27 BST 2025
User: adleo
Spectrometer: MAYP116268
Trigger mode: 0
Integration Time (sec): 1.000000E0
Scans to average: 1
Electric dark correction enabled: true
Nonlinearity correction enabled: true
Boxcar width: 10
XAxis mode: Wavelengths
Number of Pixels in Spectrum: 2068
>>>>>Begin Spectral Data<<<<<
179.565	1088.95
179.642	1139.89
179.718	1173.48
179.795	1205.9
179.871	1235.79
179.948	1251.67
180.024	1266.79
180.101	1286.88
180.177	1299.13
180.254	1320.38
180.33	1341.27
180.407	1385.22
180.483	1472.54
180.56	1553.11
180.636	1628.07
180.712	1616.38
180.789	1626.98
180.865	1635.71
180.942	1645.83
181.018	1656.33
181.095	1670.07
181.171	1674.63
181.248	1674.2
181.324	1691.59
181.4	1696.91
181.477	1706.08
181.553	1720.05
181.63	1742.24
181.706	1757.16
181.782	1764.57
181.859	1762.62
181.935	1764.29
182.011	1761.53
182.088	1775.79
182.164	1793.24
182.24	1807.44
182.317	1816.38
182.393	1814.57
182.469	1829.02
182.546	1837.24
182.622	1837.91
182.698	1833.01
182.775	1843.47
182.851	1856.3
182.927	1849.88
183.003	1847.55
183.08	1842.47
183.156	1846.41
183.232	1843.13
183.308	1833.63
183.385	1842.56
183.461	1860.58
183.537	1865.9
183.613	1879.73
183.69	1869.09
183.766	1860.76
183.842	1865.52
183.918	1869.65
183.995	1878.92
184.071	1882.16
184.147	1878.69
184.223	1873.36
184.299	1882.87
184.375	1873.08
184.452	1879.93
184.528	1934.53
184.604	1946.46
184.68	1957.96
184.756	1966.42
184.832	1970.51
184.908	1975.46
184.985	1975.84
185.061	1959.44
185.137	1967.66
185.213	1952.4
185.289	1955.78
185.365	1950.45
185.441	1947.55
185.517	1961.73
185.593	1960.25
185.669	1956.64
185.745	1966.24
185.822	1979.12
185.898	1972.94
185.974	1980.55
186.05	1970.8
186.126	1929.23
186.202	1919.43
186.278	1915.16
186.354	1904.27
186.43	1909.98
186.506	1905.41
186.582	1904.22
186.658	1910.07
186.734	1889.63
186.81	1893.34
186.886	1895.38
186.962	1900.47
187.038	1900.37
187.114	1890.52
187.19	1899.84
187.266	1890.48
187.341	1890.81
187.417	1885.35
187.493	1885.25
187.569	1889.63
187.645	1886.73
187.721	1875.65
187.797	1885.39
187.873	1888.29
187.949	1884.82
188.025	1878.5
188.101	1881.11
188.176	1885.72
188.252	1883.58
188.328	1891.04
188.404	1890.71
188.48	1887.72
188.556	1884.01
188.632	1884.1
188.707	1887.29
188.783	1884.48
188.859	1881.3
188.935	1869.84
189.011	1877.4
189.086	1870.37
189.162	1862.9
189.238	1861.48
189.314	1859.58
189.39	1853.68
189.465	1847.17
189.541	1865.62
189.617	1850.84
189.693	1848.46
189.768	1851.6
189.844	1874.38
189.92	1865.3
189.996	1873.62
190.071	1883.7
190.147	1883.65
190.223	1891.59
190.298	1883.13
190.374	1869.2
190.45	1879.66
190.526	1889.02
190.601	1880.65
190.677	1883.84
190.753	1907.62
190.828	1909.81
190.904	1921.88
190.98	1936.53
191.055	1949.6
191.131	1936.15
191.207	1954.35
191.282	1962.76
191.358	1952.45
191.433	1936.61
191.509	1950.39
191.585	1948.68
191.66	1948.53
191.736	1956.05
191.811	1949.25
191.887	1961.23
191.963	1981.53
192.038	1985.34
192.114	1987
192.189	1993.32
192.265	1993.04
192.34	1972.92
192.416	1970.11
192.491	1967.64
192.567	1971.11
192.642	1969.35
192.718	1969.73
192.793	1960.18
192.869	1959.37
192.944	1961.27
193.02	1965.79
193.095	1969.3
193.171	1972.92
193.246	1970.92
193.322	1969.49
193.397	1965.6
193.473	1955.42
193.548	1938.59
193.624	1942.53
193.699	1940.73
193.775	1953.42
193.85	1949.39
193.925	1956.57
194.001	1955.38
194.076	1948.29
194.152	1937.21
194.227	1928.51
194.302	1921.95
194.378	1924.38
194.453	1918.05
194.529	1931.8
194.604	1921.91
194.679	1916.35
194.755	1901.42
194.83	1915.31
194.905	1912.74
194.981	1924.49
195.056	1916.12
195.131	1923.58
195.207	1924.39
195.282	1913.98
195.357	1899.62
195.433	1915.97
195.508	1906.23
195.583	1915.64
195.659	1930.81
195.734	1935.37
195.809	1942.5
195.884	1951.96
195.96	1953.72
196.035	1971.74
196.11	1965.04
196.185	1976.21
196.261	1978.06
196.336	2003.4
196.411	1989.61
196.486	1995.13
196.561	1986.28
196.637	1994.46
196.712	2010.25
196.787	2014.44
196.862	2031.08
196.937	2038.83
197.013	2043.35
197.088	2052.67
197.163	2073.69
197.238	2087.88
197.313	2091.87
197.388	2099.39
197.464	2126.79
197.539	2136.45
197.614	2126.7
197.689	2138.78
197.764	2153.25
197.839	2173.98
197.914	2168.47
197.989	2190.54
198.065	2203.72
198.14	2252.56
198.215	2275.64
198.29	2284.16
198.365	2295.44
198.44	2304.05
198.515	2327.94
198.59	2341.74
198.665	2365.68
198.74	2370.02
198.815	2371.87
198.89	2387.72
198.965	2416.77
199.04	2411.62
199.115	2428.23
199.19	2466.65
199.265	2468.69
199.34	2480.69
199.415	2510.51
199.49	2531.12
199.565	2536.64
199.64	2561.12
199.715	2557.4
199.79	2565.31
199.865	2574.17
199.94	2571.83
200.015	2601.51
200.09	2605.7
200.165	2611.08
200.24	2615.65
200.315	2656.84
200.39	2670.61
200.464	2679.56
200.539	2678.8
200.614	2694.09
200.689	2715.34
200.764	2721.82
200.839	2742.25
200.914	2743.48
200.989	2734.9
201.063	2748.53
201.138	2734.34
201.213	2731.48
201.288	2713.14
201.363	2718.67
201.438	2715
201.512	2730.62
201.587	2715.66
201.662	2722.52
201.737	2736.1
201.812	2745.44
201.886	2712.3
201.961	2722.6
202.036	2710.5
202.111	2708.4
202.186	2681.89
202.26	2664.64
202.335	2644.48
202.41	2634.86
202.485	2619.06
202.559	2601.1
202.634	2576.19
202.709	2584.9
202.784	2567.85
202.858	2569.38
202.933	2551.95
203.008	2546.95
203.082	2528.99
203.157	2525.66
203.232	2484.87
203.306	2467.53
203.381	2437.81
203.456	2417.1
203.53	2393.46
203.605	2379.05
203.68	2357.09
203.754	2352.39
203.829	2336.91
203.904	2320.87
203.978	2310.35
204.053	2313.5
204.127	2303.22
204.202	2302.07
204.277	2287.32
204.351	2281.28
204.426	2270.76
204.5	2265.66
204.575	2236.93
204.65	2245.21
204.724	2238.88
204.799	2245.73
204.873	2238.82
204.948	2237.92
205.022	2225.89
205.097	2219.08
205.171	2230.12
205.246	2239.59
205.32	2238.02
205.395	2239.3
205.469	2227.04
205.544	2231.51
205.618	2215.81
205.693	2222.57
205.767	2211.72
205.842	2228.61
205.916	2219.91
205.991	2212.15
206.065	2218.48
206.14	2231.84
206.214	2227.37
206.289	2220.13
206.363	2232.89
206.438	2236.22
206.512	2240.88
206.586	2259.44
206.661	2264.72
206.735	2242.46
206.81	2241.37
206.884	2256.07
206.958	2245.36
207.033	2264.34
207.107	2274.86
207.181	2303.71
207.256	2300.33
207.33	2320.41
207.405	2330.17
207.479	2350.21
207.553	2359.44
207.628	2340.93
207.702	2350.74
207.776	2344.36
207.851	2345.93
207.925	2358.69
207.999	2355.88
208.073	2356.31
208.148	2356.4
208.222	2347.74
208.296	2378.33
208.371	2395.86
208.445	2405.81
208.519	2433.32
208.593	2443.51
208.668	2437.18
208.742	2437.32
208.816	2439.03
208.89	2450.13
208.965	2452.56
209.039	2458.37
209.113	2473.46
209.187	2494.35
209.261	2490.45
209.336	2508.92
209.41	2527.82
209.484	2527.44
209.558	2547.3
209.632	2558.97
209.707	2570.92
209.781	2590.11
209.855	2603.64
209.929	2616.56
210.003	2621.94
210.077	2618.65
210.151	2664.75
210.226	2694.44
210.3	2723.57
210.374	2743.57
210.448	2748.95
210.522	2760.39
210.596	2769.25
210.67	2778.55
210.744	2819.87
210.818	2848.78
210.892	2868.89
210.966	2866.75
211.041	2880.85
211.115	2884.33
211.189	2907.82
211.263	2925.31
211.337	2935.7
211.411	2951.01
211.485	2947.95
211.559	2962.87
211.633	2965.39
211.707	2936.25
211.781	2947.27
211.855	2917.24
211.929	2911.71
212.003	2897.99
212.077	2905.19
212.151	2921.74
212.225	2931.41
212.299	2927.79
212.373	2924.07
212.447	2926.88
212.52	2959.11
212.594	2969.22
212.668	2981.52
212.742	2977.33
212.816	2978.57
212.89	2977.09
212.964	2981.71
213.038	2994.78
213.112	3015.1
213.186	3044.8
213.26	3040.18
213.333	3011.67
213.407	3031.68
213.481	3052.65
213.555	3078.29
213.629	3086.5
213.703	3088.88
213.777	3109.06
213.85	3112.88
213.924	3163.6
213.998	3184.07
214.072	3204.36
214.146	3222.45
214.219	3248.17
214.293	3268.92
214.367	3299.7
214.441	3342.22
214.515	3367.85
214.588	3381.98
214.662	3383.56
214.736	3398.83
214.81	3442.24
214.883	3493.19
214.957	3524.12
215.031	3556.71
215.105	3578.23
215.178	3608.51
215.252	3648.95
215.326	3667.81
215.4	3696.94
215.473	3702.44
215.547	3737.94
215.621	3774.51
215.694	3829.34
215.768	3861.79
215.842	3909.29
215.915	3954.89
215.989	3987.31
216.063	4034.5
216.136	4090.87
216.21	4154.93
216.284	4228.15
216.357	4288.84
216.431	4347.29
216.504	4417.47
216.578	4506.48
216.652	4582.24
216.725	4654.12
216.799	4735.33
216.873	4816.41
216.946	4897.74
217.02	4968.19
217.093	5035.19
217.167	5089.89
217.24	5146.1
217.314	5220.92
217.387	5289.51
217.461	5359.14
217.535	5446.75
217.608	5515.39
217.682	5598.63
217.755	5687.14
217.829	5754.04
217.902	5835.53
217.976	5913.46
218.049	5984.27
218.123	6046.13
218.196	6137.77
218.27	6212.06
218.343	6276.53
218.417	6356.94
218.49	6435.52
218.563	6530.19
218.637	6615.19
218.71	6721.18
218.784	6816.96
218.857	6907.5
218.931	6995.73
219.004	7085.77
219.077	7183.82
219.151	7275.64
219.224	7355.58
219.298	7444.42
219.371	7543.4
219.444	7620.94
219.518	7711.66
219.591	7803.01
219.665	7913.79
219.738	8001.85
219.811	8082.79
219.885	8182.85
219.958	8275.79
220.031	8363.44
220.105	8458.95
220.178	8545.03
220.251	8618.62
220.325	8704.92
220.398	8798.48
220.471	8891.99
220.544	8987.12
220.618	9061.98
220.691	9147.33
220.764	9235.05
220.838	9319.37
220.911	9396.55
220.984	9501.67
221.057	9588.35
221.131	9675.41
221.204	9730.27
221.277	9826.51
221.35	9936.61
221.424	10003.33
221.497	10085.6
221.57	10164.02
221.643	10247.41
221.716	10342.37
221.79	10427.3
221.863	10504.54
221.936	10572.28
222.009	10652.02
222.082	10727.14
222.155	10801.39
222.229	10895.26
222.302	10966.24
222.375	11033.99
222.448	11113.89
222.521	11184.83
222.594	11260.39
222.667	11328.34
222.74	11412.58
222.814	11484.35
222.887	11549.27
222.96	11635.98
223.033	11718.74
223.106	11795.32
223.179	11874.13
223.252	11937.75
223.325	12011.02
223.398	12088
223.471	12167
223.544	12231.1
223.617	12304.04
223.69	12370.27
223.763	12425.12
223.837	12499.5
223.91	12572.58
223.983	12623.38
224.056	12676.79
224.129	12746.26
224.202	12818.13
224.275	12869.23
224.348	12917.82
224.42	12967.61
224.493	13006.37
224.566	13056.22
224.639	13122.16
224.712	13163.67
224.785	13222
224.858	13269.38
224.931	13312.53
225.004	13355.92
225.077	13412.99
225.15	13439.46
225.223	13497.11
225.296	13577.62
225.369	13622.98
225.442	13673.93
225.514	13740.07
225.587	13802.74
225.66	13863.19
225.733	13922.05
225.806	13989.1
225.879	14038.37
225.952	14092.89
226.025	14171.76
226.097	14242.43
226.17	14287.93
226.243	14329.92
226.316	14386.13
226.389	14446.67
226.461	14507.31
226.534	14575.04
226.607	14631.92
226.68	14707.7
226.753	14762.17
226.825	14790.71
226.898	14856.89
226.971	14904.91
227.044	14960.48
227.117	15016.74
227.189	15063.78
227.262	15125.24
227.335	15172.29
227.407	15220.44
227.48	15271.97
227.553	15322.34
227.626	15366.88
227.698	15422.02
227.771	15476.49
227.844	15509.8
227.916	15554.67
227.989	15593.86
228.062	15637.1
228.134	15696.38
228.207	15747.09
228.28	15794.23
228.352	15833.9
228.425	15880.89
228.498	15935.26
228.57	15975.36
228.643	16031.37
228.716	16075.18
228.788	16105.45
228.861	16156.11
228.934	16214.43
229.006	16261.85
229.079	16300.8
229.151	16330.1
229.224	16357.09
229.296	16405.82
229.369	16481
229.442	16539.37
229.514	16575.13
229.587	16624.53
229.659	16645.93
229.732	16682.56
229.804	16725.17
229.877	16803.24
229.949	16851.97
230.022	16912.69
230.094	16941.51
230.167	16983.78
230.239	17020.41
230.312	17064.26
230.384	17129.37
230.457	17160.7
230.529	17206.72
230.602	17247.74
230.674	17293.38
230.747	17348.7
230.819	17403.11
230.892	17410
230.964	17450.92
231.037	17497.09
231.109	17529.72
231.181	17581.28
231.254	17611.4
231.326	17647.45
231.399	17665.72
231.471	17688.7
231.544	17699.35
231.616	17749.09
231.688	17781.47
231.761	17801.18
231.833	17817.38
231.905	17813.81
231.978	17860.99
232.05	17880.7
232.122	17906.29
232.195	17921.9
232.267	17953.13
232.339	17968.17
232.412	18015.64
232.484	18032.6
232.556	18056.07
232.629	18092.4
232.701	18127.2
232.773	18153.41
232.846	18168.11
232.918	18193.84
232.99	18219.77
233.062	18249.99
233.135	18273.12
233.207	18273.79
233.279	18301.6
233.351	18335.38
233.424	18351.91
233.496	18349.89
233.568	18392.49
233.64	18402.46
233.713	18430.51
233.785	18451.18
233.857	18469.69
233.929	18468.96
234.001	18489.35
234.074	18507.61
234.146	18506.36
234.218	18512
234.29	18522.84
234.362	18535.08
234.434	18527.9
234.507	18528.86
234.579	18524.77
234.651	18528.48
234.723	18546.07
234.795	18560.33
234.867	18572.38
234.939	18595.27
235.012	18605.25
235.084	18606.06
235.156	18623.12
235.228	18622.3
235.3	18621.68
235.372	18626.83
235.444	18635.6
235.516	18625.2
235.588	18635.51
235.66	18642.4
235.732	18636.95
235.804	18693.96
235.876	18706.73
235.948	18728.51
236.02	18732.85
236.092	18739.36
236.164	18742.01
236.236	18733
236.308	18725.58
236.38	18722.25
236.452	18707.12
236.524	18716.66
236.596	18724.23
236.668	18721.86
236.74	18724.13
236.812	18724.18
236.884	18727.74
236.956	18733.04
237.028	18724.52
237.1	18712.9
237.172	18723.79
237.244	18737.57
237.316	18692.81
237.388	18673.77
237.46	18649.1
237.532	18653.97
237.604	18643.99
237.675	18651.27
237.747	18662.69
237.819	18651.8
237.891	18637.15
237.963	18632.86
238.035	18615.85
238.107	18573.68
238.178	18576.91
238.25	18563.51
238.322	18569.15
238.394	18531.47
238.466	18518.98
238.538	18510.26
238.609	18514.6
238.681	18485.3
238.753	18458.31
238.825	18441.64
238.897	18428.68
238.968	18438.56
239.04	18420.68
239.112	18422.12
239.184	18386.03
239.255	18354.99
239.327	18338.8
239.399	18333.16
239.471	18324.54
239.542	18305.89
239.614	18309.16
239.686	18262.52
239.758	18249.36
239.829	18225.46
239.901	18228.01
239.973	18198.66
240.044	18187.05
240.116	18151.49
240.188	18132.55
240.259	18110.38
240.331	18082.77
240.403	18076.02
240.474	18041.18
240.546	18012.02
240.618	17975.2
240.689	17956.55
240.761	17944.17
240.833	17947.78
240.904	17915.11
240.976	17894.72
241.048	17877.38
241.119	17860.6
241.191	17850.34
241.262	17840.03
241.334	17807.21
241.405	17787.11
241.477	17760.32
241.549	17731.64
241.62	17713.72
241.692	17694.83
241.763	17694.49
241.835	17682.87
241.906	17659.84
241.978	17623.26
242.049	17614.59
242.121	17604.42
242.192	17596.47
242.264	17558.3
242.335	17511.6
242.407	17500.56
242.478	17463.69
242.55	17441.53
242.621	17408.22
242.693	17376.32
242.764	17349.72
242.836	17320.95
242.907	17292.8
242.979	17271.69
243.05	17260.46
243.122	17238.39
243.193	17209.86
243.264	17152.66
243.336	17120.85
243.407	17100.85
243.479	17083.35
243.55	17053.91
243.622	17024.99
243.693	16997.52
243.764	16989.71
243.836	16958
243.907	16926.38
243.978	16899.97
244.05	16878.82
244.121	16835.01
244.192	16826.43
244.264	16788.5
244.335	16765.65
244.407	16727.58
244.478	16715.58
244.549	16681.17
244.62	16640.15
244.692	16608.78
244.763	16597.16
244.834	16565.59
244.906	16529.69
244.977	16517.3
245.048	16498.74
245.119	16462.07
245.191	16422.79
245.262	16368.66
245.333	16355.74
245.405	16326.68
245.476	16301.47
245.547	16274
245.618	16254.19
245.689	16214.96
245.761	16185.27
245.832	16150.57
245.903	16128.35
245.974	16095.81
246.045	16067.47
246.117	16055.13
246.188	16017.97
246.259	15976.13
246.33	15950.73
246.401	15913.52
246.473	15865.42
246.544	15827.78
246.615	15810.19
246.686	15770.47
246.757	15756.68
246.828	15712.43
246.899	15692.87
246.97	15653.29
247.042	15621.53
247.113	15601.14
247.184	15599.4
247.255	15558.24
247.326	15540.89
247.397	15506.81
247.468	15482.18
247.539	15448.97
247.61	15409.83
247.681	15388.72
247.752	15370.54
247.823	15332.51
247.894	15310.58
247.965	15276.94
248.037	15243.48
248.108	15205.89
248.179	15179.09
248.25	15147.8
248.321	15132.67
248.392	15094.06
248.463	15087.69
248.534	15051.83
248.605	15031.01
248.675	14994.9
248.746	14979.53
248.817	14949.45
248.888	14931.32
248.959	14881.29
249.03	14858.58
249.101	14833.57
249.172	14803.54
249.243	14753.79
249.314	14735.33
249.385	14714.69
249.456	14686.06
249.527	14662.44
249.598	14630.24
249.669	14610.09
249.739	14589.8
249.81	14559.38
249.881	14521.1
249.952	14489.58
250.023	14465.81
250.094	14415.29
250.165	14377.94
250.235	14356.34
250.306	14336.77
250.377	14292.42
250.448	14268.89
250.519	14221.03
250.59	14209.12
250.66	14173.78
250.731	14164.82
250.802	14135.7
250.873	14112.47
250.944	14096.56
251.014	14061.56
251.085	14064.07
251.156	14042.76
251.227	14022.56
251.297	14009.45
251.368	13996.1
251.439	13983.52
251.51	13967.41
251.58	13943.5
251.651	13908.17
251.722	13898.29
251.792	13851.33
251.863	13827.76
251.934	13824.19
252.005	13828.82
252.075	13798.4
252.146	13792.33
252.217	13776.95
252.287	13765.82
252.358	13735.98
252.429	13726.33
252.499	13699.92
252.57	13676.44
252.641	13661.98
252.711	13637.25
252.782	13598.1
252.852	13592.51
252.923	13565.08
252.994	13541.56
253.064	13529.31
253.135	13505.4
253.205	13474.7
253.276	13470.6
253.347	13465.05
253.417	13435.26
253.488	13406.63
253.558	13377.32
253.629	13353.17
253.699	13330.51
253.77	13312.29
253.841	13288.18
253.911	13262.3
253.982	13239.21
254.052	13223.59
254.123	13199.1
254.193	13178.08
254.264	13189.99
254.334	13157.98
254.405	13122.69
254.475	13086.87
254.546	13063.06
254.616	13051.2
254.687	13025.8
254.757	13004.15
254.827	12985.11
254.898	12960.19
254.968	12943.99
255.039	12915.74
255.109	12898.73
255.18	12871.01
255.25	12826.47
255.321	12808.05
255.391	12769.87
255.461	12768.67
255.532	12713.86
255.602	12685.61
255.673	12643.96
255.743	12613.69
255.813	12566.54
255.884	12558.78
255.954	12552.23
256.024	12548.61
256.095	12525.52
256.165	12490.33
256.235	12474.91
256.306	12442.85
256.376	12432.54
256.446	12409.54
256.517	12391.27
256.587	12379.95
256.657	12362.88
256.728	12347.99
256.798	12327.55
256.868	12311.54
256.938	12282.77
257.009	12272.55
257.079	12259.82
257.149	12270.52
257.219	12228.88
257.29	12217.5
257.36	12173.35
257.43	12164.19
257.5	12120.71
257.571	12094.3
257.641	12082.1
257.711	12049.85
257.781	12040.74
257.852	12026.09
257.922	11986.47
257.992	11967.04
258.062	11938.8
258.132	11932.48
258.202	11907.56
258.273	11887.17
258.343	11879.85
258.413	11848.18
258.483	11830.49
258.553	11796.32
258.623	11762.91
258.693	11755.11
258.764	11753.9
258.834	11755.68
258.904	11731.34
258.974	11708.55
259.044	11689.8
259.114	11672.83
259.184	11660.64
259.254	11633.84
259.324	11590.56
259.394	11577.21
259.464	11580.63
259.535	11563.86
259.605	11531.95
259.675	11516.62
259.745	11505.15
259.815	11479.17
259.885	11460.09
259.955	11464.67
260.025	11442.84
260.095	11422.83
260.165	11401.58
260.235	11391.99
260.305	11355.65
260.375	11319.7
260.445	11322.06
260.515	11315.99
260.585	11308.71
260.655	11289.48
260.725	11287.21
260.795	11279.89
260.865	11288.51
260.934	11262.63
261.004	11249.91
261.074	11228.56
261.144	11219.89
261.214	11211.45
261.284	11190.54
261.354	11184.22
261.424	11161.86
261.494	11169.52
261.564	11153.09
261.634	11143.21
261.703	11110.87
261.773	11102.39
261.843	11099.16
261.913	11077.53
261.983	11045.87
262.053	11036.03
262.123	11019.36
262.192	10987.12
262.262	10979.07
262.332	10947.7
262.402	10935.7
262.472	10920.33
262.541	10893.15
262.611	10883.27
262.681	10849.2
262.751	10843.18
262.821	10824.05
262.89	10786.22
262.96	10768.78
263.03	10772.1
263.1	10759.33
263.169	10741.6
263.239	10739.63
263.309	10742.71
263.379	10731.39
263.448	10723
263.518	10709.12
263.588	10691.54
263.657	10687.73
263.727	10688.16
263.797	10666.34
263.867	10645.81
263.936	10620.8
264.006	10621.53
264.076	10608.52
264.145	10597.82
264.215	10571.32
264.285	10561.97
264.354	10533.5
264.424	10512.11
264.494	10481.42
264.563	10460.12
264.633	10466.14
264.702	10447.78
264.772	10412.37
264.842	10388.95
264.911	10374.26
264.981	10341.64
265.05	10326.75
265.12	10310.33
265.19	10288.06
265.259	10290.38
265.329	10278.24
265.398	10262.34
265.468	10269.32
265.537	10246.73
265.607	10229.53
265.676	10230.3
265.746	10220.81
265.815	10218.31
265.885	10195.52
265.955	10175.1
266.024	10155.59
266.094	10119.6
266.163	10121.91
266.232	10117.53
266.302	10111.31
266.371	10103.56
266.441	10092.04
266.51	10088.62
266.58	10074.32
266.649	10052.64
266.719	10044.5
266.788	10036.26
266.858	10035.87
266.927	10003.45
266.996	9990.11
267.066	9986.74
267.135	9955.77
267.205	9949.79
267.274	9937.46
267.343	9941.7
267.413	9929.71
267.482	9934.33
267.552	9928.31
267.621	9899.07
267.69	9869.45
267.76	9851.15
267.829	9841.51
267.898	9834.87
267.968	9808.76
268.037	9800.04
268.106	9795.71
268.176	9767.91
268.245	9754.38
268.314	9735.26
268.384	9725.43
268.453	9714.4
268.522	9702.79
268.592	9708.48
268.661	9692.82
268.73	9688.01
268.799	9671.3
268.869	9677.12
268.938	9645.91
269.007	9628.43
269.076	9618.17
269.146	9615.77
269.215	9609.31
269.284	9605.03
269.353	9585.67
269.422	9575.07
269.492	9555.18
269.561	9521.86
269.63	9516.37
269.699	9505.2
269.768	9503.12
269.838	9501.15
269.907	9501.87
269.976	9478.42
270.045	9447.02
270.114	9437.87
270.183	9424.34
270.253	9417.31
270.322	9383.84
270.391	9376.38
270.46	9385.48
270.529	9382.83
270.598	9382.3
270.667	9374.07
270.736	9354.42
270.806	9348.31
270.875	9345.37
270.944	9336.27
271.013	9351.97
271.082	9339.93
271.151	9331.21
271.22	9295.97
271.289	9273.29
271.358	9258.65
271.427	9257.78
271.496	9246.14
271.565	9231.26
271.634	9226.44
271.703	9226.39
271.772	9230.2
271.841	9216.86
271.91	9192.06
271.979	9181.52
272.048	9162.55
272.117	9158.79
272.186	9142.9
272.255	9140.88
272.324	9135.34
272.393	9128.41
272.462	9111.37
272.531	9106.99
272.6	9100.92
272.669	9112.18
272.738	9102.94
272.807	9093.07
272.876	9071.02
272.945	9093.31
273.013	9093.75
273.082	9093.31
273.151	9071.36
273.22	9066.45
273.289	9061.78
273.358	9071.02
273.427	9058.55
273.496	9055.04
273.564	9047.62
273.633	9056.43
273.702	9040.45
273.771	9034.62
273.84	9029.23
273.909	9025.72
273.977	9024.08
274.046	9006.85
274.115	9003.38
274.184	8990.67
274.253	8979.17
274.322	8987.45
274.39	8964.77
274.459	8949.42
274.528	8923.47
274.597	8906.91
274.665	8908.5
274.734	8914.86
274.803	8905.13
274.872	8897.43
274.94	8882.7
275.009	8932.78
275.078	8913.29
275.147	8905.59
275.215	8893.94
275.284	8898.27
275.353	8888.3
275.421	8865.54
275.49	8884.46
275.559	8871.07
275.627	8866.36
275.696	8862.7
275.765	8857.65
275.833	8851.1
275.902	8854.13
275.971	8859.19
276.039	8878.97
276.108	8871.51
276.177	8864.82
276.245	8852.54
276.314	8846
276.383	8848.98
276.451	8785.27
276.52	8789.36
276.588	8799.33
276.657	8808.95
276.725	8798.12
276.794	8796.3
276.863	8803.18
276.931	8773.48
277	8787.15
277.068	8793.55
277.137	8807.27
277.205	8804.86
277.274	8811.79
277.342	8813.28
277.411	8800.67
277.48	8781.66
277.548	8772.95
277.617	8774.39
277.685	8767.03
277.754	8770.4
277.822	8762.75
277.89	8775.84
277.959	8768.28
278.027	8750.91
278.096	8736.32
278.164	8758.18
278.233	8747.88
278.301	8736.18
278.37	8739.36
278.438	8724.15
278.507	8724.44
278.575	8700.03
278.643	8699.02
278.712	8689.83
278.78	8680.3
278.849	8685.26
278.917	8697.91
278.985	8691.71
279.054	8686.56
279.122	8693.29
279.191	8691.75
279.259	8687.13
279.327	8667.01
279.396	8680.2
279.464	8679.09
279.532	8684
279.601	8682.56
279.669	8677.89
279.737	8688.77
279.806	8692.09
279.874	8696.85
279.942	8702.87
280.011	8698.2
280.079	8697.87
280.147	8706.67
280.215	8711.15
280.284	8708.84
280.352	8702.58
280.42	8712.98
280.488	8707.83
280.557	8703.98
280.625	8708.12
280.693	8702.15
280.761	8703.11
280.83	8688.05
280.898	8700.27
280.966	8688.72
281.034	8660.18
281.102	8651.81
281.171	8649.11
281.239	8655.75
281.307	8644.88
281.375	8624.81
281.443	8648.3
281.512	8651.71
281.58	8656.04
281.648	8641.65
281.716	8636.36
281.784	8627.31
281.852	8622.55
281.92	8625.63
281.989	8637.56
282.057	8622.6
282.125	8667.27
282.193	8665.82
282.261	8666.45
282.329	8651.72
282.397	8652.35
282.465	8653.45
282.533	8664.71
282.601	8656.29
282.67	8633.43
282.738	8630.16
282.806	8646.91
282.874	8635.45
282.942	8634.49
283.01	8626.02
283.078	8624.19
283.146	8621.64
283.214	8631.07
283.282	8625.1
283.35	8627.36
283.418	8618.27
283.486	8619.09
283.554	8579.13
283.622	8579.85
283.69	8576.44
283.758	8576.97
283.826	8586.11
283.894	8590.97
283.962	8609.65
284.03	8622.11
284.098	8619.46
284.165	8611.09
284.233	8604.93
284.301	8599.49
284.369	8592.23
284.437	8586.5
284.505	8581.98
284.573	8599.49
284.641	8594.54
284.709	8606.28
284.777	8593.53
284.845	8597.91
284.912	8602.14
284.98	8608.06
285.048	8604.79
285.116	8604.4
285.184	8615.95
285.252	8609.17
285.319	8597.76
285.387	8587.36
285.455	8565.32
285.523	8576.87
285.591	8573.41
285.659	8571.82
285.726	8579.57
285.794	8564.17
285.862	8561.33
285.93	8562.97
285.997	8558.54
286.065	8549.25
286.133	8535.58
286.201	8533.56
286.269	8524.56
286.336	8518.31
286.404	8510.8
286.472	8519.41
286.539	8505.17
286.607	8486.16
286.675	8487.7
286.743	8495.21
286.81	8488.23
286.878	8502.67
286.946	8490.44
287.013	8498.19
287.081	8502.04
287.149	8488.23
287.216	8507.28
287.284	8503.15
287.352	8506.75
287.419	8495.88
287.487	8511.66
287.555	8512.87
287.622	8509.07
287.69	8507.38
287.758	8512.68
287.825	8510.75
287.893	8500.88
287.96	8508.87
288.028	8523.21
288.096	8524.85
288.163	8522.54
288.231	8518.69
288.298	8519.84
288.366	8538.23
288.433	8530.67
288.501	8519.03
288.569	8523.21
288.636	8514.79
288.704	8525.52
288.771	8532.45
288.839	8531.11
288.906	8525.23
288.974	8540.11
289.041	8542.8
289.109	8534.81
289.176	8547.23
289.244	8550.26
289.311	8564.84
289.379	8572.01
289.446	8576.11
289.514	8574.85
289.581	8576.78
289.649	8571.87
289.716	8575.63
289.783	8565.52
289.851	8589.24
289.918	8588.28
289.986	8595.74
290.053	8599.01
290.121	8599.73
290.188	8593.62
290.255	8620.67
290.323	8610.56
290.39	8600.55
290.458	8604.64
290.525	8614.03
290.592	8609.55
290.66	8615.76
290.727	8600.5
290.794	8610.8
290.862	8613.25
290.929	8615.32
290.996	8609.21
291.064	8623.31
291.131	8628.66
291.198	8646.8
291.266	8640.35
291.333	8649.88
291.4	8652.86
291.468	8672.69
291.535	8668.22
291.602	8676.64
291.669	8665.14
291.737	8669.08
291.804	8671.78
291.871	8685.88
291.938	8697.86
292.006	8720.06
292.073	8726.89
292.14	8736.95
292.207	8737
292.275	8728.91
292.342	8736.03
292.409	8763.85
292.476	8786.82
292.543	8778.63
292.611	8774.01
292.678	8794.04
292.745	8816.28
292.812	8829.71
292.879	8823.5
292.946	8832.16
293.014	8847.61
293.081	8857.19
293.148	8870.62
293.215	8890.45
293.282	8882.85
293.349	8892.09
293.416	8873.26
293.484	8884.38
293.551	8897.33
293.618	8905.66
293.685	8932.76
293.752	8923.95
293.819	8929.15
293.886	8914.04
293.953	8919.38
294.02	8934.54
294.087	8934.69
294.154	8927.03
294.221	8941.52
294.288	8950.09
294.356	8958.81
294.423	8969.74
294.49	8970.17
294.557	8981.48
294.624	8967.09
294.691	8990.82
294.758	8988.8
294.825	8996.84
294.892	8992.89
294.959	8997.65
295.026	9006.85
295.093	9002.8
295.16	9015.56
295.226	9012.33
295.293	9036.12
295.36	9043.39
295.427	9049.26
295.494	9062.21
295.561	9070.2
295.628	9090.96
295.695	9104.68
295.762	9111.9
295.829	9114.02
295.896	9123.7
295.963	9135.35
296.03	9145.6
296.096	9148.64
296.163	9167.56
296.23	9183.4
296.297	9193.65
296.364	9182.44
296.431	9190.57
296.498	9185.76
296.564	9205.88
296.631	9210.41
296.698	9200.54
296.765	9219.84
296.832	9209.64
296.899	9204.2
296.965	9218.98
297.032	9198.8
297.099	9215.12
297.166	9220.47
297.233	9218.45
297.299	9210.26
297.366	9210.6
297.433	9214.07
297.5	9224.27
297.566	9220.9
297.633	9214.79
297.7	9218.54
297.767	9228.56
297.833	9227.74
297.9	9232.31
297.967	9213.39
298.033	9223.84
298.1	9239.97
298.167	9237.08
298.234	9244.35
298.3	9254.08
298.367	9251.62
298.434	9257.69
298.5	9241.17
298.567	9237.99
298.634	9236.6
298.7	9261.49
298.767	9263.8
298.834	9276.17
298.9	9267.89
298.967	9262.79
299.033	9275.74
299.1	9290.91
299.167	9302.9
299.233	9301.55
299.3	9314.89
299.366	9337.95
299.433	9349.31
299.5	9330.73
299.566	9333.18
299.633	9353.75
299.699	9362.9
299.766	9361.02
299.832	9368.87
299.899	9379.94
299.965	9393.43
300.032	9392.41
300.099	9394.77
300.165	9402.48
300.232	9397.37
300.298	9402.62
300.365	9414.04
300.431	9415.34
300.498	9412.73
300.564	9416.15
300.631	9428.67
300.697	9439.56
300.763	9434.55
300.83	9437.34
300.896	9455.45
300.963	9466.14
301.029	9464.98
301.096	9467.39
301.162	9479.81
301.229	9475.53
301.295	9466.52
301.361	9470.9
301.428	9472.49
301.494	9457.08
301.561	9459.2
301.627	9463.97
301.693	9467.29
301.76	9467.39
301.826	9464.6
301.892	9473.84
301.959	9485.93
302.025	9481.84
302.092	9472.69
302.158	9482.85
302.224	9483.86
302.291	9475.82
302.357	9474.57
302.423	9464.36
302.49	9455.98
302.556	9463.63
302.622	9459.49
302.688	9466.52
302.755	9472.93
302.821	9479.09
302.887	9487.42
302.954	9481.55
303.02	9487.66
303.086	9496.76
303.152	9499.32
303.219	9493.97
303.285	9491.32
303.351	9491.13
303.417	9495.37
303.483	9490.89
303.55	9479.57
303.616	9476.25
303.682	9473.99
303.748	9464.65
303.815	9481.79
303.881	9486.51
303.947	9474.81
304.013	9477.74
304.079	9470.81
304.145	9451.26
304.212	9453.14
304.278	9449.43
304.344	9445.24
304.41	9434.74
304.476	9416.54
304.542	9411.87
304.608	9423.14
304.674	9405.85
304.741	9398.34
304.807	9400.6
304.873	9407.44
304.939	9423.09
305.005	9404.55
305.071	9399.88
305.137	9402.19
305.203	9378.98
305.269	9376.67
305.335	9381.05
305.401	9373.2
305.467	9374.35
305.533	9388.61
305.599	9396.41
305.666	9402.33
305.732	9409.89
305.798	9419.48
305.864	9444.42
305.93	9444.08
305.996	9436.72
306.062	9441.82
306.128	9438.11
306.194	9419.28
306.259	9415.34
306.325	9407.1
306.391	9420.34
306.457	9430.02
306.523	9434.21
306.589	9456.22
306.655	9448.08
306.721	9434.69
306.787	9424.58
306.853	9435.61
306.919	9415.34
306.985	9402.96
307.051	9402.09
307.117	9393.38
307.183	9392.9
307.248	9370.46
307.314	9376.04
307.38	9380.38
307.446	9386.78
307.512	9379.75
307.578	9385.96
307.644	9379.99
307.709	9375.75
307.775	9370.31
307.841	9370.12
307.907	9366.84
307.973	9345.99
308.039	9343.78
308.104	9347.05
308.17	9353.65
308.236	9340.07
308.302	9333.62
308.368	9326.3
308.433	9320.81
308.499	9313.88
308.565	9296.88
308.631	9291.15
308.696	9272.56
308.762	9262.02
308.828	9253.83
308.894	9237.75
308.959	9223.64
309.025	9215.94
309.091	9212.28
309.156	9201.78
309.222	9194.22
309.288	9181.51
309.354	9158.31
309.419	9158.07
309.485	9143.29
309.551	9139.05
309.616	9118.35
309.682	9120.56
309.748	9110.93
309.813	9106.65
309.879	9096.15
309.945	9083.73
310.01	9078.53
310.076	9076.85
310.141	9071.12
310.207	9054.84
310.273	9059.37
310.338	9060.52
310.404	9047.72
310.469	9038.48
310.535	9027.5
310.601	9010.41
310.666	9008.53
310.732	9019.17
310.797	9007.04
310.863	9001.07
310.928	8999.33
310.994	9008.53
311.059	9007.57
311.125	9002.41
311.191	9001.31
311.256	8990.48
311.322	8997.79
311.387	8978.11
311.453	9298.59
311.518	9275.3
311.584	9281.07
311.649	9275.39
311.715	9259.99
311.78	9264.37
311.846	9256.86
311.911	9264.51
311.976	9266.1
312.042	9255.32
312.107	9242.85
312.173	9232.89
312.238	9226.77
312.304	9220.61
312.369	9210.5
312.434	9199.38
312.5	9190.48
312.565	9162.85
312.631	9168.19
312.696	9160.44
312.761	9168.81
312.827	8836.82
312.892	8863.3
312.958	8854.54
313.023	8857.86
313.088	8861.56
313.154	8844.04
313.219	8828.26
313.284	8816.94
313.35	8812.95
313.415	8802.41
313.48	8794.71
313.546	8795.04
313.611	8803.28
313.676	8793.94
313.741	8782.67
313.807	8789.08
313.872	8798.46
313.937	8811.02
314.003	8819.16
314.068	8816.94
314.133	8822
314.198	8808.33
314.264	8789.75
314.329	8780.84
314.394	8777.67
314.459	8773.24
314.525	8793.6
314.59	8794.46
314.655	8782.24
314.72	8781.81
314.785	8786.14
314.851	8784.74
314.916	8771.31
314.981	8758.36
315.046	8749.56
315.111	8738.83
315.176	8726.21
315.242	8725.3
315.307	8720.34
315.372	8699.98
315.437	8691.27
315.502	8679.19
315.567	8696.56
315.632	8680.97
315.698	8685.3
315.763	8678.9
315.828	8674.38
315.893	8664.08
315.958	8659.41
316.023	8649.93
316.088	8631.3
316.153	8608.97
316.218	8600.26
316.283	8582.94
316.348	8565.48
316.413	8563.5
316.479	8553.25
316.544	8518.9
316.609	8490.8
316.674	8457.98
316.739	8429.31
316.804	8397.74
316.869	8363.87
316.934	8320.85
316.999	8296.27
317.064	8239.21
317.129	8194.71
317.194	8151.17
317.259	8103.21
317.324	8045.11
317.389	8000.09
317.454	7962.81
317.518	7926.55
317.583	7897.21
317.648	7871.72
317.713	7834.16
317.778	7777.98
317.843	7745.9
317.908	7711.14
317.973	7666.22
318.038	7636.75
318.103	7596.6
318.168	7560.88
318.233	7524.73
318.297	7475.88
318.362	7434.59
318.427	7398.01
318.492	7368.35
318.557	7324.96
318.622	7296.64
318.687	7279.58
318.751	7239.08
318.816	7206.21
318.881	7171.13
318.946	7116.58
319.011	7069.3
319.075	7025.91
319.14	6988.1
319.205	6947.64
319.27	6915.74
319.335	6871.65
319.399	6825.82
319.464	6791.33
319.529	6743.69
319.594	6706.42
319.658	6672.47
319.723	6631.69
319.788	6601.68
319.853	6547.85
319.917	6518.71
319.982	6463.64
320.047	6425.47
320.112	6400.22
320.176	6352.98
320.241	6318.32
320.306	6289.28
320.37	6250.21
320.435	6220.07
320.5	6191.08
320.564	6145.53
320.629	6102.06
320.694	6070.78
320.758	6029.42
320.823	5991.19
320.888	5962.5
320.952	5912.9
321.017	5873.86
321.082	5835.54
321.146	5800.76
321.211	5768.39
321.275	5727.34
321.34	5688.61
321.405	5642.53
321.469	5598.08
321.534	5554.7
321.598	5507.53
321.663	5472.29
321.727	5439.12
321.792	5387.21
321.857	5339.04
321.921	5299.22
321.986	5259.93
322.05	5203.5
322.115	5168.38
322.179	5125.89
322.244	5068.51
322.308	5037.05
322.373	4991.5
322.437	4953.86
322.502	4925.21
322.566	4881.49
322.631	4841.41
322.695	4796.13
322.76	4756.55
322.824	4722.99
322.889	4678.73
322.953	4634.7
323.018	4572.16
323.082	4510.54
323.146	4463.47
323.211	4414.05
323.275	4371.91
323.34	4327.28
323.404	4293.1
323.468	4245.51
323.533	4201.99
323.597	4160.89
323.662	4110.17
323.726	4075.6
323.79	4026.89
323.855	3964.06
323.919	3914.88
323.983	3870.53
324.048	3809.99
324.112	3939.01
324.177	3808.17
324.241	3612.11
324.305	3416.1
324.37	3227.89
324.434	3044.59
324.498	3002.49
324.562	2953.04
324.627	2894.99
324.691	2838.18
324.755	2776.48
324.82	2703.93
324.884	2626.83
324.948	2556.69
325.012	2466.42
325.077	2346.52
