Data from 20250630_urea_2M_MAYP1162681_16-42-27-567.txt Node
Date: Mon Jun 30 16:42:27 BST 2025
User: adleo
Spectrometer: MAYP116268
Trigger mode: 0
Integration Time (sec): 1.000000E0
Scans to average: 1
Electric dark correction enabled: true
Nonlinearity correction enabled: true
Boxcar width: 10
XAxis mode: Wavelengths
Number of Pixels in Spectrum: 2068
>>>>>Begin Spectral Data<<<<<
179.565	1028.57
179.642	1073.23
179.718	1105.96
179.795	1136.79
179.871	1163.25
179.948	1178.36
180.024	1197.56
180.101	1217.89
180.177	1230.99
180.254	1247.97
180.33	1268.51
180.407	1309.13
180.483	1389.8
180.56	1465.43
180.636	1535.03
180.712	1522.15
180.789	1529.94
180.865	1541.05
180.942	1550.64
181.018	1560.47
181.095	1570.26
181.171	1572.49
181.248	1574.06
181.324	1589.12
181.4	1593.4
181.477	1602.61
181.553	1615.29
181.63	1631.35
181.706	1643.61
181.782	1647.45
181.859	1649.59
181.935	1652.58
182.011	1648.83
182.088	1664.89
182.164	1679.81
182.24	1693.25
182.317	1702.13
182.393	1700.19
182.469	1711.4
182.546	1723.61
182.622	1725.51
182.698	1722.14
182.775	1736.35
182.851	1749.51
182.927	1742.76
183.003	1743.23
183.08	1736.68
183.156	1745.09
183.232	1742.24
183.308	1732.93
183.385	1741.24
183.461	1754.78
183.537	1756.78
183.613	1769.37
183.69	1760.34
183.766	1751.36
183.842	1758.2
183.918	1762.29
183.995	1775.4
184.071	1778.3
184.147	1772.89
184.223	1763.05
184.299	1774.27
184.375	1762.87
184.452	1767.71
184.528	1823.15
184.604	1830.75
184.68	1842.58
184.756	1844.01
184.832	1849.1
184.908	1852.9
184.985	1853.56
185.061	1838.88
185.137	1845.11
185.213	1833.22
185.289	1836.12
185.365	1831.85
185.441	1829.71
185.517	1841.97
185.593	1838.65
185.669	1837.27
185.745	1844.78
185.822	1858.79
185.898	1849.71
185.974	1856.7
186.05	1851.52
186.126	1808.25
186.202	1802.88
186.278	1800.17
186.354	1796.13
186.43	1798.31
186.506	1798.55
186.582	1797.89
186.658	1805.3
186.734	1786.81
186.81	1786.86
186.886	1787.95
186.962	1798.65
187.038	1796.65
187.114	1791.71
187.19	1797.36
187.266	1790.09
187.341	1790.42
187.417	1783.63
187.493	1786.62
187.569	1791
187.645	1784.82
187.721	1774.27
187.797	1780.44
187.873	1784.48
187.949	1776.98
188.025	1773.27
188.101	1774.88
188.176	1778.92
188.252	1776.4
188.328	1784.38
188.404	1787.38
188.48	1782.96
188.556	1774.07
188.632	1773.64
188.707	1772.6
188.783	1770.74
188.859	1766.04
188.935	1757.53
189.011	1766.66
189.086	1758.72
189.162	1753.02
189.238	1748.65
189.314	1750.22
189.39	1744.37
189.465	1738.72
189.541	1753.97
189.617	1742
189.693	1738.34
189.768	1740.95
189.844	1763.06
189.92	1756.55
189.996	1764.2
190.071	1774.52
190.147	1776.75
190.223	1784.16
190.298	1776.56
190.374	1765.82
190.45	1775.56
190.526	1783.31
190.601	1777.22
190.677	1781.21
190.753	1804.23
190.828	1810.79
190.904	1823.14
190.98	1836.64
191.055	1844.11
191.131	1833.84
191.207	1851.18
191.282	1858.64
191.358	1852.13
191.433	1838.11
191.509	1851.17
191.585	1847.51
191.66	1847.08
191.736	1855.12
191.811	1847.7
191.887	1861.82
191.963	1881.69
192.038	1885.87
192.114	1885.21
192.189	1887.58
192.265	1882.55
192.34	1862.67
192.416	1860.91
192.491	1857.87
192.567	1861.43
192.642	1865.05
192.718	1869.33
192.793	1858.77
192.869	1855.64
192.944	1857.58
193.02	1861.77
193.095	1863.38
193.171	1869.14
193.246	1868.19
193.322	1862.67
193.397	1863.05
193.473	1850.55
193.548	1833.77
193.624	1838.09
193.699	1838.85
193.775	1855.07
193.85	1858.11
193.925	1866.38
194.001	1863.15
194.076	1855.45
194.152	1847.41
194.227	1839.28
194.302	1829.87
194.378	1831.49
194.453	1828.02
194.529	1838.15
194.604	1827.83
194.679	1822.37
194.755	1804.36
194.83	1814.96
194.905	1813.01
194.981	1820.62
195.056	1815.96
195.131	1823.18
195.207	1820.76
195.282	1808.78
195.357	1791.43
195.433	1801.65
195.508	1792.24
195.583	1799.27
195.659	1812.91
195.734	1814.43
195.809	1815.2
195.884	1823.32
195.96	1825.84
196.035	1839.58
196.11	1835.53
196.185	1845.37
196.261	1848.75
196.336	1878.6
196.411	1868.52
196.486	1874.55
196.561	1866.95
196.637	1874.84
196.712	1890.44
196.787	1894.24
196.862	1909.12
196.937	1917.29
197.013	1926.85
197.088	1933.84
197.163	1953.53
197.238	1967.7
197.313	1970.89
197.388	1981.16
197.464	2008.41
197.539	2017.68
197.614	2013.55
197.689	2028.48
197.764	2041.99
197.839	2060.87
197.914	2053.92
197.989	2069.9
198.065	2082.41
198.14	2128.05
198.215	2150.88
198.29	2158.63
198.365	2170.43
198.44	2180.18
198.515	2204.97
198.59	2214.29
198.665	2239.03
198.74	2248.08
198.815	2249.32
198.89	2268.68
198.965	2299
199.04	2296.29
199.115	2310.8
199.19	2347.68
199.265	2348.87
199.34	2361.29
199.415	2386.38
199.49	2403.61
199.565	2413.75
199.64	2434.4
199.715	2432.69
199.79	2436.02
199.865	2441.88
199.94	2440.07
200.015	2469.68
200.09	2474.92
200.165	2482.3
200.24	2487.01
200.315	2523.76
200.39	2535.76
200.464	2540.37
200.539	2539.04
200.614	2554.04
200.689	2575.33
200.764	2578.52
200.839	2594.99
200.914	2594.7
200.989	2590.32
201.063	2605.7
201.138	2592.76
201.213	2594.19
201.288	2578.28
201.363	2588.24
201.438	2588.76
201.512	2600.94
201.587	2584.61
201.662	2587.56
201.737	2597.08
201.812	2604.37
201.886	2570.91
201.961	2578.59
202.036	2569.21
202.111	2566.59
202.186	2538.46
202.26	2523.69
202.335	2504.69
202.41	2494.79
202.485	2482.65
202.559	2467.75
202.634	2444.32
202.709	2449.22
202.784	2431.61
202.858	2431.94
202.933	2413.52
203.008	2408.9
203.082	2395.71
203.157	2393.95
203.232	2355.84
203.306	2340.13
203.381	2311.37
203.456	2290.58
203.53	2271.76
203.605	2257.35
203.68	2236.83
203.754	2231.55
203.829	2216.75
203.904	2202.58
203.978	2192.53
204.053	2196.63
204.127	2181.31
204.202	2177.36
204.277	2167.51
204.351	2161.85
204.426	2153.76
204.5	2144.96
204.575	2112.19
204.65	2121.28
204.724	2117.04
204.799	2126.31
204.873	2122.27
204.948	2120.46
205.022	2111.71
205.097	2103.53
205.171	2113.75
205.246	2119.27
205.32	2121.84
205.395	2120.36
205.469	2110.14
205.544	2115.71
205.618	2098.35
205.693	2106.24
205.767	2095.78
205.842	2109.67
205.916	2102.06
205.991	2093.79
206.065	2098.26
206.14	2111.52
206.214	2106.81
206.289	2096.34
206.363	2106.52
206.438	2107.19
206.512	2114.32
206.586	2131.3
206.661	2142.58
206.735	2119.24
206.81	2123.52
206.884	2134.55
206.958	2123.57
207.033	2139.07
207.107	2145.97
207.181	2175.09
207.256	2174.86
207.33	2192.41
207.405	2204.36
207.479	2223.06
207.553	2229.38
207.628	2216.64
207.702	2228.01
207.776	2222.44
207.851	2228.96
207.925	2243.28
207.999	2238.91
208.073	2240.52
208.148	2243
208.222	2229.58
208.296	2258.82
208.371	2272.58
208.445	2282.48
208.519	2307.98
208.593	2318.6
208.668	2316.5
208.742	2318.07
208.816	2317.22
208.89	2328.78
208.965	2326.59
209.039	2336.78
209.113	2351.2
209.187	2369.33
209.261	2367.18
209.336	2384.41
209.41	2400.7
209.484	2401.41
209.558	2423.64
209.632	2429.92
209.707	2441.68
209.781	2459.63
209.855	2474.34
209.929	2489.4
210.003	2494.92
210.077	2496.78
210.151	2539.62
210.226	2568.11
210.3	2594.04
210.374	2612.51
210.448	2618.84
210.522	2629.8
210.596	2636.18
210.67	2645.85
210.744	2687.54
210.818	2716.01
210.892	2736.64
210.966	2734.45
211.041	2750.56
211.115	2750.75
211.189	2780.05
211.263	2799.25
211.337	2809.2
211.411	2827.79
211.485	2828.27
211.559	2844.99
211.633	2852.99
211.707	2833.92
211.781	2851.04
211.855	2824.35
211.929	2831.88
212.003	2824.68
212.077	2844.14
212.151	2867.59
212.225	2889.47
212.299	2893.95
212.373	2900.15
212.447	2911.64
212.52	2952.98
212.594	2974.53
212.668	3007.81
212.742	3016.82
212.816	3030.89
212.89	3056.69
212.964	3084.08
213.038	3112.42
213.112	3154.6
213.186	3201.82
213.26	3217.27
213.333	3213.83
213.407	3264.15
213.481	3306.65
213.555	3365.12
213.629	3407.28
213.703	3444.76
213.777	3497.92
213.85	3539.52
213.924	3630.68
213.998	3693.55
214.072	3757.7
214.146	3816.19
214.219	3882.91
214.293	3952.44
214.367	4037.34
214.441	4122.97
214.515	4196.48
214.588	4270.09
214.662	4330.55
214.736	4408.48
214.81	4515.84
214.883	4625.57
214.957	4720.76
215.031	4821.06
215.105	4909.51
215.178	5007.75
215.252	5122.77
215.326	5220.32
215.4	5323.61
215.473	5404.45
215.547	5514.3
215.621	5628.03
215.694	5762.73
215.768	5875.25
215.842	6003.53
215.915	6129.86
215.989	6249.52
216.063	6387.65
216.136	6533.39
216.21	6679.87
216.284	6835.21
216.357	6985.96
216.431	7132.55
216.504	7293.4
216.578	7470.3
216.652	7640
216.725	7799.59
216.799	7964.32
216.873	8130.45
216.946	8305.09
217.02	8461.61
217.093	8626.71
217.167	8778.78
217.24	8934.07
217.314	9106.09
217.387	9261.42
217.461	9424.69
217.535	9607.96
217.608	9767.22
217.682	9932.28
217.755	10111.21
217.829	10273.93
217.902	10442.01
217.976	10610.67
218.049	10773.24
218.123	10927.77
218.196	11099.12
218.27	11258.19
218.343	11410.91
218.417	11577.08
218.49	11740.27
218.563	11919.51
218.637	12090.33
218.71	12271.56
218.784	12435.44
218.857	12603.85
218.931	12775.59
219.004	12939.39
219.077	13107.96
219.151	13268.72
219.224	13422.06
219.298	13576.56
219.371	13750
219.444	13889.94
219.518	14052.39
219.591	14199.03
219.665	14375.41
219.738	14524.79
219.811	14670.08
219.885	14825.58
219.958	14976.8
220.031	15119.48
220.105	15262.64
220.178	15409.32
220.251	15545.63
220.325	15685.94
220.398	15820.13
220.471	15957.5
220.544	16092.84
220.618	16202.93
220.691	16339.18
220.764	16470.09
220.838	16598.29
220.911	16695.17
220.984	16841.73
221.057	16956.2
221.131	17075.87
221.204	17156.78
221.277	17284.54
221.35	17422.48
221.424	17524.55
221.497	17632.16
221.57	17728.5
221.643	17842.38
221.716	17940.4
221.79	18034.85
221.863	18140.39
221.936	18237.21
222.009	18331.13
222.082	18425.78
222.155	18516.52
222.229	18613
222.302	18702.25
222.375	18788.07
222.448	18893.42
222.521	18972.07
222.594	19053.27
222.667	19129.36
222.74	19225.88
222.814	19298.5
222.887	19367.99
222.96	19451.03
223.033	19538.16
223.106	19623.45
223.179	19701.23
223.252	19768.8
223.325	19835.01
223.398	19899.54
223.471	19966.91
223.544	20031.72
223.617	20092.69
223.69	20159.91
223.763	20216.01
223.837	20284.68
223.91	20345.74
223.983	20379.86
224.056	20424.34
224.129	20478.95
224.202	20540.15
224.275	20579.14
224.348	20625.36
224.42	20667.19
224.493	20698.75
224.566	20734.03
224.639	20780.93
224.712	20805.89
224.785	20851.39
224.858	20893.03
224.931	20922.67
225.004	20952.12
225.077	20988.5
225.15	21011.83
225.223	21043.64
225.296	21101.72
225.369	21124.61
225.442	21139.02
225.514	21170.78
225.587	21194.88
225.66	21228.19
225.733	21253.63
225.806	21283.08
225.879	21307.91
225.952	21328.82
226.025	21366.85
226.097	21403.82
226.17	21425.56
226.243	21430.96
226.316	21444.69
226.389	21462.82
226.461	21483.25
226.534	21502
226.607	21513.04
226.68	21545.33
226.753	21566.2
226.825	21561.82
226.898	21581.53
226.971	21603.99
227.044	21633.4
227.117	21659.09
227.189	21667.04
227.262	21690.37
227.335	21696.1
227.407	21696.06
227.48	21708.54
227.553	21724.3
227.626	21721.27
227.698	21720.16
227.771	21734.18
227.844	21729.27
227.916	21734.38
227.989	21729.56
228.062	21735.87
228.134	21771.73
228.207	21783.74
228.28	21778.53
228.352	21774.53
228.425	21780.07
228.498	21797.38
228.57	21791.4
228.643	21810.34
228.716	21817.09
228.788	21815.16
228.861	21829.05
228.934	21847.85
229.006	21843.41
229.079	21839.36
229.151	21831.84
229.224	21824.8
229.296	21839.22
229.369	21867.37
229.442	21881.97
229.514	21874.12
229.587	21880.67
229.659	21856.67
229.732	21847.36
229.804	21856.28
229.877	21871.85
229.949	21873.01
230.022	21883.18
230.094	21886.55
230.167	21886.41
230.239	21876
230.312	21879.13
230.384	21891.66
230.457	21893.06
230.529	21895.76
230.602	21890.36
230.674	21894.65
230.747	21911.23
230.819	21912.63
230.892	21872.86
230.964	21875.08
231.037	21892.58
231.109	21889.35
231.181	21895.37
231.254	21878.5
231.326	21871.95
231.399	21864.67
231.471	21857.78
231.544	21828.76
231.616	21823.6
231.688	21808.85
231.761	21804.61
231.833	21787.54
231.905	21755.25
231.978	21733.8
232.05	21720.83
232.122	21712.97
232.195	21692.78
232.267	21696.68
232.339	21688.49
232.412	21702.71
232.484	21673.16
232.556	21649.01
232.629	21658.94
232.701	21649.93
232.773	21643.9
232.846	21632.43
232.918	21620.81
232.99	21614.69
233.062	21614.5
233.135	21601.05
233.207	21564.47
233.279	21553
233.351	21546.1
233.424	21530.1
233.496	21499.3
233.568	21507.74
233.64	21485.37
233.713	21470.34
233.785	21452.26
233.857	21436.55
233.929	21403.97
234.001	21418.38
234.074	21421.99
234.146	21374.56
234.218	21364.59
234.29	21341.36
234.362	21322.99
234.434	21282.07
234.507	21250.41
234.579	21223.17
234.651	21204.86
234.723	21202.16
234.795	21191.65
234.867	21169.24
234.939	21161.92
235.012	21151.65
235.084	21130.49
235.156	21121.62
235.228	21102.49
235.3	21064.8
235.372	21036.27
235.444	21031.45
235.516	20980.5
235.588	20951.73
235.66	20938.67
235.732	20904.74
235.804	20939.05
235.876	20917.13
235.948	20911.78
236.02	20877.41
236.092	20845.94
236.164	20820.11
236.236	20785.6
236.308	20744.88
236.38	20718.13
236.452	20690.9
236.524	20674.42
236.596	20663.72
236.668	20642.51
236.74	20625.84
236.812	20604.39
236.884	20580.92
236.956	20557.07
237.028	20524.44
237.1	20482.76
237.172	20469.65
237.244	20456.25
237.316	20399.47
237.388	20368.97
237.46	20334.03
237.532	20330.94
237.604	20296.73
237.675	20291.86
237.747	20276.54
237.819	20250.46
237.891	20219.81
237.963	20189.94
238.035	20156.11
238.107	20087.96
238.178	20065.84
238.25	20032.06
238.322	20032.44
238.394	19991.24
238.466	19954.52
238.538	19941.32
238.609	19929.8
238.681	19885.37
238.753	19855.49
238.825	19821.17
238.897	19787.44
238.968	19775.73
239.04	19732.46
239.112	19730.91
239.184	19685.04
239.255	19656.65
239.327	19632.32
239.399	19609.23
239.471	19584.61
239.542	19559.55
239.614	19546.49
239.686	19488.76
239.758	19468.23
239.829	19417.87
239.901	19415.94
239.973	19389.24
240.044	19365.82
240.116	19331.27
240.188	19304.82
240.259	19262.02
240.331	19221.45
240.403	19200.92
240.474	19147.96
240.546	19107.33
240.618	19058.23
240.689	19021.6
240.761	18995.77
240.833	18984.31
240.904	18946.57
240.976	18913.08
241.048	18885.23
241.119	18857.04
241.191	18834.24
241.262	18808.51
241.334	18773.43
241.405	18724.13
241.477	18681.19
241.549	18634.88
241.62	18606.4
241.692	18577.34
241.763	18556.48
241.835	18524.19
241.906	18490.65
241.978	18452.29
242.049	18432.34
242.121	18407.52
242.192	18384.58
242.264	18330.46
242.335	18272.39
242.407	18240.4
242.478	18204.25
242.55	18175.58
242.621	18139
242.693	18102.47
242.764	18068.79
242.836	18036.02
242.907	18012.45
242.979	17990.05
243.05	17963.97
243.122	17938.29
243.193	17900.36
243.264	17849.62
243.336	17818.68
243.407	17794.97
243.479	17775.31
243.55	17751.74
243.622	17724.37
243.693	17694.49
243.764	17681.52
243.836	17644.42
243.907	17615.64
243.978	17570.3
244.05	17532.32
244.121	17479.5
244.192	17458.34
244.264	17407.74
244.335	17373.72
244.407	17318.58
244.478	17291.93
244.549	17255.07
244.62	17202.73
244.692	17177.38
244.763	17159.98
244.834	17120.65
244.906	17083.5
244.977	17061.04
245.048	17035.98
245.119	16992.27
245.191	16940.46
245.262	16883.54
245.333	16862.72
245.405	16827.44
245.476	16801.32
245.547	16776.4
245.618	16755.39
245.689	16725.17
245.761	16702.28
245.832	16672.88
245.903	16653.98
245.974	16619.47
246.045	16584.77
246.117	16579.71
246.188	16530.79
246.259	16477.15
246.33	16451.22
246.401	16414.16
246.473	16362.1
246.544	16318.68
246.615	16300.56
246.686	16271.25
246.757	16253.9
246.828	16220.79
246.899	16201.8
246.97	16162.32
247.042	16125.21
247.113	16102.03
247.184	16091.47
247.255	16047.52
247.326	16010.64
247.397	15975.56
247.468	15945.09
247.539	15923.21
247.61	15869.52
247.681	15854.77
247.752	15842.19
247.823	15800.25
247.894	15771.19
247.965	15737.3
248.037	15708.67
248.108	15651.32
248.179	15624.85
248.25	15592.12
248.321	15562.34
248.392	15518.43
248.463	15510.04
248.534	15468.92
248.605	15444.97
248.675	15402.02
248.746	15379.75
248.817	15357.39
248.888	15335.26
248.959	15294.29
249.03	15268.07
249.101	15238.28
249.172	15199.52
249.243	15140.86
249.314	15122.98
249.385	15092.32
249.456	15074.1
249.527	15037.9
249.598	15017.99
249.669	14988.06
249.739	14964.58
249.81	14945.98
249.881	14915.22
249.952	14890.06
250.023	14868.75
250.094	14829.13
250.165	14787.1
250.235	14757.07
250.306	14737.59
250.377	14702.79
250.448	14676.52
250.519	14630.1
250.59	14622.91
250.66	14594.67
250.731	14592.83
250.802	14573.17
250.873	14551.19
250.944	14527.56
251.014	14496.18
251.085	14488.33
251.156	14461.96
251.227	14452.27
251.297	14438.24
251.368	14424.26
251.439	14403.48
251.51	14396.11
251.58	14363.23
251.651	14340.91
251.722	14329.54
251.792	14284.85
251.863	14256.17
251.934	14249.08
252.005	14248.36
252.075	14223.34
252.146	14206.37
252.217	14193.31
252.287	14172.1
252.358	14150.84
252.429	14140.09
252.499	14114.59
252.57	14098.05
252.641	14089.95
252.711	14065.66
252.782	14018.61
252.852	14013.07
252.923	13980.38
252.994	13953.44
253.064	13941.05
253.135	13914.15
253.205	13882.67
253.276	13875.34
253.347	13870.09
253.417	13831.09
253.488	13796.57
253.558	13759.98
253.629	13734
253.699	13705.99
253.77	13686.47
253.841	13662.61
253.911	13640.33
253.982	13619.65
254.052	13606.06
254.123	13575.01
254.193	13549.75
254.264	13562.67
254.334	13522.04
254.405	13489.64
254.475	13455.37
254.546	13439.7
254.616	13426.44
254.687	13406.53
254.757	13384.5
254.827	13358.76
254.898	13345.55
254.968	13331.14
255.039	13309.88
255.109	13299.47
255.18	13273.43
255.25	13241.09
255.321	13219.97
255.391	13184.25
255.461	13183.77
255.532	13132.96
255.602	13108.95
255.673	13065.62
255.743	13031.53
255.813	12989.6
255.884	12982.89
255.954	12970.55
256.024	12955.32
256.095	12932.76
256.165	12907.31
256.235	12890.39
256.306	12859.05
256.376	12845.46
256.446	12827.86
256.517	12806.8
256.587	12797.21
256.657	12779.32
256.728	12752.52
256.798	12733.19
256.868	12704.89
256.938	12673.27
257.009	12669.41
257.079	12662.13
257.149	12666.38
257.219	12629.98
257.29	12618.22
257.36	12584.14
257.43	12565.58
257.5	12523.3
257.571	12502.77
257.641	12480.69
257.711	12451.53
257.781	12435.67
257.852	12418.94
257.922	12378.07
257.992	12361.48
258.062	12328.9
258.132	12311.88
258.202	12293.61
258.273	12271.68
258.343	12265.27
258.413	12243.58
258.483	12214.41
258.553	12178.26
258.623	12152.76
258.693	12139.17
258.764	12134.3
258.834	12126.88
258.904	12113.28
258.974	12086.87
259.044	12058.14
259.114	12046.77
259.184	12031.73
259.254	12012.78
259.324	11974.42
259.394	11967.23
259.464	11960.92
259.535	11937.45
259.605	11920.19
259.675	11889.34
259.745	11873.63
259.815	11847.46
259.885	11818.2
259.955	11824.66
260.025	11802.05
260.095	11778.63
260.165	11763.25
260.235	11758.24
260.305	11727.54
260.375	11697.08
260.445	11702.57
260.515	11703.63
260.585	11691.72
260.655	11663.58
260.725	11654.42
260.795	11644.2
260.865	11644.59
260.934	11617.31
261.004	11618.46
261.074	11595.47
261.144	11592.24
261.214	11588.87
261.284	11570.46
261.354	11568.63
261.424	11545.3
261.494	11542.36
261.564	11523.71
261.634	11515.95
261.703	11479.17
261.773	11472.76
261.843	11462.83
261.913	11436.86
261.983	11400.71
262.053	11394.45
262.123	11379.41
262.192	11351.31
262.262	11341.05
262.332	11307.12
262.402	11300.13
262.472	11272.8
262.541	11238.15
262.611	11234.01
262.681	11205.38
262.751	11194.83
262.821	11171.26
262.89	11140.9
262.96	11129.72
263.03	11137.52
263.1	11120.51
263.169	11103.21
263.239	11084.8
263.309	11081.48
263.379	11079.31
263.448	11067.65
263.518	11051.21
263.588	11038.35
263.657	11038.97
263.727	11033.04
263.797	11014.78
263.867	10993.38
263.936	10965.92
264.006	10967.41
264.076	10950.54
264.145	10933.2
264.215	10912.81
264.285	10911.75
264.354	10879.28
264.424	10856.15
264.494	10815.09
264.563	10792.73
264.633	10795.72
264.702	10790.37
264.772	10759.38
264.842	10734.18
264.911	10727.63
264.981	10699.92
265.05	10685.8
265.12	10664.84
265.19	10648.99
265.259	10644.79
265.329	10634.53
265.398	10626.82
265.468	10631.79
265.537	10606.34
265.607	10596.23
265.676	10598.35
265.746	10580.23
265.815	10572.57
265.885	10556.77
265.955	10539.13
266.024	10518.17
266.094	10481.75
266.163	10472.79
266.232	10468.84
266.302	10458.38
266.371	10443.06
266.441	10427.93
266.51	10419.88
266.58	10403.46
266.649	10386.21
266.719	10386.11
266.788	10378.21
266.858	10373.92
266.927	10341.01
266.996	10332.29
267.066	10317.84
267.135	10282.57
267.205	10274.62
267.274	10271.25
267.343	10268.36
267.413	10254.1
267.482	10255.89
267.552	10261.52
267.621	10238.35
267.69	10209.73
267.76	10193.11
267.829	10182.71
267.898	10171.05
267.968	10146.29
268.037	10137.14
268.106	10134.58
268.176	10097.97
268.245	10078.65
268.314	10060.49
268.384	10057.41
268.453	10042.04
268.522	10038.62
268.592	10040.5
268.661	10015.16
268.73	10005.96
268.799	9988.09
268.869	9990.88
268.938	9967.47
269.007	9942.66
269.076	9930.09
269.146	9929.08
269.215	9922.67
269.284	9923.44
269.353	9905.19
269.422	9894.01
269.492	9880.05
269.561	9839.92
269.63	9839.01
269.699	9829.81
269.768	9825.95
269.838	9815.16
269.907	9810.35
269.976	9779.86
270.045	9747.69
270.114	9752.12
270.183	9729.82
270.253	9719.66
270.322	9693.12
270.391	9671.83
270.46	9668.12
270.529	9661.91
270.598	9658.83
270.667	9649.2
270.736	9623.76
270.806	9618.56
270.875	9621.93
270.944	9612.69
271.013	9628.05
271.082	9618.08
271.151	9605.75
271.22	9573.44
271.289	9561.69
271.358	9544.3
271.427	9543.58
271.496	9538.38
271.565	9512.76
271.634	9507.51
271.703	9510.78
271.772	9517.86
271.841	9510.35
271.91	9496.15
271.979	9482.66
272.048	9457.57
272.117	9449.67
272.186	9440.52
272.255	9437.92
272.324	9426.22
272.393	9413.84
272.462	9398.38
272.531	9382.4
272.6	9372.33
272.669	9379.55
272.738	9364.19
272.807	9357.79
272.876	9342.38
272.945	9365.06
273.013	9368.38
273.082	9366.31
273.151	9346.96
273.22	9342.81
273.289	9340.74
273.358	9344.55
273.427	9336.41
273.496	9339.44
273.564	9331.69
273.633	9336.94
273.702	9312.38
273.771	9304.68
273.84	9304.15
273.909	9301.55
273.977	9297.6
274.046	9287.78
274.115	9287.25
274.184	9273.53
274.253	9275.55
274.322	9274.73
274.39	9244.68
274.459	9232.79
274.528	9213.05
274.597	9202.8
274.665	9189.17
274.734	9189.12
274.803	9178.72
274.872	9176.51
274.94	9153.3
275.009	9202.86
275.078	9180.86
275.147	9185.96
275.215	9180.86
275.284	9183.75
275.353	9173.35
275.421	9161.02
275.49	9177.44
275.559	9164.01
275.627	9162.32
275.696	9152.07
275.765	9151.25
275.833	9140.23
275.902	9137.29
275.971	9152.74
276.039	9165.31
276.108	9166.85
276.177	9168.49
276.245	9161.46
276.314	9156.79
276.383	9168.49
276.451	9112.67
276.52	9113.1
276.588	9119.31
276.657	9121.04
276.725	9110.36
276.794	9102.7
276.863	9110.84
276.931	9083.44
277	9088.35
277.068	9089.65
277.137	9102.6
277.205	9098.85
277.274	9117.43
277.342	9129.08
277.411	9103.37
277.48	9087.44
277.548	9080.99
277.617	9077.38
277.685	9068.57
277.754	9062.45
277.822	9049.45
277.89	9059.28
277.959	9054.7
278.027	9039.92
278.096	9025.34
278.164	9045.9
278.233	9042.14
278.301	9030.25
278.37	9033.96
278.438	9019.56
278.507	9025.29
278.575	8996.6
278.643	8993.57
278.712	8969.06
278.78	8947.93
278.849	8958.42
278.917	8962.95
278.985	8958.42
279.054	8959.43
279.122	8968.82
279.191	8969.11
279.259	8964.83
279.327	8938.44
279.396	8953.7
279.464	8947.74
279.532	8959.19
279.601	8951.78
279.669	8945.71
279.737	8956.83
279.806	8960.01
279.874	8971.03
279.942	8967.28
280.011	8966.75
280.079	8973.54
280.147	8993.8
280.215	9001.26
280.284	8993.56
280.352	8981
280.42	8982.06
280.488	8978.25
280.557	8970.89
280.625	8978.06
280.693	8982.35
280.761	8990.67
280.83	8974.98
280.898	8989.95
280.966	8970.65
281.034	8940.22
281.102	8927.52
281.171	8919.91
281.239	8927.03
281.307	8917.26
281.375	8905.42
281.443	8929.06
281.512	8923.14
281.58	8931.03
281.648	8920.34
281.716	8917.99
281.784	8922.22
281.852	8918.52
281.92	8909.18
281.989	8920.63
282.057	8902.58
282.125	8936.33
282.193	8936.43
282.261	8929.45
282.329	8918.19
282.397	8925.41
282.465	8933.68
282.533	8948.41
282.601	8940.23
282.67	8918.23
282.738	8914.14
282.806	8919.91
282.874	8903.88
282.942	8906.82
283.01	8892.14
283.078	8891.94
283.146	8887.66
283.214	8897.05
283.282	8896.95
283.35	8909.85
283.418	8903.98
283.486	8907.3
283.554	8871.53
283.622	8872.78
283.69	8875.67
283.758	8872.63
283.826	8873.98
283.894	8881.4
283.962	8898.29
284.03	8906.57
284.098	8909.46
284.165	8895.07
284.233	8895.55
284.301	8896.8
284.369	8887.71
284.437	8886.31
284.505	8882.94
284.573	8898.1
284.641	8881.59
284.709	8886.74
284.777	8869.99
284.845	8877.69
284.912	8877.69
284.98	8883.03
285.048	8871.87
285.116	8876.78
285.184	8887.22
285.252	8884.53
285.319	8865.42
285.387	8855.45
285.455	8839.95
285.523	8836.29
285.591	8842.94
285.659	8844.33
285.726	8850.2
285.794	8836.78
285.862	8832.01
285.93	8827.29
285.997	8820.94
286.065	8813.87
286.133	8802.31
286.201	8799.23
286.269	8782.33
286.336	8779.93
286.404	8773.14
286.472	8779.54
286.539	8759.52
286.607	8740.03
286.675	8739.35
286.743	8745.37
286.81	8737.76
286.878	8751.1
286.946	8750.28
287.013	8747.29
287.081	8744.02
287.149	8731.41
287.216	8744.69
287.284	8741.56
287.352	8741.76
287.419	8742.57
287.487	8758.03
287.555	8768.66
287.622	8769.29
287.69	8774.49
287.758	8783.83
287.825	8782.77
287.893	8771.84
287.96	8773.86
288.028	8786.52
288.096	8794.61
288.163	8799.85
288.231	8795.04
288.298	8792.3
288.366	8803.08
288.433	8801.35
288.501	8801.06
288.569	8801.39
288.636	8805.39
288.704	8814.97
288.771	8826.47
288.839	8817.81
288.906	8811.74
288.974	8818.19
289.041	8815.74
289.109	8805.05
289.176	8810.59
289.244	8813.53
289.311	8829.94
289.379	8839.61
289.446	8843.9
289.514	8838.89
289.581	8838.99
289.649	8838.89
289.716	8839.71
289.783	8832.2
289.851	8852.27
289.918	8848.66
289.986	8862.09
290.053	8860.94
290.121	8856.03
290.188	8861.85
290.255	8893.63
290.323	8892.33
290.39	8883.27
290.458	8892.23
290.525	8905.13
290.592	8899.21
290.66	8895.74
290.727	8887.65
290.794	8898.58
290.862	8902.34
290.929	8911.39
290.996	8913.36
291.064	8918.56
291.131	8925.68
291.198	8938.58
291.266	8940.22
291.333	8945.71
291.4	8946
291.468	8961.93
291.535	8960.73
291.602	8956.4
291.669	8938.92
291.737	8940.94
291.804	8949.99
291.871	8961.45
291.938	8970.07
292.006	8996.31
292.073	9007.19
292.14	9018.79
292.207	9018.98
292.275	9021.87
292.342	9027.12
292.409	9050.27
292.476	9073.77
292.543	9073.38
292.611	9075.5
292.678	9084.7
292.745	9101.26
292.812	9111.47
292.879	9107.52
292.946	9115.84
293.014	9132.94
293.081	9145.5
293.148	9156.62
293.215	9166.01
293.282	9161.24
293.349	9169.19
293.416	9146.75
293.484	9164.9
293.551	9175.4
293.618	9190.32
293.685	9208.38
293.752	9199.47
293.819	9196.25
293.886	9189.51
293.953	9195.38
294.02	9208.62
294.087	9214.25
294.154	9216.18
294.221	9231.49
294.288	9234.86
294.356	9252.68
294.423	9260.82
294.49	9260.38
294.557	9272.32
294.624	9265.39
294.691	9292.21
294.758	9296.35
294.825	9309.64
294.892	9302.13
294.959	9308.58
295.026	9314.94
295.093	9305.64
295.16	9305.21
295.226	9311.47
295.293	9330.39
295.36	9338
295.427	9349.22
295.494	9360.15
295.561	9366.75
295.628	9383.17
295.695	9398.97
295.762	9399.69
295.829	9406.39
295.896	9415.92
295.963	9427.86
296.03	9435.66
296.096	9435.37
296.163	9438.94
296.23	9454.73
296.297	9467.44
296.364	9462.48
296.431	9468.31
296.498	9468.79
296.564	9503.75
296.631	9509.29
296.698	9498.84
296.765	9516.61
296.832	9502.06
296.899	9491.37
296.965	9506.93
297.032	9492.87
297.099	9514.59
297.166	9524.75
297.233	9519.74
297.299	9518.54
297.366	9519.6
297.433	9526.72
297.5	9534.19
297.566	9540.16
297.633	9536.84
297.7	9540.3
297.767	9542.9
297.833	9547.09
297.9	9548.59
297.967	9531.59
298.033	9532.45
298.1	9554.75
298.167	9546.18
298.234	9546.47
298.3	9557.79
298.367	9550.75
298.434	9559.38
298.5	9540.83
298.567	9534.91
298.634	9539.15
298.7	9549.64
298.767	9550.9
298.834	9565.63
298.9	9558.07
298.967	9550.08
299.033	9565.88
299.1	9579.36
299.167	9592.07
299.233	9586.44
299.3	9605.51
299.366	9616.25
299.433	9638.45
299.5	9617.31
299.566	9622.85
299.633	9643.89
299.699	9652.85
299.766	9651.79
299.832	9652.03
299.899	9663.64
299.965	9678.14
300.032	9671.2
300.099	9684.64
300.165	9689.65
300.232	9683.53
300.298	9685.8
300.365	9708.19
300.431	9703.33
300.498	9696.68
300.564	9703.62
300.631	9719.12
300.697	9725.87
300.763	9724.9
300.83	9712.52
300.896	9727.45
300.963	9738.77
301.029	9744.46
301.096	9749.27
301.162	9761.94
301.229	9758.76
301.295	9742.29
301.361	9740.41
301.428	9746.43
301.494	9730.87
301.561	9738.39
301.627	9745.8
301.693	9751.49
301.76	9741.95
301.826	9738.53
301.892	9749.32
301.959	9752.88
302.025	9747.2
302.092	9743.83
302.158	9758.08
302.224	9766.03
302.291	9759.1
302.357	9749.71
302.423	9745.51
302.49	9745.18
302.556	9750.62
302.622	9752.98
302.688	9765.02
302.755	9779.52
302.821	9786.74
302.887	9792.62
302.954	9787.03
303.02	9785.2
303.086	9786.31
303.152	9787.95
303.219	9787.71
303.285	9791.7
303.351	9794.5
303.417	9796.47
303.483	9786.07
303.55	9773.16
303.616	9772.73
303.682	9773.6
303.748	9771.09
303.815	9779.66
303.881	9778.89
303.947	9768.92
304.013	9768.54
304.079	9765.07
304.145	9743.93
304.212	9744.36
304.278	9742.14
304.344	9736.17
304.41	9728.8
304.476	9725
304.542	9718.69
304.608	9716.52
304.674	9703.32
304.741	9701.73
304.807	9700.77
304.873	9709.15
304.939	9727.65
305.005	9706.89
305.071	9703.85
305.137	9704.05
305.203	9688.83
305.269	9689.02
305.335	9697.93
305.401	9690.08
305.467	9687.62
305.533	9696.48
305.599	9702.07
305.666	9700.39
305.732	9699.33
305.798	9711.27
305.864	9726.73
305.93	9729.81
305.996	9735.16
306.062	9732.03
306.128	9725.53
306.194	9720.71
306.259	9715.99
306.325	9701.69
306.391	9709.78
306.457	9717.24
306.523	9719.7
306.589	9736.03
306.655	9723.74
306.721	9707.32
306.787	9699.28
306.853	9712.04
306.919	9697.21
306.985	9691.53
307.051	9688.68
307.117	9685.02
307.183	9675.15
307.248	9650.25
307.314	9657.19
307.38	9655.26
307.446	9661.23
307.512	9647.84
307.578	9644.13
307.644	9639.51
307.709	9647.51
307.775	9640.38
307.841	9631.13
307.907	9627.18
307.973	9605.51
308.039	9608.88
308.104	9616.63
308.17	9615.77
308.236	9598.76
308.302	9602.62
308.368	9593.71
308.433	9597.03
308.499	9593.9
308.565	9577.14
308.631	9579.89
308.696	9557.3
308.762	9544.06
308.828	9540.3
308.894	9522.82
308.959	9509.58
309.025	9501.78
309.091	9490.41
309.156	9487.76
309.222	9493.15
309.288	9488.15
309.354	9468.31
309.419	9462.24
309.485	9445.14
309.551	9449.86
309.616	9435.13
309.682	9429.35
309.748	9415.34
309.813	9408.74
309.879	9394.29
309.945	9386.97
310.01	9381.58
310.076	9382.35
310.141	9378.45
310.207	9360.68
310.273	9368.72
310.338	9370.94
310.404	9351.15
310.469	9339.98
310.535	9327.5
310.601	9304.2
310.666	9302.18
310.732	9306.08
310.797	9297.41
310.863	9287.25
310.928	9272.37
310.994	9277.18
311.059	9272.71
311.125	9267.41
311.191	9269.53
311.256	9261.49
311.322	9271.21
311.387	9246.52
311.453	9539.78
311.518	9516.48
311.584	9514.99
311.649	9512.92
311.715	9497.94
311.78	9501.12
311.846	9489.08
311.911	9490.05
311.976	9491.39
312.042	9475.46
312.107	9466.17
312.173	9453.5
312.238	9444.5
312.304	9443.01
312.369	9427.74
312.434	9412
312.5	9402.61
312.565	9371.03
312.631	9377.91
312.696	9365.35
312.761	9373.96
312.827	9068.66
312.892	9101.21
312.958	9099.28
313.023	9094.27
313.088	9099.57
313.154	9085.51
313.219	9073.67
313.284	9068.52
313.35	9064.38
313.415	9053.16
313.48	9048.25
313.546	9047.05
313.611	9053.31
313.676	9047.43
313.741	9037.95
313.807	9045.75
313.872	9049.17
313.937	9056.39
314.003	9060.38
314.068	9063.37
314.133	9060.87
314.198	9051.57
314.264	9028.89
314.329	9017.68
314.394	9016.67
314.459	9008.67
314.525	9026.29
314.59	9021.43
314.655	9009.35
314.72	9006.8
314.785	9004.73
314.851	8995.15
314.916	8981.43
314.981	8970.12
315.046	8958.9
315.111	8953.89
315.176	8942.97
315.242	8943.83
315.307	8937.86
315.372	8919.57
315.437	8903.92
315.502	8895.88
315.567	8902.19
315.632	8886.21
315.698	8888.9
315.763	8880.72
315.828	8868.64
315.893	8859.83
315.958	8857.28
316.023	8844.28
316.088	8822.53
316.153	8806.93
316.218	8805.68
316.283	8788.65
316.348	8768.53
316.413	8761.02
316.479	8741.1
316.544	8703.42
316.609	8672.18
316.674	8638.69
316.739	8607.02
316.804	8578.29
316.869	8541.87
316.934	8505.05
316.999	8471.37
317.064	8416.17
317.129	8372.43
317.194	8336.59
317.259	8286.11
317.324	8235.74
317.389	8188.31
317.454	8149.39
317.518	8107.54
317.583	8067.52
317.648	8035.29
317.713	7997.19
317.778	7939.09
317.843	7910.66
317.908	7876.04
317.973	7836.88
318.038	7802.93
318.103	7762.35
318.168	7725.89
318.233	7691.42
318.297	7642.85
318.362	7603.81
318.427	7559.58
318.492	7531.16
318.557	7477.91
318.622	7446.9
318.687	7416.76
318.751	7379.51
318.816	7343.75
318.881	7309.1
318.946	7258.64
319.011	7218.17
319.075	7177.66
319.14	7142.2
319.205	7093.28
319.27	7055.17
319.335	7010.01
319.399	6968.4
319.464	6932.71
319.529	6872.57
319.594	6830.92
319.658	6795.47
319.723	6751.91
319.788	6720.93
319.853	6664.06
319.917	6634.19
319.982	6581.61
320.047	6544.34
320.112	6515.49
320.176	6467.86
320.241	6430.7
320.306	6395.51
320.37	6353.65
320.435	6317.5
320.5	6289.76
320.564	6242.68
320.629	6197.81
320.694	6160.09
320.758	6115.61
320.823	6070.26
320.888	6048.48
320.952	5999.31
321.017	5953.16
321.082	5914.69
321.146	5882.64
321.211	5845.71
321.275	5799.58
321.34	5754.7
321.405	5702.91
321.469	5652.75
321.534	5610.52
321.598	5559.51
321.663	5532.85
321.727	5496.5
321.792	5443.49
321.857	5390.37
321.921	5352.61
321.986	5309.64
322.05	5250.71
322.115	5213.48
322.179	5167.4
322.244	5107.67
322.308	5071.6
322.373	5024.42
322.437	4982.94
322.502	4954.57
322.566	4905.3
322.631	4869.34
322.695	4831.9
322.76	4791.98
322.824	4757.37
322.889	4709.85
322.953	4667.07
323.018	4598.19
323.082	4536.66
323.146	4485.91
323.211	4434.1
323.275	4393.34
323.34	4347.09
323.404	4315.39
323.468	4270.52
323.533	4231.17
323.597	4185.05
323.662	4136.19
323.726	4100.66
323.79	4049.85
323.855	3977.5
323.919	3932.1
323.983	3888.65
324.048	3819.5
324.112	3949.48
324.177	3811.8
324.241	3615.65
324.305	3419.49
324.37	3227.69
324.434	3040.48
324.498	3001.58
324.562	2953.31
324.627	2891.42
324.691	2837.83
324.755	2772.27
324.82	2695.9
324.884	2616.15
324.948	2546.96
325.012	2452.62
325.077	2332.28
