Data from 20250630_urea_2M_MAYP1162681_09-42-26-644.txt Node
Date: Tue Jul 01 09:42:26 BST 2025
User: adleo
Spectrometer: MAYP116268
Trigger mode: 0
Integration Time (sec): 1.000000E0
Scans to average: 1
Electric dark correction enabled: true
Nonlinearity correction enabled: true
Boxcar width: 10
XAxis mode: Wavelengths
Number of Pixels in Spectrum: 2068
>>>>>Begin Spectral Data<<<<<
179.565	1096.14
179.642	1141.72
179.718	1180.05
179.795	1214.04
179.871	1242.24
179.948	1259.69
180.024	1277.13
180.101	1298.12
180.177	1311.5
180.254	1331.32
180.33	1352.1
180.407	1395.91
180.483	1480.9
180.56	1564.51
180.636	1640.14
180.712	1628.45
180.789	1635
180.865	1645.4
180.942	1654.48
181.018	1661.13
181.095	1672.06
181.171	1678.9
181.248	1681.8
181.324	1697.81
181.4	1704.61
181.477	1716.63
181.553	1727.84
181.63	1748.13
181.706	1762.96
181.782	1770.28
181.859	1769.71
181.935	1774.22
182.011	1770.94
182.088	1788.81
182.164	1803.69
182.24	1816.57
182.317	1824.79
182.393	1826.79
182.469	1843.18
182.546	1854.16
182.622	1858.58
182.698	1857.16
182.775	1868.99
182.851	1883.44
182.927	1874.84
183.003	1871.7
183.08	1864.62
183.156	1871.32
183.232	1867
183.308	1856.16
183.385	1864
183.461	1884.92
183.537	1885.16
183.613	1896.23
183.69	1888.43
183.766	1881.16
183.842	1886.67
183.918	1894.09
183.995	1903.93
184.071	1906.07
184.147	1901.84
184.223	1892.9
184.299	1902.56
184.375	1887.96
184.452	1892.86
184.528	1946.7
184.604	1954.35
184.68	1965.38
184.756	1972.41
184.832	1979.02
184.908	1983.73
184.985	1979.92
185.061	1959.77
185.137	1969.32
185.213	1963.24
185.289	1963.81
185.365	1956.39
185.441	1957.87
185.517	1970
185.593	1967.43
185.669	1962.58
185.745	1970.81
185.822	1987.35
185.898	1981.35
185.974	1990.24
186.05	1983.15
186.126	1945.96
186.202	1940.69
186.278	1936.17
186.354	1926.85
186.43	1931.94
186.506	1931.27
186.582	1932.04
186.658	1939.97
186.734	1920.82
186.81	1920.34
186.886	1922.24
186.962	1933.98
187.038	1930.8
187.114	1921.19
187.19	1930.61
187.266	1924.33
187.341	1926.66
187.417	1918.1
187.493	1915.58
187.569	1917.72
187.645	1911.73
187.721	1898.66
187.797	1906.64
187.873	1912.4
187.949	1909.4
188.025	1901.89
188.101	1901.98
188.176	1908.68
188.252	1904.31
188.328	1912.15
188.404	1910.63
188.48	1906.97
188.556	1898.32
188.632	1896.08
188.707	1896.46
188.783	1892.9
188.859	1888.57
188.935	1879.21
189.011	1886.48
189.086	1881.77
189.162	1876.59
189.238	1871.93
189.314	1869.84
189.39	1863.62
189.465	1857.53
189.541	1871.94
189.617	1856.82
189.693	1853.83
189.768	1857.39
189.844	1880.27
189.92	1873.66
189.996	1882.03
190.071	1888.54
190.147	1888.16
190.223	1896.67
190.298	1890.59
190.374	1877.94
190.45	1890.39
190.526	1896.24
190.601	1893.1
190.677	1893.96
190.753	1918.03
190.828	1922.21
190.904	1937.14
190.98	1954.45
191.055	1963.96
191.131	1955.92
191.207	1977.08
191.282	1988.01
191.358	1977.07
191.433	1962.76
191.509	1975.3
191.585	1974.12
191.66	1978.58
191.736	1987.19
191.811	1979.3
191.887	1995.52
191.963	2019.15
192.038	2021.77
192.114	2020.34
192.189	2021.96
192.265	2018.53
192.34	1999.41
192.416	2001.41
192.491	1996.65
192.567	1997.37
192.642	2000.31
192.718	2000.98
192.793	1991.09
192.869	1986
192.944	1989.95
193.02	1996.32
193.095	1998.27
193.171	2003.69
193.246	2001.79
193.322	1997.65
193.397	1999.6
193.473	1986.33
193.548	1966.12
193.624	1970.82
193.699	1972.44
193.775	1988.61
193.85	1991.42
193.925	2001.02
194.001	2000.79
194.076	1992.89
194.152	1983.14
194.227	1974.63
194.302	1965.88
194.378	1968.69
194.453	1965.31
194.529	1976.49
194.604	1964.51
194.679	1954.86
194.755	1936.41
194.83	1946.92
194.905	1943.74
194.981	1949.59
195.056	1942.41
195.131	1948.78
195.207	1947.92
195.282	1938.42
195.357	1918.16
195.433	1933.94
195.508	1923.86
195.583	1930.37
195.659	1943.64
195.734	1950.63
195.809	1950.68
195.884	1959.76
195.96	1958
196.035	1971.64
196.11	1967.36
196.185	1977.49
196.261	1983.43
196.336	2015.2
196.411	2005.92
196.486	2013.01
196.561	2009.01
196.637	2018.33
196.712	2031.13
196.787	2034.08
196.862	2047.82
196.937	2057.09
197.013	2062.18
197.088	2070.79
197.163	2088.58
197.238	2107.05
197.313	2105.38
197.388	2118.27
197.464	2145.54
197.539	2157.85
197.614	2151.39
197.689	2162.23
197.764	2179.03
197.839	2201.39
197.914	2193.49
197.989	2210.05
198.065	2223.18
198.14	2269.03
198.215	2292.01
198.29	2302.58
198.365	2314.24
198.44	2324.09
198.515	2351.36
198.59	2365.35
198.665	2393.11
198.74	2402.15
198.815	2402.82
198.89	2423.14
198.965	2450.33
199.04	2447.71
199.115	2462.23
199.19	2504.31
199.265	2506.22
199.34	2518.03
199.415	2545.51
199.49	2566.41
199.565	2576.65
199.64	2597.74
199.715	2593.07
199.79	2600.46
199.865	2605.79
199.94	2606.46
200.015	2637.61
200.09	2642.23
200.165	2646.85
200.24	2648.66
200.315	2684.41
200.39	2698.23
200.464	2702.61
200.539	2704.33
200.614	2717.9
200.689	2740.15
200.764	2746.11
200.839	2766.49
200.914	2766.73
200.989	2758.48
201.063	2769.2
201.138	2755.68
201.213	2756.02
201.288	2741.63
201.363	2744.87
201.438	2748.35
201.512	2764.06
201.587	2747.14
201.662	2751.24
201.737	2764.39
201.812	2771.54
201.886	2742.89
201.961	2749.85
202.036	2742.56
202.111	2738.6
202.186	2712.61
202.26	2698.07
202.335	2677.92
202.41	2671.82
202.485	2655.92
202.559	2638.91
202.634	2614.34
202.709	2621.81
202.784	2603.81
202.858	2600.57
202.933	2583.33
203.008	2579.52
203.082	2559.47
203.157	2556.76
203.232	2518.05
203.306	2496.66
203.381	2467.8
203.456	2442.81
203.53	2422.36
203.605	2402.38
203.68	2381.76
203.754	2373.86
203.829	2358.39
203.904	2335.02
203.978	2322.07
204.053	2327.07
204.127	2312.41
204.202	2311.89
204.277	2294.85
204.351	2291.28
204.426	2283.52
204.5	2276.81
204.575	2244.31
204.65	2252.59
204.724	2244.93
204.799	2249.78
204.873	2244.78
204.948	2242.4
205.022	2234.03
205.097	2226.03
205.171	2239.83
205.246	2246.59
205.32	2246.16
205.395	2246.68
205.469	2241.55
205.544	2246.74
205.618	2230.98
205.693	2242.93
205.767	2232.46
205.842	2252.83
205.916	2245.93
205.991	2239.75
206.065	2243.89
206.14	2257.34
206.214	2251.2
206.289	2246.21
206.363	2258.15
206.438	2259.39
206.512	2266.86
206.586	2284.13
206.661	2292.75
206.735	2272.05
206.81	2272.82
206.884	2284.8
206.958	2269.29
207.033	2285.13
207.107	2292.66
207.181	2322.7
207.256	2319.03
207.33	2334.26
207.405	2345.88
207.479	2368.69
207.553	2374.68
207.628	2358.65
207.702	2369.07
207.776	2367.31
207.851	2368.41
207.925	2383.02
207.999	2382.36
208.073	2382.17
208.148	2384.69
208.222	2371.03
208.296	2398.91
208.371	2417.2
208.445	2431.39
208.519	2458.04
208.593	2466.7
208.668	2463.42
208.742	2464.89
208.816	2467.94
208.89	2485.66
208.965	2484.89
209.039	2487.04
209.113	2503.18
209.187	2526.06
209.261	2523.02
209.336	2539.02
209.41	2558.69
209.484	2559.16
209.558	2578.07
209.632	2587.83
209.707	2600.69
209.781	2624.45
209.855	2640.17
209.929	2653.86
210.003	2657.67
210.077	2660.91
210.151	2708.34
210.226	2740.85
210.3	2766.55
210.374	2786.74
210.448	2787.69
210.522	2796.46
210.596	2805.95
210.67	2815.86
210.744	2859.04
210.818	2888.29
210.892	2906.07
210.966	2903.5
211.041	2919.13
211.115	2916.6
211.189	2938.86
211.263	2952.68
211.337	2956.92
211.411	2971.18
211.485	2966.26
211.559	2977.27
211.633	2981.13
211.707	2954.94
211.781	2962.91
211.855	2931.87
211.929	2923.96
212.003	2910.29
212.077	2922.02
212.151	2935.75
212.225	2947.39
212.299	2938.66
212.373	2933.32
212.447	2935.89
212.52	2968.32
212.594	2976.28
212.668	2996.87
212.742	2992.53
212.816	2995.49
212.89	2997.49
212.964	3002.26
213.038	3012.04
213.112	3033.36
213.186	3055.15
213.26	3044.71
213.333	3009.81
213.407	3024.01
213.481	3040.45
213.555	3067.23
213.629	3070.14
213.703	3070.57
213.777	3084.69
213.85	3085.69
213.924	3132.74
213.998	3150.25
214.072	3160.42
214.146	3167.53
214.219	3183.99
214.293	3203.83
214.367	3228.07
214.441	3266.06
214.515	3284.48
214.588	3289.3
214.662	3288.92
214.736	3297.12
214.81	3334.51
214.883	3378.29
214.957	3401.9
215.031	3424.51
215.105	3435.63
215.178	3460.55
215.252	3489.91
215.326	3504.47
215.4	3524.23
215.473	3522.08
215.547	3547.49
215.621	3579.93
215.694	3625.84
215.768	3649.86
215.842	3682.44
215.915	3714.78
215.989	3737.34
216.063	3770.7
216.136	3822.2
216.21	3869.16
216.284	3933.4
216.357	3985.16
216.431	4034.44
216.504	4095.01
216.578	4171.66
216.652	4236.56
216.725	4291.61
216.799	4357.06
216.873	4419.23
216.946	4487.96
217.02	4539.27
217.093	4594.83
217.167	4638.24
217.24	4684.44
217.314	4742.58
217.387	4797.47
217.461	4855.26
217.535	4929.53
217.608	4988.19
217.682	5052.38
217.755	5127.39
217.829	5187.77
217.902	5257.01
217.976	5323.75
218.049	5388.41
218.123	5441.82
218.196	5517.31
218.27	5583.33
218.343	5644.05
218.417	5718.33
218.49	5783.74
218.563	5874.48
218.637	5952.63
218.71	6045.58
218.784	6134.4
218.857	6220.58
218.931	6306.71
219.004	6384.84
219.077	6464.5
219.151	6545.34
219.224	6622.45
219.298	6701.6
219.371	6787.24
219.444	6857.7
219.518	6937.58
219.591	7013.33
219.665	7117.52
219.738	7199.84
219.811	7270.03
219.885	7354.38
219.958	7437.35
220.031	7518.14
220.105	7597.37
220.178	7674.87
220.251	7741.81
220.325	7822.37
220.398	7906.05
220.471	7985.45
220.544	8071.84
220.618	8140.39
220.691	8217.3
220.764	8290.71
220.838	8369.33
220.911	8436.21
220.984	8529.95
221.057	8606.94
221.131	8685.81
221.204	8733.85
221.277	8823.67
221.35	8929.38
221.424	8998.46
221.497	9075.63
221.57	9153.42
221.643	9232.77
221.716	9316.65
221.79	9385.93
221.863	9454.99
221.936	9518.84
222.009	9590.45
222.082	9666.59
222.155	9735.89
222.229	9826.35
222.302	9906.63
222.375	9978.26
222.448	10056.15
222.521	10126.77
222.594	10201.15
222.667	10262.23
222.74	10340.37
222.814	10404.45
222.887	10461.16
222.96	10537.19
223.033	10613.13
223.106	10689.16
223.179	10759.7
223.252	10825.96
223.325	10899.16
223.398	10968.4
223.471	11048.49
223.544	11122.51
223.617	11188.29
223.69	11257.25
223.763	11305.25
223.837	11371.76
223.91	11441.98
223.983	11493.26
224.056	11540.98
224.129	11604.84
224.202	11681.37
224.275	11737.37
224.348	11784.13
224.42	11836.57
224.493	11884.53
224.566	11934.51
224.639	11999.05
224.712	12054.24
224.785	12113.77
224.858	12166.65
224.931	12219.53
225.004	12260.45
225.077	12311.16
225.15	12346.54
225.223	12407.96
225.296	12489.32
225.369	12535.94
225.442	12582.7
225.514	12640.2
225.587	12703.98
225.66	12763.27
225.733	12822.47
225.806	12880.75
225.879	12933.05
225.952	12986.27
226.025	13060.03
226.097	13131.76
226.17	13184.64
226.243	13218.38
226.316	13268.04
226.389	13333.16
226.461	13389.42
226.534	13448.52
226.607	13501.5
226.68	13577.91
226.753	13636.53
226.825	13672.29
226.898	13735.93
226.971	13791.8
227.044	13854.32
227.117	13908.89
227.189	13968.96
227.262	14029.6
227.335	14102
227.407	14161.2
227.48	14224.93
227.553	14275.59
227.626	14322.83
227.698	14375.43
227.771	14439.2
227.844	14484.13
227.916	14534.5
227.989	14578.56
228.062	14632.94
228.134	14711.75
228.207	14766.41
228.28	14807.73
228.352	14853.52
228.425	14898.59
228.498	14951.04
228.57	14993.41
228.643	15054.48
228.716	15102.3
228.788	15139.08
228.861	15170.84
228.934	15227.87
229.006	15270.04
229.079	15319.98
229.151	15352.37
229.224	15382.74
229.296	15436.68
229.369	15508.93
229.442	15564.6
229.514	15606.58
229.587	15662.93
229.659	15689.87
229.732	15733.25
229.804	15784.11
229.877	15861.18
229.949	15916.75
230.022	15982.59
230.094	16029
230.167	16064.62
230.239	16096.87
230.312	16144.73
230.384	16210.81
230.457	16257.37
230.529	16308.55
230.602	16350.29
230.674	16399.6
230.747	16455.36
230.819	16497.44
230.892	16517.2
230.964	16557.11
231.037	16606.27
231.109	16643.96
231.181	16686.42
231.254	16726.76
231.326	16763.63
231.399	16790.42
231.471	16824.79
231.544	16839.49
231.616	16895.01
231.688	16942.19
231.761	16982.48
231.833	17013.47
231.905	17026.92
231.978	17061.47
232.05	17090.44
232.122	17124.41
232.195	17161.33
232.267	17210.01
232.339	17246.97
232.412	17293.96
232.484	17323.31
232.556	17347.6
232.629	17402.1
232.701	17435.5
232.773	17461.77
232.846	17493.96
232.918	17521.91
232.99	17550.92
233.062	17588.51
233.135	17606.3
233.207	17619.4
233.279	17644.22
233.351	17678.49
233.424	17703.55
233.496	17716.8
233.568	17755.79
233.64	17771.35
233.713	17798.29
233.785	17813.28
233.857	17837.33
233.929	17827.64
234.001	17865.47
234.074	17905.33
234.146	17898.48
234.218	17916.46
234.29	17929.52
234.362	17933.18
234.434	17936.99
234.507	17940.22
234.579	17939.16
234.651	17947.25
234.723	17953.81
234.795	17977.13
234.867	17992.36
234.939	18020.65
235.012	18043.2
235.084	18059.87
235.156	18072.84
235.228	18070.09
235.3	18073.99
235.372	18090.67
235.444	18121.9
235.516	18100.89
235.588	18110.72
235.66	18116.74
235.732	18113.7
235.804	18170.38
235.876	18195.43
235.948	18219.05
236.02	18219
236.092	18222.42
236.164	18229.07
236.236	18244.35
236.308	18239.96
236.38	18236.54
236.452	18221.7
236.524	18215.43
236.596	18225.79
236.668	18241.17
236.74	18241.55
236.812	18245.41
236.884	18237.51
236.956	18244.83
237.028	18248.69
237.1	18232.11
237.172	18252.54
237.244	18278.03
237.316	18248.11
237.388	18232.25
237.46	18223.87
237.532	18240.2
237.604	18238.37
237.675	18248.49
237.747	18255.19
237.819	18242.9
237.891	18236.4
237.963	18234.28
238.035	18229.07
238.107	18196.35
238.178	18196.59
238.25	18192.64
238.322	18207.39
238.394	18200.06
238.466	18185.41
238.538	18183
238.609	18182.76
238.681	18146.18
238.753	18123.1
238.825	18105.99
238.897	18109.8
238.968	18118.72
239.04	18107.49
239.112	18121.03
239.184	18109.75
239.255	18091.68
239.327	18096.69
239.399	18092.31
239.471	18088.07
239.542	18082.77
239.614	18080.98
239.686	18044.55
239.758	18049.56
239.829	18024.5
239.901	18013.8
239.973	18000.31
240.044	17995.3
240.116	17977.08
240.188	17965.13
240.259	17949.08
240.331	17925.57
240.403	17914.14
240.474	17874.1
240.546	17845.33
240.618	17799.55
240.689	17765.23
240.761	17749.19
240.833	17733.19
240.904	17712.32
240.976	17687.89
241.048	17675.55
241.119	17661.09
241.191	17642.73
241.262	17626.34
241.334	17599.5
241.405	17578.39
241.477	17554.15
241.549	17525.38
241.62	17510.88
241.692	17494.35
241.763	17482.06
241.835	17463.07
241.906	17431.36
241.978	17396.37
242.049	17397.48
242.121	17397.77
242.192	17393.09
242.264	17355.69
242.335	17320.8
242.407	17301.04
242.478	17273.28
242.55	17246.63
242.621	17225.52
242.693	17200.42
242.764	17171.07
242.836	17148.75
242.907	17127.6
242.979	17106.87
243.05	17085.91
243.122	17070.15
243.193	17048.03
243.264	17002.58
243.336	16976.89
243.407	16965.37
243.479	16957.95
243.55	16935.98
243.622	16908.07
243.693	16880.79
243.764	16878.43
243.836	16846.38
243.907	16817.27
243.978	16793.32
244.05	16777.89
244.121	16727.14
244.192	16718.85
244.264	16679.53
244.335	16655.48
244.407	16611.38
244.478	16591.42
244.549	16567.23
244.62	16521.35
244.692	16496.43
244.763	16478.5
244.834	16448.67
244.906	16414.06
244.977	16397.53
245.048	16378.11
245.119	16346.3
245.191	16311.16
245.262	16257.56
245.333	16240.07
245.405	16219.01
245.476	16194.33
245.547	16170.37
245.618	16156.93
245.689	16127.29
245.761	16099.48
245.832	16064.72
245.903	16046.79
245.974	16016.86
246.045	15985.34
246.117	15973.34
246.188	15923.4
246.259	15892.85
246.33	15862.24
246.401	15826.23
246.473	15778.56
246.544	15739.04
246.615	15724.82
246.686	15690.46
246.757	15677.44
246.828	15631.75
246.899	15612.85
246.97	15571.11
247.042	15527.34
247.113	15507.58
247.184	15501.89
247.255	15469.5
247.326	15446.61
247.397	15419.71
247.468	15395.51
247.539	15364.95
247.61	15320.27
247.681	15312.08
247.752	15288.75
247.823	15259.97
247.894	15238.76
247.965	15202.03
248.037	15171.13
248.108	15125.82
248.179	15098.1
248.25	15068.22
248.321	15060.8
248.392	15025.8
248.463	15027.05
248.534	15001.26
248.605	14974.51
248.675	14931.42
248.746	14916.67
248.817	14903.56
248.888	14881.87
248.959	14834.43
249.03	14809.32
249.101	14793.85
249.172	14765.12
249.243	14717.88
249.314	14702.35
249.385	14681.48
249.456	14663.69
249.527	14636.17
249.598	14611.97
249.669	14586.52
249.739	14568.25
249.81	14541.25
249.881	14499.03
249.952	14461.72
250.023	14431.1
250.094	14384.64
250.165	14354.36
250.235	14322.5
250.306	14287.6
250.377	14247.4
250.448	14234.19
250.519	14192.97
250.59	14180.24
250.66	14147.42
250.731	14136.96
250.802	14106.49
250.873	14077.37
250.944	14050.62
251.014	14021.16
251.085	14017.93
251.156	14003.14
251.227	13982.99
251.297	13973.63
251.368	13954.69
251.439	13936.9
251.51	13927.31
251.58	13907.45
251.651	13880.11
251.722	13867
251.792	13824.05
251.863	13797.25
251.934	13783.65
252.005	13786.64
252.075	13756.9
252.146	13745.67
252.217	13736.8
252.287	13720.79
252.358	13694.18
252.429	13687.53
252.499	13650.7
252.57	13631.37
252.641	13610.2
252.711	13591.36
252.782	13549.66
252.852	13551.01
252.923	13531.15
252.994	13503.48
253.064	13484.48
253.135	13447.07
253.205	13417.57
253.276	13412.94
253.347	13402.72
253.417	13363.68
253.488	13336.58
253.558	13310.02
253.629	13281.68
253.699	13258.25
253.77	13242
253.841	13216.5
253.911	13194.47
253.982	13183.63
254.052	13168.68
254.123	13145.16
254.193	13118.84
254.264	13133.3
254.334	13104.76
254.405	13068.99
254.475	13037.32
254.546	13009.79
254.616	13004.92
254.687	12984.87
254.757	12971.81
254.827	12955.8
254.898	12937.92
254.968	12911.16
255.039	12876.6
255.109	12859.78
255.18	12829.31
255.25	12783.9
255.321	12770.02
255.391	12737
255.461	12726.15
255.532	12673.95
255.602	12650.81
255.673	12614.41
255.743	12582.79
255.813	12529.86
255.884	12521.52
255.954	12506
256.024	12505.81
256.095	12483.68
256.165	12454.08
256.235	12430.66
256.306	12397.68
256.376	12395.13
256.446	12380.47
256.517	12370.98
256.587	12362.83
256.657	12340.8
256.728	12324.56
256.798	12301.9
256.868	12279.54
256.938	12254.13
257.009	12243.72
257.079	12232.35
257.149	12234.8
257.219	12191.37
257.29	12180.77
257.36	12137.05
257.43	12129.92
257.5	12089.38
257.571	12068.31
257.641	12059.54
257.711	12030.81
257.781	12016.4
257.852	12002.57
257.922	11967.14
257.992	11944.73
258.062	11922.41
258.132	11914.17
258.202	11900.53
258.273	11885.58
258.343	11883.51
258.413	11858.83
258.483	11838.3
258.553	11802.53
258.623	11774.77
258.693	11763.44
258.764	11758.67
258.834	11758.38
258.904	11732.26
258.974	11705.41
259.044	11677.12
259.114	11657.65
259.184	11637.65
259.254	11619.04
259.324	11572.96
259.394	11558.7
259.464	11559.04
259.535	11536.33
259.605	11508.77
259.675	11477.92
259.745	11462.55
259.815	11430.78
259.885	11402.59
259.955	11406.78
260.025	11384.76
260.095	11361.39
260.165	11347.36
260.235	11346.25
260.305	11318.11
260.375	11292.13
260.445	11297.67
260.515	11300.18
260.585	11291.6
260.655	11276.8
260.725	11266.83
260.795	11257.62
260.865	11262.73
260.934	11230.87
261.004	11225.62
261.074	11207.4
261.144	11205.33
261.214	11198.49
261.284	11182.68
261.354	11180.42
261.424	11154.78
261.494	11153.04
261.564	11137.48
261.634	11126.63
261.703	11091.36
261.773	11083.4
261.843	11071.6
261.913	11055.02
261.983	11020.37
262.053	11010.93
262.123	10990.83
262.192	10969.39
262.262	10966.54
262.332	10931.75
262.402	10921.44
262.472	10899.9
262.541	10873.68
262.611	10863.32
262.681	10834.12
262.751	10828.96
262.821	10804
262.89	10781.79
262.96	10777.98
263.03	10781.64
263.1	10766.22
263.169	10749.26
263.239	10747.14
263.309	10754.56
263.379	10738.76
263.448	10728.83
263.518	10717.8
263.588	10701.85
263.657	10700.11
263.727	10686.82
263.797	10672.89
263.867	10656.46
263.936	10632.56
264.006	10625.09
264.076	10608.76
264.145	10592.23
264.215	10562.36
264.285	10563.42
264.354	10527.14
264.424	10497.7
264.494	10461.52
264.563	10445.18
264.633	10456.17
264.702	10432.46
264.772	10394.98
264.842	10373.1
264.911	10364.19
264.981	10326.13
265.05	10309.6
265.12	10297.32
265.19	10284.45
265.259	10276.41
265.329	10269.08
265.398	10255.06
265.468	10266.82
265.537	10252.08
265.607	10245.53
265.676	10245.62
265.746	10233
265.815	10233.87
265.885	10213.06
265.955	10192.1
266.024	10169.85
266.094	10126.63
266.163	10129.52
266.232	10126.87
266.302	10113.92
266.371	10093.68
266.441	10082.94
266.51	10075.91
266.58	10051.53
266.649	10028.8
266.719	10030.34
266.788	10023.11
266.858	10027.16
266.927	9990.69
266.996	9977.83
267.066	9965.74
267.135	9939.49
267.205	9933.51
267.274	9916.22
267.343	9923.25
267.413	9916.27
267.482	9920.27
267.552	9925.86
267.621	9892.14
267.69	9863.86
267.76	9851.97
267.829	9849.17
267.898	9838.43
267.968	9817.77
268.037	9809.63
268.106	9803.32
268.176	9775.72
268.245	9755.01
268.314	9732.22
268.384	9728.32
268.453	9717.44
268.522	9707.56
268.592	9707.52
268.661	9689.31
268.73	9684.59
268.799	9665.18
268.869	9665.66
268.938	9634.21
269.007	9610.13
269.076	9601.32
269.146	9602.91
269.215	9601.41
269.284	9603
269.353	9587.11
269.422	9571.37
269.492	9548.73
269.561	9518.59
269.63	9506.69
269.699	9491.14
269.768	9481.36
269.838	9471.82
269.907	9463.49
269.976	9442.02
270.045	9411.29
270.114	9401.04
270.183	9389.38
270.253	9377.25
270.322	9345.81
270.391	9339.31
270.46	9340.56
270.529	9340.7
270.598	9333.05
270.667	9318.21
270.736	9292.79
270.806	9290.91
270.875	9298.03
270.944	9287.97
271.013	9306.17
271.082	9300.35
271.151	9298.61
271.22	9271.12
271.289	9263.18
271.358	9252.97
271.427	9251.62
271.496	9246.04
271.565	9230.92
271.634	9223.98
271.703	9229.52
271.772	9237.61
271.841	9222.44
271.91	9204.63
271.979	9194.08
272.048	9174.87
272.117	9170.49
272.186	9154.56
272.255	9145.79
272.324	9142.52
272.393	9142.95
272.462	9121.76
272.531	9115.17
272.6	9105.88
272.669	9112.81
272.738	9098.85
272.807	9095.48
272.876	9077.18
272.945	9097.84
273.013	9099.04
273.082	9098.89
273.151	9071.79
273.22	9060.81
273.289	9050.42
273.358	9048.2
273.427	9038.38
273.496	9033.71
273.564	9030.15
273.633	9030.15
273.702	9017.54
273.771	9005.79
273.84	8992.31
273.909	8994.67
273.977	8987.21
274.046	8965.74
274.115	8964.53
274.184	8944.13
274.253	8935.7
274.322	8932.77
274.39	8904.55
274.459	8889.53
274.528	8858.58
274.597	8851.84
274.665	8847.32
274.734	8856.37
274.803	8852.23
274.872	8843.28
274.94	8830.76
275.009	8852.43
275.078	8842.95
275.147	8838.81
275.215	8830.29
275.284	8840.73
275.353	8826.43
275.421	8801.69
275.49	8819.65
275.559	8809.06
275.627	8811.22
275.696	8799.53
275.765	8799.77
275.833	8792.12
275.902	8795.82
275.971	8809.92
276.039	8823.69
276.108	8830.09
276.177	8824.56
276.245	8817.05
276.314	8811.8
276.383	8816.81
276.451	8782.48
276.52	8779.64
276.588	8786.91
276.657	8787.68
276.725	8779.21
276.794	8772.61
276.863	8788.49
276.931	8761.78
277	8771.17
277.068	8776.51
277.137	8794.17
277.205	8789.84
277.274	8807.03
277.342	8805.49
277.411	8779.59
277.48	8770.93
277.548	8759.96
277.617	8760.1
277.685	8753.75
277.754	8759.86
277.822	8755.48
277.89	8768.81
277.959	8763.91
278.027	8745.71
278.096	8738.44
278.164	8759.48
278.233	8755.78
278.301	8741.43
278.37	8752.17
278.438	8738.93
278.507	8739.46
278.575	8715.54
278.643	8715.49
278.712	8694.21
278.78	8683.72
278.849	8698.11
278.917	8701.38
278.985	8702.78
279.054	8701.72
279.122	8708.12
279.191	8704.7
279.259	8698.06
279.327	8677.07
279.396	8688.53
279.464	8689.11
279.532	8697.48
279.601	8694.06
279.669	8694.78
279.737	8709.99
279.806	8709.46
279.874	8715.72
279.942	8713.65
280.011	8705.18
280.079	8711.39
280.147	8727.51
280.215	8731.65
280.284	8727.66
280.352	8713.08
280.42	8714.38
280.488	8713.61
280.557	8707.97
280.625	8709.03
280.693	8703.02
280.761	8703.4
280.83	8688.53
280.898	8696.52
280.966	8676.74
281.034	8645.36
281.102	8626.93
281.171	8618.7
281.239	8626.01
281.307	8612.58
281.375	8599.06
281.443	8626.26
281.512	8619.04
281.58	8623.32
281.648	8613.12
281.716	8611.96
281.784	8615.81
281.852	8607.15
281.92	8603.54
281.989	8608.59
282.057	8588.72
282.125	8628.77
282.193	8625.83
282.261	8630.35
282.329	8623.81
282.397	8623.28
282.465	8621.5
282.533	8636.27
282.601	8630.01
282.67	8614.37
282.738	8609.9
282.806	8623.71
282.874	8606.76
282.942	8610.18
283.01	8607.53
283.078	8607.44
283.146	8600.41
283.214	8605.42
283.282	8606.14
283.35	8612.25
283.418	8609.46
283.486	8617.26
283.554	8580.53
283.622	8583.42
283.69	8579.42
283.758	8572.06
283.826	8582.36
283.894	8594.87
283.962	8612.29
284.03	8621.63
284.098	8617.06
284.165	8611.67
284.233	8604.45
284.301	8594.06
284.369	8587.17
284.437	8577.6
284.505	8575.09
284.573	8593.04
284.641	8581.4
284.709	8587.27
284.777	8572.06
284.845	8578.8
284.912	8581.78
284.98	8590.3
285.048	8582.99
285.116	8584.04
285.184	8603.34
285.252	8600.6
285.319	8582.41
285.387	8570.91
285.455	8557.19
285.523	8565.76
285.591	8557.87
285.659	8559.41
285.726	8572.93
285.794	8558.01
285.862	8551.13
285.93	8554.93
285.997	8548.72
286.065	8542.03
286.133	8532.94
286.201	8529.47
286.269	8510.85
286.336	8501.37
286.404	8491.41
286.472	8500.79
286.539	8482.22
286.607	8463.93
286.675	8465.66
286.743	8476.54
286.81	8474.32
286.878	8478.9
286.946	8471
287.013	8482.36
287.081	8482.26
287.149	8471.24
287.216	8488.85
287.284	8483.75
287.352	8482.6
287.419	8476.44
287.487	8494.05
287.555	8505.02
287.622	8505.89
287.69	8512.67
287.758	8524.42
287.825	8518.59
287.893	8512.96
287.96	8522.92
288.028	8532.64
288.096	8533.41
288.163	8535.53
288.231	8523.02
288.298	8525.62
288.366	8537.79
288.433	8532.79
288.501	8530.67
288.569	8535
288.636	8525.23
288.704	8537.75
288.771	8540.15
288.839	8538.56
288.906	8526.05
288.974	8528.99
289.041	8524.32
289.109	8514.7
289.176	8520.38
289.244	8527.55
289.311	8530.53
289.379	8535.44
289.446	8535.2
289.514	8539.1
289.581	8538.76
289.649	8540.44
289.716	8542.99
289.783	8534.33
289.851	8549.1
289.918	8541.89
289.986	8543.28
290.053	8556.32
290.121	8552.91
290.188	8554.35
290.255	8576.92
290.323	8579.66
290.39	8574.18
290.458	8584.67
290.525	8598.67
290.592	8591.6
290.66	8587.41
290.727	8581.59
290.794	8595.88
290.862	8595.5
290.929	8595.59
290.996	8592.22
291.064	8606.13
291.131	8618.16
291.198	8631.01
291.266	8632.89
291.333	8643.67
291.4	8654.26
291.468	8665.76
291.535	8667.01
291.602	8677.84
291.669	8673.75
291.737	8677.36
291.804	8676.49
291.871	8689.15
291.938	8697.53
292.006	8727.95
292.073	8747.54
292.14	8762.12
292.207	8755.43
292.275	8760.29
292.342	8766.02
292.409	8794.9
292.476	8814.25
292.543	8803.18
292.611	8803.81
292.678	8818.01
292.745	8834.42
292.812	8846.94
292.879	8843.37
292.946	8845.97
293.014	8856.18
293.081	8865.71
293.148	8879.96
293.215	8894.88
293.282	8889.58
293.349	8898.39
293.416	8878.65
293.484	8886.26
293.551	8899.21
293.618	8918.85
293.685	8944.94
293.752	8941.33
293.819	8937.62
293.886	8920.82
293.953	8927.03
294.02	8936.42
294.087	8946.58
294.154	8940.9
294.221	8953.27
294.288	8949.76
294.356	8967.52
294.423	8972.57
294.49	8962.85
294.557	8972.24
294.624	8961.84
294.691	8984.27
294.758	8985.77
294.825	8995.97
294.892	8987.98
294.959	8984.75
295.026	8989.09
295.093	8984.22
295.16	8984.66
295.226	8988.8
295.293	9019.32
295.36	9028.27
295.427	9038.72
295.494	9050.47
295.561	9061.83
295.628	9085.19
295.695	9113.4
295.762	9118.99
295.829	9128.13
295.896	9144.36
295.963	9156.15
296.03	9168.77
296.096	9170.64
296.163	9179.89
296.23	9187.49
296.297	9208.34
296.364	9207.62
296.431	9216.62
296.498	9210.65
296.564	9236.7
296.631	9238.33
296.698	9226.82
296.765	9245.65
296.832	9237.42
296.899	9222.92
296.965	9247.38
297.032	9220.8
297.099	9230.53
297.166	9232.89
297.233	9225.47
297.299	9216.71
297.366	9216.33
297.433	9217.82
297.5	9224.9
297.566	9224.13
297.633	9225.62
297.7	9228.12
297.767	9228.94
297.833	9232.7
297.9	9235.78
297.967	9222.1
298.033	9231.25
298.1	9258.36
298.167	9247.82
298.234	9255.14
298.3	9265.49
298.367	9251.43
298.434	9261.35
298.5	9250.9
298.567	9243.05
298.634	9246.18
298.7	9266.69
298.767	9272.95
298.834	9290.62
298.9	9289.66
298.967	9286.05
299.033	9297.6
299.1	9308.39
299.167	9320.09
299.233	9314.31
299.3	9330.88
299.366	9345.51
299.433	9364.82
299.5	9346.62
299.566	9351.82
299.633	9363.38
299.699	9368.63
299.766	9368.34
299.832	9369.06
299.899	9374.26
299.965	9393.62
300.032	9389.52
300.099	9395.25
300.165	9396.84
300.232	9395.21
300.298	9390.87
300.365	9408.21
300.431	9409.7
300.498	9403.63
300.564	9409.27
300.631	9420.97
300.697	9429.3
300.763	9423.71
300.83	9418.18
300.896	9424
300.963	9433.44
301.029	9438.11
301.096	9444.9
301.162	9456.46
301.229	9460.17
301.295	9454.39
301.361	9461.85
301.428	9468.16
301.494	9452.75
301.561	9455.88
301.627	9454.29
301.693	9459.2
301.76	9459.59
301.826	9454.87
301.892	9473.36
301.959	9485.79
302.025	9478.56
302.092	9473.7
302.158	9489.49
302.224	9494.98
302.291	9481.74
302.357	9480.97
302.423	9473.46
302.49	9463.64
302.556	9471
302.622	9470.96
302.688	9479.43
302.755	9481.89
302.821	9487.04
302.887	9494.17
302.954	9489.93
303.02	9499.37
303.086	9503.17
303.152	9500.72
303.219	9495.37
303.285	9486.41
303.351	9488.39
303.417	9494.07
303.483	9488.29
303.55	9476.25
303.616	9474.23
303.682	9478.37
303.748	9467.73
303.815	9485.98
303.881	9500.24
303.947	9490.12
304.013	9488.15
304.079	9482.95
304.145	9463.2
304.212	9460.7
304.278	9459.25
304.344	9453.86
304.41	9441.97
304.476	9439.22
304.542	9432.05
304.608	9438.26
304.674	9429.4
304.741	9424.68
304.807	9426.7
304.873	9429.3
304.939	9445.58
305.005	9426.36
305.071	9429.78
305.137	9431.13
305.203	9406.47
305.269	9403.63
305.335	9411.38
305.401	9405.7
305.467	9402.62
305.533	9414.32
305.599	9421.21
305.666	9426.41
305.732	9428.58
305.798	9439.31
305.864	9462.29
305.93	9467.87
305.996	9467.92
306.062	9469.61
306.128	9462.05
306.194	9452.9
306.259	9449.86
306.325	9438.02
306.391	9445.86
306.457	9445.33
306.523	9450.44
306.589	9471.63
306.655	9461.95
306.721	9446.44
306.787	9432.19
306.853	9439.7
306.919	9421.31
306.985	9413.46
307.051	9406.43
307.117	9402.53
307.183	9388.23
307.248	9358.13
307.314	9359.48
307.38	9360.05
307.446	9366.41
307.512	9360.87
307.578	9359.43
307.644	9354.61
307.709	9357.89
307.775	9349.27
307.841	9352.54
307.907	9350.62
307.973	9328.08
308.039	9326.15
308.104	9338.34
308.17	9343.87
308.236	9337.52
308.302	9341.27
308.368	9330.2
308.433	9331.83
308.499	9325.14
308.565	9319.56
308.631	9323.6
308.696	9306.51
308.762	9297.17
308.828	9289.65
308.894	9271.21
308.959	9250.46
309.025	9245.36
309.091	9236.64
309.156	9227.54
309.222	9222.68
309.288	9212.04
309.354	9198.56
309.419	9191.53
309.485	9172.37
309.551	9176.46
309.616	9159.17
309.682	9153.3
309.748	9148.77
309.813	9141.55
309.879	9135.68
309.945	9124.8
310.01	9118.63
310.076	9117.91
310.141	9109.05
310.207	9093.6
310.273	9089.31
310.338	9096.2
310.404	9076.46
310.469	9064.62
310.535	9060.86
310.601	9039.97
310.666	9046.9
310.732	9048.97
310.797	9041.51
310.863	9033.9
310.928	9027.98
310.994	9028.17
311.059	9026.58
311.125	9027.69
311.191	9035.06
311.256	9024.32
311.322	9033.42
311.387	9012.24
311.453	9262.45
311.518	9240.3
311.584	9234.05
311.649	9247.29
311.715	9237.56
311.78	9242.95
311.846	9233.9
311.911	9234.96
311.976	9234.67
312.042	9216.62
312.107	9204.92
312.173	9193.32
312.238	9185.81
312.304	9177.48
312.369	9171.8
312.434	9163.38
312.5	9151.68
312.565	9114.85
312.631	9114.52
312.696	9100.51
312.761	9101.66
312.827	8838.17
312.892	8872.01
312.958	8874.56
313.023	8868.45
313.088	8867.1
313.154	8851.65
313.219	8849
313.284	8842.46
313.35	8842.79
313.415	8827.3
313.48	8824.65
313.546	8827.3
313.611	8832.83
313.676	8822.29
313.741	8811.17
313.807	8816.56
313.872	8819.93
313.937	8829.51
314.003	8840.1
314.068	8845.39
314.133	8849.73
314.198	8843.37
314.264	8827.2
314.329	8815.4
314.394	8810.01
314.459	8809.58
314.525	8828.98
314.59	8820.7
314.655	8805.68
314.72	8812.23
314.785	8818.82
314.851	8815.02
314.916	8798.03
314.981	8780.27
315.046	8775.45
315.111	8768.52
315.176	8758.37
315.242	8759.04
315.307	8760.1
315.372	8740.12
315.437	8727.42
315.502	8722.7
315.567	8733.87
315.632	8710.48
315.698	8711.68
315.763	8708.65
315.828	8695.12
315.893	8684.68
315.958	8682.94
316.023	8681.6
316.088	8656.42
316.153	8635.2
316.218	8622.6
316.283	8604.31
316.348	8591.56
316.413	8581.07
316.479	8559.08
316.544	8526.12
316.609	8493.74
316.674	8455.19
316.739	8418.68
316.804	8387.93
316.869	8347.76
316.934	8308.44
316.999	8282.95
317.064	8231.23
317.129	8184.51
317.194	8146.22
317.259	8100.65
317.324	8050.63
317.389	7999.55
317.454	7963.85
317.518	7932.54
317.583	7902
317.648	7876.61
317.713	7837.75
317.778	7784.22
317.843	7756.57
317.908	7716.61
317.973	7677.09
318.038	7647.28
318.103	7611.94
318.168	7577.76
318.233	7549.49
318.297	7501.45
318.362	7462.08
318.427	7423.92
318.492	7395.27
318.557	7352.25
318.622	7321.73
318.687	7291.02
318.751	7253.01
318.816	7220.71
318.881	7186.01
318.946	7138.87
319.011	7091.3
319.075	7047.82
319.14	7011.21
319.205	6965.38
319.27	6930.74
319.335	6887.22
319.399	6847.73
319.464	6820.74
319.529	6767.23
319.594	6722.22
319.658	6689.33
319.723	6645.91
319.788	6616.48
319.853	6565.28
319.917	6532.69
319.982	6478.57
320.047	6440.93
320.112	6416.97
320.176	6364.3
320.241	6327.15
320.306	6294.02
320.37	6260.47
320.435	6236.76
320.5	6209.5
320.564	6172.31
320.629	6129.18
320.694	6095.26
320.758	6051.93
320.823	6004.86
320.888	5981.07
320.952	5935.22
321.017	5893.05
321.082	5858.95
321.146	5824.07
321.211	5790.16
321.275	5749.45
321.34	5703.38
321.405	5661.14
321.469	5608.98
321.534	5565.36
321.598	5512.72
321.663	5480.35
321.727	5448.81
321.792	5396.47
321.857	5353.9
321.921	5317.86
321.986	5276.85
322.05	5223.53
322.115	5185.83
322.179	5147.07
322.244	5089.93
322.308	5058.08
322.373	5010.14
322.437	4966.74
322.502	4941.92
322.566	4891.6
322.631	4858.32
322.695	4822.56
322.76	4780.87
322.824	4747.6
322.889	4705.16
322.953	4666.45
323.018	4601.88
323.082	4536.05
323.146	4487.25
323.211	4433.14
323.275	4384.58
323.34	4340.35
323.404	4308.12
323.468	4263.49
323.533	4216.68
323.597	4173.81
323.662	4123.99
323.726	4090.33
323.79	4043.96
323.855	3977.91
323.919	3935.38
323.983	3888.88
324.048	3823.31
324.112	3932.4
324.177	3803.38
324.241	3606.13
324.305	3409.69
324.37	3218.65
324.434	3035.45
324.498	2991.7
324.562	2941.87
324.627	2884.15
324.691	2829.86
324.755	2761.39
324.82	2688.26
324.884	2613.43
324.948	2539.58
325.012	2443.91
325.077	2320.89
