Data from 20250630_urea_2M_MAYP1162681_17-12-27-412.txt Node
Date: Mon Jun 30 17:12:27 BST 2025
User: adleo
Spectrometer: MAYP116268
Trigger mode: 0
Integration Time (sec): 1.000000E0
Scans to average: 1
Electric dark correction enabled: true
Nonlinearity correction enabled: true
Boxcar width: 10
XAxis mode: Wavelengths
Number of Pixels in Spectrum: 2068
>>>>>Begin Spectral Data<<<<<
179.565	1076.18
179.642	1124.43
179.718	1159.19
179.795	1190.77
179.871	1216.54
179.948	1231.86
180.024	1250.31
180.101	1271.8
180.177	1283.58
180.254	1302.56
180.33	1320.3
180.407	1362.82
180.483	1446.68
180.56	1524.49
180.636	1598.98
180.712	1584.72
180.789	1592.27
180.865	1603.01
180.942	1607.76
181.018	1616.69
181.095	1628.33
181.171	1632.03
181.248	1633.74
181.324	1648.33
181.4	1653.94
181.477	1665.58
181.553	1676.07
181.63	1693.51
181.706	1704.25
181.782	1710.71
181.859	1709.95
181.935	1715.37
182.011	1711
182.088	1726.11
182.164	1743.79
182.24	1754.67
182.317	1763.22
182.393	1761.46
182.469	1773.29
182.546	1787.31
182.622	1794.49
182.698	1789.4
182.775	1797.34
182.851	1810.55
182.927	1805.18
183.003	1802.76
183.08	1797.01
183.156	1806.56
183.232	1805.56
183.308	1796.34
183.385	1803.57
183.461	1819.49
183.537	1820.29
183.613	1829.51
183.69	1820.82
183.766	1811.83
183.842	1818.96
183.918	1826.85
183.995	1839.06
184.071	1842.11
184.147	1837.31
184.223	1825
184.299	1837.74
184.375	1831.42
184.452	1833.84
184.528	1885.19
184.604	1896.36
184.68	1906.11
184.756	1913.52
184.832	1914.28
184.908	1919.04
184.985	1919.37
185.061	1905.11
185.137	1911.62
185.213	1906.06
185.289	1907.49
185.365	1900.79
185.441	1897.7
185.517	1909.39
185.593	1905.12
185.669	1901.55
185.745	1910.92
185.822	1923.36
185.898	1915.19
185.974	1920.94
186.05	1914.14
186.126	1875.05
186.202	1868.3
186.278	1863.93
186.354	1853.76
186.43	1859.94
186.506	1856.14
186.582	1854.76
186.658	1859.13
186.734	1844.78
186.81	1845.54
186.886	1849.15
186.962	1860.84
187.038	1860.46
187.114	1851.81
187.19	1861.08
187.266	1855.61
187.341	1854.14
187.417	1848.24
187.493	1849.29
187.569	1851.24
187.645	1847.96
187.721	1840.21
187.797	1846.2
187.873	1851.71
187.949	1846.39
188.025	1841.11
188.101	1844.72
188.176	1849.38
188.252	1845.67
188.328	1850.85
188.404	1850
188.48	1844.96
188.556	1836.59
188.632	1834.64
188.707	1835.17
188.783	1831.65
188.859	1824.1
188.935	1814.87
189.011	1822.72
189.086	1816.92
189.162	1809.93
189.238	1807.32
189.314	1804.61
189.39	1798.71
189.465	1792.3
189.541	1806.56
189.617	1794.11
189.693	1792.73
189.768	1795.48
189.844	1817.88
189.92	1811.27
189.996	1821.11
190.071	1829.91
190.147	1829.67
190.223	1838.23
190.298	1831.81
190.374	1816.46
190.45	1828.81
190.526	1837.27
190.601	1832.95
190.677	1833.04
190.753	1859.2
190.828	1862.19
190.904	1871.27
190.98	1884.68
191.055	1893.71
191.131	1888.77
191.207	1908.02
191.282	1914.48
191.358	1906.83
191.433	1895.03
191.509	1905.91
191.585	1901.07
191.66	1904.63
191.736	1913.52
191.811	1905.87
191.887	1919.37
191.963	1943.28
192.038	1946.75
192.114	1949.08
192.189	1952.79
192.265	1951.37
192.34	1929.25
192.416	1928.49
192.491	1928.58
192.567	1930.06
192.642	1932.91
192.718	1930.2
192.793	1917.6
192.869	1914.13
192.944	1917.89
193.02	1925.59
193.095	1930.15
193.171	1938.28
193.246	1936.86
193.322	1934.38
193.397	1933.91
193.473	1923.3
193.548	1906
193.624	1912.18
193.699	1910.42
193.775	1924.64
193.85	1927.92
193.925	1935.33
194.001	1934.91
194.076	1926.63
194.152	1919.03
194.227	1913.8
194.302	1907.95
194.378	1913.51
194.453	1913.37
194.529	1924.3
194.604	1909.71
194.679	1903.91
194.755	1882.62
194.83	1894.46
194.905	1891.8
194.981	1898.88
195.056	1891.52
195.131	1899.22
195.207	1898.5
195.282	1887.43
195.357	1869.83
195.433	1883.1
195.508	1874.68
195.583	1880.24
195.659	1893.22
195.734	1899.69
195.809	1898.12
195.884	1904.68
195.96	1903.97
196.035	1916.66
196.11	1909.86
196.185	1922.93
196.261	1928.16
196.336	1959.87
196.411	1946.37
196.486	1952.4
196.561	1947.65
196.637	1955.54
196.712	1967.38
196.787	1968.48
196.862	1983.74
196.937	1992.44
197.013	1996.38
197.088	2005.8
197.163	2023.63
197.238	2039.39
197.313	2040.38
197.388	2052.46
197.464	2079.25
197.539	2087.71
197.614	2081.15
197.689	2092.04
197.764	2107.88
197.839	2123.44
197.914	2117.2
197.989	2138.18
198.065	2151.17
198.14	2197.39
198.215	2222.65
198.29	2236.41
198.365	2251.49
198.44	2262.57
198.515	2286.75
198.59	2302.4
198.665	2326.58
198.74	2337.62
198.815	2341.1
198.89	2361.75
198.965	2388.56
199.04	2387.08
199.115	2400.98
199.19	2441.2
199.265	2449.24
199.34	2456.48
199.415	2487.19
199.49	2508.9
199.565	2517.95
199.64	2538.32
199.715	2536.66
199.79	2542.85
199.865	2549.13
199.94	2547.28
200.015	2575.66
200.09	2583.52
200.165	2584.95
200.24	2589.38
200.315	2623.51
200.39	2637.13
200.464	2641.7
200.539	2641.94
200.614	2654.32
200.689	2677.37
200.764	2681.71
200.839	2693.76
200.914	2695.38
200.989	2686.89
201.063	2696.52
201.138	2679.52
201.213	2678.66
201.288	2659.42
201.363	2663.09
201.438	2662.95
201.512	2674.37
201.587	2658.56
201.662	2659.75
201.737	2671.04
201.812	2679.8
201.886	2650.25
201.961	2656.83
202.036	2645.02
202.111	2642.59
202.186	2616.69
202.26	2602.06
202.335	2580.63
202.41	2576.44
202.485	2562.73
202.559	2543.73
202.634	2519.39
202.709	2527.72
202.784	2512.2
202.858	2516.34
202.933	2498.53
203.008	2490.34
203.082	2475.73
203.157	2475.58
203.232	2436.66
203.306	2419.94
203.381	2388.85
203.456	2370.37
203.53	2348.7
203.605	2331.43
203.68	2310.48
203.754	2304.87
203.829	2292.58
203.904	2275.17
203.978	2265.32
204.053	2268.93
204.127	2258.13
204.202	2257.28
204.277	2243.43
204.351	2236.05
204.426	2225.87
204.5	2219.11
204.575	2188.76
204.65	2196.28
204.724	2187.85
204.799	2194.89
204.873	2191.18
204.948	2190.56
205.022	2177.81
205.097	2169.72
205.171	2182.28
205.246	2188.89
205.32	2188.42
205.395	2185.18
205.469	2177.77
205.544	2181.29
205.618	2165.4
205.693	2177.34
205.767	2165.97
205.842	2182.63
205.916	2176.58
205.991	2169.26
206.065	2174.35
206.14	2187.85
206.214	2184.99
206.289	2178.24
206.363	2193.37
206.438	2194.6
206.512	2202.5
206.586	2220.29
206.661	2228.67
206.735	2208.84
206.81	2209.51
206.884	2222.02
206.958	2208.7
207.033	2223.11
207.107	2231.2
207.181	2260.24
207.256	2251.19
207.33	2267.23
207.405	2280.99
207.479	2301.5
207.553	2307.83
207.628	2293.56
207.702	2303.22
207.776	2294.56
207.851	2298.13
207.925	2307.84
207.999	2309.17
208.073	2304.94
208.148	2307.6
208.222	2295.65
208.296	2326.2
208.371	2342.82
208.445	2353
208.519	2382.6
208.593	2394.74
208.668	2391.17
208.742	2394.74
208.816	2398.74
208.89	2409.16
208.965	2405.59
209.039	2410.78
209.113	2428.11
209.187	2447.09
209.261	2446.85
209.336	2466.37
209.41	2485.8
209.484	2488.71
209.558	2503.51
209.632	2516.46
209.707	2528.03
209.781	2549.89
209.855	2565.13
209.929	2580.29
210.003	2582.95
210.077	2582.38
210.151	2627.57
210.226	2658.16
210.3	2682.53
210.374	2703.62
210.448	2715.15
210.522	2724.58
210.596	2737.92
210.67	2744.74
210.744	2789.63
210.818	2820.02
210.892	2843.13
210.966	2837.65
211.041	2851.38
211.115	2852.52
211.189	2878.3
211.263	2894.17
211.337	2904.03
211.411	2919
211.485	2919.62
211.559	2937.82
211.633	2943.73
211.707	2924.03
211.781	2939.01
211.855	2915.31
211.929	2915.6
212.003	2904.93
212.077	2926.1
212.151	2944.6
212.225	2969.73
212.299	2974.5
212.373	2978.94
212.447	2988.48
212.52	3033.35
212.594	3059.44
212.668	3093.35
212.742	3104.32
212.816	3125.35
212.89	3148.87
212.964	3175.16
213.038	3207.43
213.112	3254.58
213.186	3303.14
213.26	3316.68
213.333	3313.1
213.407	3360.09
213.481	3407.46
213.555	3468.24
213.629	3508.5
213.703	3545.7
213.777	3600.93
213.85	3641.49
213.924	3728.46
213.998	3794.46
214.072	3856.99
214.146	3914.45
214.219	3984.1
214.293	4060.91
214.367	4140.58
214.441	4230.82
214.515	4313.6
214.588	4383.49
214.662	4444.54
214.736	4526.03
214.81	4635.85
214.883	4749.24
214.957	4846.69
215.031	4952.15
215.105	5043.78
215.178	5143.71
215.252	5264.65
215.326	5357.2
215.4	5465.31
215.473	5552.83
215.547	5664.34
215.621	5783.52
215.694	5925.55
215.768	6041.03
215.842	6168.68
215.915	6301.56
215.989	6421.83
216.063	6557.03
216.136	6707.45
216.21	6864.11
216.284	7029.44
216.357	7186.04
216.431	7343.63
216.504	7504.5
216.578	7686.25
216.652	7859.55
216.725	8024.51
216.799	8193.9
216.873	8365.38
216.946	8538.33
217.02	8704.27
217.093	8874.5
217.167	9025.93
217.24	9174.64
217.314	9343.41
217.387	9512.84
217.461	9681.48
217.535	9864.62
217.608	10026.84
217.682	10196.25
217.755	10374.01
217.829	10533.62
217.902	10704.95
217.976	10873.83
218.049	11041.75
218.123	11199.82
218.196	11375.95
218.27	11546.12
218.343	11700.16
218.417	11867.15
218.49	12038.21
218.563	12220.73
218.637	12386.64
218.71	12576.21
218.784	12755.19
218.857	12929.2
218.931	13094.87
219.004	13255.3
219.077	13429.56
219.151	13588.87
219.224	13747.61
219.298	13905.34
219.371	14076.71
219.444	14212.79
219.518	14368.44
219.591	14523.18
219.665	14694.11
219.738	14845.47
219.811	14985.55
219.885	15141.58
219.958	15296.31
220.031	15434.79
220.105	15569.75
220.178	15714.02
220.251	15839.72
220.325	15979.26
220.398	16127.04
220.471	16262.91
220.544	16401.62
220.618	16509.54
220.691	16644.78
220.764	16770.09
220.838	16904.02
220.911	17025.76
220.984	17181.38
221.057	17306.88
221.131	17433.92
221.204	17515.85
221.277	17635.32
221.35	17774.64
221.424	17879.02
221.497	17987.99
221.57	18094.63
221.643	18215.35
221.716	18331.16
221.79	18429.18
221.863	18529.17
221.936	18614.61
222.009	18699.19
222.082	18804.19
222.155	18897.73
222.229	19000.04
222.302	19092.23
222.375	19170.49
222.448	19257.13
222.521	19330.67
222.594	19405.66
222.667	19481.84
222.74	19578.66
222.814	19666.03
222.887	19741.11
222.96	19825.25
223.033	19901.49
223.106	19974.88
223.179	20046.88
223.252	20105.53
223.325	20171.51
223.398	20231.22
223.471	20298.68
223.544	20373.33
223.617	20430.2
223.69	20494.3
223.763	20534.2
223.837	20594.39
223.91	20649.86
223.983	20681.67
224.056	20728.9
224.129	20779.12
224.202	20827.89
224.275	20870.74
224.348	20894.5
224.42	20914.55
224.493	20945.92
224.566	20977.15
224.639	21028.39
224.712	21057.3
224.785	21093.98
224.858	21129.74
224.931	21170.23
225.004	21200.4
225.077	21241.75
225.15	21249.22
225.223	21290.67
225.296	21351.17
225.369	21368.9
225.442	21399.03
225.514	21434.16
225.587	21452.14
225.66	21483.81
225.733	21503.86
225.806	21532.87
225.879	21564.83
225.952	21582.47
226.025	21616.36
226.097	21653.18
226.17	21668.56
226.243	21677.28
226.316	21696.66
226.389	21717.92
226.461	21732.23
226.534	21752.81
226.607	21757.35
226.68	21795.38
226.753	21808.63
226.825	21800.97
226.898	21830.85
226.971	21844.83
227.044	21870.33
227.117	21884.79
227.189	21903.93
227.262	21926.39
227.335	21942.3
227.407	21947.36
227.48	21971.41
227.553	21982.93
227.626	21992.72
227.698	21993.39
227.771	22013.64
227.844	22019.76
227.916	22034.13
227.989	22035.52
228.062	22042.32
228.134	22076.26
228.207	22083.92
228.28	22074.38
228.352	22075.44
228.425	22074.67
228.498	22081.56
228.57	22065.36
228.643	22091.64
228.716	22099.35
228.788	22090.14
228.861	22080.45
228.934	22093.56
229.006	22089.23
229.079	22077.61
229.151	22072.16
229.224	22068.21
229.296	22057.7
229.369	22074.86
229.442	22089.57
229.514	22076.98
229.587	22084.07
229.659	22052.16
229.732	22046.52
229.804	22056.45
229.877	22070.72
229.949	22081.23
230.022	22103.64
230.094	22115.89
230.167	22107.84
230.239	22079.44
230.312	22084.31
230.384	22101.38
230.457	22098.29
230.529	22098.92
230.602	22100.46
230.674	22090.29
230.747	22099.64
230.819	22103.79
230.892	22073.95
230.964	22064.74
231.037	22072.5
231.109	22067.01
231.181	22075.06
231.254	22059.58
231.326	22051.58
231.399	22045.12
231.471	22026.13
231.544	21979.08
231.616	21975.8
231.688	21964.04
231.761	21958.11
231.833	21939.65
231.905	21897.66
231.978	21879.78
232.05	21867.34
232.122	21860.98
232.195	21856.83
232.267	21847.34
232.339	21833.6
232.412	21835.62
232.484	21818.75
232.556	21794.56
232.629	21792.87
232.701	21786.51
232.773	21783.9
232.846	21763.03
232.918	21752.14
232.99	21744.67
233.062	21747.32
233.135	21730.45
233.207	21707.89
233.279	21703.21
233.351	21702.54
233.424	21692.66
233.496	21677.28
233.568	21676.66
233.64	21652.84
233.713	21634.91
233.785	21620.69
233.857	21606.67
233.929	21571.63
234.001	21575
234.074	21572.21
234.146	21532.87
234.218	21515.57
234.29	21489.78
234.362	21465.54
234.434	21427.99
234.507	21393.48
234.579	21363.7
234.651	21333.38
234.723	21316.99
234.795	21300.17
234.867	21277.52
234.939	21279.06
235.012	21259.59
235.084	21236.98
235.156	21217.94
235.228	21183.05
235.3	21159.24
235.372	21140.78
235.444	21131.43
235.516	21081.4
235.588	21063.66
235.66	21045.73
235.732	20998.65
235.804	21027.76
235.876	21021.4
235.948	21012.19
236.02	20987.9
236.092	20959.32
236.164	20934.12
236.236	20906.6
236.308	20881.58
236.38	20843.85
236.452	20807.8
236.524	20777
236.596	20759.89
236.668	20739.12
236.74	20719.36
236.812	20694.01
236.884	20677.29
236.956	20652.71
237.028	20613.14
237.1	20574.73
237.172	20563.36
237.244	20562.3
237.316	20498
237.388	20456.9
237.46	20423.16
237.532	20410.15
237.604	20377.86
237.675	20363.35
237.747	20348.94
237.819	20308.7
237.891	20288.22
237.963	20249.33
238.035	20218.63
238.107	20158.2
238.178	20139.12
238.25	20099.74
238.322	20083.41
238.394	20030.83
238.466	19994.3
238.538	19970.59
238.609	19939.07
238.681	19887.08
238.753	19845.58
238.825	19811.66
238.897	19786.21
238.968	19764.82
239.04	19722.65
239.112	19722.31
239.184	19675.86
239.255	19635.91
239.327	19609.02
239.399	19579.62
239.471	19555.91
239.542	19533.45
239.614	19521.5
239.686	19469.41
239.758	19457.51
239.829	19414.57
239.901	19394.04
239.973	19361.61
240.044	19340.55
240.116	19314.14
240.188	19289.37
240.259	19263.64
240.331	19228.56
240.403	19208.46
240.474	19169.38
240.546	19134.01
240.618	19072.9
240.689	19043.36
240.761	19008.09
240.833	18985.49
240.904	18955.22
240.976	18921.1
241.048	18883.9
241.119	18851.23
241.191	18830.12
241.262	18810.17
241.334	18778.03
241.405	18744.34
241.477	18702.08
241.549	18667.96
241.62	18634.91
241.692	18600.5
241.763	18575.39
241.835	18541.8
241.906	18502.53
241.978	18454
242.049	18433.28
242.121	18406.87
242.192	18386.1
242.264	18345.48
242.335	18297.96
242.407	18265.91
242.478	18223.36
242.55	18200.04
242.621	18164.57
242.693	18123.51
242.764	18082.21
242.836	18045.34
242.907	18021.3
242.979	17997.06
243.05	17968.58
243.122	17941.16
243.193	17910.31
243.264	17849.3
243.336	17812.53
243.407	17779.86
243.479	17761.59
243.55	17728.82
243.622	17702.8
243.693	17672.25
243.764	17650.75
243.836	17605.31
243.907	17575.43
243.978	17551.96
244.05	17518.32
244.121	17475.19
244.192	17441.16
244.264	17389.4
244.335	17355.48
244.407	17309.79
244.478	17279.33
244.549	17236.73
244.62	17190.85
244.692	17145.02
244.763	17124.05
244.834	17092.53
244.906	17054.99
244.977	17024.58
245.048	17008.58
245.119	16970.07
245.191	16930.17
245.262	16880.53
245.333	16871.22
245.405	16827.37
245.476	16792.81
245.547	16761.05
245.618	16731.31
245.689	16703.79
245.761	16682.3
245.832	16647.02
245.903	16616.66
245.974	16590.73
246.045	16551.11
246.117	16533.08
246.188	16489.9
246.259	16446.04
246.33	16402.85
246.401	16373.98
246.473	16333.55
246.544	16290.27
246.615	16271.71
246.686	16228.28
246.757	16208.43
246.828	16163.41
246.899	16153.1
246.97	16113.62
247.042	16070.39
247.113	16053.32
247.184	16040.99
247.255	16004.21
247.326	15977.07
247.397	15943.96
247.468	15911.09
247.539	15891.28
247.61	15845.06
247.681	15823.94
247.752	15811.51
247.823	15772.18
247.894	15737.71
247.965	15688.89
248.037	15650.76
248.108	15596.68
248.179	15562.6
248.25	15532.52
248.321	15502.25
248.392	15457.62
248.463	15439.45
248.534	15412.6
248.605	15384.98
248.675	15350.37
248.746	15330.08
248.817	15306.56
248.888	15282.07
248.959	15239.27
249.03	15212.95
249.101	15189.23
249.172	15161.37
249.243	15108.06
249.314	15097.21
249.385	15072
249.456	15062.31
249.527	15030.65
249.598	15009.73
249.669	14985.96
249.739	14969.52
249.81	14956.51
249.881	14911.49
249.952	14888.11
250.023	14854.99
250.094	14811.22
250.165	14769.62
250.235	14737.18
250.306	14706.04
250.377	14669.21
250.448	14644.73
250.519	14595.22
250.59	14584.66
250.66	14556.37
250.731	14546.34
250.802	14518.48
250.873	14493.75
250.944	14463.57
251.014	14430.74
251.085	14423.03
251.156	14410.26
251.227	14390.2
251.297	14371.36
251.368	14368.17
251.439	14347.98
251.51	14335.54
251.58	14302.37
251.651	14272.73
251.722	14252.1
251.792	14212.81
251.863	14176.89
251.934	14166.92
252.005	14175.69
252.075	14143.58
252.146	14135.58
252.217	14123.67
252.287	14108.78
252.358	14080.96
252.429	14077.88
252.499	14052.04
252.57	14031.46
252.641	14005.38
252.711	13972.45
252.782	13930.22
252.852	13917.59
252.923	13895.9
252.994	13872.57
253.064	13860.71
253.135	13833.04
253.205	13805.95
253.276	13804.79
253.347	13805.32
253.417	13773.07
253.488	13736.87
253.558	13710.31
253.629	13683.07
253.699	13656.75
253.77	13638.33
253.841	13620.06
253.911	13592.25
253.982	13569.4
254.052	13551.03
254.123	13534.11
254.193	13514.3
254.264	13524.76
254.334	13493.33
254.405	13455.34
254.475	13418.37
254.546	13401.11
254.616	13393.88
254.687	13371.08
254.757	13344.47
254.827	13317.04
254.898	13298.09
254.968	13274.66
255.039	13249.26
255.109	13230.31
255.18	13198.98
255.25	13150.1
255.321	13126.48
255.391	13094.32
255.461	13091.09
255.532	13049.44
255.602	13026.21
255.673	12987.26
255.743	12952.31
255.813	12905.11
255.884	12895.42
255.954	12883.04
256.024	12867.32
256.095	12846.74
256.165	12820.03
256.235	12802.63
256.306	12776.4
256.376	12771.1
256.446	12754.42
256.517	12734.37
256.587	12725.93
256.657	12705.64
256.728	12698.26
256.798	12680.57
256.868	12660.04
256.938	12636.22
257.009	12615.64
257.079	12594.91
257.149	12598.29
257.219	12564.35
257.29	12549.36
257.36	12508.53
257.43	12495.42
257.5	12461.05
257.571	12427.64
257.641	12414.72
257.711	12390.62
257.781	12379.58
257.852	12358.95
257.922	12323.38
257.992	12306.65
258.062	12276.67
258.132	12270.64
258.202	12245.05
258.273	12225.57
258.343	12212.66
258.413	12182.38
258.483	12174.77
258.553	12140.01
258.623	12113.5
258.693	12101.74
258.764	12096.78
258.834	12092.68
258.904	12070.79
258.974	12041.78
259.044	12028.33
259.114	12011.85
259.184	11995.5
259.254	11976.13
259.324	11936.89
259.394	11925.23
259.464	11914.33
259.535	11896.84
259.605	11877.03
259.675	11857.12
259.745	11841.89
259.815	11818.75
259.885	11796.49
259.955	11798.7
260.025	11776.68
260.095	11751.71
260.165	11731.66
260.235	11730.6
260.305	11711.9
260.375	11691.36
260.445	11697.97
260.515	11690.79
260.585	11683.46
260.655	11656.81
260.725	11643.84
260.795	11637.77
260.865	11637.28
260.934	11611.11
261.004	11594
261.074	11571.59
261.144	11565.95
261.214	11553.95
261.284	11536.5
261.354	11525.76
261.424	11493.85
261.494	11494.96
261.564	11482.14
261.634	11477.36
261.703	11436.78
261.773	11421.31
261.843	11410.23
261.913	11382.08
261.983	11345.36
262.053	11331.24
262.123	11318.8
262.192	11290.95
262.262	11273.21
262.332	11243.57
262.402	11236.68
262.472	11229.55
262.541	11186.56
262.611	11184.3
262.681	11157.21
262.751	11147.04
262.821	11132.73
262.89	11103.77
262.96	11092.59
263.03	11087.43
263.1	11071.81
263.169	11061.26
263.239	11046.51
263.309	11045.36
263.379	11039.05
263.448	11028.01
263.518	11010.13
263.588	10990.95
263.657	10984.98
263.727	10981.41
263.797	10969.94
263.867	10951.77
263.936	10923.58
264.006	10925.8
264.076	10904.64
264.145	10889.42
264.215	10864.84
264.285	10860.74
264.354	10828.99
264.424	10803.21
264.494	10771.89
264.563	10749.05
264.633	10755.41
264.702	10744.28
264.772	10709.39
264.842	10685.49
264.911	10679.23
264.981	10653.25
265.05	10642.51
265.12	10621.93
265.19	10604.35
265.259	10591.77
265.329	10579.68
265.398	10566.81
265.468	10572.01
265.537	10549.99
265.607	10543.06
265.676	10541.61
265.746	10519.88
265.815	10523.25
265.885	10508.22
265.955	10487.94
266.024	10464.38
266.094	10420.87
266.163	10420
266.232	10419.57
266.302	10408.06
266.371	10392.83
266.441	10377.12
266.51	10367.49
266.58	10350.72
266.649	10328.46
266.719	10321.19
266.788	10312.42
266.858	10306.98
266.927	10273.69
266.996	10258.7
267.066	10250.42
267.135	10220.21
267.205	10219.82
267.274	10198.39
267.343	10198.34
267.413	10185.81
267.482	10191.93
267.552	10192.27
267.621	10156.62
267.69	10122.85
267.76	10111.29
267.829	10100.64
267.898	10090.48
267.968	10066.73
268.037	10061.33
268.106	10059.7
268.176	10041.39
268.245	10027.42
268.314	10009.07
268.384	10006.03
268.453	9994.66
268.522	9976.26
268.592	9980.74
268.661	9962.1
268.73	9961.71
268.799	9939.36
268.869	9945.72
268.938	9913.88
269.007	9899.81
269.076	9896.97
269.146	9899.57
269.215	9890.28
269.284	9895
269.353	9880.02
269.422	9869.04
269.492	9852.81
269.561	9814.52
269.63	9801.27
269.699	9783.88
269.768	9779.55
269.838	9768.04
269.907	9765.96
269.976	9743.81
270.045	9706
270.114	9696.32
270.183	9682.45
270.253	9680.38
270.322	9650.04
270.391	9639.35
270.46	9636.89
270.529	9628.99
270.598	9625.72
270.667	9614.16
270.736	9592.19
270.806	9585.64
270.875	9586.27
270.944	9579.58
271.013	9600.19
271.082	9598.55
271.151	9592.77
271.22	9561.61
271.289	9556.27
271.358	9542.54
271.427	9538.74
271.496	9536.43
271.565	9522.27
271.634	9512.44
271.703	9512.16
271.772	9511.96
271.841	9502.48
271.91	9484.32
271.979	9477.1
272.048	9452.49
272.117	9443.2
272.186	9424.7
272.255	9420.56
272.324	9416.61
272.393	9408.04
272.462	9388.49
272.531	9373.66
272.6	9360.32
272.669	9365.81
272.738	9347.46
272.807	9338.36
272.876	9323.24
272.945	9340.34
273.013	9339.42
273.082	9336.1
273.151	9309.47
273.22	9305.23
273.289	9293.92
273.358	9296.76
273.427	9286.21
273.496	9284.48
273.564	9286.07
273.633	9289.49
273.702	9273.26
273.771	9258.53
273.84	9249.72
273.909	9245.38
273.977	9243.36
274.046	9232.09
274.115	9233.15
274.184	9218.13
274.253	9206.1
274.322	9208.6
274.39	9181.01
274.459	9170.03
274.528	9144.37
274.597	9134.6
274.665	9130.65
274.734	9133.78
274.803	9123.43
274.872	9117.55
274.94	9105.81
275.009	9154.26
275.078	9134.38
275.147	9124.12
275.215	9122.73
275.284	9131.35
275.353	9115.99
275.421	9095.43
275.49	9112.19
275.559	9098.75
275.627	9091.82
275.696	9092.3
275.765	9091.29
275.833	9081.95
275.902	9073.43
275.971	9076.51
276.039	9089.95
276.108	9091.97
276.177	9089.99
276.245	9080.08
276.314	9068.76
276.383	9070.21
276.451	9007.02
276.52	9013.47
276.588	9035.13
276.657	9037.16
276.725	9024.78
276.794	9032.49
276.863	9040.14
276.931	9016.84
277	9027.24
277.068	9035.85
277.137	9043.84
277.205	9040.72
277.274	9055.69
277.342	9070.95
277.411	9062.96
277.48	9054.34
277.548	9046.25
277.617	9049.57
277.685	9041.92
277.754	9048.03
277.822	9035.47
277.89	9046.88
277.959	9037.3
278.027	9017.75
278.096	9003.89
278.164	9026.76
278.233	9017.08
278.301	9008.27
278.37	9013.62
278.438	8994.65
278.507	8994.84
278.575	8969.23
278.643	8962.83
278.712	8946.85
278.78	8926.68
278.849	8936.06
278.917	8940.2
278.985	8933.46
279.054	8939.48
279.122	8949.97
279.191	8946.27
279.259	8944.05
279.327	8926.82
279.396	8942.85
279.464	8931.1
279.532	8940.59
279.601	8929.27
279.669	8923.06
279.737	8930.33
279.806	8926.67
279.874	8936.49
279.942	8938.51
280.011	8938.61
280.079	8943.14
280.147	8958.35
280.215	8958.83
280.284	8950.89
280.352	8934.52
280.42	8938.27
280.488	8930.19
280.557	8922.87
280.625	8925.23
280.693	8925.71
280.761	8925.52
280.83	8907.9
280.898	8920.41
280.966	8897.79
281.034	8866.45
281.102	8850.9
281.171	8841.76
281.239	8851.15
281.307	8842.58
281.375	8827.56
281.443	8843.4
281.512	8841.71
281.58	8845.95
281.648	8828
281.716	8821.31
281.784	8824.39
281.852	8818.13
281.92	8809.7
281.989	8819.86
282.057	8805.08
282.125	8849.91
282.193	8849.81
282.261	8848.56
282.329	8845.29
282.397	8850.34
282.465	8862.13
282.533	8881.53
282.601	8870.75
282.67	8852.22
282.738	8842.78
282.806	8853.42
282.874	8849.23
282.942	8852.02
283.01	8844.03
283.078	8858.95
283.146	8859.43
283.214	8865.11
283.282	8866.07
283.35	8873.39
283.418	8863.96
283.486	8865.3
283.554	8818.22
283.622	8814.32
283.69	8813.11
283.758	8804.4
283.826	8812.25
283.894	8818.51
283.962	8832.13
284.03	8845.8
284.098	8841.47
284.165	8838.68
284.233	8837.81
284.301	8827.51
284.369	8817.79
284.437	8811
284.505	8803.25
284.573	8815.47
284.641	8801.9
284.709	8809.65
284.777	8795.16
284.845	8802.67
284.912	8803.39
284.98	8810.66
285.048	8806.19
285.116	8810.08
285.184	8826.64
285.252	8821.16
285.319	8801.33
285.387	8787.75
285.455	8775.28
285.523	8777.11
285.591	8771.1
285.659	8771.82
285.726	8782.22
285.794	8770.14
285.862	8761.28
285.93	8761.57
285.997	8759.31
286.065	8758.44
286.133	8745.88
286.201	8744.87
286.269	8726.14
286.336	8720.17
286.404	8710.74
286.472	8714.64
286.539	8700.3
286.607	8679.69
286.675	8677.62
286.743	8682.63
286.81	8677.91
286.878	8692.93
286.946	8687.73
287.013	8685.76
287.081	8679.55
287.149	8665.49
287.216	8682.92
287.284	8684.12
287.352	8683.64
287.419	8674.16
287.487	8692.55
287.555	8696.25
287.622	8688.5
287.69	8698.23
287.758	8715.31
287.825	8715.41
287.893	8704.72
287.96	8704.97
288.028	8719.26
288.096	8720.7
288.163	8726.19
288.231	8713.73
288.298	8709.15
288.366	8720.99
288.433	8725.08
288.501	8724.46
288.569	8722.1
288.636	8714.78
288.704	8724.17
288.771	8725.28
288.839	8720.27
288.906	8709.1
288.974	8721.57
289.041	8723.01
289.109	8710.16
289.176	8706.51
289.244	8707.42
289.311	8726.38
289.379	8739.48
289.446	8739.52
289.514	8740.25
289.581	8744.05
289.649	8752.9
289.716	8753.72
289.783	8750.74
289.851	8767.97
289.918	8768.5
289.986	8781.97
290.053	8784.91
290.121	8781.64
290.188	8790.64
290.255	8820.77
290.323	8816.63
290.39	8807.24
290.458	8816.53
290.525	8830.73
290.592	8828.13
290.66	8834.39
290.727	8823.08
290.794	8834.39
290.862	8835.35
290.929	8843.39
290.996	8842.62
291.064	8852.15
291.131	8865.92
291.198	8878.1
291.266	8880.07
291.333	8880.12
291.4	8882.53
291.468	8898.85
291.535	8899.66
291.602	8902.46
291.669	8891.96
291.737	8893.79
291.804	8896.77
291.871	8910.4
291.938	8919.3
292.006	8948.09
292.073	8958.01
292.14	8969.23
292.207	8961.62
292.275	8962.01
292.342	8972.21
292.409	8995.22
292.476	9009.81
292.543	9003.41
292.611	9004.32
292.678	9015.06
292.745	9036.19
292.812	9051.98
292.879	9045.72
292.946	9051.31
293.014	9063.34
293.081	9077.07
293.148	9095.26
293.215	9110.81
293.282	9107.06
293.349	9109.66
293.416	9093.91
293.484	9108.69
293.551	9120.49
293.618	9134.69
293.685	9162.18
293.752	9156.21
293.819	9148.27
293.886	9142.59
293.953	9144.95
294.02	9160.93
294.087	9168.39
294.154	9166.52
294.221	9175.52
294.288	9181.49
294.356	9197.19
294.423	9206
294.49	9194.78
294.557	9206.29
294.624	9192.71
294.691	9216.78
294.758	9224.34
294.825	9231.85
294.892	9224.78
294.959	9222.56
295.026	9232.96
295.093	9225.74
295.16	9222.08
295.226	9226.75
295.293	9248.85
295.36	9254
295.427	9257.37
295.494	9268.5
295.561	9279.09
295.628	9305.77
295.695	9319.83
295.762	9324.17
295.829	9330.43
295.896	9347.18
295.963	9355.32
296.03	9367.12
296.096	9364.8
296.163	9375.78
296.23	9393.07
296.297	9404.96
296.364	9409.44
296.431	9413.73
296.498	9408.72
296.564	9430.87
296.631	9432.84
296.698	9420.95
296.765	9436.02
296.832	9427.5
296.899	9418.11
296.965	9432.02
297.032	9407.27
297.099	9425.57
297.166	9431.73
297.233	9428.02
297.299	9423.74
297.366	9423.93
297.433	9426.1
297.5	9438.04
297.566	9434.53
297.633	9425.13
297.7	9427.54
297.767	9427.73
297.833	9437.9
297.9	9442.37
297.967	9430.67
298.033	9448.06
298.1	9476.18
298.167	9471.56
298.234	9479.65
298.3	9484.37
298.367	9482.78
298.434	9493.47
298.5	9485.91
298.567	9481.34
298.634	9479.02
298.7	9494.34
298.767	9488.56
298.834	9502.96
298.9	9499.63
298.967	9497.47
299.033	9506.57
299.1	9522.94
299.167	9534.98
299.233	9523.57
299.3	9533.39
299.366	9548.37
299.433	9554.87
299.5	9526.36
299.566	9532.28
299.633	9542.59
299.699	9559.25
299.766	9556.22
299.832	9552.46
299.899	9551.5
299.965	9564.4
300.032	9569.32
300.099	9577.55
300.165	9589.4
300.232	9589.3
300.298	9592.34
300.365	9605.68
300.431	9607.7
300.498	9599.9
300.564	9602.79
300.631	9618.2
300.697	9632.12
300.763	9638.04
300.83	9640.69
300.896	9654.56
300.963	9658.31
301.029	9667.42
301.096	9661.93
301.162	9669.92
301.229	9668.77
301.295	9669.05
301.361	9671.9
301.428	9676.18
301.494	9661.2
301.561	9664.96
301.627	9664.77
301.693	9665.2
301.76	9665.88
301.826	9662.5
301.892	9667.27
301.959	9681.48
302.025	9675.51
302.092	9671.75
302.158	9669.92
302.224	9670.07
302.291	9661.4
302.357	9660.68
302.423	9652.78
302.49	9649.55
302.556	9660.1
302.622	9663.71
302.688	9672.76
302.755	9688.18
302.821	9685.1
302.887	9697.47
302.954	9689.91
303.02	9692.42
303.086	9694.29
303.152	9692.13
303.219	9689.14
303.285	9698.53
303.351	9699.11
303.417	9701.23
303.483	9691.69
303.55	9687.41
303.616	9685.92
303.682	9693.14
303.748	9688.56
303.815	9700.08
303.881	9705.66
303.947	9693.67
304.013	9692.42
304.079	9680.33
304.145	9657.11
304.212	9661.83
304.278	9655.76
304.344	9659.33
304.41	9650.56
304.476	9642.52
304.542	9637.85
304.608	9642.33
304.674	9624.51
304.741	9617.28
304.807	9616.08
304.873	9621.28
304.939	9639.92
305.005	9622.77
305.071	9616.66
305.137	9620.56
305.203	9596.91
305.269	9593.01
305.335	9600.67
305.401	9593.3
305.467	9592.14
305.533	9598.84
305.599	9606.54
305.666	9611.84
305.732	9607.6
305.798	9619.4
305.864	9641.89
305.93	9642.18
305.996	9637.7
306.062	9638.14
306.128	9638.52
306.194	9627.64
306.259	9622.34
306.325	9605.97
306.391	9614.59
306.457	9624.8
306.523	9624.6
306.589	9647.96
306.655	9640.74
306.721	9622.58
306.787	9616.13
306.853	9625.95
306.919	9613.24
306.985	9597.59
307.051	9585.74
307.117	9578.61
307.183	9573.08
307.248	9541.14
307.314	9545.67
307.38	9547.79
307.446	9552.56
307.512	9534.16
307.578	9539.17
307.644	9534.4
307.709	9538.06
307.775	9535.8
307.841	9532.62
307.907	9532.04
307.973	9512.34
308.039	9509.26
308.104	9517.54
308.17	9515.91
308.236	9498.14
308.302	9498.04
308.368	9490
308.433	9494
308.499	9494.86
308.565	9480.42
308.631	9487.54
308.696	9463.66
308.762	9452.49
308.828	9445.55
308.894	9432.02
308.959	9410.69
309.025	9401.11
309.091	9389.31
309.156	9380.74
309.222	9369.9
309.288	9356.85
309.354	9330.95
309.419	9332.73
309.485	9315.78
309.551	9320.26
309.616	9313.52
309.682	9310.96
309.748	9308.6
309.813	9295.65
309.879	9279.14
309.945	9268.88
310.01	9259.68
310.076	9265.12
310.141	9261.46
310.207	9246.54
310.273	9244.8
310.338	9249.76
310.404	9234.16
310.469	9228.63
310.535	9219.57
310.601	9205.56
310.666	9206.62
310.732	9219.33
310.797	9204.65
310.863	9193.77
310.928	9180.76
310.994	9182.64
311.059	9177.59
311.125	9168.58
311.191	9179.23
311.256	9173.21
311.322	9180.96
311.387	9164.69
311.453	9445.51
311.518	9416.29
311.584	9416.1
311.649	9424.09
311.715	9410.27
311.78	9415.19
311.846	9405.94
311.911	9403.63
311.976	9404.93
312.042	9390.39
312.107	9369.35
312.173	9361.7
312.238	9356.64
312.304	9356.31
312.369	9340.13
312.434	9323.04
312.5	9314.42
312.565	9282.55
312.631	9281.39
312.696	9273.93
312.761	9274.32
312.827	8981.74
312.892	9021.07
312.958	9009.76
313.023	9005.09
313.088	9001.91
313.154	8986.12
313.219	8976.02
313.284	8967.98
313.35	8959.31
313.415	8952.43
313.48	8952.91
313.546	8953.24
313.611	8960.32
313.676	8946.02
313.741	8938.32
313.807	8945.49
313.872	8951.03
313.937	8958.78
314.003	8965.47
314.068	8962.73
314.133	8967.35
314.198	8957.87
314.264	8936.25
314.329	8937.4
314.394	8931.48
314.459	8931.63
314.525	8942.84
314.59	8937.45
314.655	8930.37
314.72	8937.02
314.785	8936.25
314.851	8931.43
314.916	8916.85
314.981	8899.33
315.046	8893.65
315.111	8884.89
315.176	8872.8
315.242	8872.13
315.307	8874.2
315.372	8857.06
315.437	8845.41
315.502	8834.44
315.567	8840.41
315.632	8826.93
315.698	8820.96
315.763	8815.18
315.828	8803.97
315.893	8801.32
315.958	8798.77
316.023	8788.52
316.088	8768.74
316.153	8746.21
316.218	8734.09
316.283	8714.5
316.348	8698.72
316.413	8690.1
316.479	8674.13
316.544	8643.04
316.609	8610.31
316.674	8564.65
316.739	8530.39
316.804	8495.45
316.869	8458.64
316.934	8421.92
316.999	8389.54
317.064	8341.67
317.129	8295.91
317.194	8260.02
317.259	8214.79
317.324	8157.3
317.389	8109.53
317.454	8069.56
317.518	8032.14
317.583	8002.89
317.648	7972.92
317.713	7936.03
317.778	7882.21
317.843	7850.66
317.908	7811.32
317.973	7777.85
318.038	7743.33
318.103	7703.18
318.168	7669.96
318.233	7638.99
318.297	7590.14
318.362	7548.26
318.427	7505.43
318.492	7478.55
318.557	7431.54
318.622	7398.66
318.687	7377.66
318.751	7335.46
318.816	7296.67
318.881	7263.99
318.946	7213.19
319.011	7170.13
319.075	7127.85
319.14	7090.42
319.205	7043.33
319.27	7012.48
319.335	6956.51
319.399	6919.91
319.464	6892.77
319.529	6839.64
319.594	6798.95
319.658	6765.33
319.723	6721.34
319.788	6690.17
319.853	6633.74
319.917	6599.46
319.982	6542.36
320.047	6501.35
320.112	6475.71
320.176	6431.25
320.241	6390.4
320.306	6354.44
320.37	6313.93
320.435	6280.57
320.5	6247.31
320.564	6207.71
320.629	6158.1
320.694	6129.88
320.758	6085.07
320.823	6043.85
320.888	6014.78
320.952	5963.01
321.017	5918.45
321.082	5878.2
321.146	5840.89
321.211	5802.33
321.275	5760.51
321.34	5717.84
321.405	5670.28
321.469	5620.21
321.534	5571.32
321.598	5521.51
321.663	5489.63
321.727	5453.1
321.792	5403.34
321.857	5356.61
321.921	5318.65
321.986	5282.43
322.05	5225.13
322.115	5186.61
322.179	5139.76
322.244	5087.35
322.308	5053.49
322.373	5007.51
322.437	4966.33
322.502	4939.88
322.566	4894.44
322.631	4859.29
322.695	4823.49
322.76	4781.6
322.824	4748.62
322.889	4708.28
322.953	4662.92
323.018	4600.08
323.082	4537.5
323.146	4485.13
323.211	4435.76
323.275	4389.16
323.34	4337.32
323.404	4301.74
323.468	4257.5
323.533	4209.64
323.597	4164.8
323.662	4113.26
323.726	4080.32
323.79	4035.24
323.855	3969.35
323.919	3929.73
323.983	3882.89
324.048	3812.07
324.112	3901.56
324.177	3767.86
324.241	3568.37
324.305	3377.37
324.37	3186.24
324.434	3004.14
324.498	2961.67
324.562	2911.25
324.627	2850.83
324.691	2796.75
324.755	2731.14
324.82	2654.85
324.884	2578.7
324.948	2501.86
325.012	2406.37
325.077	2276.1
