Data from 20250630_urea_2M_MAYP1162681_17-02-27-464.txt Node
Date: Mon Jun 30 17:02:27 BST 2025
User: adleo
Spectrometer: MAYP116268
Trigger mode: 0
Integration Time (sec): 1.000000E0
Scans to average: 1
Electric dark correction enabled: true
Nonlinearity correction enabled: true
Boxcar width: 10
XAxis mode: Wavelengths
Number of Pixels in Spectrum: 2068
>>>>>Begin Spectral Data<<<<<
179.565	1050.76
179.642	1100.91
179.718	1136.97
179.795	1171.51
179.871	1199.92
179.948	1214.24
180.024	1231.22
180.101	1249.42
180.177	1262.34
180.254	1281.45
180.33	1301.97
180.407	1343.44
180.483	1425.25
180.56	1501.74
180.636	1574.04
180.712	1564.35
180.789	1571.81
180.865	1581.16
180.942	1589.42
181.018	1599.59
181.095	1612.46
181.171	1618.02
181.248	1617.45
181.324	1632.18
181.4	1637.98
181.477	1647.43
181.553	1657.55
181.63	1678.22
181.706	1692.38
181.782	1700.07
181.859	1700.59
181.935	1705.3
182.011	1703.21
182.088	1720.69
182.164	1741.84
182.24	1753.05
182.317	1760.37
182.393	1757.14
182.469	1770.11
182.546	1780.38
182.622	1788.03
182.698	1784.89
182.775	1795.73
182.851	1809.13
182.927	1802
183.003	1799.15
183.08	1793.26
183.156	1802.9
183.232	1800.43
183.308	1789.12
183.385	1795.58
183.461	1810.6
183.537	1812.17
183.613	1822.77
183.69	1813.02
183.766	1801.47
183.842	1806.84
183.918	1811.12
183.995	1824.61
184.071	1826.37
184.147	1821.38
184.223	1809.93
184.299	1819.3
184.375	1808.7
184.452	1813.12
184.528	1863.42
184.604	1872.12
184.68	1884.28
184.756	1889.61
184.832	1890.94
184.908	1898.11
184.985	1897.54
185.061	1881
185.137	1885.52
185.213	1874.83
185.289	1877.72
185.365	1873.26
185.441	1873.5
185.517	1886.81
185.593	1882.82
185.669	1880.35
185.745	1890.23
185.822	1904.87
185.898	1897.5
185.974	1907.34
186.05	1900.25
186.126	1864.5
186.202	1858.8
186.278	1854.61
186.354	1844.63
186.43	1850.29
186.506	1849.77
186.582	1850.34
186.658	1857.89
186.734	1838.93
186.81	1841.97
186.886	1843.73
186.962	1852.81
187.038	1850.58
187.114	1842.49
187.19	1853.52
187.266	1845.4
187.341	1847.39
187.417	1840.88
187.493	1838.79
187.569	1842.02
187.645	1838.74
187.721	1827.9
187.797	1832.89
187.873	1837.41
187.949	1834.94
188.025	1832.8
188.101	1834.03
188.176	1838.31
188.252	1836.13
188.328	1844.82
188.404	1843.77
188.48	1840.02
188.556	1830.7
188.632	1830.13
188.707	1831.51
188.783	1825.47
188.859	1822.15
188.935	1812.73
189.011	1819.72
189.086	1817.87
189.162	1808.65
189.238	1804.85
189.314	1801.9
189.39	1795.15
189.465	1787.59
189.541	1802.76
189.617	1786.98
189.693	1780.9
189.768	1781.13
189.844	1801.24
189.92	1793.74
189.996	1802.96
190.071	1812.18
190.147	1811.56
190.223	1820.17
190.298	1810.9
190.374	1800.63
190.45	1812.7
190.526	1819.07
190.601	1815.22
190.677	1812.89
190.753	1837.19
190.828	1839.61
190.904	1852.64
190.98	1868.8
191.055	1877.36
191.131	1870.08
191.207	1887.1
191.282	1898.5
191.358	1893.56
191.433	1879.68
191.509	1895.4
191.585	1890.41
191.66	1891.32
191.736	1899.68
191.811	1892.98
191.887	1907.72
191.963	1928.73
192.038	1932.77
192.114	1933.29
192.189	1935.81
192.265	1935.67
192.34	1916.84
192.416	1915.46
192.491	1913.42
192.567	1917.22
192.642	1920.55
192.718	1918.22
192.793	1907.29
192.869	1901.87
192.944	1903.06
193.02	1909.9
193.095	1911.47
193.171	1917.6
193.246	1915.84
193.322	1915.32
193.397	1910.71
193.473	1900.34
193.548	1880.71
193.624	1882.18
193.699	1882.42
193.775	1896.64
193.85	1897.59
193.925	1906.15
194.001	1908.05
194.076	1899.97
194.152	1886.61
194.227	1881.33
194.302	1875.77
194.378	1879.81
194.453	1877
194.529	1888.89
194.604	1877.24
194.679	1870.87
194.755	1852.67
194.83	1862.8
194.905	1861.19
194.981	1872.74
195.056	1866.65
195.131	1874.88
195.207	1876.06
195.282	1865.51
195.357	1846.3
195.433	1862.37
195.508	1851.44
195.583	1856.85
195.659	1871.45
195.734	1880.39
195.809	1880.34
195.884	1886.57
195.96	1889.42
196.035	1905.63
196.11	1899.54
196.185	1909.81
196.261	1912.28
196.336	1943.52
196.411	1931.72
196.486	1935.43
196.561	1928.21
196.637	1933.81
196.712	1949.27
196.787	1952.41
196.862	1968.48
196.937	1978.08
197.013	1981.08
197.088	1991.63
197.163	2012.61
197.238	2026.12
197.313	2025.03
197.388	2036.68
197.464	2063.89
197.539	2070.45
197.614	2063.32
197.689	2075.16
197.764	2089.48
197.839	2110.88
197.914	2102.75
197.989	2124.53
198.065	2137.18
198.14	2181.82
198.215	2206.23
198.29	2213.99
198.365	2223.79
198.44	2232.54
198.515	2257.33
198.59	2273.32
198.665	2294.93
198.74	2301.97
198.815	2305.3
198.89	2326.91
198.965	2355.38
199.04	2351.38
199.115	2367.56
199.19	2403.92
199.265	2410.01
199.34	2420.63
199.415	2447.44
199.49	2470.05
199.565	2479.47
199.64	2502.23
199.715	2501.18
199.79	2506.04
199.865	2513.27
199.94	2514.56
200.015	2544.47
200.09	2550.56
200.165	2553.28
200.24	2560.99
200.315	2598.46
200.39	2611.08
200.464	2618.17
200.539	2612.55
200.614	2630.36
200.689	2652.13
200.764	2661.95
200.839	2675.85
200.914	2680.23
200.989	2672.65
201.063	2681.47
201.138	2664.81
201.213	2665.62
201.288	2652.61
201.363	2656.66
201.438	2655.95
201.512	2670.09
201.587	2653.32
201.662	2652.79
201.737	2663.18
201.812	2667.66
201.886	2632.62
201.961	2638.1
202.036	2624.96
202.111	2626.96
202.186	2598.64
202.26	2581.68
202.335	2559.38
202.41	2552.19
202.485	2535.01
202.559	2517.2
202.634	2494.48
202.709	2501.15
202.784	2483
202.858	2479.96
202.933	2466.25
203.008	2462.44
203.082	2445.01
203.157	2442.58
203.232	2405.85
203.306	2388.13
203.381	2360.42
203.456	2343.14
203.53	2324.95
203.605	2308.68
203.68	2287.82
203.754	2281.64
203.829	2267.5
203.904	2248.95
203.978	2240.57
204.053	2246.23
204.127	2235.96
204.202	2232.2
204.277	2221.06
204.351	2213.83
204.426	2204.65
204.5	2195.37
204.575	2164.97
204.65	2172.73
204.724	2165.3
204.799	2176.05
204.873	2172.14
204.948	2172.76
205.022	2160.68
205.097	2152.78
205.171	2164.2
205.246	2170.67
205.32	2170.48
205.395	2170.15
205.469	2162.11
205.544	2166.49
205.618	2151.84
205.693	2158.31
205.767	2150.84
205.842	2166.45
205.916	2161.64
205.991	2156.46
206.065	2162.83
206.14	2173.15
206.214	2167.87
206.289	2161.87
206.363	2171.81
206.438	2174.48
206.512	2181
206.586	2198.64
206.661	2208.78
206.735	2187.53
206.81	2190.05
206.884	2201.51
206.958	2189.29
207.033	2205.84
207.107	2210.46
207.181	2237.49
207.256	2233.92
207.33	2248.62
207.405	2258.62
207.479	2275.13
207.553	2280.61
207.628	2265.86
207.702	2279.23
207.776	2277.09
207.851	2283.13
207.925	2294.32
207.999	2291.8
208.073	2289.85
208.148	2294.46
208.222	2281.71
208.296	2309.86
208.371	2323.01
208.445	2337.38
208.519	2366.84
208.593	2376.69
208.668	2373.64
208.742	2374.12
208.816	2376.21
208.89	2392.45
208.965	2391.21
209.039	2400.73
209.113	2415.97
209.187	2434.8
209.261	2431.19
209.336	2447.37
209.41	2462.47
209.484	2466.04
209.558	2486.28
209.632	2498.27
209.707	2507.94
209.781	2525.74
209.855	2542.51
209.929	2559.86
210.003	2563.81
210.077	2559.1
210.151	2603.14
210.226	2634.39
210.3	2662.76
210.374	2687.23
210.448	2691.42
210.522	2703.43
210.596	2710.96
210.67	2720.53
210.744	2762.56
210.818	2793.04
210.892	2813.91
210.966	2811.82
211.041	2825.73
211.115	2825.2
211.189	2849.98
211.263	2869.52
211.337	2880.91
211.411	2898.5
211.485	2894.64
211.559	2908.79
211.633	2918.03
211.707	2896.47
211.781	2913.02
211.855	2889.04
211.929	2888.14
212.003	2880.47
212.077	2898.83
212.151	2922.57
212.225	2944.74
212.299	2949.61
212.373	2953.95
212.447	2965.35
212.52	3009.12
212.594	3031.73
212.668	3062.15
212.742	3071.64
212.816	3090.2
212.89	3110.56
212.964	3136.52
213.038	3170.26
213.112	3214.49
213.186	3262.62
213.26	3279.22
213.333	3276.07
213.407	3323.05
213.481	3370.81
213.555	3430.63
213.629	3469.79
213.703	3506.37
213.777	3559.15
213.85	3599.94
213.924	3689.24
213.998	3754.66
214.072	3813.46
214.146	3874.78
214.219	3950.27
214.293	4018.22
214.367	4101.04
214.441	4193.18
214.515	4269.68
214.588	4339.66
214.662	4404.2
214.736	4483.14
214.81	4589.22
214.883	4699.49
214.957	4795.79
215.031	4893.24
215.105	4983.24
215.178	5087.48
215.252	5205.49
215.326	5304.01
215.4	5408.99
215.473	5493.53
215.547	5605.47
215.621	5730.06
215.694	5867.37
215.768	5981.86
215.842	6113.36
215.915	6240.38
215.989	6365.35
216.063	6501.92
216.136	6645.16
216.21	6792.78
216.284	6952.89
216.357	7111.88
216.431	7264.88
216.504	7426.95
216.578	7606.31
216.652	7782.98
216.725	7947.16
216.799	8109.65
216.873	8279.4
216.946	8457.29
217.02	8618.79
217.093	8782.8
217.167	8929.75
217.24	9084.66
217.314	9251.27
217.387	9420.92
217.461	9587.68
217.535	9774.29
217.608	9932.45
217.682	10110.57
217.755	10288.02
217.829	10453.89
217.902	10629.65
217.976	10798.03
218.049	10962
218.123	11117.85
218.196	11284.24
218.27	11446.41
218.343	11607.91
218.417	11777.6
218.49	11943.88
218.563	12128.28
218.637	12308.17
218.71	12496.73
218.784	12660.71
218.857	12833.08
218.931	12998.03
219.004	13158.84
219.077	13319.02
219.151	13483.16
219.224	13637.61
219.298	13798.95
219.371	13962.9
219.444	14101.73
219.518	14260.8
219.591	14418.77
219.665	14594.81
219.738	14741.35
219.811	14885.62
219.885	15033.41
219.958	15177.97
220.031	15321.38
220.105	15470.85
220.178	15604.84
220.251	15728.86
220.325	15878.86
220.398	16013.1
220.471	16151.67
220.544	16287.93
220.618	16409.62
220.691	16532.29
220.764	16659.82
220.838	16785.56
220.911	16900.22
220.984	17048.51
221.057	17168.32
221.131	17280.13
221.204	17365.92
221.277	17507.17
221.35	17635.61
221.424	17752.47
221.497	17863.07
221.57	17967.02
221.643	18063.31
221.716	18163.36
221.79	18263.79
221.863	18358.91
221.936	18451.83
222.009	18545.89
222.082	18643.82
222.155	18723.72
222.229	18833.49
222.302	18927.18
222.375	19011.22
222.448	19111.02
222.521	19189.14
222.594	19273.95
222.667	19352.65
222.74	19443.53
222.814	19507.48
222.887	19584.39
222.96	19657.16
223.033	19742.41
223.106	19815.66
223.179	19902.65
223.252	19979.51
223.325	20042.79
223.398	20109.63
223.471	20179.41
223.544	20237.86
223.617	20301.62
223.69	20377.33
223.763	20430.87
223.837	20486.63
223.91	20545.04
223.983	20575.84
224.056	20616.32
224.129	20671.79
224.202	20729.29
224.275	20764.9
224.348	20806.16
224.42	20831.75
224.493	20861.82
224.566	20904.23
224.639	20955.47
224.712	20986.99
224.785	21021.98
224.858	21062.75
224.931	21096.78
225.004	21128.68
225.077	21169.75
225.15	21181.8
225.223	21207.05
225.296	21265.08
225.369	21283.88
225.442	21310.63
225.514	21348.18
225.587	21374.01
225.66	21396.23
225.733	21422.4
225.806	21461.25
225.879	21482.07
225.952	21515.52
226.025	21554.37
226.097	21582.76
226.17	21604.26
226.243	21606.52
226.316	21619.11
226.389	21650.34
226.461	21677.24
226.534	21699.55
226.607	21716.18
226.68	21769.01
226.753	21787.81
226.825	21778.99
226.898	21812.97
226.971	21826.61
227.044	21843.53
227.117	21854.95
227.189	21870.09
227.262	21887.78
227.335	21900.55
227.407	21909.62
227.48	21926.39
227.553	21936.75
227.626	21931.64
227.698	21942.25
227.771	21963.75
227.844	21976.47
227.916	21975.17
227.989	21959.99
228.062	21956.28
228.134	21978.35
228.207	21960.66
228.28	21960.9
228.352	21963.84
228.425	21963.56
228.498	21981.01
228.57	21984.19
228.643	22008.05
228.716	22003.08
228.788	22009.64
228.861	22004.82
228.934	22016.87
229.006	22001.01
229.079	22001.73
229.151	22002.55
229.224	21976.57
229.296	21966.16
229.369	21979.75
229.442	21989.2
229.514	21989.59
229.587	22012.24
229.659	21984.77
229.732	22000.48
229.804	22007.71
229.877	22031.96
229.949	22044.35
230.022	22048.83
230.094	22044.16
230.167	22039.58
230.239	22045.46
230.312	22035.67
230.384	22058.62
230.457	22053.9
230.529	22060.26
230.602	22054.86
230.674	22062.14
230.747	22077.8
230.819	22090.24
230.892	22064.45
230.964	22069.85
231.037	22071.63
231.109	22050.47
231.181	22062.62
231.254	22031.05
231.326	22022.56
231.399	22007.38
231.471	21990.65
231.544	21963.32
231.616	21965.68
231.688	21945.72
231.761	21923.65
231.833	21911.21
231.905	21886.14
231.978	21881.27
232.05	21872.21
232.122	21868.36
232.195	21844.88
232.267	21849.03
232.339	21826.51
232.412	21829.6
232.484	21805.69
232.556	21786.46
232.629	21806.32
232.701	21808.87
232.773	21809.79
232.846	21794.17
232.918	21777.4
232.99	21765.83
233.062	21765.83
233.135	21744.57
233.207	21724.52
233.279	21716.71
233.351	21703.84
233.424	21681.38
233.496	21661.91
233.568	21665.96
233.64	21633.95
233.713	21616.31
233.785	21588.88
233.857	21574.09
233.929	21541.6
234.001	21529.74
234.074	21523.91
234.146	21471.56
234.218	21445.87
234.29	21426.79
234.362	21400.42
234.434	21357.48
234.507	21320.94
234.579	21290.24
234.651	21278.05
234.723	21272.89
234.795	21253.8
234.867	21240.84
234.939	21225.85
235.012	21202.33
235.084	21176.06
235.156	21174.52
235.228	21149.89
235.3	21127.52
235.372	21105.16
235.444	21103.96
235.516	21067.95
235.588	21046.22
235.66	21034.75
235.732	21001.44
235.804	21020.96
235.876	21000.67
235.948	20996.19
236.02	20967.08
236.092	20925.68
236.164	20885.63
236.236	20852.62
236.308	20831.46
236.38	20810.21
236.452	20769.77
236.524	20744.62
236.596	20728.13
236.668	20697.62
236.74	20662.25
236.812	20638.59
236.884	20618.25
236.956	20584.9
237.028	20561
237.1	20525.67
237.172	20517.33
237.244	20502.87
237.316	20444.61
237.388	20420.22
237.46	20391.74
237.532	20381.04
237.604	20361.71
237.675	20354.92
237.747	20340.46
237.819	20303.26
237.891	20264.61
237.963	20233.48
238.035	20199.12
238.107	20139.79
238.178	20120.76
238.25	20098.3
238.322	20087.41
238.394	20046.69
238.466	20008.33
238.538	19982.35
238.609	19960.42
238.681	19898.35
238.753	19855.7
238.825	19817.63
238.897	19790.21
238.968	19763.66
239.04	19726.46
239.112	19716.1
239.184	19666.65
239.255	19633.16
239.327	19607.43
239.399	19573.6
239.471	19561.45
239.542	19537.6
239.614	19528.44
239.686	19473.02
239.758	19451.19
239.829	19407.92
239.901	19387.73
239.973	19361.61
240.044	19332.55
240.116	19305.08
240.188	19281.18
240.259	19255.45
240.331	19227.4
240.403	19197.96
240.474	19162.73
240.546	19121.72
240.618	19077.14
240.689	19047.55
240.761	19008.23
240.833	18988.72
240.904	18953.39
240.976	18915.66
241.048	18879.52
241.119	18847.09
241.191	18820.82
241.262	18806.94
241.334	18765.64
241.405	18735.04
241.477	18691
241.549	18649.31
241.62	18604.3
241.692	18571.44
241.763	18556.55
241.835	18526.33
241.906	18497.66
241.978	18444.51
242.049	18427.69
242.121	18394.34
242.192	18380.37
242.264	18336.7
242.335	18289.82
242.407	18275.94
242.478	18236.76
242.55	18216.04
242.621	18173.34
242.693	18133.92
242.764	18081.97
242.836	18045.78
242.907	18009.63
242.979	17988.24
243.05	17956.62
243.122	17935.32
243.193	17905.78
243.264	17842.99
243.336	17795.42
243.407	17765.4
243.479	17752.73
243.55	17720.82
243.622	17690.75
243.693	17650.71
243.764	17637.55
243.836	17591.48
243.907	17544.1
243.978	17511.96
244.05	17477.31
244.121	17431.04
244.192	17412.83
244.264	17372.39
244.335	17345.02
244.407	17294.9
244.478	17262.8
244.549	17239.19
244.62	17188.68
244.692	17153.35
244.763	17130.36
244.834	17103.13
244.906	17064
244.977	17026.94
245.048	17006.46
245.119	16976.92
245.191	16926.94
245.262	16868
245.333	16858.02
245.405	16831.8
245.476	16802.59
245.547	16770.21
245.618	16747.22
245.689	16717.77
245.761	16693.48
245.832	16663.55
245.903	16645.33
245.974	16615.5
246.045	16575.3
246.117	16558.92
246.188	16519.97
246.259	16473.42
246.33	16435.97
246.401	16388.15
246.473	16349.26
246.544	16302.46
246.615	16274.89
246.686	16240.91
246.757	16222.02
246.828	16171.94
246.899	16149.87
246.97	16106.63
247.042	16067.21
247.113	16045.32
247.184	16025.76
247.255	15983.24
247.326	15951.05
247.397	15928.59
247.468	15900.05
247.539	15874.84
247.61	15841.88
247.681	15820.14
247.752	15810.55
247.823	15773.67
247.894	15758.01
247.965	15721.91
248.037	15691.35
248.108	15640.64
248.179	15604.68
248.25	15570.22
248.321	15551.71
248.392	15501.1
248.463	15491.99
248.534	15458.39
248.605	15439.5
248.675	15406.33
248.746	15385.22
248.817	15353.79
248.888	15320.01
248.959	15273.78
249.03	15249.97
249.101	15214.54
249.172	15181.57
249.243	15128.3
249.314	15114.71
249.385	15089.65
249.456	15066.27
249.527	15040.82
249.598	15024.48
249.669	15009.92
249.739	14984.51
249.81	14957.95
249.881	14922.86
249.952	14888.88
250.023	14863.33
250.094	14814.74
250.165	14774.25
250.235	14744.75
250.306	14725.56
250.377	14684.11
250.448	14657.84
250.519	14608.72
250.59	14594.4
250.66	14563.5
250.731	14551.59
250.802	14523.92
250.873	14497.51
250.944	14480.35
251.014	14444.44
251.085	14440.24
251.156	14418.93
251.227	14411.7
251.297	14402.74
251.368	14398.74
251.439	14385.62
251.51	14367.64
251.58	14333.85
251.651	14307.77
251.722	14290.13
251.792	14247.13
251.863	14221.73
251.934	14217.53
252.005	14218.93
252.075	14196.71
252.146	14176.89
252.217	14163.4
252.287	14146.67
252.358	14119.91
252.429	14104.87
252.499	14074.65
252.57	14048.23
252.641	14033.48
252.711	14006.24
252.782	13962.23
252.852	13952.01
252.923	13930.71
252.994	13908.63
253.064	13895.52
253.135	13856.56
253.205	13831.35
253.276	13824.31
253.347	13822.92
253.417	13789.41
253.488	13761.98
253.558	13734.46
253.629	13708.62
253.699	13678.88
253.77	13657.04
253.841	13627.97
253.911	13613.46
253.982	13597.84
254.052	13582.85
254.123	13554.94
254.193	13532.47
254.264	13542.06
254.334	13503.26
254.405	13462.23
254.475	13429.02
254.546	13415.86
254.616	13417.07
254.687	13394.17
254.757	13373.49
254.827	13344.47
254.898	13320.8
254.968	13293.8
255.039	13260.01
255.109	13251.72
255.18	13224.38
255.25	13181.53
255.321	13164.42
255.391	13122.48
255.461	13119.53
255.532	13066.56
255.602	13042.31
255.673	12998.97
255.743	12968.99
255.813	12927.82
255.884	12918.9
255.954	12902.46
256.024	12888.1
256.095	12864.52
256.165	12834.06
256.235	12819.84
256.306	12794.24
256.376	12782.53
256.446	12773.51
256.517	12758.18
256.587	12746.9
256.657	12730.8
256.728	12711.47
256.798	12699.18
256.868	12675.37
256.938	12647.46
257.009	12647.84
257.079	12632.42
257.149	12637.28
257.219	12592.31
257.29	12574.96
257.36	12535.86
257.43	12528.54
257.5	12482.36
257.571	12454.45
257.641	12445.43
257.711	12406.05
257.781	12392.36
257.852	12378.52
257.922	12330.08
257.992	12309.83
258.062	12284.48
258.132	12271.95
258.202	12258.06
258.273	12233.34
258.343	12227.89
258.413	12198
258.483	12168.31
258.553	12132.16
258.623	12104.2
258.693	12104.25
258.764	12109.12
258.834	12100.83
258.904	12075.37
258.974	12056.62
259.044	12030.89
259.114	12013.2
259.184	12001.96
259.254	11977
259.324	11940.31
259.394	11941.33
259.464	11943.25
259.535	11920.6
259.605	11902.28
259.675	11873.94
259.745	11861.36
259.815	11829.65
259.885	11806.61
259.955	11819.72
260.025	11799.09
260.095	11774.61
260.165	11751.42
260.235	11741.64
260.305	11715.71
260.375	11685.63
260.445	11687.51
260.515	11688.33
260.585	11677.63
260.655	11659.36
260.725	11648.08
260.795	11634.59
260.865	11630.44
260.934	11601.62
261.004	11594
261.074	11568.46
261.144	11565.28
261.214	11552.55
261.284	11539.88
261.354	11525.95
261.424	11487.05
261.494	11492.64
261.564	11481.75
261.634	11472.26
261.703	11433.51
261.773	11428.64
261.843	11424.88
261.913	11405.36
261.983	11367.72
262.053	11355.72
262.123	11333.98
262.192	11304.2
262.262	11295.14
262.332	11261.55
262.402	11248.63
262.472	11224.97
262.541	11188.39
262.611	11177.84
262.681	11155.67
262.751	11144.2
262.821	11126.51
262.89	11102.85
262.96	11089.89
263.03	11091.33
263.1	11069.36
263.169	11049.98
263.239	11037.31
263.309	11032.54
263.379	11012.93
263.448	11003.05
263.518	10989.75
263.588	10975.87
263.657	10975.05
263.727	10968.78
263.797	10953.6
263.867	10931.53
263.936	10909.8
264.006	10909.66
264.076	10887.92
264.145	10862.91
264.215	10835.83
264.285	10835.3
264.354	10804.71
264.424	10776.18
264.494	10737.58
264.563	10716.23
264.633	10729.82
264.702	10716.86
264.772	10684.48
264.842	10666.84
264.911	10657.35
264.981	10628.92
265.05	10614.13
265.12	10597.07
265.19	10582.95
265.259	10578.61
265.329	10572.59
265.398	10555.87
265.468	10566.71
265.537	10555.58
265.607	10552.79
265.676	10552.79
265.746	10539.78
265.815	10535.4
265.885	10520.85
265.955	10506.2
266.024	10490.11
266.094	10454.21
266.163	10451.46
266.232	10456.38
266.302	10438.89
266.371	10427.14
266.441	10413.74
266.51	10409.07
266.58	10387.68
266.649	10364.02
266.719	10356.36
266.788	10348.07
266.858	10349.33
266.927	10307.6
266.996	10296.14
267.066	10284.09
267.135	10256.15
267.205	10248.97
267.274	10239.48
267.343	10244.44
267.413	10226.38
267.482	10226.38
267.552	10219.11
267.621	10184.32
267.69	10154.36
267.76	10149.11
267.829	10133.11
267.898	10124.83
267.968	10100.07
268.037	10094.57
268.106	10091.2
268.176	10062.59
268.245	10047.12
268.314	10027.8
268.384	10028.04
268.453	10014.36
268.522	10006.9
268.592	10010.41
268.661	9990.28
268.73	9980.98
268.799	9955.88
268.869	9964.65
268.938	9943.26
269.007	9930.45
269.076	9924.62
269.146	9914.27
269.215	9907.28
269.284	9918.41
269.353	9898.61
269.422	9884.98
269.492	9872.27
269.561	9834.46
269.63	9825.98
269.699	9805.22
269.768	9790.53
269.838	9782.1
269.907	9779.02
269.976	9755.22
270.045	9721.66
270.114	9716.45
270.183	9699.02
270.253	9691.07
270.322	9660.2
270.391	9646.28
270.46	9641.75
270.529	9635.64
270.598	9634.14
270.667	9615.27
270.736	9590.65
270.806	9582.99
270.875	9586.99
270.944	9574.28
271.013	9595.61
271.082	9585.07
271.151	9578.18
271.22	9551.69
271.289	9536.96
271.358	9519.91
271.427	9516.59
271.496	9510.23
271.565	9493.57
271.634	9490.29
271.703	9487.84
271.772	9491.06
271.841	9476.62
271.91	9456.34
271.979	9447
272.048	9426.77
272.117	9431.88
272.186	9413.63
272.255	9411.17
272.324	9402.7
272.393	9394.65
272.462	9371.92
272.531	9360.9
272.6	9356.27
272.669	9364.94
272.738	9356.66
272.807	9354.64
272.876	9334.12
272.945	9356.71
273.013	9356.8
273.082	9356.56
273.151	9335.52
273.22	9330.08
273.289	9325.22
273.358	9335.91
273.427	9323.24
273.496	9324.54
273.564	9316.98
273.633	9320.06
273.702	9306.68
273.771	9301.14
273.84	9291.41
273.909	9287.32
273.977	9285.97
274.046	9272.01
274.115	9269.89
274.184	9252.85
274.253	9237.44
274.322	9240.76
274.39	9206.53
274.459	9183.66
274.528	9153.52
274.597	9149.91
274.665	9146.97
274.734	9155.35
274.803	9139.8
274.872	9138.5
274.94	9122.27
275.009	9168.9
275.078	9152.62
275.147	9143.76
275.215	9130.52
275.284	9141.6
275.353	9127.49
275.421	9110.93
275.49	9127.83
275.559	9118.3
275.627	9114.83
275.696	9106.55
275.765	9101.02
275.833	9097.84
275.902	9102.27
275.971	9113.19
276.039	9120.71
276.108	9116.28
276.177	9107.18
276.245	9094.03
276.314	9082.62
276.383	9083.01
276.451	9030.41
276.52	9033.01
276.588	9040.91
276.657	9046.25
276.725	9029.02
276.794	9030.08
276.863	9037.35
276.931	9008.12
277	9013.03
277.068	9016.4
277.137	9038.02
277.205	9040.38
277.274	9057.95
277.342	9068.88
277.411	9052.51
277.48	9039.22
277.548	9031.62
277.617	9031.43
277.685	9028.97
277.754	9030.65
277.822	9024.06
277.89	9027.33
277.959	9017.13
278.027	9005.09
278.096	8995.85
278.164	9022.76
278.233	9016.7
278.301	9005.58
278.37	9012.46
278.438	8998.55
278.507	8998.79
278.575	8974.86
278.643	8968.07
278.712	8939.72
278.78	8920.7
278.849	8930.04
278.917	8940.87
278.985	8934.91
279.054	8935.87
279.122	8945.4
279.191	8947.42
279.259	8944.97
279.327	8925.52
279.396	8941.88
279.464	8934.76
279.532	8941.69
279.601	8935.96
279.669	8928.45
279.737	8940.2
279.806	8941.55
279.874	8948.14
279.942	8945.83
280.011	8935.19
280.079	8942.18
280.147	8965.09
280.215	8970.19
280.284	8961.09
280.352	8949.68
280.42	8952.62
280.488	8944.34
280.557	8931.63
280.625	8934.91
280.693	8933.22
280.761	8931.82
280.83	8917.62
280.898	8921.47
280.966	8903.09
281.034	8877.23
281.102	8869.72
281.171	8861.88
281.239	8872.33
281.307	8864.91
281.375	8856.92
281.443	8883.11
281.512	8875.02
281.58	8881.33
281.648	8868.81
281.716	8872.47
281.784	8865.01
281.852	8852.16
281.92	8852.16
281.989	8861.26
282.057	8838.92
282.125	8886.16
282.193	8891.6
282.261	8891.55
282.329	8897.18
282.397	8900.69
282.465	8898.29
282.533	8911.67
282.601	8904.93
282.67	8881.39
282.738	8874.55
282.806	8882.4
282.874	8866.61
282.942	8870.7
283.01	8863.28
283.078	8865.5
283.146	8863.04
283.214	8874.12
283.282	8885.33
283.35	8888.17
283.418	8880.52
283.486	8887.06
283.554	8838.53
283.622	8835.21
283.69	8830.49
283.758	8817.64
283.826	8816.48
283.894	8828.23
283.962	8843.92
284.03	8851.86
284.098	8852.73
284.165	8849.75
284.233	8848.16
284.301	8841.28
284.369	8833.28
284.437	8816.97
284.505	8814.99
284.573	8824.67
284.641	8812.87
284.709	8812.63
284.777	8801.71
284.845	8807.24
284.912	8809.75
284.98	8810.27
285.048	8801.08
285.116	8810.13
285.184	8823.27
285.252	8824.38
285.319	8807.77
285.387	8802.57
285.455	8787.41
285.523	8791.98
285.591	8791.17
285.659	8795.79
285.726	8808.93
285.794	8793.96
285.862	8791.94
285.93	8790.64
285.997	8780.87
286.065	8778.7
286.133	8776.44
286.201	8776.1
286.269	8766.23
286.336	8759.4
286.404	8757.52
286.472	8768.11
286.539	8740.25
286.607	8722.15
286.675	8721.76
286.743	8726.34
286.81	8714.69
286.878	8730.91
286.946	8723.59
287.013	8724.12
287.081	8720.12
287.149	8702.8
287.216	8719.02
287.284	8718.01
287.352	8714.78
287.419	8717.81
287.487	8729.85
287.555	8731.24
287.622	8726.81
287.69	8738.94
287.758	8744.67
287.825	8743.9
287.893	8729.99
287.96	8740.39
288.028	8754.01
288.096	8755.21
288.163	8758.29
288.231	8753.28
288.298	8747.36
288.366	8758.96
288.433	8751.75
288.501	8743.66
288.569	8748.67
288.636	8746.35
288.704	8755.79
288.771	8760.99
288.839	8750.25
288.906	8741.88
288.974	8750.93
289.041	8751.17
289.109	8737.79
289.176	8748.86
289.244	8747.94
289.311	8760.75
289.379	8767.63
289.446	8771.63
289.514	8772.44
289.581	8774.18
289.649	8771.87
289.716	8776.49
289.783	8764.74
289.851	8782.07
289.918	8785.63
289.986	8794.58
290.053	8802.48
290.121	8805.22
290.188	8809.6
290.255	8843.11
290.323	8844.02
290.39	8834.92
290.458	8835.11
290.525	8843.3
290.592	8833.67
290.66	8840.41
290.727	8837.09
290.794	8854.22
290.862	8852.25
290.929	8855.38
290.996	8851.62
291.064	8862.69
291.131	8866.69
291.198	8882.05
291.266	8880.46
291.333	8879.06
291.4	8885.56
291.468	8897.4
291.535	8887.68
291.602	8892.01
291.669	8881.18
291.737	8881.32
291.804	8883.49
291.871	8904
291.938	8912.32
292.006	8946.6
292.073	8951.03
292.14	8960.52
292.207	8955.46
292.275	8953.34
292.342	8964.32
292.409	8992.15
292.476	9010.97
292.543	9003.36
292.611	9003.94
292.678	9017.71
292.745	9039.28
292.812	9047.99
292.879	9040.43
292.946	9052.85
293.014	9064.31
293.081	9065.95
293.148	9080.43
293.215	9093
293.282	9089.87
293.349	9102.29
293.416	9080.14
293.484	9096.61
293.551	9102.05
293.618	9115.87
293.685	9143.94
293.752	9134.02
293.819	9129.11
293.886	9120.73
293.953	9128.77
294.02	9137.82
294.087	9148.85
294.154	9145.19
294.221	9156.74
294.288	9157.85
294.356	9172.44
294.423	9182.07
294.49	9177.35
294.557	9189.92
294.624	9185.63
294.691	9199.16
294.758	9200.51
294.825	9210.19
294.892	9206.82
294.959	9207.25
295.026	9212.31
295.093	9203.88
295.16	9211.63
295.226	9210.23
295.293	9230.75
295.36	9239.56
295.427	9250.63
295.494	9259.54
295.561	9269.75
295.628	9292.24
295.695	9304.95
295.762	9306.4
295.829	9310.15
295.896	9327
295.963	9335.33
296.03	9345.59
296.096	9349.78
296.163	9358.74
296.23	9372.36
296.297	9382.33
296.364	9387.1
296.431	9392.73
296.498	9387.96
296.564	9409.39
296.631	9417.19
296.698	9405.2
296.765	9420.75
296.832	9409.05
296.899	9401.4
296.965	9406.84
297.032	9389.06
297.099	9409.58
297.166	9413.29
297.233	9414.11
297.299	9415.5
297.366	9412.42
297.433	9414.83
297.5	9423.16
297.566	9425.81
297.633	9421.81
297.7	9425.09
297.767	9427.25
297.833	9432.55
297.9	9443.67
297.967	9425.28
298.033	9437.17
298.1	9459.66
298.167	9453.93
298.234	9459.81
298.3	9469.2
298.367	9479.07
298.434	9479.46
298.5	9469.58
298.567	9470.02
298.634	9468.72
298.7	9476.56
298.767	9479.36
298.834	9491.01
298.9	9488.46
298.967	9481.77
299.033	9492.6
299.1	9510.23
299.167	9525.54
299.233	9520.24
299.3	9531.18
299.366	9554.53
299.433	9565.7
299.5	9550.1
299.566	9556.75
299.633	9579.81
299.699	9590.12
299.766	9581.02
299.832	9592.24
299.899	9596.96
299.965	9610.73
300.032	9608.47
300.099	9627.21
300.165	9630.96
300.232	9629.18
300.298	9636.21
300.365	9645.36
300.431	9648.06
300.498	9639.68
300.564	9641.22
300.631	9654.75
300.697	9665.59
300.763	9659.62
300.83	9654.22
300.896	9661.78
300.963	9671.18
301.029	9670.5
301.096	9668.48
301.162	9681.14
301.229	9671.85
301.295	9668.96
301.361	9673.1
301.428	9675.17
301.494	9651.52
301.561	9660.68
301.627	9665.11
301.693	9662.22
301.76	9663.9
301.826	9656.49
301.892	9662.89
301.959	9667.18
302.025	9661.01
302.092	9651.48
302.158	9661.88
302.224	9670.16
302.291	9662.84
302.357	9658.65
302.423	9651.96
302.49	9642.62
302.556	9650.18
302.622	9652.2
302.688	9656.29
302.755	9663.13
302.821	9673.44
302.887	9686.88
302.954	9685.43
303.02	9694.63
303.086	9699.4
303.152	9698.82
303.219	9696.12
303.285	9704.41
303.351	9711.78
303.417	9717.12
303.483	9721.17
303.55	9712.98
303.616	9715.2
303.682	9713.03
303.748	9703.98
303.815	9716.84
303.881	9725.41
303.947	9722.33
304.013	9722.62
304.079	9714.62
304.145	9696.27
304.212	9690.25
304.278	9677.92
304.344	9667.42
304.41	9652.93
304.476	9645.36
304.542	9644.64
304.608	9652.11
304.674	9634.67
304.741	9627.88
304.807	9625.23
304.873	9619.07
304.939	9633.51
305.005	9607.17
305.071	9610.73
305.137	9608.37
305.203	9589.64
305.269	9587.13
305.335	9588.19
305.401	9588.48
305.467	9582.17
305.533	9587.04
305.599	9598.4
305.666	9609.34
305.732	9612.71
305.798	9614.59
305.864	9634.86
305.93	9635.54
305.996	9631.44
306.062	9632.36
306.128	9634.86
306.194	9623.26
306.259	9622.77
306.325	9612.08
306.391	9626.29
306.457	9631.78
306.523	9639.05
306.589	9657.35
306.655	9652.83
306.721	9636.5
306.787	9616.66
306.853	9633.13
306.919	9622.44
306.985	9609.53
307.051	9603.85
307.117	9597.59
307.183	9600.96
307.248	9577.41
307.314	9585.11
307.38	9584.54
307.446	9586.85
307.512	9571.53
307.578	9573.31
307.644	9565.22
307.709	9568.98
307.775	9560.41
307.841	9554.24
307.907	9555.69
307.973	9533.29
308.039	9531.41
308.104	9534.45
308.17	9537.82
308.236	9527.37
308.302	9530.11
308.368	9518.94
308.433	9511.96
308.499	9507.62
308.565	9489.95
308.631	9491.49
308.696	9461.15
308.762	9450.17
308.828	9441.22
308.894	9428.17
308.959	9412.23
309.025	9408.04
309.091	9401.01
309.156	9388.49
309.222	9383.19
309.288	9364.46
309.354	9346.64
309.419	9340.77
309.485	9324.4
309.551	9330.18
309.616	9315.58
309.682	9309.18
309.748	9303.98
309.813	9294.25
309.879	9280.82
309.945	9270.85
310.01	9263.97
310.076	9265.27
310.141	9259.15
310.207	9251.74
310.273	9246.49
310.338	9250.2
310.404	9228.63
310.469	9208.88
310.535	9204.74
310.601	9187.75
310.666	9195.69
310.732	9206.48
310.797	9196.32
310.863	9191.46
310.928	9183.27
310.994	9184.28
311.059	9182.16
311.125	9178.21
311.191	9187.6
311.256	9180.53
311.322	9188.62
311.387	9164.01
311.453	9429.36
311.518	9406.5
311.584	9400.62
311.649	9411.21
311.715	9396.68
311.78	9404.18
311.846	9397.44
311.911	9403.27
311.976	9404.47
312.042	9390.61
312.107	9366.87
312.173	9362.64
312.238	9358.3
312.304	9353.3
312.369	9347.23
312.434	9329.85
312.5	9326.48
312.565	9301.11
312.631	9302.17
312.696	9287.58
312.761	9295.52
312.827	9019.77
312.892	9053.43
312.958	9042.83
313.023	9028.97
313.088	9032.53
313.154	9019
313.219	9011.78
313.284	8999.7
313.35	8998.25
313.415	8987.18
313.48	8991.66
313.546	8991.8
313.611	8995.12
313.676	8980.15
313.741	8964.6
313.807	8976.25
313.872	8972.84
313.937	8979.67
314.003	8988.29
314.068	8993.54
314.133	8994.64
314.198	8985.35
314.264	8964.65
314.329	8964.46
314.394	8964.41
314.459	8956.13
314.525	8972.83
314.59	8966.62
314.655	8954.64
314.72	8959.07
314.785	8957.96
314.851	8945.64
314.916	8924.75
314.981	8912.71
315.046	8908.67
315.111	8896.44
315.176	8879.35
315.242	8886.67
315.307	8876.32
315.372	8854.28
315.437	8838.73
315.502	8828.09
315.567	8847.3
315.632	8833.38
315.698	8833.38
315.763	8824.86
315.828	8814.42
315.893	8811.53
315.958	8805.47
316.023	8801.14
316.088	8777.5
316.153	8757.05
316.218	8749.44
316.283	8729.28
316.348	8711.33
316.413	8701.46
316.479	8693.96
316.544	8660.37
316.609	8625.81
316.674	8594.15
316.739	8564.08
316.804	8528.66
316.869	8490.75
316.934	8437.42
316.999	8409.8
317.064	8360.87
317.129	8316.07
317.194	8276.24
317.259	8219.12
317.324	8170.15
317.389	8120.36
317.454	8080.05
317.518	8046.9
317.583	8018.18
317.648	7993.17
317.713	7952.82
317.778	7896.01
317.843	7860.08
317.908	7825.46
317.973	7781.65
318.038	7750.2
318.103	7711.4
318.168	7680.62
318.233	7652.01
318.297	7611.34
318.362	7567.1
318.427	7522.3
318.492	7492.78
318.557	7448.75
318.622	7415.77
318.687	7388.57
318.751	7348.25
318.816	7314.36
318.881	7280.96
318.946	7227.41
319.011	7179.64
319.075	7138.65
319.14	7105.17
319.205	7053.13
319.27	7016.42
319.335	6975.87
319.399	6931.19
319.464	6899.73
319.529	6846.8
319.594	6805.24
319.658	6766.33
319.723	6722.34
319.788	6692.76
319.853	6638.49
319.917	6604.16
319.982	6549.61
320.047	6511.77
320.112	6480.04
320.176	6429.63
320.241	6388.77
320.306	6358.38
320.37	6320.17
320.435	6281.53
320.5	6253.06
320.564	6215.01
320.629	6167.03
320.694	6126.82
320.758	6085.02
320.823	6038.53
320.888	6010.41
320.952	5957.45
321.017	5917.2
321.082	5879.26
321.146	5837.43
321.211	5806.26
321.275	5763.82
321.34	5723.31
321.405	5675.21
321.469	5631.96
321.534	5588.72
321.598	5534.46
321.663	5495.81
321.727	5457.31
321.792	5415.08
321.857	5368.15
321.921	5332.49
321.986	5290.48
322.05	5236.16
322.115	5198.64
322.179	5153.13
322.244	5098
322.308	5063.94
322.373	5016.67
322.437	4973.42
322.502	4945.01
322.566	4896.45
322.631	4863.13
322.695	4824.45
322.76	4786.68
322.824	4749.91
322.889	4704.54
322.953	4664.49
323.018	4599.36
323.082	4538.46
323.146	4484.36
323.211	4428.09
323.275	4382.02
323.34	4339.41
323.404	4306.61
323.468	4261.41
323.533	4218.23
323.597	4172.64
323.662	4122.91
323.726	4089.64
323.79	4039.21
323.855	3974.66
323.919	3927.73
323.983	3878.6
324.048	3812.74
324.112	3937.64
324.177	3803.71
324.241	3607.51
324.305	3411.12
324.37	3223.57
324.434	3041.14
324.498	2998.9
324.562	2951.42
324.627	2892.71
324.691	2838.42
324.755	2772.08
324.82	2696.15
324.884	2620.56
324.948	2550.31
325.012	2458.07
325.077	2332.01
