Data from 20250630_urea_2M_MAYP1162681_20-12-27-529.txt Node
Date: Mon Jun 30 20:12:27 BST 2025
User: adleo
Spectrometer: MAYP116268
Trigger mode: 0
Integration Time (sec): 1.000000E0
Scans to average: 1
Electric dark correction enabled: true
Nonlinearity correction enabled: true
Boxcar width: 10
XAxis mode: Wavelengths
Number of Pixels in Spectrum: 2068
>>>>>Begin Spectral Data<<<<<
179.565	1134.12
179.642	1187.53
179.718	1231.42
179.795	1266.61
179.871	1299.71
179.948	1314.08
180.024	1332.45
180.101	1353.99
180.177	1369.06
180.254	1391.46
180.33	1413.24
180.407	1461.23
180.483	1548.93
180.56	1635.83
180.636	1715.44
180.712	1705.03
180.789	1712.16
180.865	1724.03
180.942	1728.6
181.018	1736.44
181.095	1752.17
181.171	1757.25
181.248	1757.63
181.324	1770.04
181.4	1777.36
181.477	1785.87
181.553	1800.4
181.63	1821.13
181.706	1838
181.782	1844.28
181.859	1842.14
181.935	1846.13
182.011	1843.56
182.088	1862.86
182.164	1876.84
182.24	1888.25
182.317	1897.61
182.393	1894.38
182.469	1907.74
182.546	1922.33
182.622	1926.99
182.698	1923.85
182.775	1935.64
182.851	1951
182.927	1945.01
183.003	1941.78
183.08	1935.17
183.156	1945.25
183.232	1944.06
183.308	1932.12
183.385	1939.49
183.461	1956.89
183.537	1959.51
183.613	1971.16
183.69	1962.5
183.766	1953.28
183.842	1960.46
183.918	1966.59
183.995	1980.57
184.071	1983.57
184.147	1980.76
184.223	1973.39
184.299	1983.95
184.375	1973.21
184.452	1973.73
184.528	2025.34
184.604	2033.09
184.68	2043.02
184.756	2046.78
184.832	2050.58
184.908	2054.15
184.985	2056.24
185.061	2041.03
185.137	2047.3
185.213	2034.32
185.289	2036.08
185.365	2030.14
185.441	2027.95
185.517	2037.9
185.593	2034.42
185.669	2030.52
185.745	2040.42
185.822	2054.63
185.898	2047.5
185.974	2055.39
186.05	2050.39
186.126	2012.86
186.202	2008.11
186.278	2005.73
186.354	1996.32
186.43	2000.98
186.506	1997.46
186.582	1994.85
186.658	2001.79
186.734	1982.96
186.81	1985.67
186.886	1986.33
186.962	1997.03
187.038	1993.42
187.114	1986.04
187.19	1994.22
187.266	1985.38
187.341	1983.38
187.417	1974.44
187.493	1974.83
187.569	1980.2
187.645	1977.3
187.721	1964.32
187.797	1971.92
187.873	1977.72
187.949	1973.11
188.025	1966.45
188.101	1972.68
188.176	1977.44
188.252	1972.78
188.328	1980.52
188.404	1981.24
188.48	1977.67
188.556	1971.25
188.632	1970.73
188.707	1969.87
188.783	1966.11
188.859	1962.6
188.935	1951.47
189.011	1957.13
189.086	1947.95
189.162	1939.16
189.238	1935.54
189.314	1934.69
189.39	1928.84
189.465	1921.37
189.541	1940.35
189.617	1927.99
189.693	1921.43
189.768	1925.13
189.844	1948.49
189.92	1941.93
189.996	1952.87
190.071	1963.76
190.147	1963.8
190.223	1975.84
190.298	1971.03
190.374	1957.25
190.45	1969.75
190.526	1979.88
190.601	1979.54
190.677	1983.87
190.753	2011.61
190.828	2015.41
190.904	2028.15
190.98	2043.14
191.055	2051.36
191.131	2039.57
191.207	2055.59
191.282	2064.96
191.358	2054.31
191.433	2039.79
191.509	2051.92
191.585	2046.16
191.66	2047.49
191.736	2052.72
191.811	2040.45
191.887	2054.11
191.963	2078.22
192.038	2082.4
192.114	2084.54
192.189	2084.92
192.265	2079.51
192.34	2056.62
192.416	2051.39
192.491	2048.2
192.567	2050.82
192.642	2056.43
192.718	2055.77
192.793	2045.64
192.869	2040.07
192.944	2044.92
193.02	2050.96
193.095	2052.87
193.171	2059.24
193.246	2057
193.322	2057.19
193.397	2060.28
193.473	2047.96
193.548	2030.89
193.624	2034.41
193.699	2032.08
193.775	2048.06
193.85	2050.72
193.925	2061.23
194.001	2063.99
194.076	2056.67
194.152	2046.25
194.227	2037.16
194.302	2028.04
194.378	2032.55
194.453	2031.41
194.529	2039.83
194.604	2026.66
194.679	2023.8
194.755	2004.41
194.83	2016.49
194.905	2015.97
194.981	2023.34
195.056	2015.88
195.131	2020.44
195.207	2019.63
195.282	2008.32
195.357	1990.76
195.433	2006.79
195.508	1993.66
195.583	2000.08
195.659	2014.16
195.734	2021.39
195.809	2022.39
195.884	2032.85
195.96	2032.18
196.035	2047.26
196.11	2045.4
196.185	2057.91
196.261	2059.14
196.336	2090.25
196.411	2075.17
196.486	2079.49
196.561	2073.03
196.637	2082.77
196.712	2098.86
196.787	2102
196.862	2117.69
196.937	2126.44
197.013	2127.72
197.088	2138.04
197.163	2158.13
197.238	2174.07
197.313	2171.31
197.388	2183.83
197.464	2210.33
197.539	2223.27
197.614	2217.09
197.689	2228.98
197.764	2245.4
197.839	2265.29
197.914	2260.3
197.989	2284.61
198.065	2296.27
198.14	2346.75
198.215	2370.45
198.29	2384.59
198.365	2398.35
198.44	2406.63
198.515	2435.1
198.59	2452.81
198.665	2475.42
198.74	2486.71
198.815	2487.42
198.89	2510.37
198.965	2538.09
199.04	2536.28
199.115	2549.37
199.19	2591.61
199.265	2595.61
199.34	2605.23
199.415	2638.11
199.49	2661.35
199.565	2668.63
199.64	2690.4
199.715	2686.68
199.79	2694.83
199.865	2696.54
199.94	2692.35
200.015	2724.32
200.09	2732.61
200.165	2737.42
200.24	2745.33
200.315	2785.2
200.39	2801.45
200.464	2806.6
200.539	2809.22
200.614	2825.32
200.689	2847.91
200.764	2853.77
200.839	2870.11
200.914	2875.21
200.989	2865.58
201.063	2875.64
201.138	2859.83
201.213	2864.02
201.288	2845.77
201.363	2850.39
201.438	2852.82
201.512	2871.64
201.587	2858.1
201.662	2858.15
201.737	2871.06
201.812	2880.07
201.886	2845.58
201.961	2852.88
202.036	2844.73
202.111	2840.06
202.186	2811.39
202.26	2793
202.335	2773.03
202.41	2764.88
202.485	2748.78
202.559	2729.01
202.634	2704.56
202.709	2712.52
202.784	2690.65
202.858	2689.08
202.933	2669.17
203.008	2664.5
203.082	2646.97
203.157	2641.2
203.232	2600.97
203.306	2582.72
203.381	2550.99
203.456	2529.46
203.53	2509.45
203.605	2487.07
203.68	2467.16
203.754	2464.78
203.829	2451.88
203.904	2427.98
203.978	2417.08
204.053	2422.74
204.127	2408.47
204.202	2406.09
204.277	2388.57
204.351	2384.95
204.426	2377.9
204.5	2370
204.575	2334.93
204.65	2342.79
204.724	2335.36
204.799	2341.97
204.873	2335.97
204.948	2334.45
205.022	2322.03
205.097	2313.17
205.171	2328.3
205.246	2332.68
205.32	2328.73
205.395	2330.11
205.469	2324.36
205.544	2333.41
205.618	2311.6
205.693	2325.74
205.767	2313.89
205.842	2336.65
205.916	2329.13
205.991	2320.99
206.065	2328.32
206.14	2342.4
206.214	2337.01
206.289	2333.4
206.363	2345.49
206.438	2350.63
206.512	2360.96
206.586	2380.85
206.661	2390.47
206.735	2367.45
206.81	2369.73
206.884	2381.58
206.958	2368.59
207.033	2386.29
207.107	2390.72
207.181	2421.43
207.256	2415.91
207.33	2434.8
207.405	2444.14
207.479	2463.09
207.553	2472.04
207.628	2458.57
207.702	2471.42
207.776	2468.56
207.851	2473.32
207.925	2487.47
207.999	2481.95
208.073	2476
208.148	2474.23
208.222	2462.8
208.296	2496.07
208.371	2514.08
208.445	2528.22
208.519	2554.84
208.593	2566.55
208.668	2561.93
208.742	2566.22
208.816	2566.89
208.89	2578.6
208.965	2578.41
209.039	2587.75
209.113	2601.37
209.187	2621.03
209.261	2617.98
209.336	2633.37
209.41	2650.23
209.484	2651.57
209.558	2670.95
209.632	2687.48
209.707	2700.01
209.781	2721.3
209.855	2732.93
209.929	2745.71
210.003	2750.66
210.077	2751.9
210.151	2796.73
210.226	2830.29
210.3	2855.81
210.374	2880.82
210.448	2888.83
210.522	2897.88
210.596	2907.85
210.67	2921.96
210.744	2966.01
210.818	2998.75
210.892	3021.92
210.966	3018.58
211.041	3033.6
211.115	3036.03
211.189	3057.53
211.263	3079.46
211.337	3087.81
211.411	3107.84
211.485	3106.74
211.559	3123.42
211.633	3129.91
211.707	3105.9
211.781	3121.32
211.855	3095.09
211.929	3094.94
212.003	3085.89
212.077	3108.6
212.151	3131.31
212.225	3150.53
212.299	3151.96
212.373	3155.68
212.447	3165.52
212.52	3211.22
212.594	3234.08
212.668	3263.85
212.742	3273.48
212.816	3292.24
212.89	3314.04
212.964	3342.74
213.038	3380.75
213.112	3426.59
213.186	3477.27
213.26	3494.88
213.333	3491.49
213.407	3539.4
213.481	3588.56
213.555	3651.56
213.629	3694.86
213.703	3729.31
213.777	3786.32
213.85	3831.29
213.924	3923.99
213.998	3991.6
214.072	4055.17
214.146	4119
214.219	4193.23
214.293	4270.25
214.367	4350.57
214.441	4444.34
214.515	4524.23
214.588	4589.46
214.662	4653.27
214.736	4731.96
214.81	4842.41
214.883	4956.99
214.957	5057.5
215.031	5154.37
215.105	5243.26
215.178	5345.35
215.252	5465.27
215.326	5559.82
215.4	5667.34
215.473	5750.72
215.547	5862.7
215.621	5983.99
215.694	6122.8
215.768	6237.65
215.842	6371.58
215.915	6504.59
215.989	6624.32
216.063	6756.95
216.136	6911.88
216.21	7068.16
216.284	7238.53
216.357	7397.14
216.431	7553.62
216.504	7720.93
216.578	7912.24
216.652	8087.5
216.725	8250.53
216.799	8425.87
216.873	8597.82
216.946	8770.31
217.02	8937.25
217.093	9105.52
217.167	9252.12
217.24	9408.42
217.314	9585.59
217.387	9750.13
217.461	9914.02
217.535	10100.18
217.608	10267.03
217.682	10430.19
217.755	10606.43
217.829	10764.71
217.902	10935.33
217.976	11096.7
218.049	11254.86
218.123	11404.79
218.196	11576.4
218.27	11738.77
218.343	11884.86
218.417	12062.04
218.49	12227.74
218.563	12411.19
218.637	12584.67
218.71	12773.24
218.784	12948.94
218.857	13116.59
218.931	13279.81
219.004	13452.09
219.077	13617.92
219.151	13779.98
219.224	13943.2
219.298	14092.69
219.371	14257.16
219.444	14388.86
219.518	14544.12
219.591	14698.57
219.665	14877.55
219.738	15018.88
219.811	15157.7
219.885	15312.48
219.958	15438.24
220.031	15573.4
220.105	15710.48
220.178	15847.08
220.251	15969.5
220.325	16101.42
220.398	16235.89
220.471	16365.89
220.544	16491.68
220.618	16607.21
220.691	16738.78
220.764	16860.76
220.838	16991.33
220.911	17109.64
220.984	17261.31
221.057	17381.31
221.131	17495.77
221.204	17568.11
221.277	17695.87
221.35	17832.11
221.424	17932.93
221.497	18052.78
221.57	18161.93
221.643	18269.16
221.716	18369.64
221.79	18469.1
221.863	18563.51
221.936	18657.33
222.009	18751.79
222.082	18841.95
222.155	18918.33
222.229	19011.58
222.302	19099.48
222.375	19176.73
222.448	19256.15
222.521	19330.07
222.594	19408.38
222.667	19477.87
222.74	19562.59
222.814	19633.62
222.887	19696.17
222.96	19782.24
223.033	19856.07
223.106	19925.08
223.179	19988.11
223.252	20048.88
223.325	20111.48
223.398	20173.46
223.471	20226.95
223.544	20286.32
223.617	20352.88
223.69	20427.43
223.763	20473.16
223.837	20535.33
223.91	20595.53
223.983	20625.6
224.056	20667.72
224.129	20724.64
224.202	20787.96
224.275	20834.76
224.348	20864.26
224.42	20897.66
224.493	20919.29
224.566	20961.95
224.639	21008.84
224.712	21037.18
224.785	21064.46
224.858	21101.86
224.931	21123.55
225.004	21148.13
225.077	21187.02
225.15	21189.63
225.223	21210.35
225.296	21254.84
225.369	21267.56
225.442	21287.47
225.514	21329.11
225.587	21346.22
225.66	21367.72
225.733	21395.87
225.806	21416.59
225.879	21447.63
225.952	21462.91
226.025	21496.12
226.097	21518.39
226.17	21530.39
226.243	21538.2
226.316	21567.26
226.389	21593.92
226.461	21617.44
226.534	21638.12
226.607	21646.8
226.68	21686.32
226.753	21701.26
226.825	21699.24
226.898	21722.18
226.971	21733.85
227.044	21743.24
227.117	21771.49
227.189	21794.19
227.262	21811.98
227.335	21837.87
227.407	21846.06
227.48	21864.33
227.553	21880.24
227.626	21889.64
227.698	21913.06
227.771	21936.78
227.844	21937.36
227.916	21939.77
227.989	21931.81
228.062	21943.24
228.134	21974.14
228.207	21985.08
228.28	21991.44
228.352	21999.25
228.425	22010.63
228.498	22027.5
228.57	22026.78
228.643	22037.82
228.716	22047.02
228.788	22036.61
228.861	22030.54
228.934	22045.34
229.006	22049.96
229.079	22051.36
229.151	22049.14
229.224	22037.48
229.296	22044.95
229.369	22085.78
229.442	22105.98
229.514	22110.27
229.587	22123.48
229.659	22109.98
229.732	22118.51
229.804	22127.09
229.877	22151.1
229.949	22167.59
230.022	22194.44
230.094	22200.56
230.167	22207.65
230.239	22187.26
230.312	22194.63
230.384	22214.01
230.457	22223.12
230.529	22232.28
230.602	22227.03
230.674	22232.43
230.747	22250.26
230.819	22259.52
230.892	22222.54
230.964	22216.57
231.037	22225.15
231.109	22213.29
231.181	22216.37
231.254	22196.7
231.326	22190.78
231.399	22175.54
231.471	22162.67
231.544	22121.69
231.616	22136.06
231.688	22126.46
231.761	22115.67
231.833	22110.65
231.905	22076.19
231.978	22064.28
232.05	22038.83
232.122	22039.02
232.195	22024.61
232.267	22018.58
232.339	21993.56
232.412	22002.63
232.484	21989.85
232.556	21973.8
232.629	21985.76
232.701	21979.63
232.773	21972.31
232.846	21953.7
232.918	21945.6
232.99	21932.83
233.062	21933.41
233.135	21915.23
233.207	21883.9
233.279	21881.44
233.351	21865.1
233.424	21848.47
233.496	21826.49
233.568	21843.03
233.64	21814.59
233.713	21807.02
233.785	21786.73
233.857	21775.4
233.929	21730.19
234.001	21729.94
234.074	21728.11
234.146	21686.08
234.218	21665.16
234.29	21643.62
234.362	21625.06
234.434	21599.8
234.507	21570.78
234.579	21535.21
234.651	21507.11
234.723	21500.8
234.795	21489.95
234.867	21470.53
234.939	21471.78
235.012	21448.94
235.084	21431.15
235.156	21418.71
235.228	21377.89
235.3	21352.25
235.372	21342.46
235.444	21340.1
235.516	21290.65
235.588	21267.51
235.66	21255.71
235.732	21223.89
235.804	21251.37
235.876	21246.45
235.948	21224.48
236.02	21197.1
236.092	21169.05
236.164	21149.29
236.236	21117.05
236.308	21087.31
236.38	21065.86
236.452	21031.79
236.524	21013.13
236.596	20992.46
236.668	20975.4
236.74	20967.44
236.812	20940.55
236.884	20918.43
236.956	20890.48
237.028	20860.11
237.1	20821.12
237.172	20810.04
237.244	20803.82
237.316	20737.89
237.388	20693.55
237.46	20663.72
237.532	20640.97
237.604	20605.55
237.675	20580.92
237.747	20561.07
237.819	20520.73
237.891	20486.99
237.963	20450.13
238.035	20414.8
238.107	20353.45
238.178	20333.4
238.25	20284.78
238.322	20275.19
238.394	20215.96
238.466	20179.96
238.538	20155.04
238.609	20137.5
238.681	20080.01
238.753	20038.66
238.825	20010.23
238.897	19984.69
238.968	19969.99
239.04	19934.71
239.112	19946.76
239.184	19909.7
239.255	19870.57
239.327	19839.54
239.399	19811.01
239.471	19795.92
239.542	19771.64
239.614	19750.43
239.686	19685.08
239.758	19662.63
239.829	19618.24
239.901	19606.92
239.973	19573.91
240.044	19549.77
240.116	19515.41
240.188	19485.77
240.259	19444.62
240.331	19410.45
240.403	19386.02
240.474	19328.04
240.546	19291.9
240.618	19222.41
240.689	19186.99
240.761	19158.03
240.833	19150.27
240.904	19109.79
240.976	19070.57
241.048	19031.44
241.119	19001.75
241.191	18990.23
241.262	18974.57
241.334	18937.22
241.405	18898.82
241.477	18864.7
241.549	18822.24
241.62	18789.57
241.692	18768.99
241.763	18752.46
241.835	18713.48
241.906	18675.02
241.978	18633.68
242.049	18606.4
242.121	18596.09
242.192	18572.72
242.264	18527.42
242.335	18470.84
242.407	18454.17
242.478	18412.68
242.55	18388.82
242.621	18355.09
242.693	18309.6
242.764	18275.53
242.836	18236.88
242.907	18206.47
242.979	18185.8
243.05	18156.06
243.122	18121.08
243.193	18081.85
243.264	18026.86
243.336	17991.39
243.407	17973.66
243.479	17964.26
243.55	17932.84
243.622	17897.18
243.693	17867.35
243.764	17852.65
243.836	17810.58
243.907	17761.18
243.978	17723.55
244.05	17687.26
244.121	17634.25
244.192	17604.22
244.264	17552.61
244.335	17523.31
244.407	17468.17
244.478	17427.74
244.549	17387.45
244.62	17344.37
244.692	17302.25
244.763	17274.68
244.834	17237.14
244.906	17186.2
244.977	17152.22
245.048	17136.27
245.119	17090.63
245.191	17045.18
245.262	16986.14
245.333	16966.96
245.405	16935.15
245.476	16909.85
245.547	16888.84
245.618	16864.31
245.689	16835.44
245.761	16804.5
245.832	16768.54
245.903	16750.71
245.974	16724.3
246.045	16693.41
246.117	16687.53
246.188	16648.78
246.259	16604.05
246.33	16565.54
246.401	16529.83
246.473	16481.78
246.544	16438.54
246.615	16417.29
246.686	16375.21
246.757	16360.95
246.828	16324.41
246.899	16310.39
246.97	16261.42
247.042	16210.47
247.113	16187.58
247.184	16176.54
247.255	16140.78
247.326	16108.63
247.397	16071.57
247.468	16039.23
247.539	16006.31
247.61	15953.05
247.681	15932.56
247.752	15918.3
247.823	15884.31
247.894	15858.05
247.965	15815.1
248.037	15775.29
248.108	15732.63
248.179	15700.19
248.25	15662.79
248.321	15634.01
248.392	15585.91
248.463	15581.42
248.534	15557.76
248.605	15535.2
248.675	15490.66
248.746	15457.5
248.817	15435.33
248.888	15412.63
248.959	15364.04
249.03	15343.6
249.101	15312.17
249.172	15277.27
249.243	15225.26
249.314	15209.12
249.385	15182.12
249.456	15163.95
249.527	15137.2
249.598	15108.57
249.669	15080.37
249.739	15059.25
249.81	15036.12
249.881	14994.13
249.952	14955.62
250.023	14916.38
250.094	14865.19
250.165	14826.48
250.235	14797.89
250.306	14765.84
250.377	14724
250.448	14708.43
250.519	14663.6
250.59	14646.58
250.66	14620.21
250.731	14613.27
250.802	14583.34
250.873	14560.49
250.944	14540.29
251.014	14505.82
251.085	14503.99
251.156	14486.83
251.227	14471.74
251.297	14458.58
251.368	14447.06
251.439	14436.94
251.51	14415.44
251.58	14395.48
251.651	14367.96
251.722	14353.11
251.792	14308.42
251.863	14285.33
251.934	14262.82
252.005	14258.24
252.075	14239.39
252.146	14219.82
252.217	14206.23
252.287	14192.25
252.358	14165.73
252.429	14159.23
252.499	14138.45
252.57	14112.52
252.641	14099.16
252.711	14068.6
252.782	14023.43
252.852	14018.18
252.923	13987.37
252.994	13972.43
253.064	13954.06
253.135	13919.02
253.205	13896.99
253.276	13899.49
253.347	13890.81
253.417	13862.57
253.488	13835.18
253.558	13803.61
253.629	13779.31
253.699	13756.13
253.77	13737.57
253.841	13714.09
253.911	13686.71
253.982	13659.13
254.052	13634.69
254.123	13613.48
254.193	13594.49
254.264	13606.4
254.334	13569.13
254.405	13536.74
254.475	13501.5
254.546	13470.6
254.616	13464.86
254.687	13447.03
254.757	13428.03
254.827	13401.71
254.898	13383.92
254.968	13360.45
255.039	13334.27
255.109	13319.37
255.18	13284.81
255.25	13240.61
255.321	13215.88
255.391	13177.94
255.461	13176.59
255.532	13129.63
255.602	13103.22
255.673	13061.37
255.743	13027.05
255.813	12989.02
255.884	12981.88
255.954	12968.24
256.024	12972.1
256.095	12954.65
256.165	12921.53
256.235	12903.02
256.306	12876.12
256.376	12863.3
256.446	12855.92
256.517	12841.8
256.587	12832.64
256.657	12816.82
256.728	12797.35
256.798	12776.33
256.868	12753.39
256.938	12729.52
257.009	12724.85
257.079	12706.77
257.149	12715.79
257.219	12672.45
257.29	12656.01
257.36	12611.28
257.43	12595.66
257.5	12556.28
257.571	12527.74
257.641	12514.15
257.711	12472.11
257.781	12458.86
257.852	12442.8
257.922	12395.76
257.992	12372.23
258.062	12346.2
258.132	12330.83
258.202	12305.9
258.273	12294.82
258.343	12296.31
258.413	12263.77
258.483	12246.33
258.553	12214.56
258.623	12178.07
258.693	12172.28
258.764	12168.43
258.834	12173.59
258.904	12157.29
258.974	12128.95
259.044	12108.85
259.114	12091.5
259.184	12082.92
259.254	12066.58
259.324	12018.91
259.394	12008.4
259.464	12007.58
259.535	11983.19
259.605	11961.11
259.675	11940.49
259.745	11925.78
259.815	11888.62
259.885	11862.21
259.955	11867.65
260.025	11843.8
260.095	11822.49
260.165	11811.94
260.235	11807.26
260.305	11773.86
260.375	11741.42
260.445	11741.18
260.515	11728.31
260.585	11717.27
260.655	11698.91
260.725	11687.87
260.795	11685.7
260.865	11690.43
260.934	11658.66
261.004	11645.31
261.074	11625.31
261.144	11625.89
261.214	11610.66
261.284	11592.92
261.354	11591.71
261.424	11562.22
261.494	11556.24
261.564	11541.73
261.634	11522.89
261.703	11479.56
261.773	11475.12
261.843	11469.68
261.913	11443.99
261.983	11415.89
262.053	11398.25
262.123	11381.43
262.192	11340.85
262.262	11334.68
262.332	11296.13
262.402	11281.91
262.472	11271.02
262.541	11240.85
262.611	11230.73
262.681	11207.07
262.751	11193.04
262.821	11167.4
262.89	11139.64
262.96	11132.85
263.03	11135.6
263.1	11114.68
263.169	11103.45
263.239	11087.36
263.309	11083.64
263.379	11081.33
263.448	11071.31
263.518	11063.74
263.588	11047.69
263.657	11052.37
263.727	11040.22
263.797	11024.37
263.867	11009.86
263.936	10980.08
264.006	10974.93
264.076	10959.65
264.145	10943.12
264.215	10925.05
264.285	10913.25
264.354	10874.07
264.424	10847.09
264.494	10813.45
264.563	10803.62
264.633	10810.51
264.702	10795.77
264.772	10759.43
264.842	10740.4
264.911	10733.75
264.981	10701.66
265.05	10687.83
265.12	10671.54
265.19	10665.37
265.259	10663.25
265.329	10655.01
265.398	10639.26
265.468	10650.24
265.537	10623.98
265.607	10609.91
265.676	10608.47
265.746	10603.5
265.815	10609.24
265.885	10599.22
265.955	10581.87
266.024	10562.74
266.094	10519.19
266.163	10516.58
266.232	10518.32
266.302	10496.35
266.371	10480.26
266.441	10470.04
266.51	10463.44
266.58	10448.46
266.649	10417.81
266.719	10413.77
266.788	10395.26
266.858	10402.2
266.927	10363.22
266.996	10353.78
267.066	10346.12
267.135	10313.55
267.205	10310.18
267.274	10295.49
267.343	10293.13
267.413	10278.38
267.482	10273.95
267.552	10285.23
267.621	10253.77
267.69	10224.43
267.76	10214.55
267.829	10206.51
267.898	10190.75
267.968	10164.06
268.037	10155.63
268.106	10155.2
268.176	10129.57
268.245	10122.97
268.314	10096.67
268.384	10096.43
268.453	10084.58
268.522	10076.43
268.592	10081.64
268.661	10054.42
268.73	10044.59
268.799	10019.21
268.869	10023.3
268.938	9995.6
269.007	9964.53
269.076	9957.16
269.146	9947.67
269.215	9941.12
269.284	9944.93
269.353	9934.09
269.422	9924.36
269.492	9902.45
269.561	9858.47
269.63	9850.91
269.699	9826.92
269.768	9821.86
269.838	9805.97
269.907	9800.96
269.976	9772.06
270.045	9738.88
270.114	9732.57
270.183	9723.08
270.253	9721.78
270.322	9694.61
270.391	9685.32
270.46	9693.55
270.529	9691.19
270.598	9698.85
270.667	9684.16
270.736	9653.24
270.806	9646.83
270.875	9644.71
270.944	9639.03
271.013	9662.24
271.082	9645.19
271.151	9645.15
271.22	9616.83
271.289	9604.21
271.358	9593.37
271.427	9590.34
271.496	9586.49
271.565	9572.96
271.634	9559.23
271.703	9557.79
271.772	9552.06
271.841	9538.04
271.91	9513.63
271.979	9502.21
272.048	9482.18
272.117	9481.94
272.186	9476.64
272.255	9472.64
272.324	9467.68
272.393	9460.65
272.462	9440.04
272.531	9437.82
272.6	9425.93
272.669	9431.61
272.738	9422.56
272.807	9411.72
272.876	9394.39
272.945	9419.91
273.013	9424.44
273.082	9428.82
273.151	9408.16
273.22	9406.52
273.289	9395.59
273.358	9402.09
273.427	9386.83
273.496	9383.84
273.564	9374.7
273.633	9368.53
273.702	9351.44
273.771	9341.85
273.84	9333.19
273.909	9333.04
273.977	9328.28
274.046	9309.5
274.115	9314.17
274.184	9297.22
274.253	9295.06
274.322	9298.04
274.39	9265.68
274.459	9246.42
274.528	9220.76
274.597	9209.68
274.665	9203.95
274.734	9212.67
274.803	9200.39
274.872	9197.55
274.94	9178.72
275.009	9232.24
275.078	9220.25
275.147	9214.37
275.215	9206.96
275.284	9210.38
275.353	9199.83
275.421	9174.89
275.49	9195.31
275.559	9178.75
275.627	9172.49
275.696	9158.96
275.765	9161.27
275.833	9149.72
275.902	9150.63
275.971	9158.09
276.039	9170.76
276.108	9171.19
276.177	9166.23
276.245	9153.09
276.314	9144.66
276.383	9146.06
276.451	9089.41
276.52	9086.04
276.588	9094.95
276.657	9095.87
276.725	9083.44
276.794	9084.41
276.863	9094.23
276.931	9071.41
277	9075.55
277.068	9085.17
277.137	9103.04
277.205	9097.02
277.274	9114.35
277.342	9119.45
277.411	9098.22
277.48	9085.42
277.548	9074.78
277.617	9076.99
277.685	9076.94
277.754	9085.71
277.822	9077.43
277.89	9084.02
277.959	9079.93
278.027	9061.69
278.096	9052.73
278.164	9079.36
278.233	9064.72
278.301	9053.94
278.37	9053.84
278.438	9044.98
278.507	9047.29
278.575	9013.07
278.643	9007.1
278.712	8986.49
278.78	8973.59
278.849	8982.98
278.917	8994.96
278.985	8991.35
279.054	8993.09
279.122	9000.64
279.191	8994
279.259	8988.61
279.327	8966.41
279.396	8982.45
279.464	8982.35
279.532	8987.36
279.601	8984.56
279.669	8985.72
279.737	8998.09
279.806	9003.43
279.874	9011.28
279.942	9003
280.011	9001.99
280.079	9009.31
280.147	9024.71
280.215	9031.98
280.284	9026.49
280.352	9009.16
280.42	9013.16
280.488	9004.2
280.557	8995.15
280.625	8996.45
280.693	8995.88
280.761	8995.68
280.83	8977.44
280.898	8989.71
280.966	8973.2
281.034	8943.11
281.102	8925.78
281.171	8916.01
281.239	8920.25
281.307	8906.67
281.375	8900.56
281.443	8928.96
281.512	8921.74
281.58	8930.41
281.648	8910.72
281.716	8909.51
281.784	8907.25
281.852	8897.34
281.92	8890.35
281.989	8904.17
282.057	8885.4
282.125	8935.23
282.193	8929.02
282.261	8929.41
282.329	8915.69
282.397	8917.37
282.465	8914.97
282.533	8931.62
282.601	8920.21
282.67	8899.42
282.738	8892.15
282.806	8898.16
282.874	8885.65
282.942	8890.75
283.01	8881.17
283.078	8885.16
283.146	8887.28
283.214	8894.21
283.282	8901.53
283.35	8911.3
283.418	8899.51
283.486	8904.03
283.554	8856.99
283.622	8860.7
283.69	8851.79
283.758	8852.8
283.826	8857.76
283.894	8869.84
283.962	8883.27
284.03	8900.8
284.098	8902.38
284.165	8899.78
284.233	8899.98
284.301	8890.59
284.369	8877.11
284.437	8867
284.505	8857.67
284.573	8866.86
284.641	8857.18
284.709	8865.8
284.777	8856.41
284.845	8860.79
284.912	8871.96
284.98	8877.98
285.048	8868.59
285.116	8884.29
285.184	8891.75
285.252	8890.69
285.319	8873.5
285.387	8870.13
285.455	8854.49
285.523	8861.85
285.591	8860.51
285.659	8862.62
285.726	8875.24
285.794	8864.84
285.862	8863.78
285.93	8867.15
285.997	8861.23
286.065	8851.41
286.133	8839.86
286.201	8832.06
286.269	8822.38
286.336	8808.95
286.404	8799.18
286.472	8809
286.539	8783.59
286.607	8763.9
286.675	8762.65
286.743	8768.62
286.81	8757.6
286.878	8768.57
286.946	8765.83
287.013	8760.92
287.081	8757.88
287.149	8741.47
287.216	8760.24
287.284	8753.5
287.352	8755.28
287.419	8750.71
287.487	8773
287.555	8772.52
287.622	8768.52
287.69	8770.25
287.758	8781.08
287.825	8776.9
287.893	8760.82
287.96	8764.19
288.028	8778.68
288.096	8779.01
288.163	8782.77
288.231	8776.61
288.298	8772.9
288.366	8778.73
288.433	8775.74
288.501	8767.13
288.569	8769.97
288.636	8765.39
288.704	8777.76
288.771	8785.03
288.839	8780.65
288.906	8770.83
288.974	8776.75
289.041	8774.25
289.109	8765.97
289.176	8771.03
289.244	8780.7
289.311	8806.12
289.379	8819.16
289.446	8823.64
289.514	8825.27
289.581	8820.41
289.649	8821.57
289.716	8825.08
289.783	8817.19
289.851	8838.03
289.918	8835.33
289.986	8845.92
290.053	8850.83
290.121	8844.57
290.188	8841.73
290.255	8869.22
290.323	8868.31
290.39	8860.03
290.458	8868.4
290.525	8880.72
290.592	8874.99
290.66	8867.97
290.727	8854.39
290.794	8865.22
290.862	8861.56
290.929	8861.23
290.996	8868.88
291.064	8875.38
291.131	8881.83
291.198	8887.94
291.266	8888.95
291.333	8894.68
291.4	8896.94
291.468	8905.13
291.535	8910.76
291.602	8914.95
291.669	8901.37
291.737	8903.06
291.804	8907.58
291.871	8920.1
291.938	8926.11
292.006	8949.32
292.073	8965.97
292.14	8975.84
292.207	8970.93
292.275	8972.91
292.342	8984.51
292.409	9005.98
292.476	9024.81
292.543	9019.65
292.611	9025.58
292.678	9042.52
292.745	9064.91
292.812	9077.19
292.879	9076.37
292.946	9079.35
293.014	9096.01
293.081	9110.93
293.148	9125.09
293.215	9141.41
293.282	9143.48
293.349	9159.61
293.416	9139.92
293.484	9147.38
293.551	9160.28
293.618	9175.5
293.685	9194.22
293.752	9188.21
293.819	9188.16
293.886	9180.5
293.953	9189.22
294.02	9203.61
294.087	9206.55
294.154	9197.64
294.221	9208.62
294.288	9211.51
294.356	9226
294.423	9229.9
294.49	9221.86
294.557	9235.59
294.624	9227.16
294.691	9245.12
294.758	9237.85
294.825	9246.71
294.892	9244.73
294.959	9248.3
295.026	9252.73
295.093	9243.91
295.16	9246.08
295.226	9242.42
295.293	9267.27
295.36	9273.43
295.427	9282.05
295.494	9295.82
295.561	9310.27
295.628	9329.92
295.695	9342.34
295.762	9348.07
295.829	9357.99
295.896	9377.3
295.963	9381.06
296.03	9393.43
296.096	9397.38
296.163	9411.97
296.23	9428.1
296.297	9442.59
296.364	9436.48
296.431	9440.43
296.498	9447.36
296.564	9471.58
296.631	9474.81
296.698	9460.17
296.765	9485.02
296.832	9472.3
296.899	9461.95
296.965	9478.81
297.032	9455.25
297.099	9479.09
297.166	9484.87
297.233	9482.85
297.299	9469.56
297.366	9471.05
297.433	9477.12
297.5	9484.35
297.566	9479.63
297.633	9477.51
297.7	9476.59
297.767	9475.1
297.833	9481.07
297.9	9481.07
297.967	9463.49
298.033	9477.46
298.1	9508.67
298.167	9489.84
298.234	9495.91
298.3	9501.4
298.367	9494.08
298.434	9510.98
298.5	9495.13
298.567	9483.77
298.634	9483.24
298.7	9499.61
298.767	9499.76
298.834	9501.88
298.9	9496.87
298.967	9494.46
299.033	9505.29
299.1	9522.05
299.167	9540.02
299.233	9536.16
299.3	9555.43
299.366	9575.75
299.433	9589.14
299.5	9559.71
299.566	9568.91
299.633	9583.64
299.699	9592.6
299.766	9590.19
299.832	9589.28
299.899	9601.13
299.965	9621.21
300.032	9618.99
300.099	9627.18
300.165	9633.83
300.232	9636.77
300.298	9636.09
300.365	9647.75
300.431	9653.24
300.498	9644.86
300.564	9653.28
300.631	9669.85
300.697	9674.43
300.763	9673.99
300.83	9668.98
300.896	9682.95
300.963	9693.02
301.029	9694.85
301.096	9697.4
301.162	9707.95
301.229	9697.88
301.295	9682.42
301.361	9679.19
301.428	9682.52
301.494	9663.98
301.561	9664.99
301.627	9663.11
301.693	9666.05
301.76	9672.4
301.826	9666.62
301.892	9680.11
301.959	9680.01
302.025	9678.09
302.092	9678.18
302.158	9680.4
302.224	9681.94
302.291	9677.32
302.357	9670.19
302.423	9666.19
302.49	9659.4
302.556	9668.74
302.622	9677.65
302.688	9686.95
302.755	9702.94
302.821	9710.31
302.887	9724.42
302.954	9722.35
303.02	9736.17
303.086	9745.71
303.152	9736.75
303.219	9735.16
303.285	9742.19
303.351	9750.72
303.417	9740.65
303.483	9729.81
303.55	9725.43
303.616	9727.55
303.682	9727.12
303.748	9724.23
303.815	9739.93
303.881	9746.58
303.947	9735.02
304.013	9735.02
304.079	9728.85
304.145	9707.8
304.212	9699.47
304.278	9692.2
304.344	9692.88
304.41	9674.53
304.476	9663.69
304.542	9662.87
304.608	9668.17
304.674	9642.16
304.741	9634.45
304.807	9642.06
304.873	9643.56
304.939	9657.91
305.005	9631.66
305.071	9625.74
305.137	9623.43
305.203	9594
305.269	9598.04
305.335	9606.71
305.401	9600.89
305.467	9595.16
305.533	9609.03
305.599	9617.94
305.666	9636.09
305.732	9631.47
305.798	9645.58
305.864	9671.16
305.93	9677.37
305.996	9671.06
306.062	9679.3
306.128	9673.61
306.194	9661.57
306.259	9662.39
306.325	9652.28
306.391	9665.38
306.457	9673.37
306.523	9675.83
306.589	9701.06
306.655	9684.64
306.721	9672.89
306.787	9662.73
306.853	9685.84
306.919	9664.32
306.985	9656.23
307.051	9637.92
307.117	9630.56
307.183	9626.12
307.248	9591.93
307.314	9590.63
307.38	9598
307.446	9601.32
307.512	9594.24
307.578	9596.5
307.644	9595.44
307.709	9593.57
307.775	9585.38
307.841	9583.16
307.907	9582.1
307.973	9558.75
308.039	9562.31
308.104	9561.59
308.17	9562.74
308.236	9543.77
308.302	9548.49
308.368	9538.52
308.433	9538.18
308.499	9529.85
308.565	9515.02
308.631	9527.25
308.696	9502.64
308.762	9484.73
308.828	9479.43
308.894	9463.15
308.959	9443.8
309.025	9434.74
309.091	9429.59
309.156	9427.81
309.222	9425.5
309.288	9410.28
309.354	9394.78
309.419	9393.14
309.485	9382.83
309.551	9385.48
309.616	9368.15
309.682	9359.86
309.748	9354.18
309.813	9352.45
309.879	9349.9
309.945	9340.51
310.01	9328.9
310.076	9343.3
310.141	9338.19
310.207	9321.05
310.273	9317.44
310.338	9325.67
310.404	9309.5
310.469	9298.37
310.535	9285.95
310.601	9262.64
310.666	9272.23
310.732	9279.3
310.797	9269.24
310.863	9253.45
310.928	9245.74
310.994	9245.79
311.059	9243.53
311.125	9238.67
311.191	9240.74
311.256	9233.27
311.322	9243.1
311.387	9221.72
311.453	9606.95
311.518	9577.05
311.584	9576.19
311.649	9585.14
311.715	9569.35
311.78	9567.09
311.846	9556.06
311.911	9563.53
311.976	9565.16
312.042	9548.26
312.107	9537.19
312.173	9523.9
312.238	9523.76
312.304	9513.69
312.369	9502.24
312.434	9493.23
312.5	9484.9
312.565	9446.48
312.631	9446.29
312.696	9431.75
312.761	9435.12
312.827	9031.26
312.892	9070.93
312.958	9064.14
313.023	9057.83
313.088	9063.08
313.154	9050.47
313.219	9039.54
313.284	9030.01
313.35	9024.95
313.415	9014.17
313.48	9006.66
313.546	9006.18
313.611	9011.13
313.676	9004.64
313.741	8999.1
313.807	9008.01
313.872	9013.69
313.937	9026.97
314.003	9038
314.068	9037.08
314.133	9038.82
314.198	9019.66
314.264	8993.42
314.329	8987.69
314.394	8984.75
314.459	8977.77
314.525	8995.58
314.59	8994.91
314.655	8976.86
314.72	8983.26
314.785	8985.18
314.851	8979.41
314.916	8963.57
314.981	8952.16
315.046	8943.35
315.111	8936.13
315.176	8914.42
315.242	8916.78
315.307	8911.39
315.372	8886.16
315.437	8876.44
315.502	8866.28
315.567	8887.51
315.632	8878.27
315.698	8875.62
315.763	8871.53
315.828	8866.91
315.893	8856.22
315.958	8852.22
316.023	8845.87
316.088	8827.1
316.153	8803.61
316.218	8795.33
316.283	8777.53
316.348	8757.41
316.413	8754.76
316.479	8735.66
316.544	8705.05
316.609	8671.12
316.674	8636.43
316.739	8605.1
316.804	8565.98
316.869	8527.78
316.934	8487.92
316.999	8453.18
317.064	8404.92
317.129	8361.03
317.194	8315.28
317.259	8263.26
317.324	8206.98
317.389	8161.67
317.454	8121.01
317.518	8087.1
317.583	8056.65
317.648	8034.95
317.713	7998.1
317.778	7932.78
317.843	7907.96
317.908	7868
317.973	7828.23
318.038	7800.38
318.103	7761.72
318.168	7734.75
318.233	7707.63
318.297	7659.63
318.362	7627.9
318.427	7586.08
318.492	7548.38
318.557	7500.22
318.622	7475.94
318.687	7455.51
318.751	7415.62
318.816	7385.09
318.881	7345.92
318.946	7292.95
319.011	7237.88
319.075	7194.62
319.14	7167.19
319.205	7118.21
319.27	7085.93
319.335	7035.91
319.399	6992.43
319.464	6964.9
319.529	6917.67
319.594	6876.26
319.658	6838.02
319.723	6789.7
319.788	6754.55
319.853	6703.64
319.917	6676.41
319.982	6626.12
320.047	6585.25
320.112	6558.94
320.176	6502.9
320.241	6472.13
320.306	6440.2
320.37	6397.58
320.435	6365.03
320.5	6335.12
320.564	6293.02
320.629	6247.91
320.694	6219.02
320.758	6176.65
320.823	6125.4
320.888	6095.36
320.952	6048.1
321.017	6007.46
321.082	5966.2
321.146	5934.59
321.211	5898.95
321.275	5856.56
321.34	5810.56
321.405	5768.17
321.469	5720.55
321.534	5679.94
321.598	5626.04
321.663	5595.83
321.727	5568.22
321.792	5520.08
321.857	5469.45
321.921	5430.34
321.986	5394.45
322.05	5335.99
322.115	5296.31
322.179	5256.83
322.244	5196.66
322.308	5157.95
322.373	5111.91
322.437	5073.64
322.502	5044.94
322.566	5003.56
322.631	4966.63
322.695	4924.64
322.76	4879.02
322.824	4842.91
322.889	4801.6
322.953	4757.05
323.018	4691.32
323.082	4627.49
323.146	4579.54
323.211	4529.58
323.275	4485.32
323.34	4438.44
323.404	4407.45
323.468	4363.29
323.533	4320.25
323.597	4274.36
323.662	4223.58
323.726	4186.71
323.79	4140.81
323.855	4077.15
323.919	4030.73
323.983	3984.31
324.048	3918.64
324.112	4070.55
324.177	3937.97
324.241	3733.12
324.305	3535.73
324.37	3338.77
324.434	3152.6
324.498	3106.66
324.562	3057.79
324.627	2999.81
324.691	2942.86
324.755	2876.09
324.82	2803.3
324.884	2725.41
324.948	2659.07
325.012	2570.48
325.077	2451.56
