Data from 20250630_urea_2M_MAYP1162681_17-52-27-220.txt Node
Date: Mon Jun 30 17:52:27 BST 2025
User: adleo
Spectrometer: MAYP116268
Trigger mode: 0
Integration Time (sec): 1.000000E0
Scans to average: 1
Electric dark correction enabled: true
Nonlinearity correction enabled: true
Boxcar width: 10
XAxis mode: Wavelengths
Number of Pixels in Spectrum: 2068
>>>>>Begin Spectral Data<<<<<
179.565	1096.26
179.642	1143.87
179.718	1182.01
179.795	1216.49
179.871	1245.03
179.948	1260.85
180.024	1276.5
180.101	1295.68
180.177	1309.22
180.254	1329.93
180.33	1349.34
180.407	1394.15
180.483	1479.56
180.56	1557.96
180.636	1632.01
180.712	1622.41
180.789	1630.16
180.865	1639.42
180.942	1648.16
181.018	1658.37
181.095	1670.16
181.171	1673.39
181.248	1674.91
181.324	1688.17
181.4	1695.44
181.477	1703.28
181.553	1715.91
181.63	1737.44
181.706	1752.79
181.782	1759.15
181.859	1758.25
181.935	1762.43
182.011	1758.77
182.088	1774.32
182.164	1793.9
182.24	1806.97
182.317	1813.38
182.393	1813.24
182.469	1825.12
182.546	1840.28
182.622	1843.94
182.698	1842.85
182.775	1855.82
182.851	1868.09
182.927	1862.62
183.003	1859.48
183.08	1856.4
183.156	1862.86
183.232	1860.05
183.308	1848.93
183.385	1857.58
183.461	1873.55
183.537	1875.12
183.613	1886.77
183.69	1877.64
183.766	1868.37
183.842	1875.21
183.918	1882.2
183.995	1892.61
184.071	1896.89
184.147	1890.47
184.223	1879.59
184.299	1886.63
184.375	1876.98
184.452	1881.5
184.528	1935.09
184.604	1945.64
184.68	1957.01
184.756	1964.95
184.832	1968.46
184.908	1972.74
184.985	1973.55
185.061	1959
185.137	1966.9
185.213	1955.2
185.289	1958.53
185.365	1951.35
185.441	1949.4
185.517	1960.53
185.593	1959.39
185.669	1953.69
185.745	1962.86
185.822	1977.74
185.898	1973.22
185.974	1978.92
186.05	1972.03
186.126	1933.27
186.202	1925.33
186.278	1922.86
186.354	1913.96
186.43	1919.86
186.506	1918.86
186.582	1913.73
186.658	1920.48
186.734	1902.94
186.81	1904.65
186.886	1908.31
186.962	1918.2
187.038	1917.25
187.114	1909.97
187.19	1918.62
187.266	1911.4
187.341	1911.92
187.417	1905.27
187.493	1905.08
187.569	1908.41
187.645	1904.79
187.721	1893.95
187.797	1899.75
187.873	1901.37
187.949	1896.71
188.025	1890.43
188.101	1895.85
188.176	1901.51
188.252	1899.56
188.328	1907.73
188.404	1910.58
188.48	1905.54
188.556	1900.41
188.632	1898.93
188.707	1898.51
188.783	1893.08
188.859	1890.8
188.935	1877.63
189.011	1885.86
189.086	1880.82
189.162	1875.54
189.238	1875.02
189.314	1872.69
189.39	1867.94
189.465	1859.43
189.541	1873.83
189.617	1858.91
189.693	1850.74
189.768	1855.06
189.844	1875.23
189.92	1864.73
189.996	1872.43
190.071	1882.55
190.147	1880.6
190.223	1887.26
190.298	1879.89
190.374	1869.2
190.45	1880.32
190.526	1891.2
190.601	1885.97
190.677	1885.5
190.753	1911.23
190.828	1913.28
190.904	1927.07
190.98	1940.95
191.055	1954.93
191.131	1949.89
191.207	1971.23
191.282	1980.07
191.358	1971.28
191.433	1957.25
191.509	1973.5
191.585	1971.65
191.66	1972.12
191.736	1983.39
191.811	1977.11
191.887	1990.43
191.963	2009.59
192.038	2014.72
192.114	2012.87
192.189	2014.91
192.265	2011.73
192.34	1987.47
192.416	1987.8
192.491	1983.62
192.567	1985.85
192.642	1985.99
192.718	1984.43
192.793	1970.35
192.869	1968.88
192.944	1969.64
193.02	1978.01
193.095	1981.48
193.171	1986.04
193.246	1986.38
193.322	1979.91
193.397	1978.1
193.473	1969.16
193.548	1953.61
193.624	1957.42
193.699	1959.75
193.775	1977.35
193.85	1977.63
193.925	1987.24
194.001	1985.91
194.076	1979.2
194.152	1967.65
194.227	1962.37
194.302	1950.77
194.378	1958.23
194.453	1955.14
194.529	1968.65
194.604	1954.29
194.679	1946.59
194.755	1928.19
194.83	1937.56
194.905	1936.61
194.981	1947.12
195.056	1938.37
195.131	1946.45
195.207	1942.7
195.282	1930.72
195.357	1912.55
195.433	1928.24
195.508	1918.77
195.583	1922.48
195.659	1936.18
195.734	1942.88
195.809	1941.31
195.884	1950.53
195.96	1948.01
196.035	1960.95
196.11	1959.23
196.185	1972.64
196.261	1977.97
196.336	2006.16
196.411	1993.61
196.486	1999.93
196.561	1994.13
196.637	2003.16
196.712	2017.24
196.787	2020.28
196.862	2034.17
196.937	2040.35
197.013	2045.11
197.088	2055.95
197.163	2080.35
197.238	2095.35
197.313	2098.49
197.388	2110.66
197.464	2139.78
197.539	2148.67
197.614	2141.73
197.689	2151.01
197.764	2162.47
197.839	2182.27
197.914	2177.79
197.989	2196.82
198.065	2209.48
198.14	2253.7
198.215	2276.73
198.29	2287.3
198.365	2300.58
198.44	2312.66
198.515	2340.74
198.59	2356.69
198.665	2379.58
198.74	2385.73
198.815	2389.2
198.89	2408.34
198.965	2437.91
199.04	2433.62
199.115	2452.33
199.19	2492.12
199.265	2496.16
199.34	2507.54
199.415	2537.7
199.49	2556.84
199.565	2568.88
199.64	2591.41
199.715	2590.22
199.79	2597.55
199.865	2601.6
199.94	2599.17
200.015	2628.18
200.09	2630.08
200.165	2634.23
200.24	2640.71
200.315	2676.36
200.39	2685.46
200.464	2691.51
200.539	2691.56
200.614	2706.71
200.689	2727.43
200.764	2733.53
200.839	2751.15
200.914	2753.63
200.989	2743
201.063	2757.72
201.138	2740.34
201.213	2739.01
201.288	2720.57
201.363	2725.1
201.438	2728.29
201.512	2742.86
201.587	2727.28
201.662	2734.81
201.737	2747.58
201.812	2754.35
201.886	2723.69
201.961	2737.04
202.036	2723.46
202.111	2719.79
202.186	2694.46
202.26	2677.12
202.335	2656.11
202.41	2648.87
202.485	2634.73
202.559	2613.15
202.634	2589.57
202.709	2598.81
202.784	2580.62
202.858	2580.14
202.933	2565.9
203.008	2559.38
203.082	2541.76
203.157	2539.81
203.232	2496.54
203.306	2477.2
203.381	2447.57
203.456	2426.1
203.53	2402.42
203.605	2388.28
203.68	2368.57
203.754	2359.48
203.829	2344.92
203.904	2328.88
203.978	2316.69
204.053	2320.97
204.127	2315.88
204.202	2313.69
204.277	2296.99
204.351	2293.13
204.426	2286.66
204.5	2278.19
204.575	2247.21
204.65	2258.31
204.724	2248.5
204.799	2257.3
204.873	2251.96
204.948	2250.63
205.022	2241.12
205.097	2230.07
205.171	2240.44
205.246	2247.87
205.32	2250.72
205.395	2249.25
205.469	2238.88
205.544	2245.83
205.618	2230.79
205.693	2238.88
205.767	2225.85
205.842	2244.65
205.916	2237.46
205.991	2231.09
206.065	2234.23
206.14	2245.26
206.214	2239.88
206.289	2235.55
206.363	2250.44
206.438	2252.44
206.512	2258.29
206.586	2276.52
206.661	2286.37
206.735	2266.63
206.81	2264.35
206.884	2275.67
206.958	2265.82
207.033	2283.8
207.107	2290.76
207.181	2318.56
207.256	2311.32
207.33	2329.69
207.405	2345.17
207.479	2364.64
207.553	2369.45
207.628	2354.37
207.702	2363.12
207.776	2357.55
207.851	2358.84
207.925	2369.22
207.999	2365.7
208.073	2363.84
208.148	2366.36
208.222	2356.6
208.296	2386.29
208.371	2408.06
208.445	2418.92
208.519	2446.62
208.593	2455.9
208.668	2452.76
208.742	2453.52
208.816	2457.94
208.89	2470.95
208.965	2470.33
209.039	2475.71
209.113	2494.71
209.187	2515.83
209.261	2518.5
209.336	2537.07
209.41	2561.5
209.484	2561.69
209.558	2584.5
209.632	2597.59
209.707	2607.98
209.781	2629.31
209.855	2646.08
209.929	2658.34
210.003	2664.48
210.077	2664.81
210.151	2711.01
210.226	2741.37
210.3	2767.59
210.374	2788.88
210.448	2792.07
210.522	2798.51
210.596	2810.18
210.67	2819
210.744	2860.56
210.818	2890.91
210.892	2910.88
210.966	2903.35
211.041	2924.51
211.115	2924.94
211.189	2949.96
211.263	2970.03
211.337	2979.8
211.411	2995.01
211.485	2994.34
211.559	3009.88
211.633	3016.07
211.707	2989.79
211.781	3005.35
211.855	2984.03
211.929	2984.89
212.003	2978.98
212.077	2998.11
212.151	3022
212.225	3043.37
212.299	3051.29
212.373	3055.53
212.447	3071.9
212.52	3121.5
212.594	3142.98
212.668	3173.07
212.742	3183.71
212.816	3202.08
212.89	3225.07
212.964	3255.2
213.038	3290.33
213.112	3336.44
213.186	3387.54
213.26	3411.49
213.333	3409.82
213.407	3460.21
213.481	3512.46
213.555	3571.96
213.629	3611.37
213.703	3648.1
213.777	3706.02
213.85	3749.6
213.924	3842.85
213.998	3910.83
214.072	3970.28
214.146	4027.64
214.219	4100.51
214.293	4175.18
214.367	4264.35
214.441	4359.21
214.515	4439.46
214.588	4512.64
214.662	4577.53
214.736	4657.89
214.81	4766.06
214.883	4879.96
214.957	4980.57
215.031	5081.27
215.105	5177.04
215.178	5287.78
215.252	5411.86
215.326	5511.19
215.4	5622.65
215.473	5717.26
215.547	5833.99
215.621	5962.47
215.694	6110.71
215.768	6231.51
215.842	6366.42
215.915	6491.85
215.989	6614.65
216.063	6757.18
216.136	6909.32
216.21	7067.89
216.284	7236.37
216.357	7400.07
216.431	7559.9
216.504	7724.52
216.578	7913.28
216.652	8088.34
216.725	8256.57
216.799	8425.65
216.873	8599.82
216.946	8779.49
217.02	8934.83
217.093	9102.3
217.167	9253.04
217.24	9408.48
217.314	9581.37
217.387	9751.01
217.461	9919.37
217.535	10110.78
217.608	10268.1
217.682	10440.85
217.755	10618.87
217.829	10785.48
217.902	10956.44
217.976	11123.45
218.049	11288.64
218.123	11444.75
218.196	11621.08
218.27	11786.15
218.343	11940.96
218.417	12107.49
218.49	12271.47
218.563	12463.25
218.637	12640.64
218.71	12822.94
218.784	13000.13
218.857	13178.58
218.931	13344.84
219.004	13517.31
219.077	13686.8
219.151	13850.89
219.224	14006.01
219.298	14169.72
219.371	14336.02
219.444	14478.71
219.518	14648.14
219.591	14805.92
219.665	14979.3
219.738	15130.22
219.811	15274.88
219.885	15434.19
219.958	15593.59
220.031	15736.21
220.105	15885.1
220.178	16020.01
220.251	16160.46
220.325	16300.38
220.398	16437.07
220.471	16577.08
220.544	16720.9
220.618	16837.1
220.691	16977.11
220.764	17108.15
220.838	17235.04
220.911	17355.38
220.984	17500.25
221.057	17613.03
221.131	17733.41
221.204	17821.31
221.277	17958.66
221.35	18106.32
221.424	18213.11
221.497	18311.81
221.57	18424.57
221.643	18518.98
221.716	18630.3
221.79	18722.73
221.863	18821.57
221.936	18912.41
222.009	19012.64
222.082	19100.97
222.155	19186.56
222.229	19289.83
222.302	19380.09
222.375	19457.29
222.448	19543.7
222.521	19616.71
222.594	19696.75
222.667	19762
222.74	19846.24
222.814	19906.48
222.887	19958.23
222.96	20040.69
223.033	20124.25
223.106	20188.93
223.179	20268.49
223.252	20333.99
223.325	20401.79
223.398	20456.88
223.471	20519.96
223.544	20578.66
223.617	20632.16
223.69	20693.02
223.763	20731.68
223.837	20795.05
223.91	20851.15
223.983	20884.31
224.056	20928.16
224.129	20982.34
224.202	21045.76
224.275	21075.55
224.348	21111.31
224.42	21141.86
224.493	21169
224.566	21202.5
224.639	21248.48
224.712	21273.15
224.785	21295.57
224.858	21326.46
224.931	21352.01
225.004	21377.07
225.077	21405.12
225.15	21419.44
225.223	21449.08
225.296	21506.39
225.369	21508.75
225.442	21537.29
225.514	21564.71
225.587	21601.39
225.66	21630.12
225.733	21654.7
225.806	21693.07
225.879	21713.17
225.952	21738.23
226.025	21770.58
226.097	21809.05
226.17	21832.38
226.243	21839.51
226.316	21861.44
226.389	21886.36
226.461	21920.59
226.534	21936.73
226.607	21944.5
226.68	21984.26
226.753	22001.86
226.825	21990.72
226.898	22024.27
226.971	22028.03
227.044	22051.07
227.117	22060.18
227.189	22078.89
227.262	22095.08
227.335	22108.1
227.407	22112.78
227.48	22125.89
227.553	22134.37
227.626	22139.63
227.698	22140.83
227.771	22157.37
227.844	22148.21
227.916	22150.57
227.989	22136.73
228.062	22156.16
228.134	22182.62
228.207	22176.79
228.28	22173.75
228.352	22188.02
228.425	22192.99
228.498	22215.12
228.57	22202.68
228.643	22212.61
228.716	22197.57
228.788	22194.92
228.861	22194.05
228.934	22212.27
229.006	22204.13
229.079	22199.79
229.151	22185.08
229.224	22169.13
229.296	22174.43
229.369	22216.71
229.442	22243.71
229.514	22236.47
229.587	22237.63
229.659	22217.34
229.732	22223.51
229.804	22235.66
229.877	22242.65
229.949	22250.6
230.022	22258.07
230.094	22264.44
230.167	22266.99
230.239	22260.05
230.312	22250.75
230.384	22267.96
230.457	22268
230.529	22268.25
230.602	22267.04
230.674	22259.57
230.747	22272.15
230.819	22276.68
230.892	22235.56
230.964	22220.57
231.037	22225.72
231.109	22219.7
231.181	22232.38
231.254	22213.67
231.326	22205.62
231.399	22192.03
231.471	22170.86
231.544	22136.73
231.616	22136.2
231.688	22124.1
231.761	22115.14
231.833	22100.48
231.905	22066.4
231.978	22053.05
232.05	22040.76
232.122	22033.38
232.195	22034.2
232.267	22032.75
232.339	22007.98
232.412	22013.33
232.484	21987.49
232.556	21967.97
232.629	21972.98
232.701	21961.85
232.773	21952.83
232.846	21926.03
232.918	21911.67
232.99	21895.86
233.062	21889.69
233.135	21872.96
233.207	21850.83
233.279	21841.72
233.351	21840.76
233.424	21819.21
233.496	21789.28
233.568	21796.03
233.64	21769.28
233.713	21733.56
233.785	21715.53
233.857	21699.24
233.929	21661.59
234.001	21665.26
234.074	21662.61
234.146	21615.03
234.218	21591.89
234.29	21568.52
234.362	21546.93
234.434	21511.69
234.507	21484.55
234.579	21457.18
234.651	21436.16
234.723	21416.64
234.795	21398.28
234.867	21367.43
234.939	21368.3
235.012	21361.79
235.084	21334.32
235.156	21312.05
235.228	21296.05
235.3	21266.41
235.372	21246.98
235.444	21238.26
235.516	21177.09
235.588	21155.31
235.66	21129.96
235.732	21098.87
235.804	21126.73
235.876	21109.62
235.948	21089.57
236.02	21066
236.092	21040.46
236.164	21014.44
236.236	20990.77
236.308	20964.5
236.38	20935.01
236.452	20893.27
236.524	20860.88
236.596	20843
236.668	20826.13
236.74	20791.68
236.812	20768.59
236.884	20746.71
236.956	20718.42
237.028	20696.4
237.1	20655.72
237.172	20644.68
237.244	20633.7
237.316	20570.75
237.388	20544.1
237.46	20527.33
237.532	20512.15
237.604	20473.45
237.675	20459.52
237.747	20428.82
237.819	20390.17
237.891	20363.86
237.963	20323.28
238.035	20286.42
238.107	20221.69
238.178	20203.19
238.25	20180.35
238.322	20166.8
238.394	20117.74
238.466	20082.71
238.538	20062.32
238.609	20043.14
238.681	19991.87
238.753	19943.82
238.825	19908.45
238.897	19870.04
238.968	19844.45
239.04	19804.5
239.112	19799.1
239.184	19753.8
239.255	19718.72
239.327	19690.87
239.399	19664.31
239.471	19649.04
239.542	19625.62
239.614	19616.27
239.686	19552.9
239.758	19526.06
239.829	19481.38
239.901	19465.58
239.973	19430.74
240.044	19401.49
240.116	19365.54
240.188	19340.52
240.259	19317.59
240.331	19288.67
240.403	19264.29
240.474	19211.13
240.546	19174.08
240.618	19121.98
240.689	19086.03
240.761	19058.13
240.833	19047.15
240.904	19015.68
240.976	18975.15
241.048	18937.66
241.119	18902.29
241.191	18880.84
241.262	18861.86
241.334	18828.51
241.405	18790.68
241.477	18762.1
241.549	18727.6
241.62	18699.17
241.692	18676.18
241.763	18649
241.835	18609.73
241.906	18585.05
241.978	18541.39
242.049	18515.51
242.121	18493.11
242.192	18467.76
242.264	18420.68
242.335	18372.15
242.407	18341.02
242.478	18312.49
242.55	18286.03
242.621	18250.52
242.693	18214.42
242.764	18180.4
242.836	18135.97
242.907	18110.52
242.979	18076.79
243.05	18043.34
243.122	18010.77
243.193	17972.41
243.264	17910.39
243.336	17876.12
243.407	17836.17
243.479	17820.41
243.55	17788.85
243.622	17759.55
243.693	17726.58
243.764	17709.43
243.836	17656.46
243.907	17617.96
243.978	17574.87
244.05	17542.68
244.121	17493.28
244.192	17474.2
244.264	17419.55
244.335	17390.25
244.407	17339.5
244.478	17313.72
244.549	17279.55
244.62	17233.33
244.692	17194
244.763	17173.81
244.834	17135.06
244.906	17101.28
244.977	17077.52
245.048	17060.27
245.119	17015.93
245.191	16978.1
245.262	16925.76
245.333	16909.95
245.405	16882.24
245.476	16857.13
245.547	16826.19
245.618	16814.57
245.689	16777.7
245.761	16746.57
245.832	16716.69
245.903	16691.72
245.974	16657.41
246.045	16618.22
246.117	16601.98
246.188	16561.11
246.259	16518.55
246.33	16488.23
246.401	16444.81
246.473	16394.97
246.544	16338.97
246.615	16318.15
246.686	16278.14
246.757	16262.29
246.828	16220.02
246.899	16190.95
246.97	16144.64
247.042	16103.86
247.113	16069.98
247.184	16052.24
247.255	16013.49
247.326	15982.02
247.397	15946.93
247.468	15918.68
247.539	15889.38
247.61	15845.71
247.681	15824.26
247.752	15810.28
247.823	15765.21
247.894	15748.87
247.965	15708.24
248.037	15680.81
248.108	15634.49
248.179	15597.14
248.25	15550
248.321	15531.78
248.392	15498.81
248.463	15489.46
248.534	15464.15
248.605	15441.35
248.675	15412.05
248.746	15389.3
248.817	15356.04
248.888	15331.07
248.959	15289.08
249.03	15263.1
249.101	15233.36
249.172	15200.63
249.243	15146.74
249.314	15137.63
249.385	15106.54
249.456	15083.6
249.527	15057.42
249.598	15038.38
249.669	15017.27
249.739	15001.36
249.81	14976.44
249.881	14939.95
249.952	14914.26
250.023	14884.18
250.094	14839.54
250.165	14801.27
250.235	14772.97
250.306	14756.73
250.377	14724.34
250.448	14692.71
250.519	14648.08
250.59	14629.9
250.66	14596.55
250.731	14586.52
250.802	14555.57
250.873	14529.44
250.944	14508.09
251.014	14478.35
251.085	14477.43
251.156	14461.76
251.227	14445.37
251.297	14427.64
251.368	14403.92
251.439	14387.29
251.51	14370.17
251.58	14338.12
251.651	14305.24
251.722	14296.28
251.792	14253.13
251.863	14222.38
251.934	14213.7
252.005	14215
252.075	14190.46
252.146	14187.28
252.217	14177.98
252.287	14161.44
252.358	14131.27
252.429	14117.29
252.499	14088.22
252.57	14053.61
252.641	14034.04
252.711	14010.8
252.782	13963.17
252.852	13957.29
252.923	13924.61
252.994	13903.69
253.064	13892.55
253.135	13864.11
253.205	13826.99
253.276	13814.12
253.347	13811.76
253.417	13777.48
253.488	13744.12
253.558	13726.53
253.629	13694.47
253.699	13669.31
253.77	13646.79
253.841	13621.97
253.911	13608.37
253.982	13578.77
254.052	13570.43
254.123	13545.42
254.193	13525.94
254.264	13548.5
254.334	13515.38
254.405	13478.55
254.475	13443.8
254.546	13423.93
254.616	13406.1
254.687	13386.57
254.757	13370.62
254.827	13338.8
254.898	13321.83
254.968	13301.1
255.039	13260.23
255.109	13248.7
255.18	13219.83
255.25	13173.5
255.321	13159.86
255.391	13115.17
255.461	13121.1
255.532	13064.6
255.602	13035.25
255.673	12994.51
255.743	12958.41
255.813	12912.56
255.884	12906.49
255.954	12892.85
256.024	12879.4
256.095	12867.06
256.165	12838.61
256.235	12822.27
256.306	12795.71
256.376	12784.67
256.446	12770.11
256.517	12758.74
256.587	12738.15
256.657	12709.47
256.728	12692.99
256.798	12674.67
256.868	12653.07
256.938	12621.64
257.009	12614.99
257.079	12601.11
257.149	12603.08
257.219	12554.83
257.29	12548.71
257.36	12508.31
257.43	12491.68
257.5	12454.28
257.571	12418.94
257.641	12404.53
257.711	12369.77
257.781	12362.25
257.852	12357.43
257.922	12321.14
257.992	12304.84
258.062	12281.56
258.132	12278.38
258.202	12262.71
258.273	12241.17
258.343	12250.81
258.413	12230.9
258.483	12205.11
258.553	12179.32
258.623	12142.21
258.693	12133.82
258.764	12124.61
258.834	12120.71
258.904	12101.62
258.974	12074.19
259.044	12057.61
259.114	12043.73
259.184	12025.61
259.254	11996.21
259.324	11941.69
259.394	11928.68
259.464	11923.04
259.535	11903.27
259.605	11879.94
259.675	11856.28
259.745	11844.61
259.815	11810.39
259.885	11779.11
259.955	11789.14
260.025	11770.05
260.095	11751.97
260.165	11734.91
260.235	11728.55
260.305	11701.99
260.375	11671.67
260.445	11674.71
260.515	11676.35
260.585	11667.82
260.655	11653.79
260.725	11650.71
260.795	11648.39
260.865	11652.88
260.934	11620.83
261.004	11608.25
261.074	11585.01
261.144	11585.26
261.214	11568.53
261.284	11542.84
261.354	11540.87
261.424	11506.69
261.494	11503.8
261.564	11487.8
261.634	11489.78
261.703	11453.15
261.773	11444.71
261.843	11440.91
261.913	11421.77
261.983	11384.18
262.053	11367.65
262.123	11347.31
262.192	11316.22
262.262	11304.13
262.332	11276.56
262.402	11269.72
262.472	11259.06
262.541	11229.09
262.611	11214.49
262.681	11194.58
262.751	11185.43
262.821	11156.22
262.89	11128.85
262.96	11112.46
263.03	11120.42
263.1	11095.84
263.169	11085.19
263.239	11072.22
263.309	11069.86
263.379	11057.33
263.448	11042.49
263.518	11036.18
263.588	11022.4
263.657	11021.43
263.727	11017.48
263.797	10993.14
263.867	10972.76
263.936	10941.24
264.006	10932.14
264.076	10914.26
264.145	10890.74
264.215	10870.46
264.285	10872.38
264.354	10848.82
264.424	10830.7
264.494	10796.73
264.563	10770.76
264.633	10768.64
264.702	10754.66
264.772	10715.15
264.842	10698.43
264.911	10689.47
264.981	10654.96
265.05	10639.4
265.12	10616.99
265.19	10601.19
265.259	10600.08
265.329	10593.14
265.398	10578.73
265.468	10594.59
265.537	10571.85
265.607	10562.07
265.676	10559.7
265.746	10543.42
265.815	10536.38
265.885	10513.21
265.955	10491
266.024	10480.35
266.094	10441.57
266.163	10443.2
266.232	10446.58
266.302	10427.31
266.371	10418.06
266.441	10411.89
266.51	10406.01
266.58	10390.16
266.649	10359.95
266.719	10356.05
266.788	10341.45
266.858	10345.4
266.927	10309.55
266.996	10301.12
267.066	10292.64
267.135	10262.1
267.205	10258.58
267.274	10252.03
267.343	10249.91
267.413	10237.19
267.482	10230.02
267.552	10231.99
267.621	10201.3
267.69	10171.72
267.76	10160.35
267.829	10147.15
267.898	10129.67
267.968	10104.57
268.037	10098.5
268.106	10099.51
268.176	10068.44
268.245	10053.26
268.314	10030.62
268.384	10025.08
268.453	10012.17
268.522	10004.08
268.592	10006.1
268.661	9985.97
268.73	9974.93
268.799	9955.81
268.869	9958.99
268.938	9940.4
269.007	9924.16
269.076	9912.89
269.146	9913.47
269.215	9907.93
269.284	9911.88
269.353	9893.19
269.422	9881.15
269.492	9860.39
269.561	9823.88
269.63	9822.49
269.699	9805.39
269.768	9793.97
269.838	9785.06
269.907	9780
269.976	9754.53
270.045	9721.97
270.114	9715.85
270.183	9695.24
270.253	9687.1
270.322	9660.9
270.391	9641.68
270.46	9641.15
270.529	9638.94
270.598	9628.34
270.667	9609.9
270.736	9583.65
270.806	9577.19
270.875	9574.98
270.944	9566.79
271.013	9583.79
271.082	9572.13
271.151	9562.07
271.22	9536.84
271.289	9520.08
271.358	9507.84
271.427	9501.68
271.496	9498.07
271.565	9477.6
271.634	9475.77
271.703	9475.82
271.772	9476.54
271.841	9469.56
271.91	9443.89
271.979	9434.5
272.048	9412.64
272.117	9417.12
272.186	9401.28
272.255	9408.02
272.324	9410.38
272.393	9401.85
272.462	9387.17
272.531	9376.19
272.6	9371.47
272.669	9377.15
272.738	9370.5
272.807	9367.04
272.876	9349.56
272.945	9370.99
273.013	9374.5
273.082	9378.16
273.151	9353.36
273.22	9347.63
273.289	9337.23
273.358	9350.72
273.427	9336.18
273.496	9339.98
273.564	9335.5
273.633	9335.74
273.702	9312.68
273.771	9296.74
273.84	9290.96
273.909	9288.89
273.977	9284.22
274.046	9273.58
274.115	9273.62
274.184	9255.38
274.253	9244.59
274.322	9252.01
274.39	9219.75
274.459	9198.95
274.528	9165.58
274.597	9166.59
274.665	9160.48
274.734	9165.15
274.803	9156.33
274.872	9149.26
274.94	9133.32
275.009	9157.26
275.078	9146.09
275.147	9140.07
275.215	9133.67
275.284	9133.43
275.353	9118.55
275.421	9099.67
275.49	9111.04
275.559	9101.5
275.627	9099.77
275.696	9094.48
275.765	9087.45
275.833	9077.39
275.902	9081.29
275.971	9091.88
276.039	9100.83
276.108	9097.46
276.177	9089.37
276.245	9077.14
276.314	9073.73
276.383	9074.98
276.451	9036.98
276.52	9037.94
276.588	9046.61
276.657	9049.4
276.725	9037.75
276.794	9036.79
276.863	9043.34
276.931	9025.04
277	9026.53
277.068	9023.12
277.137	9038.28
277.205	9036.21
277.274	9050.12
277.342	9059.03
277.411	9038
277.48	9026.2
277.548	9022.06
277.617	9028.32
277.685	9014.17
277.754	9014.02
277.822	9007.86
277.89	9020.09
277.959	9010.42
278.027	8993.85
278.096	8982.49
278.164	9017.02
278.233	9004.36
278.301	8990.73
278.37	8989.87
278.438	8978.94
278.507	8985.63
278.575	8962.38
278.643	8958.48
278.712	8944.32
278.78	8924.44
278.849	8943.31
278.917	8953.32
278.985	8945.52
279.054	8939.12
279.122	8956.21
279.191	8953.51
279.259	8949.04
279.327	8927.13
279.396	8940.95
279.464	8934.21
279.532	8940.66
279.601	8928.67
279.669	8932.95
279.737	8951.1
279.806	8951.82
279.874	8962.7
279.942	8958.23
280.011	8950.53
280.079	8957.12
280.147	8966.8
280.215	8974.88
280.284	8959.72
280.352	8942.34
280.42	8948.55
280.488	8944.6
280.557	8932.38
280.625	8936.42
280.693	8933.53
280.761	8933.24
280.83	8916.68
280.898	8927.8
280.966	8911.39
281.034	8882.5
281.102	8870.23
281.171	8861.81
281.239	8862.77
281.307	8848.52
281.375	8842.26
281.443	8861.85
281.512	8857.86
281.58	8866.23
281.648	8844.33
281.716	8849.58
281.784	8849.82
281.852	8838.89
281.92	8835.19
281.989	8847.94
282.057	8830.23
282.125	8871.25
282.193	8865.96
282.261	8863.55
282.329	8863.64
282.397	8862.63
282.465	8864.03
282.533	8868.46
282.601	8854.31
282.67	8843.43
282.738	8842.13
282.806	8849.93
282.874	8839.29
282.942	8841.45
283.01	8832.21
283.078	8843.13
283.146	8838.9
283.214	8845.69
283.282	8853.29
283.35	8858.78
283.418	8849.49
283.486	8854.88
283.554	8809.29
283.622	8810.3
283.69	8808.52
283.758	8797.49
283.826	8803.17
283.894	8810.35
283.962	8833.31
284.03	8845.15
284.098	8840.91
284.165	8835.72
284.233	8834.95
284.301	8826.96
284.369	8819.45
284.437	8813.91
284.505	8805.63
284.573	8815.4
284.641	8802.6
284.709	8810.4
284.777	8800.58
284.845	8802.07
284.912	8804.96
284.98	8815.5
285.048	8809.43
285.116	8818.39
285.184	8829.36
285.252	8830.47
285.319	8810.54
285.387	8793.89
285.455	8779.25
285.523	8785.7
285.591	8776.85
285.659	8775.65
285.726	8788.16
285.794	8770.88
285.862	8767.46
285.93	8768.43
285.997	8761.06
286.065	8754.13
286.133	8742.58
286.201	8736.18
286.269	8722.8
286.336	8710.72
286.404	8701.33
286.472	8711.44
286.539	8690.07
286.607	8676.26
286.675	8677.41
286.743	8688.91
286.81	8685.06
286.878	8698.97
286.946	8690.02
287.013	8694.06
287.081	8693.1
287.149	8677.31
287.216	8699.07
287.284	8697.29
287.352	8701.23
287.419	8697.29
287.487	8713.51
287.555	8714.85
287.622	8717.79
287.69	8727.27
287.758	8744.6
287.825	8743.06
287.893	8731.22
287.96	8732.57
288.028	8746.67
288.096	8741.62
288.163	8743.16
288.231	8735.5
288.298	8735.74
288.366	8746.19
288.433	8736.42
288.501	8727.47
288.569	8732.95
288.636	8729.63
288.704	8735.7
288.771	8738.3
288.839	8736.32
288.906	8728.62
288.974	8736.56
289.041	8740.85
289.109	8729.34
289.176	8730.5
289.244	8731.7
289.311	8749.99
289.379	8761.21
289.446	8757.84
289.514	8757.02
289.581	8761.5
289.649	8766.6
289.716	8765.44
289.783	8760.15
289.851	8785.9
289.918	8787.29
289.986	8797.5
290.053	8796.39
290.121	8797.26
290.188	8803.22
290.255	8829.22
290.323	8825.03
290.39	8816.65
290.458	8816.99
290.525	8827.77
290.592	8823.06
290.66	8828.49
290.727	8819.64
290.794	8840.19
290.862	8839.28
290.929	8846.11
290.996	8848.81
291.064	8849.87
291.131	8859.83
291.198	8868.3
291.266	8863.1
291.333	8866.33
291.4	8865.37
291.468	8878.17
291.535	8878.27
291.602	8877.02
291.669	8868.3
291.737	8873.11
291.804	8881.25
291.871	8892.03
291.938	8905.61
292.006	8929.01
292.073	8940.94
292.14	8949.7
292.207	8941.86
292.275	8945.32
292.342	8955.34
292.409	8972.57
292.476	9001.36
292.543	8994.81
292.611	8998.95
292.678	9014.31
292.745	9037.13
292.812	9051.91
292.879	9049.94
292.946	9052.34
293.014	9067.51
293.081	9072.51
293.148	9080.5
293.215	9089.46
293.282	9087.97
293.349	9094.23
293.416	9080.31
293.484	9086.47
293.551	9100.29
293.618	9112.71
293.685	9141.41
293.752	9132.07
293.819	9135.1
293.886	9124.94
293.953	9133.9
294.02	9141.75
294.087	9152.05
294.154	9149.07
294.221	9162.26
294.288	9167.75
294.356	9183.92
294.423	9191.34
294.49	9184.74
294.557	9201.45
294.624	9192.4
294.691	9207.85
294.758	9208.19
294.825	9216.09
294.892	9210.07
294.959	9199.28
295.026	9202.94
295.093	9190.86
295.16	9197.35
295.226	9198.56
295.293	9215.22
295.36	9217
295.427	9229.66
295.494	9245.41
295.561	9250.37
295.628	9271.27
295.695	9283.07
295.762	9285.29
295.829	9292.51
295.896	9311.62
295.963	9323.28
296.03	9333.43
296.096	9344.17
296.163	9353.23
296.23	9361.31
296.297	9381.34
296.364	9386.26
296.431	9396.66
296.498	9398.68
296.564	9418.32
296.631	9419.14
296.698	9411.58
296.765	9432.29
296.832	9424.34
296.899	9402.09
296.965	9415.72
297.032	9390.82
297.099	9402.43
297.166	9410.04
297.233	9405.08
297.299	9400.07
297.366	9399.06
297.433	9400.6
297.5	9406.23
297.566	9409.8
297.633	9415.19
297.7	9419.86
297.767	9423.33
297.833	9422.61
297.9	9419.62
297.967	9404.26
298.033	9413.27
298.1	9439.42
298.167	9428.73
298.234	9434.02
298.3	9447.46
298.367	9447.79
298.434	9458.97
298.5	9454.1
298.567	9454.34
298.634	9459.74
298.7	9474.04
298.767	9475.77
298.834	9494.02
298.9	9495.42
298.967	9488.53
299.033	9492
299.1	9500.57
299.167	9508.47
299.233	9505.39
299.3	9518.63
299.366	9535.48
299.433	9548.39
299.5	9525.56
299.566	9530.76
299.633	9543.57
299.699	9551.62
299.766	9549.02
299.832	9548.58
299.899	9558.5
299.965	9568.38
300.032	9558.7
300.099	9560.77
300.165	9562.69
300.232	9559.56
300.298	9556.58
300.365	9574.4
300.431	9580.42
300.498	9573.39
300.564	9582.97
300.631	9596.31
300.697	9606.23
300.763	9606.37
300.83	9605.51
300.896	9620.29
300.963	9630.07
301.029	9635.85
301.096	9641.44
301.162	9651.93
301.229	9655.31
301.295	9645.19
301.361	9644.66
301.428	9657.52
301.494	9650.92
301.561	9661.81
301.627	9663.49
301.693	9664.7
301.76	9667.49
301.826	9663.25
301.892	9675.15
301.959	9684.68
302.025	9687.33
302.092	9686.37
302.158	9697.83
302.224	9699.76
302.291	9685.55
302.357	9676.88
302.423	9670.33
302.49	9661.95
302.556	9671.15
302.622	9662.19
302.688	9672.84
302.755	9682.86
302.821	9681.7
302.887	9693.11
302.954	9681.22
303.02	9686.95
303.086	9693.16
303.152	9684.16
303.219	9684.4
303.285	9686.76
303.351	9692.34
303.417	9688.97
303.483	9678.71
303.55	9666.63
303.616	9666.91
303.682	9672.93
303.748	9671.01
303.815	9687.34
303.881	9692.25
303.947	9681.17
304.013	9685.55
304.079	9678.33
304.145	9662.29
304.212	9665.81
304.278	9653.48
304.344	9650.35
304.41	9636.53
304.476	9625.83
304.542	9625.4
304.608	9628.68
304.674	9615.43
304.741	9602.96
304.807	9607.19
304.873	9611.96
304.939	9633.83
305.005	9611.87
305.071	9605.22
305.137	9603.49
305.203	9578.44
305.269	9574.44
305.335	9586
305.401	9581.19
305.467	9580.8
305.533	9591.11
305.599	9593.81
305.666	9601.32
305.732	9606.76
305.798	9618.95
305.864	9641.68
305.93	9644.14
305.996	9640.91
306.062	9637.34
306.128	9639.17
306.194	9623.28
306.259	9624.82
306.325	9611.05
306.391	9622.08
306.457	9630.31
306.523	9633.63
306.589	9654.58
306.655	9650.15
306.721	9629.15
306.787	9620.63
306.853	9625.11
306.919	9603.73
306.985	9601.13
307.051	9594.87
307.117	9583.98
307.183	9575.46
307.248	9546.32
307.314	9547.09
307.38	9550.13
307.446	9553.93
307.512	9538.09
307.578	9541.55
307.644	9528.26
307.709	9527.49
307.775	9524.55
307.841	9527.06
307.907	9524.41
307.973	9505.82
308.039	9502.25
308.104	9503.07
308.17	9505
308.236	9492.82
308.302	9495.08
308.368	9481.02
308.433	9478.99
308.499	9475.24
308.565	9465.46
308.631	9471.24
308.696	9449.72
308.762	9434.93
308.828	9433.97
308.894	9418.51
308.959	9399.49
309.025	9395.64
309.091	9390.05
309.156	9385.05
309.222	9378.69
309.288	9367.71
309.354	9347.29
309.419	9343.06
309.485	9331.89
309.551	9334.39
309.616	9317.83
309.682	9313.35
309.748	9306.61
309.813	9303.81
309.879	9298.23
309.945	9287.25
310.01	9277.91
310.076	9278.58
310.141	9273.19
310.207	9251.09
310.273	9257.01
310.338	9258.7
310.404	9242.47
310.469	9230.53
310.535	9214.3
310.601	9190.32
310.666	9202.12
310.732	9207.37
310.797	9199.86
310.863	9189.84
310.928	9181.8
310.994	9186.52
311.059	9179.54
311.125	9173.52
311.191	9177.04
311.256	9167.26
311.322	9173.67
311.387	9155.37
311.453	9472.2
311.518	9450.01
311.584	9451.93
311.649	9456.56
311.715	9447.07
311.78	9449.14
311.846	9440.38
311.911	9444.95
311.976	9448.37
312.042	9430.94
312.107	9416.79
312.173	9406.68
312.238	9396.04
312.304	9389.11
312.369	9384.29
312.434	9379.67
312.5	9367.68
312.565	9336.87
312.631	9328.73
312.696	9314.92
312.761	9311.93
312.827	8984.03
312.892	9012.24
312.958	9008.97
313.023	9000.01
313.088	8997.99
313.154	8984.75
313.219	8975.17
313.284	8962.56
313.35	8953.89
313.415	8945.18
313.48	8936.13
313.546	8938.92
313.611	8950.19
313.676	8941.23
313.741	8930.69
313.807	8935.26
313.872	8939.79
313.937	8942.68
314.003	8958.66
314.068	8959.62
314.133	8969.2
314.198	8959
314.264	8945.42
314.329	8940.94
314.394	8937.57
314.459	8935.5
314.525	8952.45
314.59	8951
314.655	8941.38
314.72	8947.3
314.785	8944.84
314.851	8948.11
314.916	8932.9
314.981	8917.21
315.046	8909.32
315.111	8895.89
315.176	8885.39
315.242	8887.8
315.307	8890.16
315.372	8866.52
315.437	8854.1
315.502	8836.39
315.567	8845.15
315.632	8823.68
315.698	8824.84
315.763	8815.45
315.828	8807.7
315.893	8798.55
315.958	8787.53
316.023	8776.56
316.088	8756.82
316.153	8731.56
316.218	8724.24
316.283	8703.07
316.348	8682.14
316.413	8672.85
316.479	8656.05
316.544	8621.12
316.609	8590.27
316.674	8549.27
316.739	8522.52
316.804	8494.8
316.869	8465.21
316.934	8426.57
316.999	8397.89
317.064	8340.1
317.129	8299.2
317.194	8255.37
317.259	8207.16
317.324	8155.88
317.389	8113.07
317.454	8074.73
317.518	8039.96
317.583	8003.49
317.648	7976.36
317.713	7942.36
317.778	7886.32
317.843	7856.6
317.908	7818.13
317.973	7777.88
318.038	7749.02
318.103	7705.17
318.168	7668.58
318.233	7635.4
318.297	7582.76
318.362	7543.23
318.427	7505.45
318.492	7475.74
318.557	7430.85
318.622	7403.25
318.687	7375.86
318.751	7335.68
318.816	7296.46
318.881	7262.05
318.946	7207.31
319.011	7161.65
319.075	7123.98
319.14	7084.44
319.205	7040.66
319.27	7004.63
319.335	6960.72
319.399	6919.01
319.464	6890.14
319.529	6835.63
319.594	6799.84
319.658	6776.88
319.723	6734.03
319.788	6701.43
319.853	6642.64
319.917	6612.54
319.982	6558.89
320.047	6524.51
320.112	6498.3
320.176	6448.7
320.241	6412.79
320.306	6386.92
320.37	6348.85
320.435	6314
320.5	6281.94
320.564	6244.12
320.629	6203.33
320.694	6169.78
320.758	6130.82
320.823	6084.85
320.888	6060.1
320.952	6004.49
321.017	5954.45
321.082	5912.67
321.146	5879.71
321.211	5847.44
321.275	5802.55
321.34	5759.97
321.405	5715.95
321.469	5670.05
321.534	5632.71
321.598	5579.16
321.663	5546.4
321.727	5510.49
321.792	5458.77
321.857	5418.27
321.921	5374.08
321.986	5325.49
322.05	5266.23
322.115	5225.07
322.179	5178.94
322.244	5121.03
322.308	5092
322.373	5042.86
322.437	5000.76
322.502	4971.29
322.566	4929.24
322.631	4893.24
322.695	4854.46
322.76	4810.22
322.824	4766.99
322.889	4717.75
322.953	4672.29
323.018	4603.94
323.082	4541.26
323.146	4493.37
323.211	4440.51
323.275	4393.96
323.34	4350.2
323.404	4315.2
323.468	4272.44
323.533	4231.51
323.597	4188.49
323.662	4135.27
323.726	4102.19
323.79	4060.55
323.855	3994.98
323.919	3947.23
323.983	3904.74
324.048	3835.67
324.112	3963.12
324.177	3835.44
324.241	3639.25
324.305	3446.35
324.37	3255.12
324.434	3069.53
324.498	3025.45
324.562	2977.3
324.627	2920.91
324.691	2870.15
324.755	2808.17
324.82	2730.82
324.884	2655.26
324.948	2585.89
325.012	2492.59
325.077	2375.22
