Data from 20250630_urea_2M_MAYP1162681_05-32-26-854.txt Node
Date: Tue Jul 01 05:32:26 BST 2025
User: adleo
Spectrometer: MAYP116268
Trigger mode: 0
Integration Time (sec): 1.000000E0
Scans to average: 1
Electric dark correction enabled: true
Nonlinearity correction enabled: true
Boxcar width: 10
XAxis mode: Wavelengths
Number of Pixels in Spectrum: 2068
>>>>>Begin Spectral Data<<<<<
179.565	1055.78
179.642	1107.22
179.718	1144
179.795	1176.52
179.871	1205.37
179.948	1218.77
180.024	1235.7
180.101	1252.69
180.177	1266.84
180.254	1288.65
180.33	1307.33
180.407	1349.05
180.483	1434.85
180.56	1513.43
180.636	1585.77
180.712	1574.89
180.789	1583.78
180.865	1595.41
180.942	1600.73
181.018	1607.52
181.095	1619.83
181.171	1624.24
181.248	1622.11
181.324	1634.94
181.4	1640.49
181.477	1648.52
181.553	1661.54
181.63	1678.35
181.706	1693.7
181.782	1698.36
181.859	1695.17
181.935	1701.21
182.011	1698.36
182.088	1712.09
182.164	1728.11
182.24	1740.55
182.317	1747.02
182.393	1744.59
182.469	1758.47
182.546	1774.01
182.622	1780.09
182.698	1777.05
182.775	1786.98
182.851	1800.14
182.927	1796.39
183.003	1792.63
183.08	1788.5
183.156	1795.2
183.232	1792.97
183.308	1783.51
183.385	1790.07
183.461	1805.47
183.537	1805.99
183.613	1817.87
183.69	1812.21
183.766	1804.32
183.842	1812.54
183.918	1818.77
183.995	1833.22
184.071	1833.36
184.147	1828.61
184.223	1820.2
184.299	1829.14
184.375	1819.82
184.452	1825.34
184.528	1875.74
184.604	1884
184.68	1892.89
184.756	1900.31
184.832	1904.92
184.908	1907.86
184.985	1908.01
185.061	1891.99
185.137	1900.02
185.213	1887.67
185.289	1887
185.365	1878.92
185.441	1876.45
185.517	1886.2
185.593	1881.3
185.669	1879.88
185.745	1890.62
185.822	1903.88
185.898	1895.61
185.974	1905.16
186.05	1898.07
186.126	1859.8
186.202	1855.47
186.278	1852.86
186.354	1844.82
186.43	1851.96
186.506	1852.29
186.582	1852.05
186.658	1861.74
186.734	1841.98
186.81	1843.92
186.886	1844.92
186.962	1854.95
187.038	1853.05
187.114	1849.96
187.19	1857.42
187.266	1848.01
187.341	1846.58
187.417	1840.55
187.493	1841.59
187.569	1842.78
187.645	1837.84
187.721	1828.05
187.797	1835.17
187.873	1840.74
187.949	1834.04
188.025	1828.99
188.101	1832.23
188.176	1837.45
188.252	1831.61
188.328	1840.92
188.404	1842.25
188.48	1838.92
188.556	1832.41
188.632	1829.28
188.707	1826.47
188.783	1822.52
188.859	1818.68
188.935	1807.41
189.011	1815.97
189.086	1807.03
189.162	1800.24
189.238	1799.62
189.314	1796.29
189.39	1791.87
189.465	1783.84
189.541	1799
189.617	1782.46
189.693	1776
189.768	1777.62
189.844	1800.01
189.92	1791.7
189.996	1799.4
190.071	1808.19
190.147	1809.33
190.223	1816.93
190.298	1811.28
190.374	1799.11
190.45	1810.09
190.526	1819.12
190.601	1812.51
190.677	1816.55
190.753	1842.47
190.828	1847.6
190.904	1861.24
190.98	1875.65
191.055	1885.87
191.131	1876.79
191.207	1897.23
191.282	1906.64
191.358	1897.27
191.433	1883.53
191.509	1896.26
191.585	1894.32
191.66	1893.84
191.736	1900.07
191.811	1893.36
191.887	1907.01
191.963	1930.31
192.038	1935.11
192.114	1935.44
192.189	1937.96
192.265	1934.63
192.34	1912.47
192.416	1908.81
192.491	1905.91
192.567	1908.29
192.642	1911
192.718	1914.7
192.793	1904.15
192.869	1901.16
192.944	1907.33
193.02	1915.51
193.095	1916.03
193.171	1921.26
193.246	1922.69
193.322	1919.51
193.397	1920.08
193.473	1907.14
193.548	1888.36
193.624	1894.54
193.699	1891.69
193.775	1909.48
193.85	1916.65
193.925	1926.07
194.001	1926.54
194.076	1916.42
194.152	1904.67
194.227	1896.73
194.302	1888.51
194.378	1892.17
194.453	1891.88
194.529	1903.67
194.604	1890.84
194.679	1888.84
194.755	1871.12
194.83	1881.82
194.905	1880.44
194.981	1889.23
195.056	1884.77
195.131	1891.89
195.207	1888.95
195.282	1879.44
195.357	1858.76
195.433	1870.97
195.508	1859.18
195.583	1864.94
195.659	1879.77
195.734	1887
195.809	1889.37
195.884	1894.7
195.96	1894.93
196.035	1908.67
196.11	1901.73
196.185	1913.62
196.261	1914.38
196.336	1945.23
196.411	1932.91
196.486	1938.43
196.561	1932.25
196.637	1940.71
196.712	1955.88
196.787	1958.35
196.862	1976.04
196.937	1984.74
197.013	1984.17
197.088	1995.96
197.163	2013.65
197.238	2030.12
197.313	2029.31
197.388	2038.48
197.464	2066.74
197.539	2075.25
197.614	2067.17
197.689	2078.15
197.764	2091.57
197.839	2111.93
197.914	2102.84
197.989	2120.2
198.065	2132.66
198.14	2178.45
198.215	2200.43
198.29	2211.19
198.365	2225.51
198.44	2232.88
198.515	2258.72
198.59	2274.61
198.665	2295.46
198.74	2302.98
198.815	2304.79
198.89	2324.77
198.965	2351.24
199.04	2350.24
199.115	2366.42
199.19	2404.54
199.265	2408.77
199.34	2419.25
199.415	2448.97
199.49	2470.38
199.565	2480.28
199.64	2501.85
199.715	2496.99
199.79	2503.37
199.865	2507.32
199.94	2503.18
200.015	2534.33
200.09	2537.52
200.165	2542.28
200.24	2547.71
200.315	2586.26
200.39	2599.22
200.464	2604.03
200.539	2607.41
200.614	2615.17
200.689	2636.47
200.764	2644.85
200.839	2663.14
200.914	2663.9
200.989	2655.08
201.063	2668.94
201.138	2653.19
201.213	2654.19
201.288	2638.38
201.363	2643.81
201.438	2644.48
201.512	2660.85
201.587	2643.18
201.662	2648.51
201.737	2663.04
201.812	2671.38
201.886	2641.49
201.961	2647.97
202.036	2639.73
202.111	2635.44
202.186	2613.12
202.26	2596.26
202.335	2576.01
202.41	2566.58
202.485	2552.11
202.559	2533.3
202.634	2507.92
202.709	2518.24
202.784	2501.53
202.858	2501.91
202.933	2486.29
203.008	2480.68
203.082	2461.92
203.157	2460.49
203.232	2424.03
203.306	2401.03
203.381	2372.65
203.456	2353.33
203.53	2335.37
203.605	2316.72
203.68	2293.06
203.754	2288.73
203.829	2275.31
203.904	2259.6
203.978	2250.89
204.053	2256.89
204.127	2247.8
204.202	2246.75
204.277	2231.29
204.351	2221.34
204.426	2215.97
204.5	2204.74
204.575	2174.86
204.65	2183.38
204.724	2176.86
204.799	2182.95
204.873	2181.9
204.948	2179.05
205.022	2167.63
205.097	2158.16
205.171	2172
205.246	2184.8
205.32	2184.04
205.395	2182.04
205.469	2170.11
205.544	2173.87
205.618	2159.64
205.693	2169.11
205.767	2155.84
205.842	2174.87
205.916	2170.59
205.991	2160.88
206.065	2169.54
206.14	2181.52
206.214	2176.1
206.289	2171.29
206.363	2183.57
206.438	2184.09
206.512	2192.42
206.586	2207.73
206.661	2215.35
206.735	2194.76
206.81	2192.04
206.884	2201.89
206.958	2192.28
207.033	2210.02
207.107	2216.26
207.181	2241.87
207.256	2235.63
207.33	2252.33
207.405	2260.76
207.479	2279.31
207.553	2285.78
207.628	2268.33
207.702	2279.13
207.776	2275.75
207.851	2276.18
207.925	2288.99
207.999	2284.94
208.073	2283.18
208.148	2287.32
208.222	2277.61
208.296	2307.63
208.371	2323.72
208.445	2336.91
208.519	2363.79
208.593	2372.84
208.668	2370.6
208.742	2371.89
208.816	2374.46
208.89	2387.79
208.965	2387.6
209.039	2394.5
209.113	2410.97
209.187	2429.47
209.261	2424.19
209.336	2439.33
209.41	2456.42
209.484	2453.37
209.558	2478.04
209.632	2487.84
209.707	2494.41
209.781	2513.27
209.855	2524.6
209.929	2539.57
210.003	2543.95
210.077	2543.86
210.151	2583.27
210.226	2614.05
210.3	2641.18
210.374	2663.56
210.448	2667.99
210.522	2678.71
210.596	2689.38
210.67	2696.76
210.744	2740.74
210.818	2772.83
210.892	2794.85
210.966	2790.47
211.041	2808.05
211.115	2801.28
211.189	2826.44
211.263	2845.16
211.337	2852.45
211.411	2870.85
211.485	2866.47
211.559	2880.14
211.633	2884.62
211.707	2864.06
211.781	2878.57
211.855	2848.82
211.929	2841.34
212.003	2827.82
212.077	2840.74
212.151	2857.09
212.225	2868.58
212.299	2865.52
212.373	2861.95
212.447	2864
212.52	2900.99
212.594	2912.15
212.668	2933.83
212.742	2930.59
212.816	2936.64
212.89	2942.46
212.964	2950.76
213.038	2967.79
213.112	2992.25
213.186	3018.71
213.26	3013.89
213.333	2986.52
213.407	3011.92
213.481	3036.09
213.555	3071.59
213.629	3084.33
213.703	3092.01
213.777	3119.3
213.85	3129.03
213.924	3189.16
213.998	3219.75
214.072	3241.57
214.146	3264.38
214.219	3296.17
214.293	3329.28
214.367	3368.08
214.441	3417.96
214.515	3445.46
214.588	3465.23
214.662	3480.6
214.736	3510.15
214.81	3564.78
214.883	3623.68
214.957	3660.58
215.031	3704.31
215.105	3734.86
215.178	3777.47
215.252	3828.93
215.326	3865.48
215.4	3904.79
215.473	3921.15
215.547	3964.79
215.621	4015.49
215.694	4082.87
215.768	4127.29
215.842	4179.69
215.915	4234.17
215.989	4281.73
216.063	4348.67
216.136	4423.59
216.21	4497.74
216.284	4579.96
216.357	4653.66
216.431	4720.77
216.504	4810.44
216.578	4911.93
216.652	5000.38
216.725	5083.21
216.799	5176.27
216.873	5260.25
216.946	5354.91
217.02	5433.67
217.093	5515.39
217.167	5583.08
217.24	5657.51
217.314	5747.21
217.387	5830.73
217.461	5916.01
217.535	6015.13
217.608	6095.93
217.682	6190.96
217.755	6292.13
217.829	6379.46
217.902	6474.32
217.976	6576.48
218.049	6666.91
218.123	6742.19
218.196	6850.54
218.27	6938.5
218.343	7015.63
218.417	7114.51
218.49	7208.26
218.563	7321
218.637	7424.72
218.71	7547.84
218.784	7652.22
218.857	7762.76
218.931	7875.02
219.004	7979.96
219.077	8089.02
219.151	8190.84
219.224	8283.74
219.298	8381.03
219.371	8486.02
219.444	8569.16
219.518	8658.62
219.591	8751.21
219.665	8875.16
219.738	8969.85
219.811	9060.68
219.885	9165.33
219.958	9264.17
220.031	9361.62
220.105	9458.94
220.178	9561.51
220.251	9642.08
220.325	9741.01
220.398	9833.44
220.471	9928.66
220.544	10019.65
220.618	10097.84
220.691	10194.08
220.764	10284.65
220.838	10378.35
220.911	10461.75
220.984	10577.86
221.057	10679.95
221.131	10779.5
221.204	10842.58
221.277	10945.7
221.35	11063.91
221.424	11148.92
221.497	11233.97
221.57	11315.7
221.643	11406.93
221.716	11498.75
221.79	11585.69
221.863	11669.75
221.936	11749.42
222.009	11825.96
222.082	11915.95
222.155	12003
222.229	12094.43
222.302	12175.89
222.375	12258.32
222.448	12345.9
222.521	12417.96
222.594	12492.44
222.667	12555.1
222.74	12636.42
222.814	12701.36
222.887	12762.91
222.96	12843.42
223.033	12925.94
223.106	13009.43
223.179	13089.46
223.252	13148.7
223.325	13222.6
223.398	13289.71
223.471	13358.78
223.544	13428.49
223.617	13494.73
223.69	13559.56
223.763	13618.13
223.837	13702.93
223.91	13768.1
223.983	13821.32
224.056	13885
224.129	13951
224.202	14018.1
224.275	14081.73
224.348	14129.17
224.42	14186.2
224.493	14230.21
224.566	14286.71
224.639	14352.94
224.712	14398.4
224.785	14456.63
224.858	14511.87
224.931	14565.09
225.004	14612.86
225.077	14671.33
225.15	14705.32
225.223	14758.39
225.296	14829.2
225.369	14855.57
225.442	14904.45
225.514	14953.18
225.587	15005.29
225.66	15052.24
225.733	15112.83
225.806	15161.8
225.879	15221.43
225.952	15267.08
226.025	15334.75
226.097	15404.07
226.17	15454.44
226.243	15491.5
226.316	15546.26
226.389	15588.15
226.461	15644.54
226.534	15713.42
226.607	15768.13
226.68	15847.08
226.753	15895.57
226.825	15923.28
226.898	15989.7
226.971	16037.56
227.044	16098.63
227.117	16146.68
227.189	16207.12
227.262	16268.24
227.335	16323.47
227.407	16370.13
227.48	16425.27
227.553	16476.31
227.626	16509.46
227.698	16544.55
227.771	16593.23
227.844	16631.98
227.916	16687.17
227.989	16713.96
228.062	16749.58
228.134	16800.52
228.207	16839.22
228.28	16870.84
228.352	16921.06
228.425	16961.73
228.498	17013.78
228.57	17038.99
228.643	17095.71
228.716	17135.96
228.788	17152.44
228.861	17197.93
228.934	17241.84
229.006	17273.98
229.079	17310.17
229.151	17349.16
229.224	17375.48
229.296	17417.36
229.369	17474.46
229.442	17519.09
229.514	17552.92
229.587	17601.4
229.659	17622.9
229.732	17652.34
229.804	17705.55
229.877	17758.75
229.949	17805.45
230.022	17857.49
230.094	17898.99
230.167	17923.32
230.239	17939.47
230.312	17983.32
230.384	18025.1
230.457	18060.52
230.529	18100.28
230.602	18130.01
230.674	18160.86
230.747	18206.98
230.819	18253.62
230.892	18255.12
230.964	18288.8
231.037	18330.49
231.109	18355.4
231.181	18393.81
231.254	18419.59
231.326	18446
231.399	18466.48
231.471	18483.16
231.544	18483.06
231.616	18523.3
231.688	18551.44
231.761	18585.22
231.833	18607.29
231.905	18605.61
231.978	18629.7
232.05	18650.47
232.122	18673.84
232.195	18694.61
232.267	18733.5
232.339	18749.74
232.412	18795.47
232.484	18813.83
232.556	18826.8
232.629	18861.4
232.701	18892.34
232.773	18918.94
232.846	18930.26
232.918	18946.02
232.99	18973.97
233.062	18998.84
233.135	19013.68
233.207	19023.89
233.279	19043.41
233.351	19064.52
233.424	19076.66
233.496	19086.11
233.568	19111.84
233.64	19122.2
233.713	19133.62
233.785	19141.28
233.857	19156.08
233.929	19141.38
234.001	19167.02
234.074	19204.36
234.146	19187.98
234.218	19184.46
234.29	19180.94
234.362	19188.56
234.434	19182.92
234.507	19168.46
234.579	19162.01
234.651	19161.76
234.723	19171.5
234.795	19181.38
234.867	19173.14
234.939	19192.12
235.012	19199.79
235.084	19204.8
235.156	19213.47
235.228	19212.7
235.3	19205.95
235.372	19209.71
235.444	19226.19
235.516	19194.53
235.588	19177.96
235.66	19188.75
235.732	19187.02
235.804	19233.13
235.876	19235.88
235.948	19243.83
236.02	19243.45
236.092	19239.64
236.164	19236.07
236.236	19227.21
236.308	19207.88
236.38	19217.86
236.452	19205.47
236.524	19201.38
236.596	19211.21
236.668	19215.3
236.74	19207.35
236.812	19199.93
236.884	19192.27
236.956	19183.5
237.028	19174.49
237.1	19156.85
237.172	19165.67
237.244	19175.07
237.316	19139.16
237.388	19129.72
237.46	19112.23
237.532	19116.32
237.604	19103.89
237.675	19104.52
237.747	19106.2
237.819	19097.48
237.891	19080.37
237.963	19061.92
238.035	19047.8
238.107	18999.99
238.178	18987.51
238.25	18965.2
238.322	18975.22
238.394	18943.27
238.466	18919.9
238.538	18907.85
238.609	18900.43
238.681	18864.67
238.753	18838.99
238.825	18815.28
238.897	18794.17
238.968	18796.15
239.04	18770.37
239.112	18765.31
239.184	18734.66
239.255	18701.7
239.327	18680.25
239.399	18670.13
239.471	18670.42
239.542	18646.71
239.614	18644.93
239.686	18601.9
239.758	18601.08
239.829	18566.43
239.901	18561.71
239.973	18541.08
240.044	18526.72
240.116	18504.17
240.188	18479.69
240.259	18450.68
240.331	18425.76
240.403	18416.99
240.474	18380.8
240.546	18347.93
240.618	18305.86
240.689	18273.38
240.761	18252.61
240.833	18243.31
240.904	18211.46
240.976	18181.53
241.048	18164.52
241.119	18138.02
241.191	18117.25
241.262	18098.31
241.334	18073.39
241.405	18041.78
241.477	18016.14
241.549	17990.74
241.62	17968.48
241.692	17944.72
241.763	17936.14
241.835	17913.88
241.906	17882.6
241.978	17836.82
242.049	17820.44
242.121	17813.06
242.192	17810.51
242.264	17775.81
242.335	17741.21
242.407	17728.2
242.478	17690.8
242.55	17660.68
242.621	17623.09
242.693	17589.36
242.764	17553.12
242.836	17514.75
242.907	17491.77
242.979	17471.86
243.05	17444.78
243.122	17424.78
243.193	17391
243.264	17335.33
243.336	17299.38
243.407	17273.89
243.479	17270.66
243.55	17248.63
243.622	17220.92
243.693	17178.32
243.764	17172.34
243.836	17125.84
243.907	17080.49
243.978	17048.48
244.05	17023.95
244.121	16986.6
244.192	16971.32
244.264	16934.41
244.335	16908.91
244.407	16860.96
244.478	16839.46
244.549	16819.13
244.62	16775.75
244.692	16747.27
244.763	16729.58
244.834	16690.88
244.906	16654.58
244.977	16626.34
245.048	16602.1
245.119	16564.27
245.191	16527.54
245.262	16467.92
245.333	16461.37
245.405	16436.64
245.476	16413.75
245.547	16392.49
245.618	16376.11
245.689	16349.16
245.761	16321.31
245.832	16288.77
245.903	16276.39
245.974	16246.41
246.045	16201.73
246.117	16184.62
246.188	16142.73
246.259	16094.97
246.33	16068.46
246.401	16040.41
246.473	15993.22
246.544	15958.81
246.615	15935.96
246.686	15909.45
246.757	15894.94
246.828	15850.5
246.899	15834.98
246.97	15782.25
247.042	15736.41
247.113	15711.16
247.184	15695.73
247.255	15654.18
247.326	15626.23
247.397	15590.17
247.468	15561.69
247.539	15538.79
247.61	15496.23
247.681	15481
247.752	15473.86
247.823	15441.09
247.894	15417.95
247.965	15384.21
248.037	15355
248.108	15312.87
248.179	15288.38
248.25	15255.12
248.321	15239.27
248.392	15190.58
248.463	15192.8
248.534	15166.67
248.605	15144.45
248.675	15106.47
248.746	15093.7
248.817	15072.68
248.888	15045.98
248.959	15002.21
249.03	14979.79
249.101	14948.27
249.172	14911.78
249.243	14863.52
249.314	14848.73
249.385	14818.94
249.456	14800.38
249.527	14764.27
249.598	14746.53
249.669	14707.87
249.739	14691.39
249.81	14662.9
249.881	14628.34
249.952	14597.29
250.023	14571.02
250.094	14529.37
250.165	14498.33
250.235	14468.15
250.306	14438.26
250.377	14402.21
250.448	14371.69
250.519	14316.06
250.59	14307.92
250.66	14282.27
250.731	14275.86
250.802	14249.93
250.873	14224.52
250.944	14201.82
251.014	14175.54
251.085	14166.53
251.156	14151.73
251.227	14133.08
251.297	14118.03
251.368	14100.78
251.439	14082.51
251.51	14064.86
251.58	14029.19
251.651	13997.66
251.722	13974.91
251.792	13928.54
251.863	13904.1
251.934	13892.57
252.005	13901.97
252.075	13867.89
252.146	13855.55
252.217	13832.51
252.287	13810.77
252.358	13780.88
252.429	13774.9
252.499	13748.68
252.57	13720.77
252.641	13701.77
252.711	13672.42
252.782	13633.9
252.852	13630.96
252.923	13602.32
252.994	13577.64
253.064	13560.77
253.135	13525.82
253.205	13498.63
253.276	13497.62
253.347	13491.74
253.417	13464.26
253.488	13439.05
253.558	13414.7
253.629	13385.63
253.699	13365.34
253.77	13354.93
253.841	13330.73
253.911	13310.29
253.982	13282.04
254.052	13273.41
254.123	13257.07
254.193	13233.3
254.264	13246.17
254.334	13207.03
254.405	13169.43
254.475	13134.67
254.546	13118.72
254.616	13110.47
254.687	13094.47
254.757	13082.22
254.827	13051.47
254.898	13034.64
254.968	13006.15
255.039	12983.59
255.109	12965.42
255.18	12931.19
255.25	12876.63
255.321	12867.85
255.391	12824.76
255.461	12826.39
255.532	12782.38
255.602	12745.75
255.673	12711.91
255.743	12676.33
255.813	12635.84
255.884	12628.08
255.954	12614.58
256.024	12606.1
256.095	12582.81
256.165	12549.79
256.235	12524.87
256.306	12505.49
256.376	12495.42
256.446	12485.97
256.517	12469.53
256.587	12455.12
256.657	12442.15
256.728	12438.54
256.798	12406
256.868	12379.58
256.938	12344.78
257.009	12320
257.079	12313.06
257.149	12308.48
257.219	12269.78
257.29	12260.14
257.36	12225.57
257.43	12215.5
257.5	12176.46
257.571	12156.6
257.641	12140.3
257.711	12114.71
257.781	12093.74
257.852	12072.63
257.922	12026.55
257.992	12003.75
258.062	11985.91
258.132	11972.08
258.202	11947.93
258.273	11933.81
258.343	11937.57
258.413	11915.88
258.483	11903.44
258.553	11867.39
258.623	11841.21
258.693	11823.81
258.764	11814.51
258.834	11817.6
258.904	11799.28
258.974	11766.36
259.044	11739.71
259.114	11729.15
259.184	11707.37
259.254	11688.28
259.324	11654.93
259.394	11642.49
259.464	11640.03
259.535	11621.52
259.605	11602.92
259.675	11575.59
259.745	11556.6
259.815	11527.35
259.885	11506.67
259.955	11512.31
260.025	11490.19
260.095	11471.05
260.165	11452.5
260.235	11454.33
260.305	11426.81
260.375	11399.19
260.445	11407.43
260.515	11407.87
260.585	11399.87
260.655	11381.17
260.725	11369.26
260.795	11355.34
260.865	11363.67
260.934	11328.4
261.004	11313.26
261.074	11286.03
261.144	11280.39
261.214	11279.77
261.284	11258.37
261.354	11251.77
261.424	11217.16
261.494	11223.47
261.564	11209.26
261.634	11205.88
261.703	11163.81
261.773	11144.49
261.843	11134.46
261.913	11114.46
261.983	11083.62
262.053	11069.11
262.123	11047
262.192	11020.4
262.262	11010.08
262.332	10975.34
262.402	10975.1
262.472	10957.84
262.541	10927.29
262.611	10921.17
262.681	10891.01
262.751	10881.8
262.821	10856.12
262.89	10828.07
262.96	10809.04
263.03	10812.85
263.1	10798.68
263.169	10782.97
263.239	10774.78
263.309	10774.34
263.379	10763.55
263.448	10748.71
263.518	10738.01
263.588	10723.61
263.657	10724.76
263.727	10719.03
263.797	10700.86
263.867	10677.59
263.936	10651.18
264.006	10654.03
264.076	10632.3
264.145	10615.63
264.215	10589.37
264.285	10584.6
264.354	10558.15
264.424	10537.77
264.494	10502.88
264.563	10474.31
264.633	10480.04
264.702	10467.13
264.772	10427.52
264.842	10407.09
264.911	10392.93
264.981	10362.43
265.05	10345.47
265.12	10327.84
265.19	10310.64
265.259	10306.97
265.329	10299.89
265.398	10286.35
265.468	10290.06
265.537	10277.59
265.607	10266.17
265.676	10264.72
265.746	10251.62
265.815	10246.37
265.885	10227.34
265.955	10208.94
266.024	10195.45
266.094	10158.07
266.163	10157.1
266.232	10157.58
266.302	10137.93
266.371	10129.55
266.441	10116.54
266.51	10114.23
266.58	10097.85
266.649	10076.6
266.719	10072.56
266.788	10062.87
266.858	10059.45
266.927	10019.76
266.996	10004.25
267.066	9994.37
267.135	9968.17
267.205	9963.88
267.274	9958.63
267.343	9958.01
267.413	9939.75
267.482	9948.09
267.552	9950.45
267.621	9922.89
267.69	9894.62
267.76	9886.72
267.829	9873.71
267.898	9859.7
267.968	9843.22
268.037	9828.73
268.106	9827.62
268.176	9804.01
268.245	9787.54
268.314	9779.88
268.384	9780.89
268.453	9769.38
268.522	9760.95
268.592	9757.97
268.661	9742.02
268.73	9725.36
268.799	9706.53
268.869	9720.98
268.938	9685.77
269.007	9667.52
269.076	9656.44
269.146	9655.04
269.215	9649.41
269.284	9656.49
269.353	9639.15
269.422	9625.71
269.492	9618.78
269.561	9578.81
269.63	9566.62
269.699	9551.5
269.768	9533.92
269.838	9523.23
269.907	9517.93
269.976	9494.1
270.045	9464.72
270.114	9451.58
270.183	9442.33
270.253	9433.09
270.322	9396.01
270.391	9385.22
270.46	9384.98
270.529	9381.8
270.598	9379.63
270.667	9365.96
270.736	9344.77
270.806	9341.01
270.875	9343.51
270.944	9323.48
271.013	9342.26
271.082	9328.44
271.151	9320.84
271.22	9300.42
271.289	9288.43
271.358	9273.21
271.427	9270.37
271.496	9260.02
271.565	9248.32
271.634	9242.79
271.703	9249.48
271.772	9253.43
271.841	9240.38
271.91	9221.46
271.979	9209.18
272.048	9184.72
272.117	9180.39
272.186	9167.82
272.255	9169.41
272.324	9158.86
272.393	9157.66
272.462	9137.68
272.531	9136.67
272.6	9122.51
272.669	9126.12
272.738	9115
272.807	9117.79
272.876	9093.67
272.945	9121.55
273.013	9123.28
273.082	9124.97
273.151	9099.11
273.22	9095.12
273.289	9089.2
273.358	9095.94
273.427	9087.32
273.496	9090.21
273.564	9088.62
273.633	9086.5
273.702	9064.31
273.771	9054.87
273.84	9047.7
273.909	9043.7
273.977	9040.28
274.046	9030.85
274.115	9028.44
274.184	9011.45
274.253	8996.82
274.322	9002.64
274.39	8969.47
274.459	8951.22
274.528	8919.74
274.597	8914.74
274.665	8910.35
274.734	8921.81
274.803	8908.14
274.872	8895.14
274.94	8879.79
275.009	8901.36
275.078	8882.68
275.147	8876.76
275.215	8868.77
275.284	8871.56
275.353	8865.3
275.421	8838.01
275.49	8851.2
275.559	8842.49
275.627	8839.75
275.696	8834.35
275.765	8833.15
275.833	8825.74
275.902	8822.32
275.971	8833.01
276.039	8843.89
276.108	8840.66
276.177	8830.46
276.245	8819.77
276.314	8823.19
276.383	8826.22
276.451	8792.42
276.52	8798
276.588	8809.36
276.657	8816.78
276.725	8806.72
276.794	8806.52
276.863	8818.6
276.931	8797.86
277	8798.1
277.068	8799.54
277.137	8807.24
277.205	8808.45
277.274	8828.08
277.342	8839.4
277.411	8819.33
277.48	8806.47
277.548	8800.22
277.617	8800.31
277.685	8789.2
277.754	8787.13
277.822	8777.93
277.89	8786.6
277.959	8778.61
278.027	8759.55
278.096	8741.02
278.164	8765.86
278.233	8754.79
278.301	8744.06
278.37	8749.11
278.438	8738.86
278.507	8740.25
278.575	8721.19
278.643	8710.36
278.712	8685.58
278.78	8671.23
278.849	8682.06
278.917	8694.09
278.985	8686.06
279.054	8688.61
279.122	8704.78
279.191	8701.7
279.259	8700.11
279.327	8684.08
279.396	8695.44
279.464	8694
279.532	8707.71
279.601	8706.41
279.669	8708.39
279.737	8717.19
279.806	8719.55
279.874	8729.13
279.942	8731.73
280.011	8726.72
280.079	8738.37
280.147	8757.09
280.215	8764.26
280.284	8765.23
280.352	8748.04
280.42	8756.51
280.488	8746.17
280.557	8737.89
280.625	8734.9
280.693	8732.98
280.761	8735.48
280.83	8719.79
280.898	8729.51
280.966	8708.29
281.034	8675.65
281.102	8656.74
281.171	8653.71
281.239	8660.25
281.307	8653.61
281.375	8638.69
281.443	8661.27
281.512	8656.41
281.58	8659.63
281.648	8645.77
281.716	8637.73
281.784	8637.64
281.852	8630.32
281.92	8626.57
281.989	8636.53
282.057	8628.78
282.125	8670.95
282.193	8662.24
282.261	8666.81
282.329	8662.38
282.397	8665.75
282.465	8666.38
282.533	8683.12
282.601	8674.08
282.67	8656.56
282.738	8644.29
282.806	8659.3
282.874	8647.6
282.942	8654.05
283.01	8644.76
283.078	8650.97
283.146	8651.36
283.214	8658.62
283.282	8658.72
283.35	8673.06
283.418	8664.11
283.486	8667.91
283.554	8623.53
283.622	8624.97
283.69	8618.57
283.758	8607.65
283.826	8610.78
283.894	8613.09
283.962	8629.98
284.03	8641.15
284.098	8639.61
284.165	8641.39
284.233	8636.52
284.301	8632.15
284.369	8617.85
284.437	8607.74
284.505	8595.28
284.573	8606.73
284.641	8596.05
284.709	8598.12
284.777	8579.4
284.845	8590.8
284.912	8588.64
284.98	8588.98
285.048	8580.17
285.116	8581.13
285.184	8600.04
285.252	8600.09
285.319	8593.5
285.387	8580.46
285.455	8565.2
285.523	8565.63
285.591	8558.46
285.659	8557.84
285.726	8571.84
285.794	8561.84
285.862	8565.06
285.93	8564.87
285.997	8560.1
286.065	8554.18
286.133	8551.1
286.201	8552.11
286.269	8527.71
286.336	8518.14
286.404	8514.43
286.472	8526.85
286.539	8509.38
286.607	8490.42
286.675	8493.55
286.743	8498.12
286.81	8494.61
286.878	8504.86
286.946	8499.9
287.013	8499.42
287.081	8498.12
287.149	8477.86
287.216	8489.84
287.284	8479.54
287.352	8480.22
287.419	8487.15
287.487	8499.51
287.555	8497.4
287.622	8498.79
287.69	8509.48
287.758	8522.47
287.825	8523.48
287.893	8514.19
287.96	8521.21
288.028	8532.91
288.096	8534.59
288.163	8537.48
288.231	8527.47
288.298	8528.39
288.366	8541.04
288.433	8539.65
288.501	8535.36
288.569	8540.56
288.636	8540.22
288.704	8556.2
288.771	8565.39
288.839	8546.53
288.906	8538.88
288.974	8551.2
289.041	8542.92
289.109	8529.16
289.176	8541.34
289.244	8539.56
289.311	8546.77
289.379	8554.95
289.446	8557.65
289.514	8550.67
289.581	8550.05
289.649	8558.08
289.716	8557.26
289.783	8547.59
289.851	8568.43
289.918	8569.44
289.986	8575.84
290.053	8577.09
290.121	8577.62
290.188	8579.11
290.255	8607.36
290.323	8606.74
290.39	8596.29
290.458	8605.1
290.525	8629.35
290.592	8617.75
290.66	8623.77
290.727	8625.21
290.794	8641.29
290.862	8640.42
290.929	8643.55
290.996	8643.89
291.064	8646.34
291.131	8657.07
291.198	8670.16
291.266	8664.68
291.333	8668.91
291.4	8676.42
291.468	8695.72
291.535	8688.31
291.602	8691.15
291.669	8682.58
291.737	8684.41
291.804	8694.52
291.871	8707.42
291.938	8708.67
292.006	8736.88
292.073	8745.49
292.14	8750.79
292.207	8745.59
292.275	8752.13
292.342	8764.46
292.409	8789.05
292.476	8809.7
292.543	8802.24
292.611	8803.21
292.678	8819.04
292.745	8846.24
292.812	8857.26
292.879	8851.53
292.946	8862.51
293.014	8871.8
293.081	8884.6
293.148	8901.83
293.215	8911.8
293.282	8906.45
293.349	8913.63
293.416	8891.72
293.484	8910.83
293.551	8924.46
293.618	8942.27
293.685	8958.06
293.752	8954.59
293.819	8950.5
293.886	8941.88
293.953	8952.52
294.02	8968.02
294.087	8977.89
294.154	8964.84
294.221	8976.79
294.288	8979.1
294.356	8990.75
294.423	8999.07
294.49	8989.35
294.557	8997.29
294.624	8993.87
294.691	9012.6
294.758	9013.85
294.825	9032.63
294.892	9020.69
294.959	9019.63
295.026	9027.04
295.093	9020.45
295.16	9019.15
295.226	9016.74
295.293	9042.26
295.36	9049.57
295.427	9054.68
295.494	9063.92
295.561	9074.42
295.628	9091.03
295.695	9102.39
295.762	9103.55
295.829	9113.32
295.896	9125.55
295.963	9138.41
296.03	9143.36
296.096	9149.53
296.163	9159.54
296.23	9167.68
296.297	9180.53
296.364	9180.44
296.431	9183.71
296.498	9187.27
296.564	9213.8
296.631	9222.27
296.698	9205.52
296.765	9221.89
296.832	9211.82
296.899	9196.85
296.965	9212.93
297.032	9192.66
297.099	9208.5
297.166	9220.06
297.233	9212.4
297.299	9209.85
297.366	9208.07
297.433	9211.2
297.5	9221.07
297.566	9225.93
297.633	9230.12
297.7	9234.84
297.767	9237.58
297.833	9237.63
297.9	9236.76
297.967	9227.04
298.033	9239.08
298.1	9265.42
298.167	9256.41
298.234	9269.32
298.3	9281.93
298.367	9273.79
298.434	9286.5
298.5	9279.14
298.567	9282.07
298.634	9290.02
298.7	9308.17
298.767	9315.83
298.834	9330.66
298.9	9326.47
298.967	9320.69
299.033	9323.77
299.1	9339.9
299.167	9353.67
299.233	9352.37
299.3	9372.98
299.366	9385.93
299.433	9395.71
299.5	9373.56
299.566	9380.73
299.633	9389.16
299.699	9397.35
299.766	9398.94
299.832	9404.33
299.899	9412.52
299.965	9418.2
300.032	9409.82
300.099	9413.05
300.165	9412.66
300.232	9405.97
300.298	9406.88
300.365	9420.9
300.431	9422.53
300.498	9412.71
300.564	9418.92
300.631	9431.54
300.697	9436.4
300.763	9435.25
300.83	9431.35
300.896	9439.92
300.963	9447.28
301.029	9452.82
301.096	9455.86
301.162	9468.38
301.229	9462.12
301.295	9451.38
301.361	9455.71
301.428	9460.86
301.494	9452.73
301.561	9459.13
301.627	9465
301.693	9466.31
301.76	9464.19
301.826	9459.9
301.892	9469.92
301.959	9471.36
302.025	9474.06
302.092	9468.04
302.158	9469.63
302.224	9474.49
302.291	9469.39
302.357	9470.69
302.423	9466.79
302.49	9460.14
302.556	9472.62
302.622	9474.64
302.688	9491.2
302.755	9500.16
302.821	9505.31
302.887	9512.68
302.954	9505.03
303.02	9514.08
303.086	9519.33
303.152	9518.7
303.219	9513.79
303.285	9521.54
303.351	9526.12
303.417	9522.36
303.483	9519.09
303.55	9516.34
303.616	9515.91
303.682	9518.8
303.748	9506.33
303.815	9517.98
303.881	9527.71
303.947	9512.35
304.013	9505.56
304.079	9486.68
304.145	9465.2
304.212	9469.05
304.278	9458.7
304.344	9451.04
304.41	9434.91
304.476	9423.45
304.542	9418.93
304.608	9428.27
304.674	9413.14
304.741	9411.94
304.807	9412.09
304.873	9409
304.939	9420.22
305.005	9401.88
305.071	9402.65
305.137	9409.15
305.203	9384.49
305.269	9383.58
305.335	9388.34
305.401	9383.91
305.467	9383.53
305.533	9393.01
305.599	9394.56
305.666	9409.39
305.732	9414.49
305.798	9428.99
305.864	9457.01
305.93	9462.99
305.996	9461.97
306.062	9457.45
306.128	9453.88
306.194	9444.49
306.259	9447.58
306.325	9441.84
306.391	9452.44
306.457	9460.34
306.523	9455.86
306.589	9477.14
306.655	9468.47
306.721	9459.9
306.787	9450.61
306.853	9467.99
306.919	9454.8
306.985	9446.04
307.051	9433.47
307.117	9428.27
307.183	9422.54
307.248	9398.41
307.314	9398.99
307.38	9396.1
307.446	9404.57
307.512	9392.92
307.578	9390.85
307.644	9385.02
307.709	9383.43
307.775	9379.87
307.841	9375.44
307.907	9379.19
307.973	9358.2
308.039	9355.17
308.104	9356.56
308.17	9368.07
308.236	9349.53
308.302	9357.14
308.368	9352.66
308.433	9353.04
308.499	9353.67
308.565	9338.94
308.631	9336.53
308.696	9316.55
308.762	9304.27
308.828	9294.68
308.894	9273.26
308.959	9261.08
309.025	9255.59
309.091	9256.94
309.156	9250.49
309.222	9248.08
309.288	9237.2
309.354	9221.5
309.419	9220.01
309.485	9204.75
309.551	9200.65
309.616	9183.03
309.682	9178.12
309.748	9170.13
309.813	9165.36
309.879	9148.17
309.945	9138.45
310.01	9134.69
310.076	9135.66
310.141	9131.23
310.207	9121.94
310.273	9125.45
310.338	9125.64
310.404	9107.49
310.469	9087.75
310.535	9074.17
310.601	9061.03
310.666	9065.41
310.732	9072.25
310.797	9055.54
310.863	9048.18
310.928	9040.33
310.994	9048.9
311.059	9037.25
311.125	9037.34
311.191	9041.63
311.256	9028.63
311.322	9030.89
311.387	9008.8
311.453	9307.31
311.518	9281.75
311.584	9277.27
311.649	9279.97
311.715	9269.28
311.78	9269.81
311.846	9266.1
311.911	9273.9
311.976	9265.86
312.042	9242.66
312.107	9231.34
312.173	9227.4
312.238	9222.34
312.304	9215.75
312.369	9205.78
312.434	9198.61
312.5	9189.56
312.565	9157.93
312.631	9168.95
312.696	9161.59
312.761	9171.26
312.827	8859.76
312.892	8897.11
312.958	8893.21
313.023	8892.2
313.088	8893.02
313.154	8883.4
313.219	8871.17
313.284	8858.41
313.35	8851.91
313.415	8846.04
313.48	8841.76
313.546	8843.73
313.611	8843.49
313.676	8839.25
313.741	8829.77
313.807	8832.76
313.872	8826.5
313.937	8834.68
314.003	8843.83
314.068	8847.01
314.133	8838.68
314.198	8832.71
314.264	8814.99
314.329	8806.95
314.394	8803.25
314.459	8798.14
314.525	8814.51
314.59	8810.47
314.655	8802.14
314.72	8809.7
314.785	8812.25
314.851	8800.89
314.916	8782.31
314.981	8770.86
315.046	8757.62
315.111	8749.78
315.176	8741.69
315.242	8751.46
315.307	8753.58
315.372	8732.21
315.437	8719.84
315.502	8716.23
315.567	8719.69
315.632	8701.21
315.698	8696.88
315.763	8686.67
315.828	8672.96
315.893	8661.55
315.958	8653.13
316.023	8637.44
316.088	8611.74
316.153	8587.87
316.218	8576.23
316.283	8555.64
316.348	8542.35
316.413	8540.09
316.479	8524.55
316.544	8490
316.609	8453.53
316.674	8412.63
316.739	8379.77
316.804	8348.59
316.869	8309.09
316.934	8274.78
316.999	8240.19
317.064	8192.08
317.129	8153.79
317.194	8120.88
317.259	8071
317.324	8024.29
317.389	7981.59
317.454	7948.83
317.518	7918.24
317.583	7896.11
317.648	7872.84
317.713	7831.48
317.778	7770.59
317.843	7734.91
317.908	7697.6
317.973	7661.96
318.038	7634.17
318.103	7593.02
318.168	7556.24
318.233	7528.4
318.297	7473.02
318.362	7436.97
318.427	7397.99
318.492	7376.26
318.557	7331.47
318.622	7306.52
318.687	7280.81
318.751	7241.89
318.816	7205.12
318.881	7168.7
318.946	7116.89
319.011	7072.58
319.075	7033.28
319.14	7001.67
319.205	6961.51
319.27	6925.29
319.335	6877.78
319.399	6829.64
319.464	6800.49
319.529	6752.51
319.594	6712.35
319.658	6684.55
319.723	6643.4
319.788	6609.88
319.853	6547.16
319.917	6510.62
319.982	6460.44
320.047	6419.06
320.112	6389.92
320.176	6337.84
320.241	6297.66
320.306	6263.49
320.37	6220.63
320.435	6187.85
320.5	6155.06
320.564	6114.32
320.629	6072.25
320.694	6042.26
320.758	6007.09
320.823	5963.19
320.888	5934.32
320.952	5883.62
321.017	5840.02
321.082	5797.67
321.146	5766.64
321.211	5729
321.275	5689.73
321.34	5647.25
321.405	5605.44
321.469	5558.99
321.534	5522.61
321.598	5476.26
321.663	5445.42
321.727	5415.04
321.792	5365.05
321.857	5316.11
321.921	5278.02
321.986	5233.66
322.05	5176.36
322.115	5133.34
322.179	5088.84
322.244	5032.57
322.308	4998.8
322.373	4953.12
322.437	4914.1
322.502	4880.47
322.566	4838.96
322.631	4799.94
322.695	4760.06
322.76	4717.42
322.824	4683.58
322.889	4639.6
322.953	4594.67
323.018	4532.36
323.082	4469.11
323.146	4416.22
323.211	4370.49
323.275	4322.17
323.34	4277.95
323.404	4245.91
323.468	4204.69
323.533	4162.23
323.597	4117.74
323.662	4065.11
323.726	4033.41
323.79	3985
323.855	3926.63
323.919	3877.98
323.983	3835.07
324.048	3766.97
324.112	3905.97
324.177	3775.39
324.241	3578.1
324.305	3385.77
324.37	3194.21
324.434	3012.83
324.498	2974.21
324.562	2924.13
324.627	2870.38
324.691	2819.23
324.755	2752.65
324.82	2678.12
324.884	2604.92
324.948	2536.04
325.012	2451.41
325.077	2331.44
