Data from 20250630_urea_2M_MAYP1162681_05-12-26-942.txt Node
Date: Tue Jul 01 05:12:26 BST 2025
User: adleo
Spectrometer: MAYP116268
Trigger mode: 0
Integration Time (sec): 1.000000E0
Scans to average: 1
Electric dark correction enabled: true
Nonlinearity correction enabled: true
Boxcar width: 10
XAxis mode: Wavelengths
Number of Pixels in Spectrum: 2068
>>>>>Begin Spectral Data<<<<<
179.565	1057.15
179.642	1106.06
179.718	1141.76
179.795	1173.08
179.871	1200.08
179.948	1215.49
180.024	1233.24
180.101	1251.85
180.177	1263.99
180.254	1284.14
180.33	1305.6
180.407	1348.93
180.483	1431.83
180.56	1508.94
180.636	1582.05
180.712	1567.98
180.789	1580.33
180.865	1589.45
180.942	1596.95
181.018	1603.55
181.095	1612.58
181.171	1619.71
181.248	1619.33
181.324	1634.11
181.4	1642.37
181.477	1653.63
181.553	1666.65
181.63	1686.08
181.706	1701.43
181.782	1708.31
181.859	1707.13
181.935	1710.79
182.011	1706.37
182.088	1723.33
182.164	1742.96
182.24	1755.46
182.317	1767.33
182.393	1764.29
182.469	1776.17
182.546	1791.38
182.622	1796.37
182.698	1792.71
182.775	1803.92
182.851	1818.42
182.927	1810.39
183.003	1803.59
183.08	1797.13
183.156	1803.78
183.232	1799.27
183.308	1790.81
183.385	1798.98
183.461	1814.09
183.537	1814.24
183.613	1824.22
183.69	1815.76
183.766	1801.68
183.842	1807.86
183.918	1812.19
183.995	1822.31
184.071	1826.07
184.147	1818.08
184.223	1808.44
184.299	1817.99
184.375	1807.44
184.452	1810.44
184.528	1865.26
184.604	1876.47
184.68	1887.31
184.756	1891.49
184.832	1893.92
184.908	1895.72
184.985	1895.72
185.061	1882.94
185.137	1889.64
185.213	1879.47
185.289	1879.71
185.365	1875.48
185.441	1872.53
185.517	1884.28
185.593	1880.57
185.669	1879.05
185.745	1890.36
185.822	1906.23
185.898	1901.52
185.974	1905.23
186.05	1897.24
186.126	1857.35
186.202	1850.79
186.278	1848.74
186.354	1841.99
186.43	1851.03
186.506	1849.94
186.582	1851.93
186.658	1854.97
186.734	1837.06
186.81	1839.81
186.886	1842.05
186.962	1854.5
187.038	1851.79
187.114	1843.51
187.19	1852.02
187.266	1845.37
187.341	1843.09
187.417	1838.38
187.493	1839.33
187.569	1847.56
187.645	1841.66
187.721	1831.21
187.797	1839.62
187.873	1839.9
187.949	1833.87
188.025	1828.11
188.101	1830.39
188.176	1831.63
188.252	1830.06
188.328	1838.14
188.404	1839.14
188.48	1837.09
188.556	1827.4
188.632	1828.06
188.707	1831.44
188.783	1829.11
188.859	1824.31
188.935	1815.33
189.011	1820.13
189.086	1812.38
189.162	1803.16
189.238	1803.35
189.314	1800.07
189.39	1792.89
189.465	1790.52
189.541	1808.34
189.617	1793.32
189.693	1789.85
189.768	1792.28
189.844	1813.96
189.92	1807.88
189.996	1819.05
190.071	1829.22
190.147	1829.46
190.223	1840.73
190.298	1831.74
190.374	1821
190.45	1829.51
190.526	1837.21
190.601	1833.21
190.677	1836.92
190.753	1863.41
190.828	1866.97
190.904	1881.47
190.98	1896.49
191.055	1904.05
191.131	1892.5
191.207	1912.7
191.282	1920.59
191.358	1913.13
191.433	1898.81
191.509	1911.41
191.585	1904.13
191.66	1901.42
191.736	1910.41
191.811	1899.28
191.887	1913.64
191.963	1936.84
192.038	1943.97
192.114	1944.16
192.189	1949.06
192.265	1945.31
192.34	1921.05
192.416	1920.57
192.491	1916.82
192.567	1918.43
192.642	1920.34
192.718	1925.23
192.793	1912.16
192.869	1907.88
192.944	1912.02
193.02	1922.29
193.095	1925.04
193.171	1930.8
193.246	1932.32
193.322	1928.9
193.397	1927.61
193.473	1913.92
193.548	1894.18
193.624	1897.94
193.699	1897.75
193.775	1911.26
193.85	1911.4
193.925	1920.38
194.001	1921.14
194.076	1914.58
194.152	1903.27
194.227	1896.99
194.302	1885.3
194.378	1887.49
194.453	1885.59
194.529	1894.81
194.604	1879.6
194.679	1873.8
194.755	1856.64
194.83	1867.58
194.905	1864.49
194.981	1876.8
195.056	1873.05
195.131	1878.37
195.207	1877.37
195.282	1866.87
195.357	1849.32
195.433	1865.39
195.508	1855.74
195.583	1862.11
195.659	1877.14
195.734	1885.55
195.809	1885.5
195.884	1894.96
195.96	1895.91
196.035	1909.03
196.11	1905.65
196.185	1916.87
196.261	1917.92
196.336	1947.73
196.411	1933.65
196.486	1940.49
196.561	1932.89
196.637	1940.02
196.712	1954.38
196.787	1955.71
196.862	1970.78
196.937	1979.53
197.013	1983.24
197.088	1991.75
197.163	2011.87
197.238	2025.72
197.313	2026.72
197.388	2041.17
197.464	2068.15
197.539	2078.18
197.614	2072.33
197.689	2081.18
197.764	2096.45
197.839	2116.8
197.914	2109
197.989	2131.5
198.065	2141.68
198.14	2185.85
198.215	2210.26
198.29	2220.97
198.365	2233.62
198.44	2243.75
198.515	2270.12
198.59	2284.68
198.665	2309.04
198.74	2316.61
198.815	2319.14
198.89	2339.5
198.965	2366.5
199.04	2362.12
199.115	2376.49
199.19	2417.8
199.265	2421.37
199.34	2429.56
199.415	2461.66
199.49	2480.79
199.565	2487.55
199.64	2510.74
199.715	2509.02
199.79	2512.07
199.865	2520.5
199.94	2520.78
200.015	2551.36
200.09	2552.98
200.165	2556.07
200.24	2560.22
200.315	2594.77
200.39	2604.73
200.464	2611.2
200.539	2606.34
200.614	2621.63
200.689	2645.97
200.764	2649.64
200.839	2666.01
200.914	2668.92
200.989	2654.96
201.063	2666.91
201.138	2652.06
201.213	2652.73
201.288	2636.77
201.363	2643.25
201.438	2641.34
201.512	2651.72
201.587	2635.67
201.662	2641.24
201.737	2653.39
201.812	2662.77
201.886	2633.88
201.961	2642.17
202.036	2630.89
202.111	2631.84
202.186	2603
202.26	2583.56
202.335	2561.98
202.41	2556.7
202.485	2541.65
202.559	2526.18
202.634	2504.99
202.709	2510.51
202.784	2492.65
202.858	2490.23
202.933	2472.56
203.008	2465.99
203.082	2450.19
203.157	2446.38
203.232	2406.12
203.306	2387.26
203.381	2358.59
203.456	2334.46
203.53	2315.31
203.605	2297.52
203.68	2277.38
203.754	2274.09
203.829	2263.38
203.904	2246.4
203.978	2233.93
204.053	2237.45
204.127	2224.37
204.202	2220.32
204.277	2208.38
204.351	2204
204.426	2198.2
204.5	2191.54
204.575	2161.43
204.65	2169.99
204.724	2164.57
204.799	2173.84
204.873	2170.27
204.948	2169.7
205.022	2161.8
205.097	2156.23
205.171	2168.08
205.246	2174.12
205.32	2172.12
205.395	2171.65
205.469	2163.76
205.544	2170.61
205.618	2156.91
205.693	2169.04
205.767	2161.67
205.842	2180.51
205.916	2172.8
205.991	2164.05
206.065	2169.52
206.14	2182.79
206.214	2178.55
206.289	2173.22
206.363	2184.64
206.438	2187.78
206.512	2193.2
206.586	2209.61
206.661	2216.9
206.735	2198.73
206.81	2199.25
206.884	2214.33
206.958	2202.87
207.033	2219.47
207.107	2226.8
207.181	2253.45
207.256	2248.36
207.33	2266.63
207.405	2277.44
207.479	2293.86
207.553	2300.18
207.628	2284.3
207.702	2293.67
207.776	2290.29
207.851	2290.96
207.925	2301.81
207.999	2296.39
208.073	2295.34
208.148	2296.77
208.222	2282.72
208.296	2309.13
208.371	2324.7
208.445	2335.27
208.519	2360.49
208.593	2370.29
208.668	2366.2
208.742	2367.1
208.816	2369.05
208.89	2378.53
208.965	2378.1
209.039	2386.15
209.113	2401.47
209.187	2421.07
209.261	2418.26
209.336	2435.12
209.41	2451.83
209.484	2451.26
209.558	2472.44
209.632	2485.34
209.707	2499.53
209.781	2521.43
209.855	2536.67
209.929	2552.02
210.003	2556.69
210.077	2557.21
210.151	2600.25
210.226	2629.98
210.3	2658.54
210.374	2679.87
210.448	2683.96
210.522	2694.73
210.596	2705.59
210.67	2715.41
210.744	2758.34
210.818	2787.86
210.892	2806.69
210.966	2804.07
211.041	2820.93
211.115	2819.79
211.189	2840.76
211.263	2854.24
211.337	2862.53
211.411	2877.5
211.485	2872.97
211.559	2885.74
211.633	2887.69
211.707	2861.56
211.781	2873.01
211.855	2844.36
211.929	2841.69
212.003	2828.59
212.077	2842.95
212.151	2856.96
212.225	2868.93
212.299	2865.3
212.373	2863.63
212.447	2868.3
212.52	2903.29
212.594	2917.27
212.668	2938.48
212.742	2937.9
212.816	2945.29
212.89	2949.11
212.964	2960.6
213.038	2977.34
213.112	3003.77
213.186	3036.8
213.26	3035.9
213.333	3013.1
213.407	3036.17
213.481	3061.1
213.555	3094.55
213.629	3105.14
213.703	3115.45
213.777	3143.69
213.85	3152
213.924	3210.6
213.998	3238.09
214.072	3262.11
214.146	3282.68
214.219	3311.65
214.293	3341.51
214.367	3379.61
214.441	3432.73
214.515	3466.69
214.588	3490.75
214.662	3508.89
214.736	3534.63
214.81	3592.75
214.883	3650.64
214.957	3692.61
215.031	3733.05
215.105	3767.09
215.178	3811.38
215.252	3861.59
215.326	3895.8
215.4	3940.85
215.473	3955.67
215.547	4000.51
215.621	4055.18
215.694	4129.32
215.768	4180.44
215.842	4239.3
215.915	4298.96
215.989	4343.74
216.063	4405.33
216.136	4478.83
216.21	4550.94
216.284	4639.82
216.357	4722.6
216.431	4796.13
216.504	4886.68
216.578	4983.99
216.652	5076.05
216.725	5159.42
216.799	5262.46
216.873	5352.58
216.946	5455.08
217.02	5550.2
217.093	5646.14
217.167	5714.56
217.24	5788.96
217.314	5879.02
217.387	5969.03
217.461	6054.71
217.535	6164.79
217.608	6254.29
217.682	6357.16
217.755	6461.18
217.829	6548.38
217.902	6641.16
217.976	6742.1
218.049	6831.19
218.123	6919.16
218.196	7019.45
218.27	7111.31
218.343	7191.77
218.417	7288.08
218.49	7380.8
218.563	7484.52
218.637	7579.86
218.71	7703.81
218.784	7809.56
218.857	7916.99
218.931	8021.63
219.004	8130.24
219.077	8239.46
219.151	8338.42
219.224	8429.7
219.298	8527.82
219.371	8642.5
219.444	8733.99
219.518	8826.29
219.591	8926.07
219.665	9050.72
219.738	9158.5
219.811	9248.47
219.885	9357.53
219.958	9464.62
220.031	9556.68
220.105	9657.19
220.178	9756.25
220.251	9842.13
220.325	9946.18
220.398	10045.4
220.471	10145.16
220.544	10244.74
220.618	10322.5
220.691	10421.98
220.764	10513.42
220.838	10611.18
220.911	10696.23
220.984	10803.73
221.057	10905.83
221.131	11000.08
221.204	11060.66
221.277	11164.85
221.35	11288.7
221.424	11373.09
221.497	11463.55
221.57	11549.86
221.643	11642.54
221.716	11731.61
221.79	11814.7
221.863	11895.63
221.936	11980.17
222.009	12060.72
222.082	12146.76
222.155	12227.54
222.229	12317.82
222.302	12400.49
222.375	12474.77
222.448	12558.5
222.521	12629.27
222.594	12704.9
222.667	12766.46
222.74	12856.02
222.814	12922.3
222.887	12991.14
222.96	13070.34
223.033	13153.64
223.106	13232.46
223.179	13309.11
223.252	13382.72
223.325	13453.34
223.398	13517.12
223.471	13583.21
223.544	13655.52
223.617	13719.97
223.69	13788.23
223.763	13838.7
223.837	13919.01
223.91	13992.62
223.983	14038.37
224.056	14093.52
224.129	14158.69
224.202	14240.89
224.275	14293.67
224.348	14334.94
224.42	14381.55
224.493	14424.64
224.566	14474.25
224.639	14538.7
224.712	14584.88
224.785	14638.43
224.858	14703.65
224.931	14756.58
225.004	14803.97
225.077	14856.56
225.15	14892.85
225.223	14952.1
225.296	15031.58
225.369	15056.46
225.442	15100.37
225.514	15159.22
225.587	15225.16
225.66	15284.93
225.733	15332.99
225.806	15392.04
225.879	15450.41
225.952	15497.65
226.025	15562.62
226.097	15628.61
226.17	15680.33
226.243	15718.41
226.316	15772.49
226.389	15815.82
226.461	15876.02
226.534	15925.14
226.607	15979.07
226.68	16051.42
226.753	16098.7
226.825	16130.27
226.898	16191.68
226.971	16245.18
227.044	16298.58
227.117	16344.46
227.189	16392.61
227.262	16454.06
227.335	16503.08
227.407	16544.29
227.48	16588.24
227.553	16630.61
227.626	16667.38
227.698	16717.94
227.771	16778.66
227.844	16811.87
227.916	16854.28
227.989	16881.95
228.062	16930.05
228.134	16986.24
228.207	17025.13
228.28	17057.38
228.352	17098.73
228.425	17151.59
228.498	17200.94
228.57	17229.91
228.643	17282.01
228.716	17325.48
228.788	17356.13
228.861	17379.84
228.934	17434.83
229.006	17475.55
229.079	17512.46
229.151	17537.62
229.224	17549.28
229.296	17587.31
229.369	17648.51
229.442	17701.09
229.514	17742.1
229.587	17782.48
229.659	17807.54
229.732	17838.63
229.804	17890.67
229.877	17949.71
229.949	17995.88
230.022	18043.92
230.094	18081.94
230.167	18109.08
230.239	18127.24
230.312	18158.04
230.384	18224.83
230.457	18253.5
230.529	18287.24
230.602	18331.14
230.674	18365.4
230.747	18415.95
230.819	18456.19
230.892	18459.08
230.964	18490.79
231.037	18513.97
231.109	18545.59
231.181	18576.91
231.254	18593.78
231.326	18611.75
231.399	18629.1
231.471	18639.03
231.544	18633.58
231.616	18676.04
231.688	18710.35
231.761	18730.39
231.833	18749.77
231.905	18733.53
231.978	18769.67
232.05	18788.51
232.122	18802.53
232.195	18827.74
232.267	18860.99
232.339	18873.52
232.412	18909.08
232.484	18925.18
232.556	18942.91
232.629	18980.6
232.701	19003.05
232.773	19024.06
232.846	19038.18
232.918	19051.58
232.99	19072.59
233.062	19098.23
233.135	19107.43
233.207	19097.26
233.279	19122.27
233.351	19142.51
233.424	19170.37
233.496	19172.63
233.568	19209.59
233.64	19218.7
233.713	19220.1
233.785	19216.15
233.857	19224.68
233.929	19221.01
234.001	19247.08
234.074	19272.91
234.146	19257.59
234.218	19261.45
234.29	19265.97
234.362	19274.07
234.434	19258.99
234.507	19255.86
234.579	19254.55
234.651	19256.67
234.723	19281.2
234.795	19285.54
234.867	19287.23
234.939	19296.24
235.012	19297.15
235.084	19285.59
235.156	19283.47
235.228	19283.56
235.3	19287.13
235.372	19290.36
235.444	19292.53
235.516	19259.28
235.588	19260.19
235.66	19256.19
235.732	19251.37
235.804	19302.84
235.876	19304.38
235.948	19323.71
236.02	19325.06
236.092	19319.51
236.164	19313.78
236.236	19297.4
236.308	19287.28
236.38	19288.62
236.452	19272.53
236.524	19266.79
236.596	19283.56
236.668	19286.36
236.74	19285.2
236.812	19287.23
236.884	19288.87
236.956	19289.83
237.028	19273.83
237.1	19251.23
237.172	19265.59
237.244	19276.58
237.316	19238.6
237.388	19221.25
237.46	19200.68
237.532	19191.18
237.604	19174.7
237.675	19176.49
237.747	19174.03
237.819	19155.86
237.891	19129.55
237.963	19126.61
238.035	19110.56
238.107	19052.16
238.178	19049.27
238.25	19028.98
238.322	19026.76
238.394	18984.16
238.466	18967.87
238.538	18962.77
238.609	18950.09
238.681	18915.35
238.753	18879.69
238.825	18858.29
238.897	18842.05
238.968	18842.15
239.04	18817.33
239.112	18819.93
239.184	18789.38
239.255	18768.17
239.327	18754.3
239.399	18746.39
239.471	18725.14
239.542	18704.23
239.614	18712.8
239.686	18662.83
239.758	18653.05
239.829	18623.99
239.901	18626.26
239.973	18603.03
240.044	18580.19
240.116	18560.91
240.188	18534.16
240.259	18512.33
240.331	18481.4
240.403	18463.57
240.474	18429.83
240.546	18408.24
240.618	18367.43
240.689	18337.79
240.761	18306.8
240.833	18294.23
240.904	18257.99
240.976	18230.95
241.048	18205.36
241.119	18183.68
241.191	18174.81
241.262	18164.06
241.334	18126.09
241.405	18087.73
241.477	18051.83
241.549	18033.03
241.62	18003.83
241.692	17985.03
241.763	17964.26
241.835	17934.77
241.906	17914.58
241.978	17874.68
242.049	17856.85
242.121	17841.86
242.192	17831.88
242.264	17788.75
242.335	17751.11
242.407	17735.59
242.478	17705.38
242.55	17680.03
242.621	17642.54
242.693	17602.05
242.764	17573.62
242.836	17549.04
242.907	17525.48
242.979	17504.27
243.05	17479.89
243.122	17454.78
243.193	17418.97
243.264	17368.8
243.336	17343.16
243.407	17320.32
243.479	17304.8
243.55	17279.65
243.622	17251.55
243.693	17220.18
243.764	17213.72
243.836	17166.58
243.907	17131.02
243.978	17100.41
244.05	17082.24
244.121	17042.63
244.192	17027.64
244.264	16970.29
244.335	16941.37
244.407	16903.3
244.478	16883.68
244.549	16844.98
244.62	16805.17
244.692	16781.7
244.763	16767.29
244.834	16727
244.906	16677.21
244.977	16650.08
245.048	16622.7
245.119	16588.24
245.191	16547.86
245.262	16500.19
245.333	16493.73
245.405	16470.69
245.476	16448.57
245.547	16413.19
245.618	16393.1
245.689	16361.87
245.761	16342.88
245.832	16315.98
245.903	16292.94
245.974	16262.39
246.045	16226.53
246.117	16213.37
246.188	16171.39
246.259	16125.12
246.33	16098.9
246.401	16071.81
246.473	16026.36
246.544	15992.04
246.615	15972.81
246.686	15938.2
246.757	15922.87
246.828	15872.75
246.899	15845.85
246.97	15798.66
247.042	15769.26
247.113	15739.19
247.184	15732.53
247.255	15698.99
247.326	15675.42
247.397	15639.51
247.468	15611.84
247.539	15590.78
247.61	15547.97
247.681	15527.2
247.752	15511.44
247.823	15470.03
247.894	15445.02
247.965	15412.43
248.037	15376.33
248.108	15327.02
248.179	15293.23
248.25	15250.13
248.321	15238.18
248.392	15200.34
248.463	15194.56
248.534	15162.94
248.605	15150.4
248.675	15107.12
248.746	15092.51
248.817	15050
248.888	15028.6
248.959	14985.46
249.03	14965.6
249.101	14942.7
249.172	14912.04
249.243	14865.14
249.314	14849.76
249.385	14827.54
249.456	14803.73
249.527	14774.37
249.598	14747.14
249.669	14721.54
249.739	14708.43
249.81	14686.64
249.881	14653.18
249.952	14621.27
250.023	14592.83
250.094	14544.05
250.165	14512.38
250.235	14475.31
250.306	14456.7
250.377	14416.64
250.448	14394.08
250.519	14347.33
250.59	14328.19
250.66	14301
250.731	14298.06
250.802	14279.5
250.873	14249.66
250.944	14222.14
251.014	14183.09
251.085	14190.37
251.156	14169.98
251.227	14155.27
251.297	14134.59
251.368	14114.59
251.439	14101.24
251.51	14083.69
251.58	14051.78
251.651	14014.27
251.722	14002.12
251.792	13957.63
251.863	13935.07
251.934	13920.41
252.005	13920.94
252.075	13899.97
252.146	13878.76
252.217	13854.52
252.287	13826.27
252.358	13801.25
252.429	13791.03
252.499	13767.6
252.57	13737.33
252.641	13728.12
252.711	13699.29
252.782	13655.33
252.852	13650.17
252.923	13621.39
252.994	13602.15
253.064	13587.11
253.135	13562.29
253.205	13526.08
253.276	13522.37
253.347	13513.55
253.417	13478.36
253.488	13450.16
253.558	13411.21
253.629	13386.04
253.699	13369.9
253.77	13360.06
253.841	13330.03
253.911	13304.72
253.982	13283.56
254.052	13270.64
254.123	13243.98
254.193	13219.68
254.264	13231.06
254.334	13203.15
254.405	13160.05
254.475	13119.9
254.546	13099.46
254.616	13090.68
254.687	13074.87
254.757	13052.36
254.827	13030.62
254.898	13018.13
254.968	12990.41
255.039	12971.28
255.109	12963.27
255.18	12928.9
255.25	12885.71
255.321	12876.55
255.391	12854.57
255.461	12857.08
255.532	12800.44
255.602	12771.66
255.673	12735.07
255.743	12717.28
255.813	12670.47
255.884	12664.93
255.954	12658.52
256.024	12648.69
256.095	12622.56
256.165	12589.68
256.235	12572.38
256.306	12541.48
256.376	12528.32
256.446	12518.34
256.517	12499.3
256.587	12485.8
256.657	12466.86
256.728	12450.08
256.798	12422.41
256.868	12397.64
256.938	12370.79
257.009	12361.19
257.079	12347.17
257.149	12347.17
257.219	12294.34
257.29	12278.57
257.36	12239.43
257.43	12223.43
257.5	12182.6
257.571	12165.35
257.641	12155.37
257.711	12131.41
257.781	12125.1
257.852	12104.37
257.922	12067.54
257.992	12050.82
258.062	12023.73
258.132	12014.28
258.202	11994.66
258.273	11980.35
258.343	11973.93
258.413	11946.07
258.483	11929.11
258.553	11895.66
258.623	11870.06
258.693	11861.77
258.764	11860.04
258.834	11852.03
258.904	11831.31
258.974	11803.31
259.044	11780.03
259.114	11762.19
259.184	11736.26
259.254	11708.98
259.324	11672.49
259.394	11655.77
259.464	11652.11
259.535	11632.01
259.605	11603.96
259.675	11576.05
259.745	11559.95
259.815	11527.47
259.885	11501.97
259.955	11508.77
260.025	11482.45
260.095	11465.44
260.165	11452.14
260.235	11450.93
260.305	11428.38
260.375	11403.8
260.445	11411.46
260.515	11400.18
260.585	11389.96
260.655	11376.71
260.725	11366.3
260.795	11357.14
260.865	11357.14
260.934	11328.8
261.004	11317.91
261.074	11300.66
261.144	11294.49
261.214	11283.98
261.284	11269.29
261.354	11263.5
261.424	11228.85
261.494	11237.43
261.564	11221.72
261.634	11209.86
261.703	11168.51
261.773	11158.49
261.843	11141.43
261.913	11118.82
261.983	11090.58
262.053	11076.17
262.123	11059.64
262.192	11026.83
262.262	11015.55
262.332	10983.36
262.402	10973
262.472	10953.19
262.541	10919.75
262.611	10912.67
262.681	10884.48
262.751	10873.01
262.821	10851.52
262.89	10832.1
262.96	10814.94
263.03	10810.46
263.1	10795.62
263.169	10781.45
263.239	10768.34
263.309	10771.86
263.379	10764.83
263.448	10752.68
263.518	10736.54
263.588	10721.03
263.657	10731.87
263.727	10728.93
263.797	10714.67
263.867	10698.86
263.936	10673.08
264.006	10669.04
264.076	10658.53
264.145	10644.99
264.215	10620.32
264.285	10613.34
264.354	10576.86
264.424	10555.18
264.494	10524.01
264.563	10505.7
264.633	10507.67
264.702	10491.63
264.772	10462.14
264.842	10436.46
264.911	10421.43
264.981	10397.87
265.05	10384.18
265.12	10350.89
265.19	10334.8
265.259	10326.03
265.329	10315
265.398	10302.66
265.468	10313.46
265.537	10291.05
265.607	10286.81
265.676	10284.84
265.746	10281.8
265.815	10279.88
265.885	10263.3
265.955	10243.55
266.024	10216.77
266.094	10178.42
266.163	10183.91
266.232	10179.24
266.302	10168.59
266.371	10163.34
266.441	10150.91
266.51	10142.63
266.58	10126.2
266.649	10099.03
266.719	10095.03
266.788	10087.56
266.858	10087.28
266.927	10056.73
266.996	10046.23
267.066	10022.72
267.135	9992.57
267.205	9979.27
267.274	9964.97
267.343	9968.24
267.413	9950.09
267.482	9952.16
267.552	9954.13
267.621	9920.94
267.69	9890.6
267.76	9878.17
267.829	9866.8
267.898	9853.32
267.968	9832.41
268.037	9827.74
268.106	9833.04
268.176	9811.27
268.245	9788.72
268.314	9771.91
268.384	9768.97
268.453	9753.32
268.522	9752.5
268.592	9754.76
268.661	9731.64
268.73	9728.95
268.799	9704.38
268.869	9713.58
268.938	9685.31
269.007	9664.55
269.076	9657.43
269.146	9652.95
269.215	9646.01
269.284	9650.59
269.353	9636.57
269.422	9614.81
269.492	9606.81
269.561	9571.9
269.63	9564.82
269.699	9552.34
269.768	9543.05
269.838	9529.32
269.907	9529.61
269.976	9507.75
270.045	9478.47
270.114	9476.74
270.183	9463.88
270.253	9459.98
270.322	9435.9
270.391	9424.59
270.46	9422.18
270.529	9421.74
270.598	9421.41
270.667	9410.38
270.736	9382.98
270.806	9372.43
270.875	9377.01
270.944	9363.47
271.013	9372.58
271.082	9364.44
271.151	9353.94
271.22	9322.88
271.289	9307.52
271.358	9291.06
271.427	9285.71
271.496	9277.91
271.565	9261.97
271.634	9250.85
271.703	9243.68
271.772	9240.07
271.841	9232.17
271.91	9213.63
271.979	9197.12
272.048	9175.69
272.117	9172.37
272.186	9156.77
272.255	9157.68
272.324	9157.11
272.393	9147.19
272.462	9132.16
272.531	9120.9
272.6	9110.79
272.669	9122.29
272.738	9114.78
272.807	9105.1
272.876	9082.96
272.945	9112.72
273.013	9111.27
273.082	9117.82
273.151	9100.44
273.22	9096.35
273.289	9089.51
273.358	9099.67
273.427	9085.52
273.496	9082.82
273.564	9076.66
273.633	9079.4
273.702	9064.28
273.771	9049.65
273.84	9048.64
273.909	9044.4
273.977	9040.07
274.046	9033.71
274.115	9031.64
274.184	9013.21
274.253	9007.53
274.322	9016.58
274.39	8984.13
274.459	8968.77
274.528	8939.88
274.597	8936.66
274.665	8934.4
274.734	8943.74
274.803	8928.38
274.872	8926.36
274.94	8907.68
275.009	8957.72
275.078	8940.87
275.147	8929.08
275.215	8925.42
275.284	8929.18
275.353	8917.86
275.421	8893.07
275.49	8903.62
275.559	8894.95
275.627	8892.88
275.696	8887.83
275.765	8883.83
275.833	8868.82
275.902	8866.65
275.971	8875.27
276.039	8884.32
276.108	8885.81
276.177	8874.4
276.245	8869.63
276.314	8864.1
276.383	8868.38
276.451	8805.63
276.52	8804.53
276.588	8818.15
276.657	8821.47
276.725	8806.69
276.794	8809
276.863	8822.86
276.931	8801.73
277	8802.41
277.068	8802.12
277.137	8812.32
277.205	8812.85
277.274	8832.3
277.342	8842.84
277.411	8821.09
277.48	8801.83
277.548	8791.15
277.617	8797.16
277.685	8789.46
277.754	8793.5
277.822	8786.19
277.89	8798.22
277.959	8796.68
278.027	8780.13
278.096	8763.95
278.164	8783.06
278.233	8776.37
278.301	8768.05
278.37	8770.31
278.438	8757.02
278.507	8761.69
278.575	8747.3
278.643	8739.07
278.712	8719.87
278.78	8703.4
278.849	8719.77
278.917	8730.11
278.985	8721.59
279.054	8719.48
279.122	8726.6
279.191	8725.16
279.259	8722.36
279.327	8703.69
279.396	8721.16
279.464	8714.28
279.532	8728.19
279.601	8725.78
279.669	8714.71
279.737	8722.51
279.806	8731.27
279.874	8747.01
279.942	8747.35
280.011	8737.34
280.079	8745.71
280.147	8763.23
280.215	8762.51
280.284	8749.61
280.352	8734.4
280.42	8742.58
280.488	8734.83
280.557	8728.91
280.625	8730.89
280.693	8737.96
280.761	8735.75
280.83	8714.18
280.898	8730.02
280.966	8707.59
281.034	8678.52
281.102	8667.5
281.171	8659.08
281.239	8658.21
281.307	8642.42
281.375	8636.36
281.443	8659.85
281.512	8657.58
281.58	8660.28
281.648	8651.81
281.716	8653.83
281.784	8655.23
281.852	8650.8
281.92	8647.57
281.989	8655.9
282.057	8636.65
282.125	8673
282.193	8671.17
282.261	8672.23
282.329	8661.21
282.397	8660.44
282.465	8667.99
282.533	8681.03
282.601	8674.15
282.67	8655.67
282.738	8646.33
282.806	8655.28
282.874	8635.6
282.942	8635.69
283.01	8630.78
283.078	8634.54
283.146	8632.32
283.214	8641.8
283.282	8636.8
283.35	8646.47
283.418	8636.03
283.486	8641.52
283.554	8597.85
283.622	8595.69
283.69	8592.51
283.758	8590.59
283.826	8599.63
283.894	8607.19
283.962	8624.52
284.03	8631.5
284.098	8631.3
284.165	8630.34
284.233	8628.46
284.301	8629.57
284.369	8620.33
284.437	8607.14
284.505	8602.19
284.573	8617.2
284.641	8601.85
284.709	8611.57
284.777	8593.43
284.845	8603
284.912	8603.15
284.98	8607.05
285.048	8600.12
285.116	8605.89
285.184	8618.65
285.252	8618.79
285.319	8603.25
285.387	8598.72
285.455	8590.4
285.523	8595.45
285.591	8590.64
285.659	8587.6
285.726	8595.64
285.794	8576.35
285.862	8576.59
285.93	8577.89
285.997	8573.56
286.065	8574.08
286.133	8566.48
286.201	8567.44
286.269	8554.3
286.336	8552.23
286.404	8549.83
286.472	8566.19
286.539	8544.59
286.607	8527.84
286.675	8522.64
286.743	8526.54
286.81	8517.2
286.878	8524.03
286.946	8519.8
287.013	8521
287.081	8518.98
287.149	8507.29
287.216	8526.44
287.284	8526.58
287.352	8528.99
287.419	8520.08
287.487	8530.53
287.555	8528.75
287.622	8526
287.69	8531.54
287.758	8539.57
287.825	8533.13
287.893	8517.29
287.96	8525.57
288.028	8534.81
288.096	8542.75
288.163	8550.02
288.231	8539.57
288.298	8539.38
288.366	8544.19
288.433	8539.24
288.501	8532.98
288.569	8536.69
288.636	8536.88
288.704	8543.04
288.771	8551.32
288.839	8549.78
288.906	8543.91
288.974	8556.61
289.041	8554.25
289.109	8549.78
289.176	8557.87
289.244	8566.29
289.311	8581.69
289.379	8593.38
289.446	8595.93
289.514	8593
289.581	8585.87
289.649	8586.88
289.716	8590.01
289.783	8590.25
289.851	8614.79
289.918	8612.48
289.986	8617.87
290.053	8623.07
290.121	8623.7
290.188	8620.33
290.255	8642.08
290.323	8635.64
290.39	8626.49
290.458	8633.9
290.525	8643.62
290.592	8633.8
290.66	8634.96
290.727	8626.82
290.794	8634.43
290.862	8630.05
290.929	8629.47
290.996	8632.6
291.064	8647.28
291.131	8663.4
291.198	8672.89
291.266	8672.02
291.333	8678.95
291.4	8687.28
291.468	8696.08
291.535	8690.89
291.602	8691.46
291.669	8682.22
291.737	8692.18
291.804	8693.68
291.871	8708.88
291.938	8716.68
292.006	8746.29
292.073	8755.38
292.14	8766.45
292.207	8762.6
292.275	8771.51
292.342	8790.86
292.409	8815.26
292.476	8831.1
292.543	8817.33
292.611	8814.97
292.678	8828.31
292.745	8842.51
292.812	8850.16
292.879	8853.24
292.946	8859.21
293.014	8876.01
293.081	8886.93
293.148	8900.17
293.215	8912.73
293.282	8913.02
293.349	8916.63
293.416	8901.23
293.484	8915.14
293.551	8924.43
293.618	8940.84
293.685	8961.16
293.752	8950.91
293.819	8947.25
293.886	8941.9
293.953	8951.44
294.02	8965.78
294.087	8968.72
294.154	8967.8
294.221	8981.81
294.288	8979.84
294.356	8997.12
294.423	9004.1
294.49	9002.27
294.557	9011.95
294.624	9006.46
294.691	9023.41
294.758	9029.18
294.825	9035.01
294.892	9029.14
294.959	9029.04
295.026	9040.31
295.093	9033.76
295.16	9036.55
295.226	9039.1
295.293	9055.42
295.36	9062.31
295.427	9072.95
295.494	9085.85
295.561	9094.52
295.628	9109.49
295.695	9125.57
295.762	9129.18
295.829	9134.67
295.896	9146.95
295.963	9161.01
296.03	9175.55
296.096	9179.26
296.163	9184.94
296.23	9199.86
296.297	9212.38
296.364	9210.26
296.431	9208.43
296.498	9209.2
296.564	9235.54
296.631	9240.98
296.698	9232.98
296.765	9249.84
296.832	9238.14
296.899	9223.31
296.965	9245.5
297.032	9227.88
297.099	9242.66
297.166	9249.6
297.233	9243.96
297.299	9235.49
297.366	9231.44
297.433	9229.66
297.5	9234.67
297.566	9245.89
297.633	9243.39
297.7	9246.76
297.767	9253.79
297.833	9258.99
297.9	9258.12
297.967	9235.25
298.033	9244.45
298.1	9271.03
298.167	9265.35
298.234	9272.86
298.3	9285.95
298.367	9280.8
298.434	9288.65
298.5	9279.21
298.567	9271.41
298.634	9273.39
298.7	9295.1
298.767	9300.3
298.834	9320.09
298.9	9311.04
298.967	9297.65
299.033	9306.22
299.1	9314.31
299.167	9330.59
299.233	9327.07
299.3	9344.65
299.366	9367.23
299.433	9379.85
299.5	9360.82
299.566	9363.14
299.633	9378.88
299.699	9391.64
299.766	9386.01
299.832	9390.87
299.899	9402.62
299.965	9418.75
300.032	9419.14
300.099	9422.94
300.165	9424.44
300.232	9421.84
300.298	9429.68
300.365	9445.48
300.431	9446.54
300.498	9444.85
300.564	9446.54
300.631	9462.19
300.697	9472.45
300.763	9471.53
300.83	9467.44
300.896	9476.15
300.963	9487.47
301.029	9495.9
301.096	9496.72
301.162	9508.9
301.229	9506.78
301.295	9493.49
301.361	9496.86
301.428	9505.34
301.494	9495.51
301.561	9499.7
301.627	9499.12
301.693	9503.22
301.76	9498.55
301.826	9496.86
301.892	9507.79
301.959	9514.49
302.025	9509.48
302.092	9503.51
302.158	9502.93
302.224	9510.2
302.291	9498.84
302.357	9491.66
302.423	9477.55
302.49	9466.91
302.556	9475.62
302.622	9470.57
302.688	9480.25
302.755	9493.54
302.821	9498.84
302.887	9509.58
302.954	9506.78
303.02	9512.95
303.086	9517.67
303.152	9525.23
303.219	9517.09
303.285	9516.61
303.351	9519.98
303.417	9521.57
303.483	9508.28
303.55	9511.21
303.616	9505.39
303.682	9507.65
303.748	9504.52
303.815	9519.64
303.881	9529.56
303.947	9518.44
304.013	9522.63
304.079	9519.02
304.145	9498.69
304.212	9495.47
304.278	9484.78
304.344	9480.78
304.41	9470.47
304.476	9459.88
304.542	9450.87
304.608	9454.77
304.674	9444.85
304.741	9440.71
304.807	9441.29
304.873	9449.43
304.939	9461.95
305.005	9448.03
305.071	9447.6
305.137	9445.53
305.203	9423.71
305.269	9421.3
305.335	9433.3
305.401	9432.19
305.467	9428.62
305.533	9429.88
305.599	9436.81
305.666	9445.53
305.732	9445.48
305.798	9454.1
305.864	9480.2
305.93	9485.79
305.996	9490.7
306.062	9490.31
306.128	9487.67
306.194	9480.1
306.259	9482.08
306.325	9468.79
306.391	9473.31
306.457	9479.48
306.523	9486.85
306.589	9508.18
306.655	9503.12
306.721	9483.96
306.787	9469.7
306.853	9480.3
306.919	9470.43
306.985	9465.95
307.051	9450.83
307.117	9442.3
307.183	9431.57
307.248	9401.71
307.314	9403.78
307.38	9406.33
307.446	9411.29
307.512	9395.26
307.578	9396.17
307.644	9383.84
307.709	9383.41
307.775	9382.16
307.841	9379.61
307.907	9371.61
307.973	9354.23
308.039	9351.05
308.104	9356.63
308.17	9358.85
308.236	9351.72
308.302	9355.43
308.368	9338.72
308.433	9342.09
308.499	9340.94
308.565	9334.97
308.631	9339.54
308.696	9315.95
308.762	9298.08
308.828	9293.94
308.894	9280.8
308.959	9261.2
309.025	9257.16
309.091	9258.17
309.156	9246.76
309.222	9245.12
309.288	9233.85
309.354	9211.71
309.419	9211.08
309.485	9195.05
309.551	9196.25
309.616	9173.09
309.682	9166.16
309.748	9155.61
309.813	9149.07
309.879	9145.79
309.945	9138.86
310.01	9128.55
310.076	9134.72
310.141	9131.88
310.207	9114.06
310.273	9119.65
310.338	9124.12
310.404	9104.34
310.469	9092.59
310.535	9083.01
310.601	9061.78
310.666	9065.63
310.732	9071.6
310.797	9054.6
310.863	9046.27
310.928	9040.98
310.994	9038.43
311.059	9033.9
311.125	9039.53
311.191	9048.78
311.256	9038.14
311.322	9044.54
311.387	9030.24
311.453	9224.2
311.518	9200.81
311.584	9195.27
311.649	9192.43
311.715	9177.79
311.78	9185.59
311.846	9173.46
311.911	9181.4
311.976	9183.04
312.042	9167.35
312.107	9157.14
312.173	9148.28
312.238	9142.94
312.304	9137.07
312.369	9134.66
312.434	9124.17
312.5	9110.83
312.565	9081.37
312.631	9076.65
312.696	9059.42
312.761	9057.3
312.827	8848.13
312.892	8882.46
312.958	8884.86
313.023	8880.63
313.088	8883.18
313.154	8865.47
313.219	8856.03
313.284	8841.2
313.35	8840.87
313.415	8831.05
313.48	8828.3
313.546	8832.25
313.611	8839.04
313.676	8830.18
313.741	8823.97
313.807	8833.99
313.872	8838.46
313.937	8847.27
314.003	8858.97
314.068	8864.79
314.133	8869.8
314.198	8857.72
314.264	8837.4
314.329	8822.96
314.394	8816.41
314.459	8809.77
314.525	8824.07
314.59	8817.66
314.655	8808.9
314.72	8810.16
314.785	8810.59
314.851	8806.59
314.916	8794.51
314.981	8781.32
315.046	8769.48
315.111	8755.72
315.176	8743.35
315.242	8744.36
315.307	8734.64
315.372	8711.87
315.437	8696.95
315.502	8692.38
315.567	8708.31
315.632	8697.43
315.698	8698.92
315.763	8695.94
315.828	8690.11
315.893	8685.64
315.958	8681.84
316.023	8678.18
316.088	8655.94
316.153	8637.9
316.218	8623.56
316.283	8601.13
316.348	8583.14
316.413	8580.3
316.479	8565.67
316.544	8522.9
316.609	8492.19
316.674	8459.48
316.739	8423.01
316.804	8392.7
316.869	8349.06
316.934	8304.69
316.999	8267.26
317.064	8215.45
317.129	8171.14
317.194	8130.87
317.259	8088.87
317.324	8037.31
317.389	7992.05
317.454	7950.49
317.518	7917.35
317.583	7885.65
317.648	7861.85
317.713	7827.22
317.778	7770.42
317.843	7738.87
317.908	7707.96
317.973	7666.5
318.038	7639.58
318.103	7604.77
318.168	7564.2
318.233	7530.16
318.297	7481.65
318.362	7449.15
318.427	7409.75
318.492	7382.82
318.557	7332.85
318.622	7300.2
318.687	7274.35
318.751	7226.21
318.816	7192.85
318.881	7155.08
318.946	7106.83
319.011	7061.32
319.075	7010.49
319.14	6975.08
319.205	6931.7
319.27	6895.24
319.335	6851.96
319.399	6810.06
319.464	6780.57
319.529	6734.71
319.594	6698.49
319.658	6667.9
319.723	6623.77
319.788	6595.25
319.853	6537.81
319.917	6511.22
319.982	6455.76
320.047	6419.18
320.112	6391.96
320.176	6345.68
320.241	6314.14
320.306	6279.68
320.37	6238.02
320.435	6210.9
320.5	6178.27
320.564	6137.24
320.629	6097.37
320.694	6061.82
320.758	6016.81
320.823	5970.52
320.888	5942.98
320.952	5895.83
321.017	5849.35
321.082	5808.73
321.146	5773.18
321.211	5742.02
321.275	5698.14
321.34	5656.92
321.405	5609.26
321.469	5566.88
321.534	5519.24
321.598	5467.17
321.663	5439.17
321.727	5403.37
321.792	5355.58
321.857	5308.28
321.921	5269.56
321.986	5226.2
322.05	5172.74
322.115	5133.7
322.179	5091.26
322.244	5030.68
322.308	4994.28
322.373	4951.09
322.437	4909.24
322.502	4883.08
322.566	4839.7
322.631	4802.59
322.695	4759.38
322.76	4721.37
322.824	4687.58
322.889	4649.39
322.953	4603.37
323.018	4535.6
323.082	4475.8
323.146	4420.27
323.211	4370.43
323.275	4323.08
323.34	4280.13
323.404	4245.8
323.468	4200.7
323.533	4159.83
323.597	4120.45
323.662	4071.02
323.726	4037.56
323.79	3989.71
323.855	3923.92
323.919	3875.99
323.983	3833.84
324.048	3774.59
324.112	3886.94
324.177	3753.45
324.241	3556.2
324.305	3363.3
324.37	3175.32
324.434	2992.89
324.498	2955.08
324.562	2907.71
324.627	2853
324.691	2795.99
324.755	2730.04
324.82	2656.76
324.884	2580.47
324.948	2507.79
325.012	2415.82
325.077	2294.44
