Data from 20250630_urea_2M_MAYP1162681_18-12-27-133.txt Node
Date: Mon Jun 30 18:12:27 BST 2025
User: adleo
Spectrometer: MAYP116268
Trigger mode: 0
Integration Time (sec): 1.000000E0
Scans to average: 1
Electric dark correction enabled: true
Nonlinearity correction enabled: true
Boxcar width: 10
XAxis mode: Wavelengths
Number of Pixels in Spectrum: 2068
>>>>>Begin Spectral Data<<<<<
179.565	1101.93
179.642	1150.36
179.718	1187.43
179.795	1223.19
179.871	1255.84
179.948	1269.33
180.024	1288.86
180.101	1309.04
180.177	1321.33
180.254	1342.41
180.33	1360.96
180.407	1409.76
180.483	1498.12
180.56	1579.98
180.636	1657.41
180.712	1644.01
180.789	1652.75
180.865	1663.86
180.942	1674.08
181.018	1683.91
181.095	1696.5
181.171	1700.73
181.248	1698.5
181.324	1715.18
181.4	1721.12
181.477	1726.44
181.553	1741.6
181.63	1759.75
181.706	1773.49
181.782	1782.42
181.859	1780.28
181.935	1784.41
182.011	1780.47
182.088	1792.87
182.164	1810.84
182.24	1820.63
182.317	1828.38
182.393	1825.38
182.469	1836.55
182.546	1848.91
182.622	1853.33
182.698	1848.29
182.775	1862.08
182.851	1878.43
182.927	1871.3
183.003	1865.78
183.08	1860.6
183.156	1868.26
183.232	1865.21
183.308	1856.18
183.385	1864.07
183.461	1882.99
183.537	1887.6
183.613	1896.16
183.69	1888.94
183.766	1880.09
183.842	1889.84
183.918	1896.44
183.995	1911.13
184.071	1915.55
184.147	1909.61
184.223	1898.82
184.299	1910.76
184.375	1899.54
184.452	1904.58
184.528	1955.08
184.604	1965.25
184.68	1979.04
184.756	1985.41
184.832	1989.17
184.908	1994.82
184.985	1992.54
185.061	1975.52
185.137	1981.99
185.213	1970.39
185.289	1970.58
185.365	1963.4
185.441	1961.78
185.517	1972.82
185.593	1970.01
185.669	1965.5
185.745	1973.06
185.822	1988.03
185.898	1979.47
185.974	1987.83
186.05	1982.08
186.126	1945.27
186.202	1940.09
186.278	1935.19
186.354	1927.11
186.43	1932.53
186.506	1929.68
186.582	1928.97
186.658	1938.14
186.734	1917.61
186.81	1921.41
186.886	1925.54
186.962	1932.53
187.038	1927.59
187.114	1921.16
187.19	1926.73
187.266	1918.46
187.341	1921.36
187.417	1914.37
187.493	1915.18
187.569	1918.51
187.645	1910.05
187.721	1896.92
187.797	1904.34
187.873	1909.04
187.949	1902.63
188.025	1896.59
188.101	1898.73
188.176	1904.67
188.252	1899.87
188.328	1912.94
188.404	1914.22
188.48	1909.09
188.556	1903.81
188.632	1903.33
188.707	1903.67
188.783	1904
188.859	1900.06
188.935	1889.12
189.011	1896.96
189.086	1893.11
189.162	1885.27
189.238	1889.93
189.314	1890.02
189.39	1884.03
189.465	1875.62
189.541	1890.83
189.617	1877.52
189.693	1872.29
189.768	1876.1
189.844	1897.83
189.92	1887.33
189.996	1893.46
190.071	1905.4
190.147	1909.34
190.223	1920.37
190.298	1914.95
190.374	1899.5
190.45	1911.29
190.526	1920.56
190.601	1915.66
190.677	1914.52
190.753	1939.02
190.828	1939.45
190.904	1953.9
190.98	1969.07
191.055	1980.2
191.131	1972.87
191.207	1993.55
191.282	2004.82
191.358	1995.07
191.433	1981.33
191.509	1994.73
191.585	1992.16
191.66	1993.3
191.736	1998.1
191.811	1988.07
191.887	2001.34
191.963	2022.64
192.038	2026.68
192.114	2027.54
192.189	2032.68
192.265	2028.26
192.34	2008.32
192.416	2006.18
192.491	2001.76
192.567	2004.85
192.642	2007.14
192.718	2005.71
192.793	1992.68
192.869	1985.45
192.944	1987.97
193.02	1995.2
193.095	1995.06
193.171	2001.81
193.246	2001
193.322	1998.25
193.397	1996.96
193.473	1985.12
193.548	1969.57
193.624	1974.42
193.699	1969.95
193.775	1983.7
193.85	1989.07
193.925	1996.63
194.001	1997.2
194.076	1990.02
194.152	1980.27
194.227	1974.46
194.302	1966.05
194.378	1970.71
194.453	1968.52
194.529	1979.98
194.604	1965.29
194.679	1961.49
194.755	1943.19
194.83	1954.46
194.905	1952.08
194.981	1960.07
195.056	1951.14
195.131	1957.03
195.207	1954.84
195.282	1946.76
195.357	1928.83
195.433	1942.05
195.508	1932.49
195.583	1937.67
195.659	1951.94
195.734	1955.79
195.809	1954.94
195.884	1963.68
195.96	1963.73
196.035	1981.08
196.11	1975.47
196.185	1985.08
196.261	1990.5
196.336	2018.69
196.411	2003.09
196.486	2007.89
196.561	2003.42
196.637	2015.26
196.712	2027.06
196.787	2029.58
196.862	2044.98
196.937	2052.07
197.013	2057.68
197.088	2068.81
197.163	2090.41
197.238	2107.07
197.313	2108.97
197.388	2120.2
197.464	2150.03
197.539	2161.26
197.614	2155.88
197.689	2171.16
197.764	2188.9
197.839	2207.17
197.914	2201.08
197.989	2223.63
198.065	2237.91
198.14	2282.66
198.215	2306.59
198.29	2320.4
198.365	2334.82
198.44	2346.1
198.515	2371.51
198.59	2385.6
198.665	2407.59
198.74	2415.02
198.815	2412.16
198.89	2433.44
198.965	2464.49
199.04	2462.15
199.115	2475.82
199.19	2513.33
199.265	2515.28
199.34	2524.52
199.415	2553.82
199.49	2577.62
199.565	2585.05
199.64	2608.72
199.715	2608.86
199.79	2618.39
199.865	2622.77
199.94	2619.63
200.015	2647.02
200.09	2655.83
200.165	2661.12
200.24	2666.41
200.315	2703.83
200.39	2720.65
200.464	2725.03
200.539	2727.13
200.614	2739.18
200.689	2759
200.764	2766.34
200.839	2781.29
200.914	2786.63
200.989	2777.9
201.063	2786.91
201.138	2773.2
201.213	2770.62
201.288	2749.09
201.363	2747
201.438	2748.57
201.512	2764.52
201.587	2747.46
201.662	2749.42
201.737	2761.19
201.812	2770.67
201.886	2741.91
201.961	2747.4
202.036	2737.35
202.111	2730.53
202.186	2703.68
202.26	2690.14
202.335	2669.99
202.41	2665.7
202.485	2647.61
202.559	2629.79
202.634	2606.64
202.709	2614.59
202.784	2598.16
202.858	2602.54
202.933	2587.92
203.008	2583.54
203.082	2565.16
203.157	2566.64
203.232	2526.65
203.306	2507.59
203.381	2476.21
203.456	2452.97
203.53	2434.29
203.605	2416.78
203.68	2395.97
203.754	2388.4
203.829	2371.26
203.904	2353.75
203.978	2341.89
204.053	2347.46
204.127	2336.28
204.202	2335.14
204.277	2319.81
204.351	2314.96
204.426	2306.34
204.5	2300.34
204.575	2265.66
204.65	2274.84
204.724	2266.99
204.799	2275.74
204.873	2270.83
204.948	2270.83
205.022	2258.7
205.097	2252.51
205.171	2264.79
205.246	2272.74
205.32	2275.07
205.395	2277.02
205.469	2265.6
205.544	2271.98
205.618	2256.37
205.693	2267.27
205.767	2256.61
205.842	2275.27
205.916	2268.47
205.991	2261.95
206.065	2265.42
206.14	2280.07
206.214	2278.35
206.289	2273.36
206.363	2283.68
206.438	2284.97
206.512	2293.68
206.586	2312.62
206.661	2321.19
206.735	2299.12
206.81	2298.21
206.884	2310.58
206.958	2300.88
207.033	2316.76
207.107	2320.19
207.181	2348.14
207.256	2340.62
207.33	2359.89
207.405	2370.66
207.479	2389.55
207.553	2394.55
207.628	2381.42
207.702	2392.7
207.776	2382.56
207.851	2383.75
207.925	2398.51
207.999	2398.65
208.073	2393.66
208.148	2397.75
208.222	2382.09
208.296	2412.3
208.371	2428.54
208.445	2437.78
208.519	2461.39
208.593	2473.72
208.668	2472.1
208.742	2475.58
208.816	2478.76
208.89	2488.96
208.965	2486.38
209.039	2492.77
209.113	2510.2
209.187	2528.18
209.261	2525.33
209.336	2547.99
209.41	2568.23
209.484	2566.8
209.558	2587.71
209.632	2600.38
209.707	2611.24
209.781	2632.29
209.855	2649.3
209.929	2664.79
210.003	2672.46
210.077	2674.6
210.151	2719.23
210.226	2751.21
210.3	2780.21
210.374	2802.07
210.448	2806.74
210.522	2821.61
210.596	2832.57
210.67	2840.19
210.744	2885.76
210.818	2918.06
210.892	2938.51
210.966	2934.42
211.041	2953.05
211.115	2952.19
211.189	2977.84
211.263	2997.57
211.337	3008.34
211.411	3026.51
211.485	3027.23
211.559	3041.29
211.633	3051.2
211.707	3031.25
211.781	3046.05
211.855	3019.43
211.929	3020.96
212.003	3014.34
212.077	3032.08
212.151	3054.93
212.225	3077.77
212.299	3081.21
212.373	3084.02
212.447	3099.77
212.52	3144.61
212.594	3169.47
212.668	3199.61
212.742	3207.43
212.816	3223.9
212.89	3247.99
212.964	3273.72
213.038	3305.8
213.112	3351.67
213.186	3397.77
213.26	3414.41
213.333	3411.55
213.407	3457.6
213.481	3509.23
213.555	3573.61
213.629	3615.7
213.703	3657.21
213.777	3714.41
213.85	3755.45
213.924	3847.94
213.998	3912.39
214.072	3971.54
214.146	4033.27
214.219	4110.26
214.293	4194.93
214.367	4276.04
214.441	4372.49
214.515	4453.32
214.588	4528.79
214.662	4593.44
214.736	4672.79
214.81	4785.52
214.883	4903.92
214.957	5006.43
215.031	5110.35
215.105	5199.09
215.178	5306.1
215.252	5419.16
215.326	5521.95
215.4	5634.98
215.473	5728.33
215.547	5844.78
215.621	5975.36
215.694	6118.82
215.768	6241.32
215.842	6368.76
215.915	6505.18
215.989	6628.46
216.063	6774.51
216.136	6924.29
216.21	7087.96
216.284	7263.13
216.357	7422.41
216.431	7580.19
216.504	7748.22
216.578	7933.86
216.652	8114.41
216.725	8281.24
216.799	8458.3
216.873	8625.11
216.946	8803.96
217.02	8969.7
217.093	9137.7
217.167	9289.02
217.24	9449.32
217.314	9620.11
217.387	9787.97
217.461	9952.87
217.535	10134.16
217.608	10297.36
217.682	10468.23
217.755	10647.12
217.829	10811.38
217.902	10986.29
217.976	11154.37
218.049	11319.94
218.123	11477.06
218.196	11653.4
218.27	11823.48
218.343	11981.29
218.417	12164.82
218.49	12331.26
218.563	12518.28
218.637	12689.3
218.71	12882.3
218.784	13057.04
218.857	13234.62
218.931	13414.66
219.004	13592.63
219.077	13769.5
219.151	13931.51
219.224	14097.24
219.298	14258.48
219.371	14417.27
219.444	14556.77
219.518	14717.44
219.591	14880.56
219.665	15061.75
219.738	15211.85
219.811	15353.42
219.885	15511.91
219.958	15661.43
220.031	15807.04
220.105	15945.33
220.178	16087.28
220.251	16213.55
220.325	16355.4
220.398	16488.86
220.471	16626.22
220.544	16760.93
220.618	16874.23
220.691	17010.34
220.764	17133.96
220.838	17261.82
220.911	17388.32
220.984	17539.07
221.057	17668.52
221.131	17779.75
221.204	17861.96
221.277	17993.72
221.35	18134.68
221.424	18237.38
221.497	18336.94
221.57	18439.3
221.643	18554.76
221.716	18662.23
221.79	18762.41
221.863	18856.48
221.936	18957.01
222.009	19041.24
222.082	19131.74
222.155	19221.33
222.229	19315.93
222.302	19404.84
222.375	19483.53
222.448	19564.11
222.521	19642.99
222.594	19712.24
222.667	19781.2
222.74	19872.24
222.814	19939.32
222.887	20007.37
222.96	20089.73
223.033	20174.45
223.106	20245.58
223.179	20309.53
223.252	20376.37
223.325	20442.69
223.398	20501.91
223.471	20550.4
223.544	20613.67
223.617	20663.41
223.69	20724.13
223.763	20776.47
223.837	20845.58
223.91	20901.44
223.983	20939.23
224.056	20972.72
224.129	21027.95
224.202	21081.35
224.275	21117.45
224.348	21151.14
224.42	21169.55
224.493	21186.18
224.566	21209.22
224.639	21258.04
224.712	21291.78
224.785	21324.08
224.858	21355.6
224.931	21379.94
225.004	21410.3
225.077	21440.38
225.15	21459.42
225.223	21490.99
225.296	21545.07
225.369	21547.34
225.442	21568.4
225.514	21594.77
225.587	21618.29
225.66	21632.51
225.733	21663.5
225.806	21687.41
225.879	21702.06
225.952	21727.27
226.025	21765.93
226.097	21804.34
226.17	21818.32
226.243	21823.58
226.316	21846.57
226.389	21864.89
226.461	21894.44
226.534	21917.72
226.607	21933.72
226.68	21963.03
226.753	21971.61
226.825	21947.46
226.898	21978.31
226.971	21989.92
227.044	22013.4
227.117	22028.15
227.189	22057.31
227.262	22083.49
227.335	22098.67
227.407	22119.16
227.48	22132.61
227.553	22151.56
227.626	22158.69
227.698	22163.66
227.771	22167.42
227.844	22157.73
227.916	22163.17
227.989	22150.54
228.062	22144.13
228.134	22165.87
228.207	22176.53
228.28	22188.15
228.352	22196.73
228.425	22198.08
228.498	22217.17
228.57	22211.38
228.643	22230.28
228.716	22231.24
228.788	22214.37
228.861	22214.76
228.934	22220.11
229.006	22218.8
229.079	22207.04
229.151	22196.24
229.224	22188.24
229.296	22198.75
229.369	22237.99
229.442	22251.68
229.514	22252.84
229.587	22276.27
229.659	22254.14
229.732	22256.65
229.804	22257.66
229.877	22284.8
229.949	22301.29
230.022	22307.6
230.094	22317.01
230.167	22316.57
230.239	22302.59
230.312	22302.69
230.384	22314.11
230.457	22312.04
230.529	22311.65
230.602	22312.18
230.674	22321.01
230.747	22327.9
230.819	22333.64
230.892	22282.25
230.964	22281.04
231.037	22281.28
231.109	22272.89
231.181	22269.09
231.254	22254.77
231.326	22252.36
231.399	22227.48
231.471	22197.64
231.544	22168.33
231.616	22168.24
231.688	22152.38
231.761	22140.61
231.833	22123.6
231.905	22089.85
231.978	22069.22
232.05	22054.23
232.122	22049.89
232.195	22019.04
232.267	22018.85
232.339	22002.36
232.412	22011.95
232.484	21987.95
232.556	21962.3
232.629	21968.96
232.701	21962.01
232.773	21948.86
232.846	21916.94
232.918	21904.46
232.99	21908.12
233.062	21900.6
233.135	21876.16
233.207	21854.71
233.279	21839.96
233.351	21838.47
233.424	21815.91
233.496	21800.44
233.568	21796.25
233.64	21762.22
233.713	21752.48
233.785	21728.43
233.857	21705.77
233.929	21676.75
234.001	21674.63
234.074	21676.75
234.146	21630.91
234.218	21610.14
234.29	21584.21
234.362	21557.7
234.434	21536.88
234.507	21493.64
234.579	21457.06
234.651	21428.09
234.723	21413.05
234.795	21397.82
234.867	21370.44
234.939	21370.49
235.012	21347.45
235.084	21336.94
235.156	21322.82
235.228	21287.78
235.3	21272.02
235.372	21255.78
235.444	21241.37
235.516	21199.63
235.588	21175.43
235.66	21157.31
235.732	21132.34
235.804	21158.76
235.876	21149.79
235.948	21137.26
236.02	21114.61
236.092	21093.21
236.164	21082.95
236.236	21052.24
236.308	21022.27
236.38	20999.23
236.452	20963.95
236.524	20940.53
236.596	20922.5
236.668	20899.27
236.74	20878.11
236.812	20851.8
236.884	20830.55
236.956	20797.68
237.028	20751.22
237.1	20714.06
237.172	20697.34
237.244	20686.11
237.316	20621.09
237.388	20582.87
237.46	20532.46
237.532	20514.54
237.604	20476.66
237.675	20457.48
237.747	20432.56
237.819	20399.79
237.891	20365.96
237.963	20327.84
238.035	20291.12
238.107	20222.63
238.178	20209.77
238.25	20178.59
238.322	20167.31
238.394	20118.01
238.466	20081.05
238.538	20064.61
238.609	20037.14
238.681	19990.54
238.753	19944.95
238.825	19919.36
238.897	19887.8
238.968	19875.85
239.04	19838.07
239.112	19836.62
239.184	19789.78
239.255	19765.39
239.327	19729.15
239.399	19705.64
239.471	19687.42
239.542	19673.88
239.614	19658.85
239.686	19587.28
239.758	19569.93
239.829	19518.76
239.901	19505.89
239.973	19484.15
240.044	19456.35
240.116	19433.84
240.188	19388.93
240.259	19358.72
240.331	19316.45
240.403	19297.42
240.474	19253.18
240.546	19212.22
240.618	19162.1
240.689	19124.85
240.761	19085.05
240.833	19079.17
240.904	19043.89
240.976	19005.53
241.048	18971.03
241.119	18947.66
241.191	18931.61
241.262	18905.25
241.334	18867.47
241.405	18830.46
241.477	18797.31
241.549	18762.66
241.62	18725.45
241.692	18713.5
241.763	18693.36
241.835	18666.52
241.906	18629.07
241.978	18580.45
242.049	18564.02
242.121	18541.03
242.192	18520.6
242.264	18473.13
242.335	18417.71
242.407	18388.41
242.478	18344.13
242.55	18306.78
242.621	18261.43
242.693	18225.58
242.764	18192.52
242.836	18155.65
242.907	18117.53
242.979	18078.26
243.05	18047.56
243.122	18013.63
243.193	17972.43
243.264	17911.18
243.336	17872.29
243.407	17843.13
243.479	17827.52
243.55	17794.85
243.622	17767.57
243.693	17728.49
243.764	17716.44
243.836	17670.66
243.907	17632.58
243.978	17604.44
244.05	17582.37
244.121	17529.98
244.192	17507.72
244.264	17452.06
244.335	17418.42
244.407	17371.86
244.478	17341.21
244.549	17303.23
244.62	17258.7
244.692	17227.33
244.763	17209.98
244.834	17172.92
244.906	17136.1
244.977	17102.12
245.048	17079.76
245.119	17029.74
245.191	16990.22
245.262	16931.66
245.333	16916.09
245.405	16876.09
245.476	16843.46
245.547	16801.68
245.618	16783.99
245.689	16747.51
245.761	16715.89
245.832	16676.47
245.903	16648.18
245.974	16618.05
246.045	16581.33
246.117	16566.72
246.188	16517.51
246.259	16478.23
246.33	16440.4
246.401	16403.67
246.473	16361.21
246.544	16319.14
246.615	16289.01
246.686	16246.55
246.757	16226.55
246.828	16189.24
246.899	16177.48
246.97	16131.55
247.042	16090.15
247.113	16064.6
247.184	16048.89
247.255	16016.6
247.326	15998.19
247.397	15965.65
247.468	15942.27
247.539	15918.27
247.61	15876.24
247.681	15854.02
247.752	15833.83
247.823	15795.94
247.894	15773.91
247.965	15736.03
248.037	15697.13
248.108	15654.04
248.179	15620.97
248.25	15586.22
248.321	15555.71
248.392	15503.31
248.463	15496.9
248.534	15468.46
248.605	15443.64
248.675	15411.06
248.746	15387.2
248.817	15358.86
248.888	15331.09
248.959	15278.31
249.03	15249.73
249.101	15214.3
249.172	15183.64
249.243	15128.3
249.314	15119.48
249.385	15085.93
249.456	15056.82
249.527	15032.24
249.598	15016.76
249.669	14997.24
249.739	14980.18
249.81	14959.93
249.881	14926.24
249.952	14896.54
250.023	14864.68
250.094	14824.53
250.165	14783.36
250.235	14753.04
250.306	14728.12
250.377	14693.17
250.448	14669.36
250.519	14622.84
250.59	14607.75
250.66	14574.88
250.731	14565.77
250.802	14536.41
250.873	14513.22
250.944	14496.11
251.014	14455.76
251.085	14450.85
251.156	14425.83
251.227	14406.11
251.297	14385.58
251.368	14375.12
251.439	14354
251.51	14346.34
251.58	14311.82
251.651	14280.73
251.722	14266.65
251.792	14218.69
251.863	14200.03
251.934	14195.69
252.005	14198.83
252.075	14180.12
252.146	14172.03
252.217	14159.68
252.287	14137.27
252.358	14109.84
252.429	14102.71
252.499	14081.45
252.57	14049.53
252.641	14043.27
252.711	14019.12
252.782	13984.5
252.852	13975.15
252.923	13950.76
252.994	13927.38
253.064	13915.23
253.135	13886.98
253.205	13855.41
253.276	13854.49
253.347	13842.54
253.417	13809.03
253.488	13777.46
253.558	13739.62
253.629	13699.22
253.699	13679.45
253.77	13665.67
253.841	13640.89
253.911	13617.36
253.982	13591.67
254.052	13581.21
254.123	13552.86
254.193	13527.22
254.264	13542.4
254.334	13506.73
254.405	13473.66
254.475	13434.52
254.546	13406.41
254.616	13396.19
254.687	13384.14
254.757	13370.5
254.827	13347.5
254.898	13326.97
254.968	13307.83
255.039	13285.94
255.109	13285.7
255.18	13252.3
255.25	13212.72
255.321	13203.12
255.391	13172.42
255.461	13166.78
255.532	13114.28
255.602	13084.05
255.673	13045.44
255.743	13006.97
255.813	12968.65
255.884	12958.72
255.954	12949.75
256.024	12944.79
256.095	12923.43
256.165	12890.36
256.235	12861.73
256.306	12834.2
256.376	12819.6
256.446	12802.77
256.517	12793.42
256.587	12778.67
256.657	12771.58
256.728	12756.16
256.798	12732.83
256.868	12697.06
256.938	12673.39
257.009	12666.74
257.079	12653.82
257.149	12658.2
257.219	12623.26
257.29	12603.64
257.36	12564.06
257.43	12550.85
257.5	12513.45
257.571	12489.68
257.641	12469.24
257.711	12435.36
257.781	12417.47
257.852	12408.07
257.922	12367.87
257.992	12341.02
258.062	12311.86
258.132	12287.47
258.202	12258.21
258.273	12233.14
258.343	12235.31
258.413	12208.94
258.483	12188.79
258.553	12155.15
258.623	12123.19
258.693	12109.12
258.764	12105.07
258.834	12101.98
258.904	12084.34
258.974	12061.64
259.044	12040.72
259.114	12030.55
259.184	12022.88
259.254	12000.37
259.324	11962.53
259.394	11954.97
259.464	11953.71
259.535	11937.66
259.605	11914.57
259.675	11891.1
259.745	11880.16
259.815	11855.43
259.885	11832.68
259.955	11837.02
260.025	11822.8
260.095	11810.99
260.165	11791.86
260.235	11793.4
260.305	11768.43
260.375	11735.8
260.445	11742.02
260.515	11737.83
260.585	11730.93
260.655	11710.06
260.725	11706.26
260.795	11691.51
260.865	11689.44
260.934	11659.6
261.004	11644.9
261.074	11623.55
261.144	11623.69
261.214	11615.84
261.284	11594.15
261.354	11581.09
261.424	11552.6
261.494	11543.2
261.564	11519.35
261.634	11512.74
261.703	11470.62
261.773	11455.92
261.843	11441.94
261.913	11413.65
261.983	11374.85
262.053	11357.5
262.123	11333.12
262.192	11301.94
262.262	11293.26
262.332	11264.2
262.402	11252.44
262.472	11236.44
262.541	11198.71
262.611	11181.55
262.681	11153.02
262.751	11144.01
262.821	11125.21
262.89	11099.53
262.96	11088.63
263.03	11092.54
263.1	11075.91
263.169	11060.63
263.239	11054.08
263.309	11060.83
263.379	11046.56
263.448	11035.29
263.518	11019.96
263.588	11004.3
263.657	11003.67
263.727	10996.83
263.797	10976.54
263.867	10958.18
263.936	10929.8
264.006	10932.64
264.076	10923.15
264.145	10904.84
264.215	10878.43
264.285	10874.72
264.354	10842.68
264.424	10823.16
264.494	10788.08
264.563	10765.29
264.633	10771.46
264.702	10755.41
264.772	10713.05
264.842	10696.81
264.911	10693.83
264.981	10662.99
265.05	10651.52
265.12	10628.29
265.19	10617.31
265.259	10614.85
265.329	10603.96
265.398	10589.36
265.468	10596.64
265.537	10573.03
265.607	10562.81
265.676	10559.92
265.746	10548.6
265.815	10544.41
265.885	10525.18
265.955	10505.09
266.024	10489.29
266.094	10447.03
266.163	10444.67
266.232	10445.44
266.302	10426.27
266.371	10413.36
266.441	10407.91
266.51	10403.19
266.58	10386.38
266.649	10365.37
266.719	10368.02
266.788	10363.3
266.858	10362.04
266.927	10329.28
266.996	10316.71
267.066	10309.67
267.135	10281.4
267.205	10275.47
267.274	10265.64
267.343	10267.04
267.413	10249.31
267.482	10242.81
267.552	10246.61
267.621	10210.58
267.69	10180.71
267.76	10176.95
267.829	10161.06
267.898	10143.52
267.968	10125.36
268.037	10129.16
268.106	10125.21
268.176	10087.78
268.245	10067.31
268.314	10050.98
268.384	10044.86
268.453	10034.84
268.522	10023.85
268.592	10030.98
268.661	10007.23
268.73	9996.44
268.799	9973.9
268.869	9985.8
268.938	9959.26
269.007	9937.63
269.076	9935.08
269.146	9936.76
269.215	9922.75
269.284	9926.94
269.353	9907.19
269.422	9889.56
269.492	9862.3
269.561	9816.59
269.63	9810.76
269.699	9798.28
269.768	9792.07
269.838	9783.69
269.907	9783.93
269.976	9761.15
270.045	9724.45
270.114	9722.28
270.183	9702.73
270.253	9692.37
270.322	9659.33
270.391	9652.06
270.46	9659.24
270.529	9649.99
270.598	9650.66
270.667	9639.78
270.736	9615.84
270.806	9610.35
270.875	9610.74
270.944	9596.24
271.013	9616.13
271.082	9608.81
271.151	9600.67
271.22	9575.24
271.289	9564.94
271.358	9546.2
271.427	9538.88
271.496	9530.51
271.565	9516.73
271.634	9512.35
271.703	9514.66
271.772	9515.72
271.841	9504.31
271.91	9481.58
271.979	9478.59
272.048	9449.17
272.117	9446.95
272.186	9432.26
272.255	9436.16
272.324	9436.74
272.393	9437.66
272.462	9421.19
272.531	9414.64
272.6	9397.83
272.669	9396.53
272.738	9380.88
272.807	9373.13
272.876	9353.72
272.945	9378.81
273.013	9376.64
273.082	9382.71
273.151	9364.27
273.22	9361.04
273.289	9349.73
273.358	9352.43
273.427	9338.65
273.496	9340.24
273.564	9335.81
273.633	9342.51
273.702	9318.67
273.771	9305.38
273.84	9294.93
273.909	9286.84
273.977	9282.36
274.046	9273.99
274.115	9280.73
274.184	9261.28
274.253	9250.69
274.322	9258.68
274.39	9229.59
274.459	9216.93
274.528	9184.38
274.597	9172.35
274.665	9167.05
274.734	9171.77
274.803	9161.75
274.872	9154.67
274.94	9137.01
275.009	9181.17
275.078	9160.86
275.147	9164.18
275.215	9154.4
275.284	9165.81
275.353	9155.94
275.421	9129.95
275.49	9144.25
275.559	9128.26
275.627	9126.91
275.696	9120.75
275.765	9120.22
275.833	9109.39
275.902	9100.58
275.971	9111.7
276.039	9124.27
276.108	9123.02
276.177	9127.2
276.245	9121.38
276.314	9114.73
276.383	9119.79
276.451	9067.1
276.52	9068.35
276.588	9072.39
276.657	9075.38
276.725	9062.38
276.794	9062.19
276.863	9067.19
276.931	9045.62
277	9050.82
277.068	9055.4
277.137	9066.57
277.205	9056.99
277.274	9074.6
277.342	9081.97
277.411	9066.76
277.48	9058.86
277.548	9047.31
277.617	9033.54
277.685	9025.45
277.754	9024.59
277.822	9016.45
277.89	9023.82
277.959	9018.09
278.027	9000.81
278.096	8991.03
278.164	9010.15
278.233	9003.02
278.301	8997.34
278.37	8999.17
278.438	8986.22
278.507	8981.51
278.575	8959.99
278.643	8956.47
278.712	8937.84
278.78	8927.44
278.849	8933.61
278.917	8938.42
278.985	8935.58
279.054	8942.17
279.122	8946.36
279.191	8948.87
279.259	8946.41
279.327	8923.25
279.396	8937.79
279.464	8934.81
279.532	8937.99
279.601	8932.74
279.669	8927.2
279.737	8941.84
279.806	8944.29
279.874	8953.44
279.942	8955.7
280.011	8948.72
280.079	8952.62
280.147	8967.3
280.215	8971.54
280.284	8968.7
280.352	8952.57
280.42	8961.33
280.488	8955.85
280.557	8948.34
280.625	8949.39
280.693	8951.85
280.761	8955.22
280.83	8935.1
280.898	8944.58
280.966	8930.33
281.034	8903.52
281.102	8889.94
281.171	8879.79
281.239	8886.57
281.307	8879.74
281.375	8871.89
281.443	8892.98
281.512	8892.45
281.58	8897.07
281.648	8878.1
281.716	8877.96
281.784	8876.9
281.852	8869.29
281.92	8863.56
281.989	8875.12
282.057	8859.71
282.125	8893.08
282.193	8896.98
282.261	8898.18
282.329	8892.21
282.397	8889.42
282.465	8890.29
282.533	8915.22
282.601	8901.89
282.67	8882.68
282.738	8874.11
282.806	8883.79
282.874	8876.76
282.942	8879.65
283.01	8870.93
283.078	8877.38
283.146	8868.72
283.214	8876.76
283.282	8875.46
283.35	8884.27
283.418	8876.28
283.486	8873.92
283.554	8837.47
283.622	8831.02
283.69	8830.06
283.758	8824.67
283.826	8836.12
283.894	8844.11
283.962	8855.14
284.03	8874.63
284.098	8874.06
284.165	8873.58
284.233	8871.99
284.301	8862.94
284.369	8851.58
284.437	8845.7
284.505	8843.78
284.573	8857.02
284.641	8839.54
284.709	8848.64
284.777	8833.38
284.845	8837.67
284.912	8845.42
284.98	8849.65
285.048	8837.81
285.116	8843.15
285.184	8855.28
285.252	8847.15
285.319	8832.61
285.387	8821.2
285.455	8805.13
285.523	8812.01
285.591	8800.99
285.659	8800.02
285.726	8811.43
285.794	8802.24
285.862	8798.34
285.93	8796.99
285.997	8794.11
286.065	8796.08
286.133	8785.49
286.201	8780.92
286.269	8764.45
286.336	8754.78
286.404	8748.91
286.472	8762.53
286.539	8739.24
286.607	8725.37
286.675	8725.85
286.743	8733.41
286.81	8725.9
286.878	8737.84
286.946	8728.55
287.013	8734.66
287.081	8733.75
287.149	8721.23
287.216	8736.49
287.284	8728.35
287.352	8727.58
287.419	8722.43
287.487	8735.48
287.555	8735.57
287.622	8738.51
287.69	8746.6
287.758	8759.3
287.825	8750.25
287.893	8734.95
287.96	8741.73
288.028	8746.5
288.096	8750.06
288.163	8746.88
288.231	8737.93
288.298	8732.15
288.366	8739.47
288.433	8732.88
288.501	8724.21
288.569	8727.54
288.636	8723.4
288.704	8741.11
288.771	8746.31
288.839	8739.95
288.906	8728.64
288.974	8743.66
289.041	8739.96
289.109	8733.65
289.176	8744
289.244	8746.99
289.311	8766.96
289.379	8777.12
289.446	8779.91
289.514	8780.29
289.581	8778.75
289.649	8780.97
289.716	8785.73
289.783	8784.1
289.851	8803.92
289.918	8807.44
289.986	8812.35
290.053	8814.37
290.121	8809.46
290.188	8810.08
290.255	8830.16
290.323	8830.83
290.39	8817.25
290.458	8822.02
290.525	8832.18
290.592	8823.03
290.66	8828.03
290.727	8816.87
290.794	8830.06
290.862	8829.67
290.929	8837.9
290.996	8836.94
291.064	8848.25
291.131	8856.05
291.198	8864.09
291.266	8867.12
291.333	8870.11
291.4	8881.61
291.468	8900.82
291.535	8895.96
291.602	8901.25
291.669	8901.21
291.737	8902.55
291.804	8905.11
291.871	8919.16
291.938	8928.36
292.006	8955.37
292.073	8972.7
292.14	8986.94
292.207	8981.94
292.275	8983.96
292.342	8988.63
292.409	9021.08
292.476	9039.9
292.543	9033.84
292.611	9039.18
292.678	9053.96
292.745	9078.75
292.812	9084.68
292.879	9075
292.946	9082.94
293.014	9095.55
293.081	9101.33
293.148	9115.92
293.215	9133.73
293.282	9132.29
293.349	9139.75
293.416	9117.65
293.484	9128.63
293.551	9138.74
293.618	9152.17
293.685	9177.11
293.752	9170.56
293.819	9160.35
293.886	9150.82
293.953	9155.73
294.02	9164.73
294.087	9171.86
294.154	9155.11
294.221	9166.33
294.288	9168.73
294.356	9184.91
294.423	9193.82
294.49	9188.09
294.557	9201.52
294.624	9189.15
294.691	9209.08
294.758	9209.27
294.825	9218.23
294.892	9209.42
294.959	9209.71
295.026	9216.5
295.093	9212.93
295.16	9218.95
295.226	9225.74
295.293	9250.49
295.36	9257.9
295.427	9267.92
295.494	9267.87
295.561	9284.24
295.628	9307.36
295.695	9317.81
295.762	9316.56
295.829	9324.69
295.896	9339.57
295.963	9344.1
296.03	9359.99
296.096	9364.71
296.163	9376.26
296.23	9393.69
296.297	9402.94
296.364	9404.58
296.431	9407.66
296.498	9403.9
296.564	9418.97
296.631	9421.09
296.698	9404.38
296.765	9422.53
296.832	9413.24
296.899	9400.39
296.965	9416.85
297.032	9398.65
297.099	9420.22
297.166	9431.25
297.233	9427.69
297.299	9425.18
297.366	9430.58
297.433	9423.93
297.5	9432.99
297.566	9430.19
297.633	9426.72
297.7	9437.13
297.767	9430.48
297.833	9432.26
297.9	9434.77
297.967	9419.55
298.033	9430.97
298.1	9460.87
298.167	9451.34
298.234	9453.17
298.3	9469.39
298.367	9464.15
298.434	9472.72
298.5	9462.94
298.567	9454.66
298.634	9448.25
298.7	9464.63
298.767	9468.91
298.834	9490.25
298.9	9483.6
298.967	9474.26
299.033	9485.19
299.1	9493.91
299.167	9510.67
299.233	9511.15
299.3	9523.28
299.366	9540.66
299.433	9555.88
299.5	9530.5
299.566	9538.93
299.633	9559.16
299.699	9570.43
299.766	9569.32
299.832	9567.92
299.899	9577.99
299.965	9594.55
300.032	9598.07
300.099	9603.37
300.165	9606.83
300.232	9598.12
300.298	9594.89
300.365	9615.65
300.431	9617.86
300.498	9613.19
300.564	9613.53
300.631	9630.43
300.697	9642.09
300.763	9643.63
300.83	9631.64
300.896	9643.34
300.963	9647.67
301.029	9643.34
301.096	9648.88
301.162	9662.31
301.229	9664.1
301.295	9648.68
301.361	9645.17
301.428	9648.78
301.494	9632.94
301.561	9632.79
301.627	9637.66
301.693	9646.47
301.76	9648.83
301.826	9642.28
301.892	9650.08
301.959	9657.64
302.025	9650.37
302.092	9643.39
302.158	9654.7
302.224	9663.13
302.291	9661.78
302.357	9658.8
302.423	9660.24
302.49	9643.67
302.556	9650.85
302.622	9649.6
302.688	9660.19
302.755	9676.43
302.821	9684.23
302.887	9697.47
302.954	9698.77
303.02	9707.1
303.086	9714.71
303.152	9704.74
303.219	9699.74
303.285	9701.66
303.351	9702.29
303.417	9708.07
303.483	9704.65
303.55	9691.5
303.616	9687.79
303.682	9679.36
303.748	9673.78
303.815	9684.71
303.881	9700.07
303.947	9686.3
304.013	9684.08
304.079	9676.28
304.145	9648.88
304.212	9643.53
304.278	9638.09
304.344	9632.65
304.41	9614.59
304.476	9603.8
304.542	9602.02
304.608	9605.2
304.674	9591.04
304.741	9588.92
304.807	9586.22
304.873	9590.17
304.939	9607.36
305.005	9594.02
305.071	9590.27
305.137	9594.46
305.203	9569.12
305.269	9564.74
305.335	9574.61
305.401	9565.51
305.467	9569.17
305.533	9586.46
305.599	9590.6
305.666	9590.12
305.732	9589.21
305.798	9601.2
305.864	9623.79
305.93	9628.94
305.996	9629.23
306.062	9628.36
306.128	9629.81
306.194	9616.08
306.259	9610.69
306.325	9600.67
306.391	9605.2
306.457	9613.48
306.523	9612.42
306.589	9635.58
306.655	9622.1
306.721	9601.97
306.787	9598.6
306.853	9611.84
306.919	9592
306.985	9586.66
307.051	9584.68
307.117	9577.12
307.183	9573.56
307.248	9539.07
307.314	9541.58
307.38	9535.8
307.446	9547.6
307.512	9539.17
307.578	9542.06
307.644	9540.13
307.709	9537.63
307.775	9536.67
307.841	9531.66
307.907	9531.61
307.973	9511.14
308.039	9517.35
308.104	9527.47
308.17	9524.82
308.236	9501.51
308.302	9509.02
308.368	9498.47
308.433	9497.56
308.499	9495.44
308.565	9481.19
308.631	9489.52
308.696	9473
308.762	9468.67
308.828	9457.44
308.894	9439.96
308.959	9420.61
309.025	9408.18
309.091	9406.4
309.156	9395.86
309.222	9394.99
309.288	9380.4
309.354	9358.92
309.419	9350.98
309.485	9334.56
309.551	9333.79
309.616	9323.1
309.682	9313.95
309.748	9308.46
309.813	9296.33
309.879	9284.48
309.945	9277.55
310.01	9267.68
310.076	9271.72
310.141	9269.22
310.207	9249.43
310.273	9249.52
310.338	9253.86
310.404	9242.69
310.469	9227.57
310.535	9217.21
310.601	9195.4
310.666	9200.94
310.732	9211.24
310.797	9197.42
310.863	9184.91
310.928	9174.51
310.994	9178.21
311.059	9175.37
311.125	9171.62
311.191	9187.7
311.256	9181.92
311.322	9191.55
311.387	9172.05
311.453	9434.47
311.518	9407.61
311.584	9412.52
311.649	9414.74
311.715	9405.01
311.78	9402.12
311.846	9390.04
311.911	9400.58
311.976	9409.25
312.042	9392.11
312.107	9376.8
312.173	9369.63
312.238	9364.57
312.304	9366.59
312.369	9355.23
312.434	9341.75
312.5	9335.01
312.565	9301.36
312.631	9301.88
312.696	9289.03
312.761	9293.12
312.827	9014.09
312.892	9052.03
312.958	9048.03
313.023	9045.72
313.088	9047.6
313.154	9036.24
313.219	9028.35
313.284	9010.68
313.35	9002.88
313.415	8993.01
313.48	8988.92
313.546	8992.58
313.611	8999.94
313.676	8988.05
313.741	8980.06
313.807	8992.29
313.872	8996.43
313.937	9000.42
314.003	9004.52
314.068	9002.88
314.133	9004.13
314.198	8998.79
314.264	8971.05
314.329	8956.56
314.394	8948.23
314.459	8935.53
314.525	8950.21
314.59	8951.07
314.655	8943.42
314.72	8942.99
314.785	8944.58
314.851	8938.9
314.916	8922.14
314.981	8906.79
315.046	8900.39
315.111	8894.56
315.176	8883.44
315.242	8882.09
315.307	8874.63
315.372	8863.03
315.437	8849.79
315.502	8841.22
315.567	8843.87
315.632	8833.47
315.698	8835.01
315.763	8831.31
315.828	8826.64
315.893	8825.39
315.958	8818.89
316.023	8810.76
316.088	8792.22
316.153	8771.92
316.218	8761.28
316.283	8742.27
316.348	8720.28
316.413	8716.62
316.479	8697.52
316.544	8659.74
316.609	8622.54
316.674	8585.68
316.739	8546.51
316.804	8513.79
316.869	8478.23
316.934	8440.45
316.999	8403.84
317.064	8352.98
317.129	8306.31
317.194	8267.62
317.259	8215.22
317.324	8158.89
317.389	8111.7
317.454	8071.15
317.518	8035.17
317.583	8006.02
317.648	7978.17
317.713	7947.19
317.778	7884.42
317.843	7853.69
317.908	7814.98
317.973	7779.53
318.038	7750.97
318.103	7718.27
318.168	7687.45
318.233	7653.79
318.297	7604.65
318.362	7567.15
318.427	7523.36
318.492	7499.22
318.557	7447.12
318.622	7414.14
318.687	7393.81
318.751	7347.39
318.816	7312.5
318.881	7275.44
318.946	7222.62
319.011	7181.05
319.075	7140.92
319.14	7106.18
319.205	7060.96
319.27	7023.87
319.335	6983.8
319.399	6943.35
319.464	6906.26
319.529	6854.57
319.594	6812.35
319.658	6778.48
319.723	6735.36
319.788	6711.63
319.853	6655.77
319.917	6629.46
319.982	6577.31
320.047	6539.7
320.112	6517.24
320.176	6470.38
320.241	6435.42
320.306	6406.33
320.37	6359.48
320.435	6323.19
320.5	6291.17
320.564	6250.04
320.629	6204.89
320.694	6165.15
320.758	6125.8
320.823	6081.13
320.888	6051.05
320.952	6005.71
321.017	5962.2
321.082	5921.38
321.146	5879.65
321.211	5841.95
321.275	5798.02
321.34	5752.42
321.405	5706.96
321.469	5661.88
321.534	5616.82
321.598	5564.7
321.663	5530.41
321.727	5497.72
321.792	5449.16
321.857	5406.64
321.921	5366.28
321.986	5328.24
322.05	5272.62
322.115	5232.55
322.179	5190.49
322.244	5135.69
322.308	5097.32
322.373	5051.58
322.437	5013.22
322.502	4991.18
322.566	4945.49
322.631	4910.49
322.695	4873.34
322.76	4827.76
322.824	4787.88
322.889	4746.96
322.953	4699.07
323.018	4636.31
323.082	4574.45
323.146	4525.98
323.211	4471.82
323.275	4423.36
323.34	4378.06
323.404	4341.67
323.468	4295.41
323.533	4249.84
323.597	4208.4
323.662	4161.06
323.726	4126.2
323.79	4079.21
323.855	4012.54
323.919	3966.51
323.983	3918.72
324.048	3854.19
324.112	3995.86
324.177	3865.98
324.241	3665.57
324.305	3473.63
324.37	3278.24
324.434	3093.9
324.498	3049.4
324.562	3001.8
324.627	2947.41
324.691	2892.87
324.755	2831.65
324.82	2757.91
324.884	2684.1
324.948	2608.89
325.012	2516.55
325.077	2397.21
