Data from 20250630_urea_2M_MAYP1162681_11-02-27-226.txt Node
Date: Tue Jul 01 11:02:27 BST 2025
User: adleo
Spectrometer: MAYP116268
Trigger mode: 0
Integration Time (sec): 1.000000E0
Scans to average: 1
Electric dark correction enabled: true
Nonlinearity correction enabled: true
Boxcar width: 10
XAxis mode: Wavelengths
Number of Pixels in Spectrum: 2068
>>>>>Begin Spectral Data<<<<<
179.565	1127.29
179.642	1179.54
179.718	1220.22
179.795	1255.37
179.871	1285.71
179.948	1301.4
180.024	1319
180.101	1340.63
180.177	1353.06
180.254	1375.41
180.33	1396.64
180.407	1442.49
180.483	1529.52
180.56	1611.95
180.636	1690.66
180.712	1679.06
180.789	1687.24
180.865	1699.63
180.942	1707.14
181.018	1714.12
181.095	1727.01
181.171	1728
181.248	1729.9
181.324	1743.02
181.4	1748.58
181.477	1758.47
181.553	1770.96
181.63	1792.26
181.706	1807.04
181.782	1813.07
181.859	1811.84
181.935	1816.64
182.011	1815.31
182.088	1833.42
182.164	1853.01
182.24	1865.5
182.317	1877.15
182.393	1876.05
182.469	1890.13
182.546	1901.11
182.622	1905
182.698	1900.87
182.775	1916.32
182.851	1927.58
182.927	1921.02
183.003	1918.03
183.08	1913.61
183.156	1922.07
183.232	1917.74
183.308	1906.43
183.385	1914.75
183.461	1929.29
183.537	1929.29
183.613	1941.99
183.69	1930.25
183.766	1917.88
183.842	1924.59
183.918	1927.39
183.995	1940.08
184.071	1941.08
184.147	1937.04
184.223	1929.44
184.299	1939.52
184.375	1926.82
184.452	1933.53
184.528	1987.61
184.604	1996.4
184.68	2005.06
184.756	2011.19
184.832	2016.33
184.908	2023.22
184.985	2021.32
185.061	2007.34
185.137	2016.52
185.213	2006.68
185.289	2006.68
185.365	2001.02
185.441	1998.88
185.517	2012.53
185.593	2009.63
185.669	2007.06
185.745	2017
185.822	2031.64
185.898	2026.17
185.974	2035.16
186.05	2027.31
186.126	1989.3
186.202	1984.22
186.278	1982.46
186.354	1975.28
186.43	1981.56
186.506	1977.42
186.582	1980.98
186.658	1988.78
186.734	1969.15
186.81	1970.29
186.886	1975.94
186.962	1987.5
187.038	1985.69
187.114	1976.7
187.19	1983.59
187.266	1972.37
187.341	1973.04
187.417	1965.67
187.493	1966.53
187.569	1968.05
187.645	1963.2
187.721	1949.88
187.797	1959.11
187.873	1960.34
187.949	1955.49
188.025	1947.69
188.101	1951.12
188.176	1954.78
188.252	1951.4
188.328	1959.91
188.404	1958.43
188.48	1955.87
188.556	1950.02
188.632	1949.12
188.707	1950.26
188.783	1946.83
188.859	1945.98
188.935	1934.33
189.011	1941.46
189.086	1934.09
189.162	1928.29
189.238	1925.44
189.314	1924.58
189.39	1916.83
189.465	1912.27
189.541	1928.29
189.617	1915.88
189.693	1910.32
189.768	1913.79
189.844	1935.2
189.92	1927.26
189.996	1937.77
190.071	1946.9
190.147	1945.95
190.223	1953.89
190.298	1945.38
190.374	1933.21
190.45	1943.86
190.526	1951.42
190.601	1948.56
190.677	1948.99
190.753	1974.78
190.828	1977.63
190.904	1991.09
190.98	2004.92
191.055	2013.44
191.131	2003.21
191.207	2023.66
191.282	2033.07
191.358	2021.99
191.433	2004.25
191.509	2017.22
191.585	2009.09
191.66	2011.9
191.736	2020.69
191.811	2013.23
191.887	2030.21
191.963	2052.51
192.038	2056.6
192.114	2058.32
192.189	2061.07
192.265	2057.08
192.34	2036.91
192.416	2035.53
192.491	2033.53
192.567	2036.67
192.642	2043.28
192.718	2042.57
192.793	2029.4
192.869	2026.59
192.944	2030.77
193.02	2042.38
193.095	2047.13
193.171	2056.31
193.246	2055.6
193.322	2049.08
193.397	2047.9
193.473	2032.86
193.548	2013.17
193.624	2021.64
193.699	2019.12
193.775	2032.44
193.85	2038.19
193.925	2047.47
194.001	2047.66
194.076	2037.48
194.152	2026.78
194.227	2016.03
194.302	2007.71
194.378	2014.03
194.453	2011.61
194.529	2024.83
194.604	2009.8
194.679	2001.39
194.755	1984.55
194.83	1992.26
194.905	1993.31
194.981	2002.77
195.056	1997.92
195.131	2005.81
195.207	2000.01
195.282	1989.03
195.357	1972.9
195.433	1986.22
195.508	1974.23
195.583	1978.56
195.659	1994.68
195.734	2002.2
195.809	2001.82
195.884	2010.33
195.96	2008.9
196.035	2022.98
196.11	2015.84
196.185	2027.21
196.261	2032.87
196.336	2060.4
196.411	2047.84
196.486	2054.03
196.561	2046.23
196.637	2053.31
196.712	2068.06
196.787	2072.67
196.862	2089.74
196.937	2100.59
197.013	2108.25
197.088	2115.9
197.163	2143.12
197.238	2158.21
197.313	2157.93
197.388	2173.39
197.464	2202.13
197.539	2209.74
197.614	2203.75
197.689	2218.88
197.764	2236.54
197.839	2254.24
197.914	2248.53
197.989	2270.65
198.065	2282.31
198.14	2332.64
198.215	2359
198.29	2371.72
198.365	2384.04
198.44	2393.75
198.515	2418.22
198.59	2429.31
198.665	2455.83
198.74	2458.92
198.815	2459.5
198.89	2477.68
198.965	2504.59
199.04	2499.87
199.115	2516.01
199.19	2553.15
199.265	2554.72
199.34	2562.38
199.415	2596.21
199.49	2617.97
199.565	2627.88
199.64	2650.93
199.715	2643.68
199.79	2648.83
199.865	2655.07
199.94	2653.21
200.015	2682.03
200.09	2686.18
200.165	2690.08
200.24	2696.42
200.315	2734.66
200.39	2750.62
200.464	2760.2
200.539	2762.68
200.614	2777.63
200.689	2801.98
200.764	2812.14
200.839	2830.14
200.914	2835.62
200.989	2823.75
201.063	2836.57
201.138	2822.19
201.213	2820.99
201.288	2807.65
201.363	2815.52
201.438	2816.56
201.512	2831.09
201.587	2815.65
201.662	2819.32
201.737	2831.38
201.812	2837.14
201.886	2807.72
201.961	2815.35
202.036	2803.82
202.111	2801.53
202.186	2775.25
202.26	2755.37
202.335	2732.64
202.41	2724.26
202.485	2706.11
202.559	2688.82
202.634	2664.57
202.709	2670.04
202.784	2653.51
202.858	2648.61
202.933	2627.36
203.008	2617.17
203.082	2598.17
203.157	2597.5
203.232	2556.51
203.306	2538.98
203.381	2509.02
203.456	2487.78
203.53	2465.52
203.605	2447.3
203.68	2421.72
203.754	2414.06
203.829	2402.2
203.904	2384.3
203.978	2375.73
204.053	2379.83
204.127	2365.88
204.202	2364.07
204.277	2348.41
204.351	2341.94
204.426	2337.37
204.5	2332.66
204.575	2303.06
204.65	2313.87
204.724	2308.53
204.799	2319.9
204.873	2313.19
204.948	2313.43
205.022	2299.77
205.097	2289.3
205.171	2301.67
205.246	2311.1
205.32	2314
205.395	2312.57
205.469	2304.05
205.544	2306.67
205.618	2290.21
205.693	2302.44
205.767	2290.16
205.842	2311.11
205.916	2303.59
205.991	2295.59
206.065	2300.26
206.14	2313.67
206.214	2308.05
206.289	2299.67
206.363	2310.81
206.438	2315.43
206.512	2322.38
206.586	2339.32
206.661	2349.41
206.735	2331.38
206.81	2332.85
206.884	2345.8
206.958	2333.57
207.033	2349.98
207.107	2361.13
207.181	2394.51
207.256	2388.46
207.33	2406.26
207.405	2418.51
207.479	2436.5
207.553	2442.07
207.628	2427.27
207.702	2437.21
207.776	2434.45
207.851	2438.59
207.925	2447.6
207.999	2445.6
208.073	2442.69
208.148	2444.12
208.222	2433.41
208.296	2459.96
208.371	2474.64
208.445	2484.21
208.519	2513.15
208.593	2524.72
208.668	2517.96
208.742	2517.1
208.816	2518.62
208.89	2531.91
208.965	2528.48
209.039	2540.44
209.113	2558.06
209.187	2575.9
209.261	2575.38
209.336	2591.14
209.41	2610.67
209.484	2612.29
209.558	2634.59
209.632	2647.78
209.707	2661.21
209.781	2682.74
209.855	2702.27
209.929	2717.96
210.003	2721.96
210.077	2721.34
210.151	2768.27
210.226	2798.68
210.3	2825.34
210.374	2847.01
210.448	2849.73
210.522	2861.02
210.596	2866.98
210.67	2874.84
210.744	2920.61
210.818	2949.96
210.892	2969.74
210.966	2961.45
211.041	2979.04
211.115	2972.17
211.189	2996.63
211.263	3012.17
211.337	3017.55
211.411	3026.33
211.485	3023.42
211.559	3037.86
211.633	3041.05
211.707	3008.89
211.781	3020.35
211.855	2988.68
211.929	2983.68
212.003	2966.48
212.077	2978.46
212.151	2993.81
212.225	3006.02
212.299	2998.24
212.373	2990.42
212.447	2988.27
212.52	3022.89
212.594	3029.28
212.668	3045.78
212.742	3033.43
212.816	3035.95
212.89	3036.53
212.964	3043.35
213.038	3048.93
213.112	3066.2
213.186	3085.79
213.26	3075.45
213.333	3040.83
213.407	3057.41
213.481	3069.71
213.555	3096.78
213.629	3094.82
213.703	3092.05
213.777	3106.42
213.85	3101.74
213.924	3146.98
213.998	3166.59
214.072	3175.08
214.146	3179.33
214.219	3195.12
214.293	3215.3
214.367	3237.01
214.441	3268.4
214.515	3281.34
214.588	3283.44
214.662	3277.19
214.736	3281.72
214.81	3317.39
214.883	3355.54
214.957	3373.1
215.031	3389.84
215.105	3396.09
215.178	3419.91
215.252	3447.12
215.326	3454.18
215.4	3466.44
215.473	3458.37
215.547	3474.42
215.621	3498.83
215.694	3545.26
215.768	3564.41
215.842	3589.05
215.915	3616.18
215.989	3630.66
216.063	3658.8
216.136	3703.7
216.21	3744.96
216.284	3802.72
216.357	3848.07
216.431	3885.01
216.504	3938.2
216.578	4012.48
216.652	4075.55
216.725	4125.33
216.799	4184.01
216.873	4242.1
216.946	4310.18
217.02	4359.95
217.093	4414.14
217.167	4448.06
217.24	4482.28
217.314	4533.22
217.387	4584.54
217.461	4634.65
217.535	4704.33
217.608	4754.59
217.682	4819.95
217.755	4893.92
217.829	4946.94
217.902	5006.57
217.976	5071.41
218.049	5125.54
218.123	5170.78
218.196	5235.26
218.27	5291.52
218.343	5340.27
218.417	5406.81
218.49	5465.19
218.563	5545.57
218.637	5616.21
218.71	5705.93
218.784	5786.89
218.857	5871.39
218.931	5948.69
219.004	6023.48
219.077	6104.68
219.151	6189.71
219.224	6246.67
219.298	6318.2
219.371	6401.16
219.444	6462.01
219.518	6536.04
219.591	6613.14
219.665	6713.15
219.738	6790.28
219.811	6852.18
219.885	6934.65
219.958	7012.92
220.031	7085.16
220.105	7160.94
220.178	7234.95
220.251	7297.24
220.325	7376.27
220.398	7447.6
220.471	7519.02
220.544	7597.63
220.618	7661.63
220.691	7735.93
220.764	7818.48
220.838	7894.67
220.911	7966.82
220.984	8062.58
221.057	8143.58
221.131	8220.78
221.204	8260.43
221.277	8349.45
221.35	8453.85
221.424	8526.03
221.497	8599.04
221.57	8675.25
221.643	8755.49
221.716	8835.3
221.79	8902.24
221.863	8967.28
221.936	9034.91
222.009	9109.04
222.082	9182.46
222.155	9252.37
222.229	9336.4
222.302	9408.43
222.375	9472.52
222.448	9543.37
222.521	9607.37
222.594	9672.96
222.667	9732.24
222.74	9812.19
222.814	9872.74
222.887	9943.36
222.96	10009.98
223.033	10077.76
223.106	10147.55
223.179	10214.61
223.252	10279.03
223.325	10350.66
223.398	10411.37
223.471	10481.32
223.544	10545.35
223.617	10610.01
223.69	10673.99
223.763	10717.7
223.837	10780.92
223.91	10856.48
223.983	10899.94
224.056	10954.87
224.129	11020.6
224.202	11092.93
224.275	11147.15
224.348	11191.05
224.42	11231.15
224.493	11284.84
224.566	11340.5
224.639	11406.86
224.712	11461.28
224.785	11515.69
224.858	11573.1
224.931	11633.1
225.004	11678.36
225.077	11737.98
225.15	11781.02
225.223	11838.81
225.296	11928.42
225.369	11972.33
225.442	12015.37
225.514	12078.66
225.587	12140.12
225.66	12199.36
225.733	12260
225.806	12330.66
225.879	12389.86
225.952	12443.99
226.025	12506.46
226.097	12580.94
226.17	12635.99
226.243	12672.82
226.316	12728.35
226.389	12789.67
226.461	12852.62
226.534	12922.47
226.607	12982.68
226.68	13056.39
226.753	13110.28
226.825	13134.72
226.898	13208.67
226.971	13259.43
227.044	13326.15
227.117	13385.44
227.189	13449.22
227.262	13508.27
227.335	13564.14
227.407	13625.41
227.48	13688.9
227.553	13745.88
227.626	13792.06
227.698	13845.52
227.771	13911.08
227.844	13957.65
227.916	14011.88
227.989	14055.46
228.062	14100.44
228.134	14173.42
228.207	14221.34
228.28	14269.21
228.352	14329.27
228.425	14380.9
228.498	14444.29
228.57	14479.53
228.643	14539.98
228.716	14582.73
228.788	14629.92
228.861	14672.49
228.934	14734.48
229.006	14772.85
229.079	14828.14
229.151	14867.33
229.224	14897.12
229.296	14949.9
229.369	15026.5
229.442	15091.91
229.514	15132.64
229.587	15194.77
229.659	15217.24
229.732	15272.72
229.804	15329.45
229.877	15392.26
229.949	15455.64
230.022	15517.43
230.094	15569.59
230.167	15614.12
230.239	15647.38
230.312	15692.45
230.384	15762.2
230.457	15809.62
230.529	15861.34
230.602	15906.79
230.674	15958.03
230.747	16027.49
230.819	16081.18
230.892	16087.78
230.964	16127.07
231.037	16171.22
231.109	16213.73
231.181	16267.42
231.254	16293.3
231.326	16334.85
231.399	16371.82
231.471	16391.77
231.544	16411.67
231.616	16466.43
231.688	16509.8
231.761	16544.7
231.833	16573.28
231.905	16582.19
231.978	16616.56
232.05	16655.6
232.122	16687.6
232.195	16724.71
232.267	16769.24
232.339	16792.86
232.412	16857.05
232.484	16892.04
232.556	16925.35
232.629	16971.42
232.701	17021.01
232.773	17064.87
232.846	17095.81
232.918	17124.68
232.99	17165.83
233.062	17206.03
233.135	17231.52
233.207	17251.91
233.279	17297.64
233.351	17336.44
233.424	17361.84
233.496	17381.5
233.568	17425.84
233.64	17441.7
233.713	17466.9
233.785	17492.88
233.857	17522.47
233.929	17525.16
234.001	17562.03
234.074	17601.93
234.146	17599.28
234.218	17613.36
234.29	17625.16
234.362	17636.97
234.434	17644.49
234.507	17651.91
234.579	17661.07
234.651	17678.9
234.723	17705.64
234.795	17724.01
234.867	17737.64
234.939	17772.97
235.012	17792.29
235.084	17807.18
235.156	17833.11
235.228	17838.89
235.3	17837.88
235.372	17857.06
235.444	17882.84
235.516	17865.35
235.588	17872.77
235.66	17891.38
235.732	17887.04
235.804	17957.49
235.876	17976.87
235.948	17998.89
236.02	18010.45
236.092	18023.66
236.164	18030.94
236.236	18027.32
236.308	18030.74
236.38	18040
236.452	18029.49
236.524	18029.68
236.596	18042.16
236.668	18050.84
236.74	18062.07
236.812	18070.89
236.884	18078.02
236.956	18082.98
237.028	18085.34
237.1	18089.15
237.172	18112.33
237.244	18138.02
237.316	18099.08
237.388	18097.97
237.46	18093.58
237.532	18110.02
237.604	18096.57
237.675	18113.78
237.747	18120.38
237.819	18109.68
237.891	18104.14
237.963	18100.67
238.035	18093.01
238.107	18064.96
238.178	18070.12
238.25	18061.92
238.322	18080.23
238.394	18058.45
238.466	18045.01
238.538	18045.39
238.609	18034.21
238.681	18005.78
238.753	17987.61
238.825	17986.74
238.897	17982.55
238.968	17988.72
239.04	17967.61
239.112	17985.06
239.184	17962.99
239.255	17951.71
239.327	17942.7
239.399	17940.82
239.471	17939.32
239.542	17939.47
239.614	17938.36
239.686	17903.62
239.758	17899.95
239.829	17868.05
239.901	17870.51
239.973	17860.82
240.044	17853.88
240.116	17853.93
240.188	17834.46
240.259	17810.27
240.331	17784.29
240.403	17773.98
240.474	17743.14
240.546	17724.34
240.618	17689.21
240.689	17667.38
240.761	17656.01
240.833	17667.19
240.904	17639.57
240.976	17623.81
241.048	17606.56
241.119	17594.9
241.191	17583.77
241.262	17573.98
241.334	17560.15
241.405	17538.27
241.477	17518.51
241.549	17491.62
241.62	17470.56
241.692	17463.62
241.763	17463.33
241.835	17437.84
241.906	17412.78
241.978	17380.73
242.049	17372.3
242.121	17367.72
242.192	17353.65
242.264	17318.66
242.335	17273.07
242.407	17269.26
242.478	17249.45
242.55	17228.3
242.621	17202.03
242.693	17179.52
242.764	17150.27
242.836	17121.26
242.907	17098.27
242.979	17071.09
243.05	17056.87
243.122	17038.99
243.193	17014.03
243.264	16971.33
243.336	16951.61
243.407	16949.45
243.479	16947.81
243.55	16922.7
243.622	16892.77
243.693	16873.49
243.764	16862.36
243.836	16823.22
243.907	16793.78
243.978	16761.05
244.05	16741.34
244.121	16697.53
244.192	16681.67
244.264	16648.42
244.335	16622.68
244.407	16582.05
244.478	16573.86
244.549	16548.89
244.62	16498.04
244.692	16471.29
244.763	16453.7
244.834	16416.35
244.906	16369.26
244.977	16339.52
245.048	16327.33
245.119	16295.13
245.191	16257.69
245.262	16207.27
245.333	16203.22
245.405	16181.2
245.476	16166.21
245.547	16144.37
245.618	16131.94
245.689	16106.87
245.761	16083.69
245.832	16059.4
245.903	16045.52
245.974	16013.75
246.045	15979.53
246.117	15983.58
246.188	15945.55
246.259	15905.88
246.33	15874.75
246.401	15851.42
246.473	15812.47
246.544	15779.07
246.615	15767.89
246.686	15733.28
246.757	15719.4
246.828	15678.28
246.899	15654.42
246.97	15605.55
247.042	15571.13
247.113	15546.36
247.184	15536.29
247.255	15504.62
247.326	15480.95
247.397	15450.44
247.468	15426.68
247.539	15400.07
247.61	15347.53
247.681	15330.51
247.752	15314.12
247.823	15286.94
247.894	15257.78
247.965	15217.53
248.037	15182.97
248.108	15132.64
248.179	15103.82
248.25	15077.69
248.321	15061.16
248.392	15021.2
248.463	15011.32
248.534	14971.69
248.605	14950.96
248.675	14921.03
248.746	14900.06
248.817	14869.21
248.888	14852.97
248.959	14808.38
249.03	14792.28
249.101	14768.56
249.172	14735.49
249.243	14685.27
249.314	14675.29
249.385	14639.76
249.456	14622.74
249.527	14593.97
249.598	14575.31
249.669	14551.59
249.739	14525.95
249.81	14503.34
249.881	14462.37
249.952	14443.76
250.023	14423.9
250.094	14383.6
250.165	14350
250.235	14321.37
250.306	14306.47
250.377	14262.41
250.448	14234.6
250.519	14182.15
250.59	14172.94
250.66	14145.17
250.731	14136.83
250.802	14108.97
250.873	14095.81
250.944	14072.67
251.014	14037.53
251.085	14033.14
251.156	14013.19
251.227	14002.63
251.297	13990.58
251.368	13980.65
251.439	13959.48
251.51	13945.94
251.58	13909.93
251.651	13872.23
251.722	13863.84
251.792	13815.59
251.863	13789.56
251.934	13786.28
252.005	13789.56
252.075	13763.09
252.146	13752.92
252.217	13738.17
252.287	13721.49
252.358	13689.67
252.429	13685.77
252.499	13656.84
252.57	13636.6
252.641	13629.46
252.711	13602.61
252.782	13564.67
252.852	13558.07
252.923	13536.76
252.994	13513.82
253.064	13499.4
253.135	13473.66
253.205	13436.59
253.276	13432.39
253.347	13421.69
253.417	13386.7
253.488	13356.95
253.558	13333.23
253.629	13307.64
253.699	13293.75
253.77	13271.24
253.841	13249.55
253.911	13224.48
253.982	13207.7
254.052	13192.28
254.123	13163.69
254.193	13135.44
254.264	13152.6
254.334	13125.03
254.405	13083.62
254.475	13054.12
254.546	13035.9
254.616	13018.93
254.687	12999.69
254.757	12982.63
254.827	12959.25
254.898	12940.35
254.968	12922.66
255.039	12892
255.109	12873.11
255.18	12837.19
255.25	12798.39
255.321	12782.38
255.391	12747.77
255.461	12747.29
255.532	12698.84
255.602	12673.25
255.673	12640.85
255.743	12598.96
255.813	12550.52
255.884	12542.8
255.954	12533.16
256.024	12530.13
256.095	12515.95
256.165	12486.93
256.235	12468.13
256.306	12443.69
256.376	12439.21
256.446	12429.91
256.517	12410.53
256.587	12397.47
256.657	12381.7
256.728	12360.64
256.798	12342.42
256.868	12317.45
256.938	12286.17
257.009	12269.97
257.079	12254.69
257.149	12255.27
257.219	12215.31
257.29	12197.33
257.36	12162.62
257.43	12144.02
257.5	12100.39
257.571	12074.17
257.641	12064.1
257.711	12035.03
257.781	12024.52
257.852	12003.41
257.922	11958.1
257.992	11936.6
258.062	11913.8
258.132	11906.14
258.202	11885.13
258.273	11869.07
258.343	11873.22
258.413	11842.13
258.483	11826.18
258.553	11796.29
258.623	11772.1
258.693	11760.67
258.764	11759.8
258.834	11750.65
258.904	11731.08
258.974	11713
259.044	11690.06
259.114	11673.87
259.184	11656.76
259.254	11640.22
259.324	11602.92
259.394	11591.26
259.464	11591.45
259.535	11565.81
259.605	11536.65
259.675	11517.22
259.745	11499.63
259.815	11474.42
259.885	11456.35
259.955	11465.08
260.025	11439.2
260.095	11415.39
260.165	11403.63
260.235	11402.86
260.305	11379.82
260.375	11354.28
260.445	11348.59
260.515	11346.85
260.585	11339.24
260.655	11322.37
260.725	11312.88
260.795	11306.76
260.865	11302.23
260.934	11281.5
261.004	11278.8
261.074	11266.8
261.144	11265.07
261.214	11258.27
261.284	11234.13
261.354	11226.51
261.424	11193.16
261.494	11195.43
261.564	11183.67
261.634	11167.47
261.703	11132.77
261.773	11117.02
261.843	11103.91
261.913	11089.26
261.983	11049.26
262.053	11035.91
262.123	11011.34
262.192	10975.97
262.262	10966.81
262.332	10937.12
262.402	10921.66
262.472	10903.05
262.541	10860.7
262.611	10853.42
262.681	10823.55
262.751	10815.26
262.821	10795.5
262.89	10767.7
262.96	10758.88
263.03	10759.5
263.1	10748.32
263.169	10730.93
263.239	10726.83
263.309	10727.27
263.379	10718.06
263.448	10716.72
263.518	10700.76
263.588	10691.51
263.657	10694.69
263.727	10690.26
263.797	10678.65
263.867	10658.46
263.936	10630.37
264.006	10631.62
264.076	10609.36
264.145	10596.45
264.215	10572.65
264.285	10566.62
264.354	10535.31
264.424	10507.55
264.494	10474.69
264.563	10451.13
264.633	10455.47
264.702	10441.69
264.772	10409.89
264.842	10393.31
264.911	10380.98
264.981	10349.13
265.05	10331.64
265.12	10312.61
265.19	10296.57
265.259	10293.63
265.329	10280.72
265.398	10271.32
265.468	10284.23
265.537	10267.61
265.607	10253.6
265.676	10247.57
265.746	10237.22
265.815	10237.65
265.885	10224.11
265.955	10203.74
266.024	10186.2
266.094	10149.39
266.163	10145.3
266.232	10141.59
266.302	10125.4
266.371	10113.02
266.441	10105.89
266.51	10104.3
266.58	10083.49
266.649	10059.26
266.719	10052.13
266.788	10050.64
266.858	10051.84
266.927	10012.97
266.996	10002.71
267.066	9995
267.135	9971.45
267.205	9961.18
267.274	9946.4
267.343	9950.59
267.413	9940.18
267.482	9943.12
267.552	9944.71
267.621	9923.9
267.69	9896.16
267.76	9883.11
267.829	9880.07
267.898	9872.56
267.968	9849.63
268.037	9844.81
268.106	9837.64
268.176	9815
268.245	9795.92
268.314	9776.46
268.384	9773.23
268.453	9760.52
268.522	9753.87
268.592	9753.87
268.661	9735.18
268.73	9728.06
268.799	9700.6
268.869	9703.3
268.938	9680.57
269.007	9657.06
269.076	9644.25
269.146	9644.45
269.215	9636.21
269.284	9632.98
269.353	9611.41
269.422	9595.13
269.492	9579.48
269.561	9543.51
269.63	9533.3
269.699	9518.37
269.768	9505.12
269.838	9501.37
269.907	9498.38
269.976	9474.74
270.045	9443.39
270.114	9443.49
270.183	9435.49
270.253	9426.25
270.322	9395.04
270.391	9381.08
270.46	9388.74
270.529	9381.37
270.598	9374.58
270.667	9361.34
270.736	9340
270.806	9337.16
270.875	9337.06
270.944	9323.73
271.013	9340.68
271.082	9331.72
271.151	9325.51
271.22	9301.72
271.289	9285.69
271.358	9270.57
271.427	9265.17
271.496	9259.21
271.565	9241.24
271.634	9234.36
271.703	9255.55
271.772	9262.05
271.841	9254.54
271.91	9222.28
271.979	9215.3
272.048	9192.52
272.117	9189.59
272.186	9169.07
272.255	9158.1
272.324	9153.81
272.393	9146.93
272.462	9132.72
272.531	9118.57
272.6	9106.29
272.669	9113.8
272.738	9096.08
272.807	9084.58
272.876	9063.73
272.945	9091.08
273.013	9084.53
273.082	9081.45
273.151	9046.25
273.22	9043.75
273.289	9031.62
273.358	9045.29
273.427	9027.81
273.496	9032.24
273.564	9032
273.633	9035.13
273.702	9022.76
273.771	9015.39
273.84	9010.15
273.909	9008.65
273.977	9013.47
274.046	9005.09
274.115	9007.07
274.184	8995.56
274.253	8996.14
274.322	9007.93
274.39	8974.33
274.459	8964.08
274.528	8936.16
274.597	8923.26
274.665	8915.27
274.734	8918.97
274.803	8913.44
274.872	8908.28
274.94	8892.5
275.009	8940.9
275.078	8924.48
275.147	8921.31
275.215	8915.34
275.284	8922.94
275.353	8910.04
275.421	8884.92
275.49	8894.35
275.559	8879.81
275.627	8876.93
275.696	8866.48
275.765	8861.04
275.833	8845.35
275.902	8842.94
275.971	8851.8
276.039	8867.3
276.108	8868.02
276.177	8868.5
276.245	8853.34
276.314	8855.6
276.383	8858.83
276.451	8799.21
276.52	8803.68
276.588	8809.03
276.657	8813.17
276.725	8806.72
276.794	8803.06
276.863	8818.03
276.931	8802.38
277	8805.27
277.068	8814.37
277.137	8831.84
277.205	8831.31
277.274	8857.2
277.342	8865.82
277.411	8848.83
277.48	8829.77
277.548	8820.1
277.617	8815.81
277.685	8810.95
277.754	8805.75
277.822	8796.27
277.89	8806.04
277.959	8798.49
278.027	8785.25
278.096	8772.21
278.164	8792.81
278.233	8785.26
278.301	8772.21
278.37	8773.32
278.438	8763.55
278.507	8766.2
278.575	8739.58
278.643	8727.35
278.712	8701.17
278.78	8684.47
278.849	8697.27
278.917	8711.9
278.985	8701.36
279.054	8705.65
279.122	8714.93
279.191	8715.7
279.259	8713.2
279.327	8687.83
279.396	8698.9
279.464	8695.68
279.532	8700.78
279.601	8689.18
279.669	8687.64
279.737	8706.41
279.806	8708
279.874	8714.11
279.942	8707.33
280.011	8702.71
280.079	8716.47
280.147	8738.71
280.215	8748.09
280.284	8740.25
280.352	8727.15
280.42	8742.41
280.488	8734.28
280.557	8729.27
280.625	8731.53
280.693	8729.9
280.761	8731.92
280.83	8718.35
280.898	8723.5
280.966	8707.33
281.034	8681.29
281.102	8664.35
281.171	8649.52
281.239	8658.43
281.307	8654.67
281.375	8644.23
281.443	8673.11
281.512	8662.95
281.58	8671.28
281.648	8656.75
281.716	8661.99
281.784	8657.23
281.852	8648.23
281.92	8641.78
281.989	8651.4
282.057	8633.74
282.125	8675.67
282.193	8679.43
282.261	8677.5
282.329	8684.05
282.397	8683.32
282.465	8685.15
282.533	8700.5
282.601	8685.3
282.67	8662.39
282.738	8646.02
282.806	8657.28
282.874	8640.24
282.942	8643.23
283.01	8624.74
283.078	8630.18
283.146	8622.1
283.214	8632.06
283.282	8637.21
283.35	8653.82
283.418	8644.29
283.486	8652.03
283.554	8611.93
283.622	8608.61
283.69	8611.74
283.758	8598.55
283.826	8607.98
283.894	8619.54
283.962	8641.1
284.03	8661.31
284.098	8658.33
284.165	8659.24
284.233	8659
284.301	8653.76
284.369	8651.4
284.437	8649.86
284.505	8642.01
284.573	8657.32
284.641	8644.61
284.709	8644.08
284.777	8622.57
284.845	8627.29
284.912	8629.35
284.98	8634.89
285.048	8625.31
285.116	8625.75
285.184	8642.78
285.252	8642.59
285.319	8623.29
285.387	8608.27
285.455	8591.09
285.523	8601.3
285.591	8594.51
285.659	8593.55
285.726	8604.04
285.794	8587.63
285.862	8580.56
285.93	8577.86
285.997	8570.98
286.065	8565.59
286.133	8558.9
286.201	8557.17
286.269	8541.82
286.336	8534.07
286.404	8524.97
286.472	8542.35
286.539	8525.12
286.607	8506.54
286.675	8505.48
286.743	8516.17
286.81	8511.21
286.878	8521.7
286.946	8513.09
287.013	8515.44
287.081	8511.59
287.149	8496
287.216	8514.53
287.284	8513.23
287.352	8514.48
287.419	8514.53
287.487	8527.95
287.555	8530.94
287.622	8530.36
287.69	8537.63
287.758	8548.21
287.825	8546
287.893	8527.76
287.96	8536.23
288.028	8546.67
288.096	8554.81
288.163	8556.68
288.231	8544.94
288.298	8547.01
288.366	8561.35
288.433	8561.11
288.501	8556.78
288.569	8560.15
288.636	8551.92
288.704	8565.64
288.771	8578.48
288.839	8564.39
288.906	8562.99
288.974	8573.19
289.041	8569.59
289.109	8561.02
289.176	8560.39
289.244	8566.51
289.311	8579.55
289.379	8587.82
289.446	8587.58
289.514	8577.04
289.581	8580.36
289.649	8586.81
289.716	8583.39
289.783	8569.82
289.851	8589.26
289.918	8592.78
289.986	8596.68
290.053	8606.35
290.121	8601.54
290.188	8598.46
290.255	8628.01
290.323	8623.29
290.39	8618.86
290.458	8622.81
290.525	8634.07
290.592	8635.32
290.66	8635.99
290.727	8632.24
290.794	8643.98
290.862	8641.24
290.929	8648.12
290.996	8643.45
291.064	8651.92
291.131	8663.43
291.198	8675.46
291.266	8669.83
291.333	8667.76
291.4	8678.68
291.468	8694.28
291.535	8693.27
291.602	8700.59
291.669	8689.47
291.737	8694.13
291.804	8694.23
291.871	8714.69
291.938	8724.99
292.006	8749.83
292.073	8763.4
292.14	8772.93
292.207	8768.26
292.275	8776.44
292.342	8783.61
292.409	8808.35
292.476	8835.79
292.543	8828.33
292.611	8831.13
292.678	8851.34
292.745	8871.27
292.812	8882.72
292.879	8871.41
292.946	8874.25
293.014	8886.48
293.081	8896.63
293.148	8909.77
293.215	8921.52
293.282	8914.06
293.349	8923.64
293.416	8908.43
293.484	8916.8
293.551	8929.85
293.618	8947.27
293.685	8972.45
293.752	8970.29
293.819	8969.28
293.886	8958.3
293.953	8964.36
294.02	8971.92
294.087	8983.04
294.154	8979.14
294.221	8989.54
294.288	8996.76
294.356	9016.93
294.423	9020.11
294.49	9017.03
294.557	9031.57
294.624	9024.01
294.691	9044.33
294.758	9042.69
294.825	9052.22
294.892	9045.53
294.959	9043.22
295.026	9045.87
295.093	9029.88
295.16	9026.03
295.226	9027.14
295.293	9047.6
295.36	9054.82
295.427	9067.39
295.494	9075.14
295.561	9084.34
295.628	9107.5
295.695	9122.67
295.762	9129.02
295.829	9136.39
295.896	9153.62
295.963	9155.45
296.03	9167.3
296.096	9173.36
296.163	9188.48
296.23	9198.69
296.297	9212.65
296.364	9215.68
296.431	9221.75
296.498	9219.25
296.564	9243.41
296.631	9246.59
296.698	9228.49
296.765	9250.01
296.832	9243.56
296.899	9227.43
296.965	9247.99
297.032	9223.43
297.099	9233.44
297.166	9239.12
297.233	9238.3
297.299	9231.13
297.366	9231.56
297.433	9232.33
297.5	9241.97
297.566	9241.2
297.633	9238.64
297.7	9243.75
297.767	9236.96
297.833	9242.35
297.9	9255.98
297.967	9245.82
298.033	9259.78
298.1	9292.67
298.167	9281.5
298.234	9289.73
298.3	9310.87
298.367	9298.3
298.434	9308.61
298.5	9297.63
298.567	9290.12
298.634	9288.53
298.7	9305.91
298.767	9307.26
298.834	9326.28
298.9	9315.01
298.967	9308.42
299.033	9321.66
299.1	9331.58
299.167	9348.57
299.233	9346.6
299.3	9356.28
299.366	9376.93
299.433	9385.79
299.5	9358.73
299.566	9362
299.633	9371.44
299.699	9375.58
299.766	9377.99
299.832	9378.23
299.899	9391.14
299.965	9406.11
300.032	9402.74
300.099	9409
300.165	9423.11
300.232	9415.5
300.298	9418.63
300.365	9432.6
300.431	9434.19
300.498	9433.18
300.564	9437.32
300.631	9443.05
300.697	9453.84
300.763	9452.54
300.83	9445.74
300.896	9461.59
300.963	9474.35
301.029	9486.1
301.096	9491.97
301.162	9502.28
301.229	9499
301.295	9485.91
301.361	9489.76
301.428	9492.41
301.494	9479.79
301.561	9483.11
301.627	9484.94
301.693	9490.77
301.76	9495.39
301.826	9490.67
301.892	9499.54
301.959	9511.48
302.025	9510.47
302.092	9504.25
302.158	9508.69
302.224	9516.97
302.291	9508.49
302.357	9498.04
302.423	9489.9
302.49	9473.48
302.556	9486.34
302.622	9489.28
302.688	9505.36
302.755	9516.49
302.821	9531.22
302.887	9539.75
302.954	9531.03
303.02	9539.94
303.086	9545
303.152	9533.29
303.219	9528.91
303.285	9532.28
303.351	9535.22
303.417	9535.99
303.483	9527.81
303.55	9517.93
303.616	9514.27
303.682	9514.51
303.748	9511.58
303.815	9522.56
303.881	9533.15
303.947	9520.87
304.013	9526.12
304.079	9518.27
304.145	9496.65
304.212	9491.64
304.278	9483.93
304.344	9477.05
304.41	9463.76
304.476	9455.09
304.542	9454.27
304.608	9466.26
304.674	9444.69
304.741	9435.87
304.807	9437.99
304.873	9449.69
304.939	9467.75
305.005	9451.81
305.071	9450.71
305.137	9455.71
305.203	9434.14
305.269	9432.12
305.335	9444.64
305.401	9437.7
305.467	9433.13
305.533	9441.84
305.599	9453.5
305.666	9461.68
305.732	9466.89
305.798	9478.88
305.864	9507.73
305.93	9517.93
305.996	9509.6
306.062	9512.49
306.128	9515.81
306.194	9506.47
306.259	9501.03
306.325	9489.47
306.391	9501.66
306.457	9508.88
306.523	9511.67
306.589	9527.9
306.655	9518.94
306.721	9499.68
306.787	9483.41
306.853	9500.21
306.919	9483.12
306.985	9467.42
307.051	9459.23
307.117	9449.22
307.183	9439.59
307.248	9407.7
307.314	9408.91
307.38	9408.86
307.446	9414.06
307.512	9401.11
307.578	9411.94
307.644	9408.71
307.709	9405.73
307.775	9395.9
307.841	9389.26
307.907	9385.94
307.973	9372.02
308.039	9372.5
308.104	9376.16
308.17	9379.29
308.236	9365.32
308.302	9365.95
308.368	9361.76
308.433	9360.65
308.499	9354.54
308.565	9345.97
308.631	9352.03
308.696	9328.54
308.762	9316.84
308.828	9318.91
308.894	9300.76
308.959	9277.31
309.025	9266.52
309.091	9265.85
309.156	9260.36
309.222	9261.03
309.288	9251.98
309.354	9229.83
309.419	9225.69
309.485	9212.31
309.551	9215.15
309.616	9196.56
309.682	9189.24
309.748	9178.75
309.813	9173.84
309.879	9169.36
309.945	9157.85
310.01	9140.28
310.076	9144.23
310.141	9135.61
310.207	9120.49
310.273	9123.67
310.338	9121.26
310.404	9103.83
310.469	9088.57
310.535	9080.34
310.601	9063
310.666	9065.41
310.732	9076.39
310.797	9062.95
310.863	9055.83
310.928	9045.67
310.994	9049.62
311.059	9048.61
311.125	9047.45
311.191	9056.5
311.256	9044.9
311.322	9048.9
311.387	9036.14
311.453	9353.31
311.518	9335.21
311.584	9329.29
311.649	9332.41
311.715	9325.34
311.78	9323.41
311.846	9318.21
311.911	9322.6
311.976	9319.42
312.042	9303
312.107	9284.28
312.173	9284.76
312.238	9281.1
312.304	9280.09
312.369	9268.77
312.434	9259.29
312.5	9254
312.565	9219.48
312.631	9226.79
312.696	9219.91
312.761	9219.53
312.827	8887.92
312.892	8924.12
312.958	8921.67
313.023	8917
313.088	8913.1
313.154	8901.93
313.219	8890.47
313.284	8883.3
313.35	8882.24
313.415	8871.89
313.48	8866.7
313.546	8860.97
313.611	8864.67
313.676	8857.89
313.741	8852.21
313.807	8858.13
313.872	8855.05
313.937	8861.98
314.003	8869.87
314.068	8869.29
314.133	8878.87
314.198	8872.71
314.264	8851.62
314.329	8842.67
314.394	8842.33
314.459	8842.86
314.525	8861.68
314.59	8862.74
314.655	8847.34
314.72	8849.5
314.785	8850.76
314.851	8847.15
314.916	8831.46
314.981	8816.25
315.046	8806.52
315.111	8796.46
315.176	8783.37
315.242	8789.24
315.307	8788.14
315.372	8766.19
315.437	8748.04
315.502	8739.28
315.567	8744.34
315.632	8726.72
315.698	8723.45
315.763	8708.67
315.828	8694.71
315.893	8689.22
315.958	8679.45
316.023	8669.93
316.088	8644.9
316.153	8622.57
316.218	8610.59
316.283	8593.8
316.348	8571.57
316.413	8562.71
316.479	8546.74
316.544	8515.27
316.609	8480.23
316.674	8445.35
316.739	8414.99
316.804	8392.14
316.869	8354.03
316.934	8322.12
316.999	8290.08
317.064	8244.42
317.129	8204.92
317.194	8175.05
317.259	8128.43
317.324	8076.29
317.389	8033.29
317.454	7999.81
317.518	7969.75
317.583	7946.95
317.648	7918.95
317.713	7890.58
317.778	7831.14
317.843	7795.21
317.908	7754.54
317.973	7719.24
318.038	7688.9
318.103	7653.85
318.168	7616.92
318.233	7586.05
318.297	7535.09
318.362	7501.48
318.427	7458.89
318.492	7433.22
318.557	7381.6
318.622	7350.5
318.687	7322.67
318.751	7286.15
318.816	7252.03
318.881	7218.91
318.946	7167.01
319.011	7125.44
319.075	7079.45
319.14	7049.48
319.205	7006.96
319.27	6977.03
319.335	6931.77
319.399	6888.49
319.464	6856.35
319.529	6803.86
319.594	6757.5
319.658	6727.63
319.723	6681.95
319.788	6655.49
319.853	6598.77
319.917	6570.02
319.982	6516.86
320.047	6482.24
320.112	6449.5
320.176	6401.68
320.241	6365.33
320.306	6333.94
320.37	6293.19
320.435	6261.27
320.5	6234.24
320.564	6196.09
320.629	6153.15
320.694	6121.62
320.758	6080.84
320.823	6038.95
320.888	6015.97
320.952	5972.22
321.017	5924.82
321.082	5887.84
321.146	5852.97
321.211	5823.23
321.275	5777.92
321.34	5737.54
321.405	5697.26
321.469	5652.82
321.534	5608.28
321.598	5554.69
321.663	5523.66
321.727	5488.81
321.792	5438.58
321.857	5387.57
321.921	5350.57
321.986	5307.55
322.05	5248.67
322.115	5211.49
322.179	5166.31
322.244	5109.93
322.308	5074.44
322.373	5031.38
322.437	4991.91
322.502	4961.77
322.566	4914.03
322.631	4881.9
322.695	4843.79
322.76	4799.41
322.824	4764.46
322.889	4725.32
322.953	4682.63
323.018	4619.97
323.082	4556.82
323.146	4508.32
323.211	4462.53
323.275	4416.27
323.34	4373.42
323.404	4338.22
323.468	4294.88
323.533	4251.32
323.597	4204.72
323.662	4154.38
323.726	4119.09
323.79	4074.82
323.855	4009.59
323.919	3962.7
323.983	3917.39
324.048	3850.95
324.112	3984.83
324.177	3853.75
324.241	3651.73
324.305	3456.1
324.37	3260.38
324.434	3077.46
324.498	3036.89
324.562	2985.61
324.627	2928.9
324.691	2875.15
324.755	2813.61
324.82	2737.98
324.884	2660.72
324.948	2594.4
325.012	2506.34
325.077	2387.04
