Data from 20250630_urea_2M_MAYP1162681_22-52-26-757.txt Node
Date: Mon Jun 30 22:52:26 BST 2025
User: adleo
Spectrometer: MAYP116268
Trigger mode: 0
Integration Time (sec): 1.000000E0
Scans to average: 1
Electric dark correction enabled: true
Nonlinearity correction enabled: true
Boxcar width: 10
XAxis mode: Wavelengths
Number of Pixels in Spectrum: 2068
>>>>>Begin Spectral Data<<<<<
179.565	1116.65
179.642	1166.57
179.718	1203.75
179.795	1238.03
179.871	1266.88
179.948	1286.02
180.024	1306.95
180.101	1330.99
180.177	1345.3
180.254	1365.77
180.33	1387.23
180.407	1434.36
180.483	1524.44
180.56	1606.82
180.636	1685.53
180.712	1670.66
180.789	1679.97
180.865	1691.7
180.942	1699.49
181.018	1708.52
181.095	1719.78
181.171	1725.63
181.248	1727.34
181.324	1742.78
181.4	1748.39
181.477	1759.03
181.553	1769.49
181.63	1788.5
181.706	1802.95
181.782	1810.65
181.859	1809.93
181.935	1813.21
182.011	1808.89
182.088	1824.29
182.164	1843.41
182.24	1855.81
182.317	1865.12
182.393	1864.55
182.469	1877.48
182.546	1890.08
182.622	1894.4
182.698	1889.6
182.775	1902.06
182.851	1912.37
182.927	1906.05
183.003	1904.34
183.08	1898.44
183.156	1906.38
183.232	1904.05
183.308	1890.93
183.385	1899.01
183.461	1918.46
183.537	1919.5
183.613	1930.44
183.69	1920.36
183.766	1908.9
183.842	1914.74
183.918	1920.97
183.995	1932.62
184.071	1933.38
184.147	1928.96
184.223	1917.93
184.299	1931.49
184.375	1918.6
184.452	1926.83
184.528	1978.57
184.604	1988.32
184.68	1999.2
184.756	2006.34
184.832	2010.19
184.908	2017.46
184.985	2016.99
185.061	2000.15
185.137	2010.81
185.213	2000.73
185.289	2001.87
185.365	1996.78
185.441	1994.5
185.517	2007.49
185.593	2004.01
185.669	2004.68
185.745	2016.62
185.822	2033.92
185.898	2025.45
185.974	2033.72
186.05	2025.73
186.126	1988.59
186.202	1981.41
186.278	1976.99
186.354	1970.9
186.43	1976.85
186.506	1974.61
186.582	1972.76
186.658	1978.13
186.734	1956.17
186.81	1959.49
186.886	1963.11
186.962	1970.95
187.038	1968.53
187.114	1960.91
187.19	1966.95
187.266	1958.73
187.341	1958.16
187.417	1950.46
187.493	1949.98
187.569	1953.64
187.645	1948.79
187.721	1936.9
187.797	1945.03
187.873	1951.07
187.949	1940.95
188.025	1932.81
188.101	1933.29
188.176	1938.42
188.252	1933.72
188.328	1940.75
188.404	1940.46
188.48	1936.57
188.556	1932.9
188.632	1932.76
188.707	1934.38
188.783	1933.29
188.859	1929.91
188.935	1918.74
189.011	1927.96
189.086	1923.11
189.162	1916.41
189.238	1915.36
189.314	1913.46
189.39	1906.19
189.465	1901.57
189.541	1919.45
189.617	1905.85
189.693	1902.43
189.768	1904.95
189.844	1928.21
189.92	1920.84
189.996	1927.6
190.071	1938.86
190.147	1939.01
190.223	1946.24
190.298	1937.34
190.374	1922.75
190.45	1934.49
190.526	1942.81
190.601	1938.39
190.677	1940.67
190.753	1964.27
190.828	1968.64
190.904	1983
190.98	2000.31
191.055	2006.44
191.131	1998.69
191.207	2018.95
191.282	2025.98
191.358	2017.71
191.433	2006.43
191.509	2024.5
191.585	2022.59
191.66	2023.21
191.736	2031.82
191.811	2027.68
191.887	2045.52
191.963	2069.68
192.038	2073.48
192.114	2074.1
192.189	2074.34
192.265	2070.2
192.34	2050.6
192.416	2047.61
192.491	2044.28
192.567	2045.51
192.642	2050.41
192.718	2052.79
192.793	2040.24
192.869	2038.19
192.944	2041.09
193.02	2045.51
193.095	2046.7
193.171	2053.08
193.246	2049.03
193.322	2044.52
193.397	2043.33
193.473	2026.87
193.548	2009.51
193.624	2013.5
193.699	2010.93
193.775	2027.68
193.85	2028.39
193.925	2040.14
194.001	2040.62
194.076	2033.72
194.152	2025.35
194.227	2018.17
194.302	2007.61
194.378	2012.51
194.453	2009.8
194.529	2016.74
194.604	2004.38
194.679	1995.72
194.755	1978.13
194.83	1992.22
194.905	1989.74
194.981	1995.54
195.056	1992.79
195.131	2000.01
195.207	1999.06
195.282	1990.55
195.357	1972.05
195.433	1988.55
195.508	1973.09
195.583	1981.03
195.659	1992.78
195.734	1997.11
195.809	1996.87
195.884	2003.43
195.96	2002.34
196.035	2017.13
196.11	2017.46
196.185	2028.59
196.261	2032.2
196.336	2060.26
196.411	2043.51
196.486	2049.84
196.561	2046.7
196.637	2053.12
196.712	2067.01
196.787	2068.58
196.862	2083.56
196.937	2091.55
197.013	2095.97
197.088	2105.67
197.163	2126.8
197.238	2146.51
197.313	2147.37
197.388	2159.12
197.464	2185.72
197.539	2196.23
197.614	2190.42
197.689	2201.65
197.764	2219.4
197.839	2242.05
197.914	2237.15
197.989	2262.56
198.065	2275.12
198.14	2322.02
198.215	2346.34
198.29	2361.25
198.365	2372.72
198.44	2383.14
198.515	2410.27
198.59	2423.74
198.665	2449.64
198.74	2455.11
198.815	2455.07
198.89	2474.25
198.965	2502.73
199.04	2501.92
199.115	2517.01
199.19	2560.58
199.265	2563.72
199.34	2571.2
199.415	2600.98
199.49	2621.64
199.565	2627.93
199.64	2650.88
199.715	2649.31
199.79	2655.64
199.865	2659.27
199.94	2659.41
200.015	2689.23
200.09	2695.81
200.165	2702.62
200.24	2711.58
200.315	2750.48
200.39	2761.06
200.464	2769.59
200.539	2768.59
200.614	2783.21
200.689	2804.51
200.764	2806.61
200.839	2824.99
200.914	2829.42
200.989	2819.6
201.063	2834.9
201.138	2821.42
201.213	2820.85
201.288	2801.17
201.363	2805.84
201.438	2806.51
201.512	2820.03
201.587	2803.16
201.662	2805.5
201.737	2816.51
201.812	2820.7
201.886	2788.65
201.961	2800.33
202.036	2787.76
202.111	2786.95
202.186	2761.42
202.26	2747.03
202.335	2725.11
202.41	2715.2
202.485	2699.29
202.559	2680.76
202.634	2653.18
202.709	2661.18
202.784	2645.22
202.858	2645.55
202.933	2627.84
203.008	2620.12
203.082	2602.55
203.157	2601.36
203.232	2561.08
203.306	2541.6
203.381	2512.49
203.456	2490.11
203.53	2466.66
203.605	2449.77
203.68	2427.95
203.754	2418.63
203.829	2404.96
203.904	2386.78
203.978	2378.45
204.053	2381.78
204.127	2372.83
204.202	2369.07
204.277	2354.46
204.351	2346.56
204.426	2337.32
204.5	2331.46
204.575	2300.44
204.65	2310.68
204.724	2302.2
204.799	2310
204.873	2305.19
204.948	2303.76
205.022	2294.01
205.097	2288.44
205.171	2301.81
205.246	2306.33
205.32	2308.62
205.395	2305.71
205.469	2299.15
205.544	2303.01
205.618	2286.16
205.693	2294.49
205.767	2286.49
205.842	2306.16
205.916	2298.49
205.991	2290.83
206.065	2296.16
206.14	2310.53
206.214	2303.77
206.289	2295.67
206.363	2309.52
206.438	2310.52
206.512	2318.38
206.586	2335.36
206.661	2341.13
206.735	2320.72
206.81	2325.1
206.884	2339.42
206.958	2330.24
207.033	2344.6
207.107	2353.7
207.181	2386.03
207.256	2379.41
207.33	2395.74
207.405	2406.51
207.479	2425.74
207.553	2431.73
207.628	2413.94
207.702	2424.08
207.776	2421.79
207.851	2430.26
207.925	2442.93
207.999	2442.69
208.073	2441.36
208.148	2443.74
208.222	2435.55
208.296	2465.68
208.371	2479.49
208.445	2489.59
208.519	2516.39
208.593	2525.53
208.668	2520.53
208.742	2520.19
208.816	2521.29
208.89	2534.53
208.965	2532.24
209.039	2541.34
209.113	2561.72
209.187	2580.81
209.261	2576.76
209.336	2594.67
209.41	2613.25
209.484	2614.34
209.558	2636.3
209.632	2647.4
209.707	2658.83
209.781	2676.21
209.855	2692.94
209.929	2709.15
210.003	2713.96
210.077	2714.72
210.151	2760.11
210.226	2792.24
210.3	2820.71
210.374	2844.19
210.448	2849.01
210.522	2858.97
210.596	2867.88
210.67	2874.12
210.744	2923.18
210.818	2955.76
210.892	2974.41
210.966	2969.78
211.041	2986.61
211.115	2985.37
211.189	3009.92
211.263	3030.32
211.337	3039.38
211.411	3053.3
211.485	3052.45
211.559	3065.55
211.633	3072.7
211.707	3052.19
211.781	3066.12
211.855	3039.22
211.929	3038.13
212.003	3029.69
212.077	3047.72
212.151	3069.28
212.225	3092.22
212.299	3092.8
212.373	3095.52
212.447	3107.68
212.52	3152.53
212.594	3172.57
212.668	3199.85
212.742	3207.72
212.816	3221.6
212.89	3240.54
212.964	3260.83
213.038	3291.19
213.112	3334.58
213.186	3377.04
213.26	3388.54
213.333	3377.89
213.407	3421.12
213.481	3467.64
213.555	3520.36
213.629	3551.31
213.703	3580.2
213.777	3625.21
213.85	3655.92
213.924	3737.93
213.998	3794.27
214.072	3845.58
214.146	3894.38
214.219	3959.72
214.293	4020.75
214.367	4092.28
214.441	4177.83
214.515	4249.34
214.588	4309.52
214.662	4362.05
214.736	4430.94
214.81	4528.45
214.883	4635.74
214.957	4720.73
215.031	4801.9
215.105	4885.41
215.178	4974.34
215.252	5078.71
215.326	5163.94
215.4	5261.42
215.473	5333.42
215.547	5428.44
215.621	5535.02
215.694	5662.07
215.768	5763.56
215.842	5880.63
215.915	5992.28
215.989	6089.41
216.063	6205.72
216.136	6334.41
216.21	6471.27
216.284	6621.44
216.357	6758.22
216.431	6892.87
216.504	7034.11
216.578	7203.74
216.652	7350.52
216.725	7505.98
216.799	7658.98
216.873	7814.42
216.946	7973.25
217.02	8119.87
217.093	8267.83
217.167	8394.36
217.24	8525.78
217.314	8677.4
217.387	8817.81
217.461	8967.79
217.535	9135.48
217.608	9283.09
217.682	9439.86
217.755	9596.17
217.829	9736.18
217.902	9892.17
217.976	10038.26
218.049	10188.06
218.123	10321.03
218.196	10481.45
218.27	10624.02
218.343	10758.26
218.417	10907.88
218.49	11055.47
218.563	11218.98
218.637	11377.67
218.71	11552.22
218.784	11710.3
218.857	11864.68
218.931	12026.47
219.004	12177.81
219.077	12330.61
219.151	12476.51
219.224	12618.23
219.298	12760
219.371	12910.49
219.444	13038.37
219.518	13178.79
219.591	13316.56
219.665	13479.11
219.738	13615.63
219.811	13744.62
219.885	13887.7
219.958	14025.61
220.031	14154.23
220.105	14287.27
220.178	14417.47
220.251	14542.32
220.325	14675.17
220.398	14798.77
220.471	14917.49
220.544	15049.18
220.618	15160.39
220.691	15281.81
220.764	15394.41
220.838	15518.19
220.911	15624.71
220.984	15762.85
221.057	15887.69
221.131	15998.31
221.204	16081.31
221.277	16204.99
221.35	16343.51
221.424	16445.35
221.497	16551.62
221.57	16649.46
221.643	16757.71
221.716	16856.56
221.79	16943.4
221.863	17038.93
221.936	17126.5
222.009	17222.07
222.082	17308
222.155	17395.71
222.229	17503.81
222.302	17601.44
222.375	17679.66
222.448	17769.3
222.521	17840.77
222.594	17909.25
222.667	17975.95
222.74	18060.09
222.814	18124.81
222.887	18182.54
222.96	18276.32
223.033	18339.16
223.106	18410.58
223.179	18477.66
223.252	18544.26
223.325	18609.85
223.398	18671.29
223.471	18746.42
223.544	18809.01
223.617	18873.78
223.69	18939.13
223.763	18977.1
223.837	19029.68
223.91	19090.78
223.983	19126.97
224.056	19170.44
224.129	19237.47
224.202	19311.59
224.275	19359.34
224.348	19393.99
224.42	19432.59
224.493	19450.13
224.566	19499.38
224.639	19551.04
224.712	19593.5
224.785	19633.98
224.858	19678.55
224.931	19706.7
225.004	19740.05
225.077	19772
225.15	19784
225.223	19819.75
225.296	19882.21
225.369	19908.38
225.442	19930.88
225.514	19974.11
225.587	20021.29
225.66	20059.31
225.733	20086.49
225.806	20132.61
225.879	20171.69
225.952	20195.16
226.025	20240.56
226.097	20280.9
226.17	20309.09
226.243	20314.25
226.316	20347.98
226.389	20380.17
226.461	20431.4
226.534	20463.64
226.607	20499.02
226.68	20555.35
226.753	20578.05
226.825	20582.39
226.898	20629.86
226.971	20656.66
227.044	20685.96
227.117	20703.98
227.189	20718.06
227.262	20756.42
227.335	20777.05
227.407	20797.05
227.48	20834.4
227.553	20860.66
227.626	20886.26
227.698	20911.32
227.771	20942.4
227.844	20952.81
227.916	20965.92
227.989	20964.09
228.062	20975.61
228.134	21018.6
228.207	21031.13
228.28	21051.81
228.352	21070.22
228.425	21077.59
228.498	21112.05
228.57	21121.79
228.643	21154.47
228.716	21177.7
228.788	21180.16
228.861	21184.45
228.934	21223.87
229.006	21234.47
229.079	21251.78
229.151	21254.81
229.224	21254.19
229.296	21270.38
229.369	21305.62
229.442	21334.68
229.514	21334.73
229.587	21363.45
229.659	21352.42
229.732	21371.21
229.804	21391.26
229.877	21423.56
229.949	21449.1
230.022	21478.75
230.094	21497.79
230.167	21509.88
230.239	21503.28
230.312	21525.26
230.384	21560.5
230.457	21561.27
230.529	21567
230.602	21563.39
230.674	21576.83
230.747	21603.39
230.819	21625.66
230.892	21609.27
230.964	21626.14
231.037	21647.3
231.109	21644.65
231.181	21660.56
231.254	21656.22
231.326	21646.63
231.399	21644.07
231.471	21636.22
231.544	21610.09
231.616	21622.77
231.688	21615.34
231.761	21613.32
231.833	21602.81
231.905	21575.05
231.978	21574.81
232.05	21577.75
232.122	21586.95
232.195	21576.4
232.267	21576.2
232.339	21569.17
232.412	21580.35
232.484	21565.5
232.556	21556.59
232.629	21585.7
232.701	21592.16
232.773	21586.57
232.846	21583.44
232.918	21583.19
232.99	21575.63
233.062	21580.64
233.135	21577.7
233.207	21560.64
233.279	21561.07
233.351	21562.71
233.424	21550.85
233.496	21527.38
233.568	21535.33
233.64	21512
233.713	21496.77
233.785	21488.97
233.857	21474.22
233.929	21453.06
234.001	21455.66
234.074	21455.18
234.146	21412.23
234.218	21387.46
234.29	21372.9
234.362	21359.94
234.434	21315.93
234.507	21299.88
234.579	21266.38
234.651	21239.01
234.723	21232.02
234.795	21212.45
234.867	21187.43
234.939	21186.71
235.012	21178.52
235.084	21160.49
235.156	21150.76
235.228	21136.3
235.3	21121.4
235.372	21110.75
235.444	21098.37
235.516	21053.88
235.588	21038.41
235.66	21021.88
235.732	21001.88
235.804	21036.96
235.876	21027.23
235.948	21033.74
236.02	21014.17
236.092	20995.23
236.164	20970.6
236.236	20948.48
236.308	20930.45
236.38	20912.24
236.452	20879.95
236.524	20850.11
236.596	20844.81
236.668	20828.91
236.74	20805.2
236.812	20775.6
236.884	20758.01
236.956	20730.98
237.028	20690.4
237.1	20656.66
237.172	20647.17
237.244	20634.45
237.316	20559.64
237.388	20524.22
237.46	20491.16
237.532	20473.96
237.604	20446.25
237.675	20440.56
237.747	20418.25
237.819	20388.7
237.891	20358.15
237.963	20328.42
238.035	20305.38
238.107	20236.66
238.178	20222.3
238.25	20187.5
238.322	20175.36
238.394	20120.18
238.466	20089.33
238.538	20074.54
238.609	20045.14
238.681	19988.42
238.753	19950.88
238.825	19926.88
238.897	19899.46
238.968	19883.03
239.04	19834.64
239.112	19825.01
239.184	19782.65
239.255	19748.96
239.327	19724.58
239.399	19689.88
239.471	19660.1
239.542	19633.21
239.614	19616.53
239.686	19547.09
239.758	19532.44
239.829	19494.03
239.901	19485.75
239.973	19459.48
240.044	19433.75
240.116	19413.6
240.188	19384.84
240.259	19355.44
240.331	19318.43
240.403	19289.08
240.474	19247.35
240.546	19222.15
240.618	19169.33
240.689	19126.2
240.761	19096.85
240.833	19084.42
240.904	19058.01
240.976	19032.91
241.048	19006.21
241.119	18977.92
241.191	18965.1
241.262	18949.25
241.334	18909.88
241.405	18867.47
241.477	18836.1
241.549	18805.31
241.62	18769.98
241.692	18741.45
241.763	18712.15
241.835	18679.39
241.906	18646.42
241.978	18593.85
242.049	18568.16
242.121	18550.28
242.192	18523.68
242.264	18472.79
242.335	18413.62
242.407	18385.62
242.478	18342.97
242.55	18309
242.621	18268.8
242.693	18226.83
242.764	18181.87
242.836	18148.38
242.907	18123.27
242.979	18083.7
243.05	18054.12
243.122	18022.7
243.193	17983.13
243.264	17928.82
243.336	17888.24
243.407	17868.15
243.479	17854.22
243.55	17820.92
243.622	17789.74
243.693	17753.26
243.764	17740.29
243.836	17703.67
243.907	17667.04
243.978	17638.66
244.05	17609.64
244.121	17563.43
244.192	17540.15
244.264	17490.51
244.335	17453.6
244.407	17394.8
244.478	17370.42
244.549	17330.99
244.62	17280.3
244.692	17250.41
244.763	17226.75
244.834	17188.97
244.906	17143.62
244.977	17105.79
245.048	17084.92
245.119	17040.1
245.191	17005.93
245.262	16950.46
245.333	16926.5
245.405	16893.15
245.476	16853.87
245.547	16823.75
245.618	16800.23
245.689	16768.47
245.761	16731.89
245.832	16695.94
245.903	16681
245.974	16644.13
246.045	16609.96
246.117	16597.96
246.188	16555.59
246.259	16513.85
246.33	16479.54
246.401	16449.65
246.473	16409.99
246.544	16374.9
246.615	16355.43
246.686	16318.51
246.757	16300.92
246.828	16258.46
246.899	16243.27
246.97	16199.41
247.042	16156.18
247.113	16124.18
247.184	16107.5
247.255	16077.38
247.326	16046.43
247.397	16009.46
247.468	15981.85
247.539	15949.55
247.61	15904.29
247.681	15888.72
247.752	15871.28
247.823	15842.98
247.894	15802.16
247.965	15757.43
248.037	15715.59
248.108	15664.55
248.179	15633.46
248.25	15597.74
248.321	15578.6
248.392	15522.79
248.463	15517.97
248.534	15483.31
248.605	15464.37
248.675	15426.39
248.746	15408.89
248.817	15393.03
248.888	15374.19
248.959	15326.95
249.03	15302.08
249.101	15272.58
249.172	15235.17
249.243	15179.06
249.314	15160.22
249.385	15144.21
249.456	15126.23
249.527	15099.14
249.598	15078.61
249.669	15047.08
249.739	15018.98
249.81	14991.07
249.881	14954.96
249.952	14925.95
250.023	14899.92
250.094	14853.45
250.165	14817.54
250.235	14786.83
250.306	14755.6
250.377	14713.56
250.448	14694.96
250.519	14643.57
250.59	14622.02
250.66	14582.11
250.731	14572.13
250.802	14549.47
250.873	14518.33
250.944	14489.75
251.014	14458.03
251.085	14454.8
251.156	14434.84
251.227	14426.07
251.297	14409.44
251.368	14398.3
251.439	14380.27
251.51	14367.55
251.58	14338.77
251.651	14309.07
251.722	14287.57
251.792	14243.85
251.863	14213.14
251.934	14192.32
252.005	14202.49
252.075	14187.02
252.146	14173.62
252.217	14162.19
252.287	14135.2
252.358	14109.69
252.429	14106.95
252.499	14068.04
252.57	14036.33
252.641	14022.3
252.711	13987.73
252.782	13941.5
252.852	13933.6
252.923	13898.89
252.994	13865.96
253.064	13848.13
253.135	13815.2
253.205	13784.88
253.276	13777.26
253.347	13774.52
253.417	13750.32
253.488	13711.9
253.558	13674.63
253.629	13653.71
253.699	13634.62
253.77	13623
253.841	13595.57
253.911	13577.83
253.982	13566.02
254.052	13550.16
254.123	13531.75
254.193	13513.33
254.264	13535.07
254.334	13500.7
254.405	13469.8
254.475	13444.93
254.546	13425.36
254.616	13415.14
254.687	13399.13
254.757	13375.56
254.827	13343.79
254.898	13322.72
254.968	13301.71
255.039	13277.99
255.109	13265.07
255.18	13229.83
255.25	13187.22
255.321	13176.13
255.391	13131.78
255.461	13130.43
255.532	13079.43
255.602	13046.65
255.673	13008.85
255.743	12970.87
255.813	12931.77
255.884	12927.77
255.954	12911.91
256.024	12908.44
256.095	12891.71
256.165	12858.74
256.235	12841.77
256.306	12818.3
256.376	12802.87
256.446	12793.37
256.517	12776.69
256.587	12766.23
256.657	12746.32
256.728	12725.55
256.798	12700.82
256.868	12676.91
256.938	12639.26
257.009	12643.79
257.079	12636.46
257.149	12636.46
257.219	12597.37
257.29	12578.33
257.36	12537.07
257.43	12515.86
257.5	12474.98
257.571	12441.38
257.641	12429.72
257.711	12402.48
257.781	12381.9
257.852	12371.1
257.922	12328.78
257.992	12306.36
258.062	12282.21
258.132	12273.87
258.202	12249.96
258.273	12235.55
258.343	12231.89
258.413	12215.16
258.483	12184.46
258.553	12144.83
258.623	12113.16
258.693	12098.03
258.764	12092.87
258.834	12086.41
258.904	12073.59
258.974	12043.08
259.044	12023.32
259.114	12007.03
259.184	11982.64
259.254	11960.46
259.324	11922.82
259.394	11913.76
259.464	11908.31
259.535	11884.84
259.605	11858.23
259.675	11836.54
259.745	11818.13
259.815	11783.95
259.885	11751.37
259.955	11757.54
260.025	11736.62
260.095	11711.85
260.165	11698.88
260.235	11694.06
260.305	11670.2
260.375	11642.3
260.445	11651.5
260.515	11652.13
260.585	11645.14
260.655	11632.66
260.725	11623.69
260.795	11605.52
260.865	11609.14
260.934	11585.52
261.004	11573.86
261.074	11556.51
261.144	11554.38
261.214	11544.99
261.284	11538.43
261.354	11533.95
261.424	11503.15
261.494	11506.96
261.564	11500.98
261.634	11492.69
261.703	11459.44
261.773	11447.63
261.843	11435.1
261.913	11410.37
261.983	11381.17
262.053	11367.04
262.123	11344.39
262.192	11317.6
262.262	11317.36
262.332	11280.34
262.402	11273.55
262.472	11254.61
262.541	11222.03
262.611	11218.32
262.681	11189.45
262.751	11175.52
262.821	11152.25
262.89	11123.57
262.96	11106.61
263.03	11108.97
263.1	11088.63
263.169	11072.49
263.239	11053.65
263.309	11052.35
263.379	11043.29
263.448	11028.54
263.518	11016.2
263.588	11004.2
263.657	11003.24
263.727	10990.23
263.797	10972.78
263.867	10952.21
263.936	10922.47
264.006	10921.17
264.076	10893.75
264.145	10869.23
264.215	10842.15
264.285	10833.42
264.354	10803.94
264.424	10778.3
264.494	10743.7
264.563	10726.35
264.633	10730.35
264.702	10721.29
264.772	10689.15
264.842	10669.88
264.911	10657.78
264.981	10622.27
265.05	10607.24
265.12	10584.21
265.19	10568.54
265.259	10563.2
265.329	10551.87
265.398	10544.55
265.468	10550.52
265.537	10528.17
265.607	10530.72
265.676	10530.24
265.746	10524.46
265.815	10523.06
265.885	10507.74
265.955	10483.7
266.024	10463.95
266.094	10422.85
266.163	10425.02
266.232	10420.2
266.302	10401.55
266.371	10388.21
266.441	10378.76
266.51	10370.82
266.58	10361.85
266.649	10342.15
266.719	10337.14
266.788	10332.32
266.858	10333.38
266.927	10295.8
266.996	10287.66
267.066	10276.72
267.135	10250.66
267.205	10244.78
267.274	10231.77
267.343	10232.3
267.413	10222.62
267.482	10223.05
267.552	10229.12
267.621	10196.89
267.69	10172.37
267.76	10164.28
267.829	10154.16
267.898	10140.96
267.968	10119.72
268.037	10115.77
268.106	10107.19
268.176	10079.35
268.245	10059.26
268.314	10033.25
268.384	10025.73
268.453	10015.38
268.522	9998.95
268.592	9998.95
268.661	9977.27
268.73	9974.57
268.799	9956.32
268.869	9963.06
268.938	9932.04
269.007	9908.68
269.076	9897.84
269.146	9895.87
269.215	9886.52
269.284	9884.84
269.353	9867.54
269.422	9854.16
269.492	9827.13
269.561	9793.32
269.63	9793.23
269.699	9776.51
269.768	9769.67
269.838	9765.53
269.907	9763.36
269.976	9736.92
270.045	9702.92
270.114	9698.54
270.183	9682.69
270.253	9681.2
270.322	9644.84
270.391	9636.65
270.46	9640.94
270.529	9636.17
270.598	9629.28
270.667	9612.18
270.736	9588.44
270.806	9584.68
270.875	9582.47
270.944	9573.46
271.013	9590.08
271.082	9578.71
271.151	9571.58
271.22	9543.65
271.289	9531.13
271.358	9516.49
271.427	9516.54
271.496	9512.3
271.565	9497.04
271.634	9485.14
271.703	9477.87
271.772	9484.99
271.841	9478.88
271.91	9452.06
271.979	9443.05
272.048	9424.08
272.117	9423.45
272.186	9412.66
272.255	9405.2
272.324	9409.73
272.393	9405.78
272.462	9390.13
272.531	9379.2
272.6	9367.69
272.669	9379.68
272.738	9364.31
272.807	9354.64
272.876	9336.39
272.945	9357.43
273.013	9358.06
273.082	9360.99
273.151	9337.5
273.22	9330.18
273.289	9315.3
273.358	9325.31
273.427	9312.41
273.496	9307.93
273.564	9299.65
273.633	9299.84
273.702	9281.21
273.771	9266.43
273.84	9259.3
273.909	9254.48
273.977	9249.33
274.046	9241.77
274.115	9239.32
274.184	9224.92
274.253	9215.68
274.322	9220.54
274.39	9193.19
274.459	9178.55
274.528	9148.75
274.597	9138.93
274.665	9133.68
274.734	9143.5
274.803	9132.19
274.872	9125.64
274.94	9107.83
275.009	9166.16
275.078	9149.36
275.147	9156.05
275.215	9149.98
275.284	9157.01
275.353	9146.51
275.421	9127.55
275.49	9138.23
275.559	9126.05
275.627	9118.21
275.696	9111.47
275.765	9108.72
275.833	9094.52
275.902	9088.17
275.971	9095.24
276.039	9114.12
276.108	9122.06
276.177	9118.93
276.245	9112.19
276.314	9110.8
276.383	9117.63
276.451	9052.03
276.52	9059.49
276.588	9061.42
276.657	9064.07
276.725	9052.22
276.794	9049.86
276.863	9060.41
276.931	9038.6
277	9044.9
277.068	9050.44
277.137	9067.58
277.205	9058.87
277.274	9081.64
277.342	9090.11
277.411	9076.25
277.48	9059.83
277.548	9047.99
277.617	9043.75
277.685	9035.66
277.754	9040.72
277.822	9032.58
277.89	9055.31
277.959	9040.77
278.027	9025.56
278.096	9011.79
278.164	9031.34
278.233	9019.93
278.301	9006.5
278.37	9008.47
278.438	8995.91
278.507	8999.13
278.575	8971.93
278.643	8965.05
278.712	8940.98
278.78	8923.17
278.849	8935.39
278.917	8940.01
278.985	8929.71
279.054	8929.04
279.122	8936.07
279.191	8928.12
279.259	8926.34
279.327	8888.79
279.396	8909.63
279.464	8899.62
279.532	8908.24
279.601	8904.53
279.669	8904.53
279.737	8917.29
279.806	8923.88
279.874	8931.78
279.942	8932.74
280.011	8926.96
280.079	8939.58
280.147	8954.83
280.215	8961.14
280.284	8954.64
280.352	8945.06
280.42	8951.51
280.488	8948.14
280.557	8937.6
280.625	8936.69
280.693	8935.58
280.761	8939.05
280.83	8925.13
280.898	8935.67
280.966	8917.19
281.034	8885.51
281.102	8872.95
281.171	8864.72
281.239	8868.09
281.307	8861.11
281.375	8844.65
281.443	8873.82
281.512	8871.65
281.58	8877.53
281.648	8861.26
281.716	8860.87
281.784	8859.43
281.852	8854.23
281.92	8847.92
281.989	8858.85
282.057	8846.82
282.125	8887.16
282.193	8886.3
282.261	8880.09
282.329	8873.49
282.397	8874.21
282.465	8881.68
282.533	8892.55
282.601	8879.36
282.67	8860.16
282.738	8849.18
282.806	8873.54
282.874	8857.07
282.942	8857.46
283.01	8848.6
283.078	8858.13
283.146	8854.47
283.214	8858.37
283.282	8857.07
283.35	8874.26
283.418	8869.35
283.486	8872.48
283.554	8831.21
283.622	8832.27
283.69	8828.04
283.758	8827.89
283.826	8832.23
283.894	8837.52
283.962	8855.19
284.03	8871.84
284.098	8869.53
284.165	8863.27
284.233	8850.13
284.301	8840.27
284.369	8832.32
284.437	8824.43
284.505	8813.74
284.573	8825.25
284.641	8813.65
284.709	8819.09
284.777	8796.08
284.845	8797.71
284.912	8805.41
284.98	8809.02
285.048	8801.13
285.116	8807.29
285.184	8818.36
285.252	8816.15
285.319	8798.44
285.387	8789.1
285.455	8772.35
285.523	8773.5
285.591	8774.7
285.659	8775.09
285.726	8791.7
285.794	8782.21
285.862	8779.76
285.93	8778.12
285.997	8769.41
286.065	8769.7
286.133	8762.62
286.201	8759.4
286.269	8752.42
286.336	8735.86
286.404	8728.35
286.472	8740.05
286.539	8718.92
286.607	8700.34
286.675	8702.94
286.743	8703.28
286.81	8697.12
286.878	8708.86
286.946	8704
287.013	8699.43
287.081	8698.47
287.149	8679.84
287.216	8692.11
287.284	8687.93
287.352	8691.87
287.419	8689.13
287.487	8701.11
287.555	8706.46
287.622	8706.17
287.69	8709.63
287.758	8722.82
287.825	8718.35
287.893	8705.45
287.96	8710.4
288.028	8724.07
288.096	8718.87
288.163	8728.74
288.231	8718.49
288.298	8714.97
288.366	8730.91
288.433	8733.36
288.501	8724.74
288.569	8727.05
288.636	8723.78
288.704	8735.04
288.771	8740.44
288.839	8732.11
288.906	8722.92
288.974	8726.48
289.041	8722.05
289.109	8713.82
289.176	8720.56
289.244	8728.36
289.311	8740.53
289.379	8750.64
289.446	8751.94
289.514	8758.24
289.581	8757.52
289.649	8760.22
289.716	8761.71
289.783	8754.39
289.851	8769.27
289.918	8771.86
289.986	8780.34
290.053	8783.85
290.121	8781.39
290.188	8783.9
290.255	8812.3
290.323	8811.72
290.39	8810.61
290.458	8822.5
290.525	8838.34
290.592	8831.65
290.66	8836.31
290.727	8829.72
290.794	8843.78
290.862	8841.71
290.929	8838.91
290.996	8834.97
291.064	8842.23
291.131	8851.77
291.198	8861.97
291.266	8853.84
291.333	8856.92
291.4	8863.56
291.468	8878.63
291.535	8873.67
291.602	8876.9
291.669	8868.9
291.737	8876.08
291.804	8874.01
291.871	8886.28
291.938	8888.83
292.006	8922.87
292.073	8929.23
292.14	8946.56
292.207	8943.72
292.275	8948.53
292.342	8960.18
292.409	8990.99
292.476	9017.85
292.543	9014.34
292.611	9015.59
292.678	9036.53
292.745	9062.19
292.812	9070.47
292.879	9068.11
292.946	9075.91
293.014	9085.3
293.081	9094.69
293.148	9101.52
293.215	9111.25
293.282	9107.15
293.349	9117.41
293.416	9095.21
293.484	9106.09
293.551	9106.09
293.618	9125.01
293.685	9152.03
293.752	9144.52
293.819	9136.86
293.886	9125.93
293.953	9130.07
294.02	9138.64
294.087	9143.79
294.154	9132.96
294.221	9147.79
294.288	9144.42
294.356	9157.13
294.423	9167.38
294.49	9162.81
294.557	9175.95
294.624	9174.27
294.691	9190.78
294.758	9193.48
294.825	9200.08
294.892	9196.27
294.959	9196.61
295.026	9202.2
295.093	9186.83
295.16	9190.35
295.226	9197.23
295.293	9220.25
295.36	9226.66
295.427	9239.03
295.494	9253.67
295.561	9264.79
295.628	9283.14
295.695	9299.32
295.762	9303.84
295.829	9310.3
295.896	9323.1
295.963	9333.31
296.03	9346.22
296.096	9346.94
296.163	9352.62
296.23	9372.7
296.297	9387.48
296.364	9395.86
296.431	9397.21
296.498	9396.3
296.564	9419.55
296.631	9422.15
296.698	9407.99
296.765	9429.66
296.832	9416.08
296.899	9400.19
296.965	9416.37
297.032	9401.25
297.099	9421.24
297.166	9429.95
297.233	9426.2
297.299	9418.78
297.366	9416.56
297.433	9412.42
297.5	9426.29
297.566	9430.68
297.633	9423.93
297.7	9423.64
297.767	9419.55
297.833	9420.76
297.9	9424.32
297.967	9412.47
298.033	9422.92
298.1	9452.35
298.167	9439.44
298.234	9441.47
298.3	9450.57
298.367	9444.88
298.434	9449.99
298.5	9438.57
298.567	9440.93
298.634	9437.9
298.7	9458.41
298.767	9467.27
298.834	9482.93
298.9	9473.78
298.967	9463.81
299.033	9469.35
299.1	9489.14
299.167	9504.02
299.233	9501.51
299.3	9517.07
299.366	9527.42
299.433	9541.53
299.5	9512.3
299.566	9519.38
299.633	9539.75
299.699	9550.34
299.766	9547.84
299.832	9548.85
299.899	9560.89
299.965	9568.64
300.032	9571.58
300.099	9578.23
300.165	9574.66
300.232	9574.23
300.298	9576.06
300.365	9587.57
300.431	9593.73
300.498	9583.52
300.564	9591.76
300.631	9604.28
300.697	9614.11
300.763	9619.88
300.83	9618.15
300.896	9636.45
300.963	9650.37
301.029	9657.21
301.096	9662.84
301.162	9674.16
301.229	9668.43
301.295	9659.09
301.361	9656.82
301.428	9660.34
301.494	9647.05
301.561	9652.68
301.627	9655.28
301.693	9662.89
301.76	9668.33
301.826	9666.89
301.892	9671.66
301.959	9676.57
302.025	9672.47
302.092	9669.34
302.158	9679.99
302.224	9682.3
302.291	9671.46
302.357	9666.94
302.423	9657.45
302.49	9646.23
302.556	9651.81
302.622	9656.97
302.688	9662.07
302.755	9678.01
302.821	9681.1
302.887	9692.27
302.954	9690.58
303.02	9698.96
303.086	9705.9
303.152	9706.48
303.219	9702.48
303.285	9714.18
303.351	9716.69
303.417	9720.69
303.483	9711.54
303.55	9698.44
303.616	9696.7
303.682	9697.47
303.748	9684.13
303.815	9700.56
303.881	9711.1
303.947	9702.1
304.013	9702.15
304.079	9691.21
304.145	9668.53
304.212	9670.79
304.278	9654.61
304.344	9653.55
304.41	9640.36
304.476	9628.46
304.542	9619.79
304.608	9618.11
304.674	9597.25
304.741	9593.4
304.807	9593.3
304.873	9598.79
304.939	9608.71
305.005	9589.54
305.071	9585.79
305.137	9586.51
305.203	9557.56
305.269	9560.17
305.335	9570.47
305.401	9566.62
305.467	9569.7
305.533	9581.12
305.599	9591.57
305.666	9599.13
305.732	9596.86
305.798	9604.42
305.864	9622.49
305.93	9627.35
305.996	9630
306.062	9627.88
306.128	9627.3
306.194	9619.26
306.259	9617.48
306.325	9614.49
306.391	9629.71
306.457	9632.89
306.523	9642.33
306.589	9664.24
306.655	9652.83
306.721	9636.16
306.787	9628.55
306.853	9636.31
306.919	9618.97
306.985	9605.53
307.051	9606.64
307.117	9597.83
307.183	9592.72
307.248	9568.45
307.314	9573.84
307.38	9571.34
307.446	9581.16
307.512	9562.67
307.578	9559.01
307.644	9556.7
307.709	9556.65
307.775	9540.61
307.841	9540.42
307.907	9535.8
307.973	9517.54
308.039	9516.1
308.104	9519.42
308.17	9516.58
308.236	9501.51
308.302	9506.9
308.368	9499.63
308.433	9493.61
308.499	9488.46
308.565	9471.94
308.631	9472.28
308.696	9447.24
308.762	9435.25
308.828	9428.84
308.894	9416.13
308.959	9398.89
309.025	9387.19
309.091	9388.15
309.156	9387.14
309.222	9383.91
309.288	9371.2
309.354	9347.46
309.419	9345.97
309.485	9331.38
309.551	9331.33
309.616	9318.48
309.682	9310.72
309.748	9301.67
309.813	9298.49
309.879	9287.66
309.945	9282.27
310.01	9275.38
310.076	9278.08
310.141	9276.49
310.207	9263.73
310.273	9264.84
310.338	9264.69
310.404	9250.44
310.469	9230.46
310.535	9219.14
310.601	9200.46
310.666	9209.08
310.732	9226.07
310.797	9211.1
310.863	9203.25
310.928	9199.01
310.994	9198.1
311.059	9200.27
311.125	9197.09
311.191	9201.37
311.256	9189.63
311.322	9190.45
311.387	9170.47
311.453	9522.58
311.518	9496.92
311.584	9488.69
311.649	9491.82
311.715	9484.31
311.78	9483.68
311.846	9470.73
311.911	9475.45
311.976	9472.61
312.042	9452.63
312.107	9432.98
312.173	9420.32
312.238	9413.25
312.304	9404.77
312.369	9400.58
312.434	9386.04
312.5	9373
312.565	9344.98
312.631	9351.09
312.696	9343.48
312.761	9345.6
312.827	8980.97
312.892	9016.98
312.958	9013.8
313.023	9009.33
313.088	9013.9
313.154	9004.27
313.219	8998.06
313.284	8986.41
313.35	8988.77
313.415	8977.55
313.48	8973.75
313.546	8980.78
313.611	8985.74
313.676	8980.88
313.741	8972.12
313.807	8975.87
313.872	8982.8
313.937	8988
314.003	9000.23
314.068	9000.09
314.133	9004.9
314.198	8991.71
314.264	8966.19
314.329	8954.35
314.394	8947.61
314.459	8930.91
314.525	8943.66
314.59	8938.37
314.655	8928.07
314.72	8929.22
314.785	8929.56
314.851	8922.82
314.916	8903.61
314.981	8890.38
315.046	8880.46
315.111	8869.29
315.176	8852.2
315.242	8854.56
315.307	8853.79
315.372	8834.3
315.437	8824.72
315.502	8816.73
315.567	8829.29
315.632	8814.99
315.698	8821.68
315.763	8816.05
315.828	8812.54
315.893	8807.29
315.958	8802.72
316.023	8794.3
316.088	8771.91
316.153	8753.1
316.218	8747.71
316.283	8727.4
316.348	8711.47
316.413	8706.8
316.479	8696.84
316.544	8668.93
316.609	8637.17
316.674	8602.8
316.739	8565.99
316.804	8534.43
316.869	8504.11
316.934	8468.98
316.999	8438.33
317.064	8388.91
317.129	8347.72
317.194	8309.24
317.259	8256.11
317.324	8210.61
317.389	8167.17
317.454	8129.83
317.518	8094.72
317.583	8066.53
317.648	8043.73
317.713	8008.28
317.778	7952.33
317.843	7914.96
317.908	7879.13
317.973	7839.21
318.038	7802.57
318.103	7765.02
318.168	7730.78
318.233	7697.45
318.297	7645.33
318.362	7609.07
318.427	7566.44
318.492	7539.07
318.557	7493.61
318.622	7472.02
318.687	7444.81
318.751	7401.17
318.816	7361.09
318.881	7327.49
318.946	7268.08
319.011	7220.41
319.075	7171.34
319.14	7130.93
319.205	7090.81
319.27	7052.85
319.335	7007.01
319.399	6969.2
319.464	6941.19
319.529	6886.24
319.594	6840.5
319.658	6807.5
319.723	6764.8
319.788	6730.56
319.853	6676.04
319.917	6645.07
319.982	6586.38
320.047	6544.65
320.112	6516.76
320.176	6466.3
320.241	6426.54
320.306	6397.74
320.37	6360.25
320.435	6332.41
320.5	6305.48
320.564	6261.9
320.629	6220.77
320.694	6185.07
320.758	6139.81
320.823	6092.11
320.888	6065.63
320.952	6018.09
321.017	5972.42
321.082	5933.46
321.146	5899.45
321.211	5861.75
321.275	5823.86
321.34	5780.66
321.405	5735.68
321.469	5686.52
321.534	5647.6
321.598	5596.73
321.663	5567.14
321.727	5533.96
321.792	5483.58
321.857	5434.25
321.921	5393.75
321.986	5351.1
322.05	5296.86
322.115	5255.66
322.179	5212.11
322.244	5155.15
322.308	5118.99
322.373	5074.4
322.437	5030.71
322.502	5005.17
322.566	4957.71
322.631	4921.5
322.695	4882.24
322.76	4838.01
322.824	4801.67
322.889	4759.89
322.953	4716.73
323.018	4649.57
323.082	4582.29
323.146	4531.48
323.211	4481.1
323.275	4437.13
323.34	4389.82
323.404	4354.86
323.468	4311.96
323.533	4270.93
323.597	4229.24
323.662	4176.84
323.726	4142.7
323.79	4096.85
323.855	4029.66
323.919	3983.68
323.983	3936.21
324.048	3870.54
324.112	4021.28
324.177	3892.96
324.241	3691.65
324.305	3493.69
324.37	3299.4
324.434	3115.86
324.498	3074.84
324.562	3025.53
324.627	2966.23
324.691	2913.94
324.755	2850.98
324.82	2778.96
324.884	2701.52
324.948	2630.22
325.012	2545.45
325.077	2426.48
