Data from 20250630_urea_2M_MAYP1162681_22-22-26-901.txt Node
Date: Mon Jun 30 22:22:26 BST 2025
User: adleo
Spectrometer: MAYP116268
Trigger mode: 0
Integration Time (sec): 1.000000E0
Scans to average: 1
Electric dark correction enabled: true
Nonlinearity correction enabled: true
Boxcar width: 10
XAxis mode: Wavelengths
Number of Pixels in Spectrum: 2068
>>>>>Begin Spectral Data<<<<<
179.565	1122.14
179.642	1172.48
179.718	1211.54
179.795	1247.73
179.871	1273.9
179.948	1288.45
180.024	1307.45
180.101	1329.88
180.177	1345.12
180.254	1365.37
180.33	1386.35
180.407	1430.97
180.483	1518.52
180.56	1601.33
180.636	1679.99
180.712	1668.44
180.789	1679.33
180.865	1690.44
180.942	1699.51
181.018	1707.45
181.095	1719.76
181.171	1723.09
181.248	1722.75
181.324	1737.68
181.4	1744.43
181.477	1757.26
181.553	1770.18
181.63	1791.28
181.706	1804.3
181.782	1811.95
181.859	1811.67
181.935	1815.99
182.011	1813.86
182.088	1831.78
182.164	1851.22
182.24	1863.01
182.317	1874.08
182.393	1871.18
182.469	1882.73
182.546	1895.14
182.622	1897.37
182.698	1895.23
182.775	1906.12
182.851	1920.52
182.927	1914.44
183.003	1910.87
183.08	1906.31
183.156	1914.63
183.232	1910.4
183.308	1899.27
183.385	1907.12
183.461	1924.23
183.537	1925.37
183.613	1938.4
183.69	1931.27
183.766	1919.33
183.842	1925.7
183.918	1930.5
183.995	1943.1
184.071	1946.62
184.147	1939.44
184.223	1933.36
184.299	1942.77
184.375	1931.41
184.452	1936.26
184.528	1987.63
184.604	1997.71
184.68	2008.69
184.756	2015.39
184.832	2018.34
184.908	2024.81
184.985	2023
185.061	2008.5
185.137	2019.01
185.213	2006.93
185.289	2007.74
185.365	2003.32
185.441	2000.99
185.517	2015.45
185.593	2013.36
185.669	2010.41
185.745	2021.02
185.822	2035.8
185.898	2026.86
185.974	2037.6
186.05	2032.37
186.126	1994.46
186.202	1986
186.278	1983.76
186.354	1976.01
186.43	1983.86
186.506	1979.87
186.582	1979.11
186.658	1984.53
186.734	1963.8
186.81	1969.98
186.886	1970.74
186.962	1984.29
187.038	1984.05
187.114	1972.78
187.19	1978.2
187.266	1971.11
187.341	1972.59
187.417	1964.84
187.493	1967.41
187.569	1970.26
187.645	1964.13
187.721	1953.62
187.797	1962.6
187.873	1963.84
187.949	1958.51
188.025	1951.62
188.101	1956.65
188.176	1963.31
188.252	1957.94
188.328	1965.26
188.404	1961.69
188.48	1957.75
188.556	1949.43
188.632	1950
188.707	1951.14
188.783	1947.67
188.859	1943.06
188.935	1932.69
189.011	1940.96
189.086	1933.88
189.162	1927.7
189.238	1927.55
189.314	1924.61
189.39	1918.09
189.465	1913.29
189.541	1928.79
189.617	1915.05
189.693	1909.49
189.768	1911.92
189.844	1936.79
189.92	1930.04
189.996	1940.46
190.071	1950.44
190.147	1948.97
190.223	1956.2
190.298	1946.45
190.374	1935.18
190.45	1945.69
190.526	1952.96
190.601	1950.96
190.677	1953.29
190.753	1978.51
190.828	1980.6
190.904	1995.06
190.98	2010.8
191.055	2021.35
191.131	2015.5
191.207	2034.48
191.282	2044.13
191.358	2035.19
191.433	2021.72
191.509	2035.7
191.585	2032.42
191.66	2034.08
191.736	2040.69
191.811	2032.03
191.887	2049.39
191.963	2075.7
192.038	2081.83
192.114	2083.54
192.189	2083.26
192.265	2078.03
192.34	2057.71
192.416	2055.91
192.491	2053.72
192.567	2057.05
192.642	2057.76
192.718	2056.86
192.793	2043.4
192.869	2039.36
192.944	2041.07
193.02	2049.3
193.095	2050.2
193.171	2055.62
193.246	2052.25
193.322	2050.49
193.397	2050.68
193.473	2035.55
193.548	2016.14
193.624	2022.19
193.699	2020.47
193.775	2037.7
193.85	2038.88
193.925	2045.64
194.001	2044.73
194.076	2035.7
194.152	2024.28
194.227	2017.24
194.302	2006.93
194.378	2012.49
194.453	2011.63
194.529	2024.76
194.604	2010.59
194.679	2006.45
194.755	1988
194.83	2002.7
194.905	2001.9
194.981	2008.7
195.056	2004.28
195.131	2010.65
195.207	2006.22
195.282	1997.05
195.357	1977.92
195.433	1993.42
195.508	1984.24
195.583	1991.57
195.659	2004.79
195.734	2011.54
195.809	2010.26
195.884	2019.67
195.96	2019.34
196.035	2033.08
196.11	2028.42
196.185	2037.17
196.261	2038.5
196.336	2069.41
196.411	2055.62
196.486	2056.52
196.561	2051.53
196.637	2060.75
196.712	2073.26
196.787	2075.17
196.862	2091.34
196.937	2100.71
197.013	2107.7
197.088	2117.16
197.163	2140.43
197.238	2157.19
197.313	2157.57
197.388	2173.22
197.464	2202.49
197.539	2214.05
197.614	2206.34
197.689	2215.14
197.764	2232.8
197.839	2253.5
197.914	2247.64
197.989	2269.39
198.065	2286.04
198.14	2335.56
198.215	2359.31
198.29	2371.41
198.365	2384.4
198.44	2391.01
198.515	2416.24
198.59	2430.67
198.665	2455.09
198.74	2461.09
198.815	2463
198.89	2481.47
198.965	2509.57
199.04	2504.71
199.115	2519.51
199.19	2562.22
199.265	2566.65
199.34	2576.75
199.415	2608.34
199.49	2629.14
199.565	2635.67
199.64	2659.06
199.715	2653.72
199.79	2661.43
199.865	2667.29
199.94	2667.01
200.015	2698.64
200.09	2704.64
200.165	2711.41
200.24	2716.65
200.315	2755.84
200.39	2770
200.464	2776.19
200.539	2774.19
200.614	2790.81
200.689	2811.49
200.764	2813.07
200.839	2829.59
200.914	2833.07
200.989	2820.2
201.063	2829.44
201.138	2814.06
201.213	2810.39
201.288	2793
201.363	2798.72
201.438	2796.43
201.512	2811.06
201.587	2795.33
201.662	2797
201.737	2808.43
201.812	2815.39
201.886	2781.06
201.961	2792.07
202.036	2783.35
202.111	2781.35
202.186	2752.63
202.26	2738.24
202.335	2719.56
202.41	2713.23
202.485	2696.99
202.559	2682.17
202.634	2661.16
202.709	2670.5
202.784	2654.92
202.858	2654.92
202.933	2638.25
203.008	2636.2
203.082	2617.67
203.157	2616.53
203.232	2577.3
203.306	2554.81
203.381	2526.71
203.456	2504.38
203.53	2479.54
203.605	2461.55
203.68	2444.02
203.754	2438.89
203.829	2425.12
203.904	2406.84
203.978	2396.32
204.053	2402.32
204.127	2388.66
204.202	2385.09
204.277	2369.81
204.351	2362.48
204.426	2356.29
204.5	2345.49
204.575	2313.79
204.65	2323.36
204.724	2317.26
204.799	2328.11
204.873	2325.87
204.948	2323.49
205.022	2315.26
205.097	2306.6
205.171	2317.97
205.246	2321.87
205.32	2321.49
205.395	2319.06
205.469	2312.55
205.544	2318.07
205.618	2298.94
205.693	2309.88
205.767	2302.08
205.842	2321.17
205.916	2314.03
205.991	2306.03
206.065	2313.36
206.14	2326.87
206.214	2322.4
206.289	2314.4
206.363	2323.87
206.438	2325.87
206.512	2333.82
206.586	2350.57
206.661	2360.52
206.735	2340.45
206.81	2340.49
206.884	2354.96
206.958	2344.64
207.033	2358.62
207.107	2365.96
207.181	2395.95
207.256	2390.57
207.33	2405.57
207.405	2415.57
207.479	2437.13
207.553	2443.32
207.628	2426.72
207.702	2436.43
207.776	2431.71
207.851	2433.14
207.925	2447.38
207.999	2443.57
208.073	2441.53
208.148	2446.29
208.222	2432.43
208.296	2461.98
208.371	2480.66
208.445	2490.61
208.519	2518.84
208.593	2529.98
208.668	2525.7
208.742	2527.17
208.816	2529.08
208.89	2543.32
208.965	2545.7
209.039	2554.71
209.113	2570.38
209.187	2591.36
209.261	2588.65
209.336	2606.08
209.41	2626.13
209.484	2624.37
209.558	2646.85
209.632	2660.33
209.707	2667.52
209.781	2690.38
209.855	2706.97
209.929	2719.55
210.003	2723.94
210.077	2724.56
210.151	2773.63
210.226	2806.76
210.3	2834.08
210.374	2857.8
210.448	2860.57
210.522	2869.24
210.596	2878.82
210.67	2887.26
210.744	2932.31
210.818	2965.81
210.892	2985.97
210.966	2980.02
211.041	2999.51
211.115	2999.37
211.189	3020.53
211.263	3043.46
211.337	3052.95
211.411	3069.55
211.485	3066.45
211.559	3081.27
211.633	3088.09
211.707	3059.89
211.781	3073.87
211.855	3048.4
211.929	3047.83
212.003	3038.16
212.077	3056.91
212.151	3076.51
212.225	3099.69
212.299	3099.69
212.373	3101.98
212.447	3117.01
212.52	3159.98
212.594	3180.79
212.668	3208.98
212.742	3218.09
212.816	3233.51
212.89	3253.97
212.964	3277.41
213.038	3312.26
213.112	3352.79
213.186	3397.4
213.26	3417.15
213.333	3411.23
213.407	3450.97
213.481	3496.54
213.555	3554.23
213.629	3586.71
213.703	3618.23
213.777	3666.73
213.85	3708.87
213.924	3794.76
213.998	3854.37
214.072	3914.85
214.146	3966.34
214.219	4034.08
214.293	4100.28
214.367	4175.98
214.441	4263.7
214.515	4336.72
214.588	4398.05
214.662	4457.67
214.736	4529.73
214.81	4623.09
214.883	4723.61
214.957	4815.3
215.031	4902.5
215.105	4985.27
215.178	5081.4
215.252	5187.13
215.326	5277.46
215.4	5368.93
215.473	5445.08
215.547	5540.6
215.621	5651.9
215.694	5776.18
215.768	5883.26
215.842	6001.74
215.915	6119.19
215.989	6224.08
216.063	6348.77
216.136	6483.98
216.21	6620.91
216.284	6773.22
216.357	6918.67
216.431	7064.29
216.504	7219.69
216.578	7392.77
216.652	7551.74
216.725	7703.77
216.799	7860.78
216.873	8011.01
216.946	8178.47
217.02	8326.9
217.093	8483.07
217.167	8611.02
217.24	8752.65
217.314	8904.01
217.387	9059.42
217.461	9213.96
217.535	9388.68
217.608	9527.54
217.682	9680.53
217.755	9845.14
217.829	9985.45
217.902	10146.14
217.976	10298.55
218.049	10440.04
218.123	10583.34
218.196	10744.16
218.27	10895.18
218.343	11037.77
218.417	11192.21
218.49	11341.12
218.563	11505.07
218.637	11659.58
218.71	11838.34
218.784	12005.87
218.857	12174.52
218.931	12329.96
219.004	12486.23
219.077	12629.64
219.151	12779.79
219.224	12927.67
219.298	13076.67
219.371	13239.8
219.444	13369.28
219.518	13512.11
219.591	13661.54
219.665	13823.32
219.738	13960.61
219.811	14086.28
219.885	14229.4
219.958	14373.77
220.031	14508.75
220.105	14649.55
220.178	14784.57
220.251	14906.28
220.325	15036.53
220.398	15159.1
220.471	15282.12
220.544	15401.37
220.618	15512.38
220.691	15647.29
220.764	15766.54
220.838	15885.35
220.911	15989.85
220.984	16121.14
221.057	16242.46
221.131	16354.81
221.204	16425.23
221.277	16550.05
221.35	16685.63
221.424	16784.24
221.497	16893.88
221.57	16988.64
221.643	17084.74
221.716	17181.61
221.79	17268.31
221.863	17361.9
221.936	17446.77
222.009	17537.85
222.082	17638.77
222.155	17730.72
222.229	17822.72
222.302	17912.84
222.375	17994.81
222.448	18082.57
222.521	18161.89
222.594	18235.43
222.667	18304.92
222.74	18398.17
222.814	18460.72
222.887	18524.24
222.96	18605.72
223.033	18669.38
223.106	18747.4
223.179	18819.21
223.252	18881.03
223.325	18945.9
223.398	19001.27
223.471	19066.32
223.544	19131.53
223.617	19178.66
223.69	19242.22
223.763	19296.19
223.837	19351.9
223.91	19406.69
223.983	19449.92
224.056	19488.32
224.129	19546.01
224.202	19610.92
224.275	19652.27
224.348	19690.1
224.42	19727.44
224.493	19761.37
224.566	19805.32
224.639	19854.96
224.712	19892.83
224.785	19935.24
224.858	19982.95
224.931	20018.47
225.004	20045.99
225.077	20084.2
225.15	20097.12
225.223	20135.52
225.296	20187.19
225.369	20211.77
225.442	20241.84
225.514	20273.55
225.587	20316.97
225.66	20353.74
225.733	20377.64
225.806	20424.2
225.879	20461.21
225.952	20486.08
226.025	20530.51
226.097	20575.48
226.17	20590.37
226.243	20597.26
226.316	20639.57
226.389	20662.56
226.461	20695.82
226.534	20731.14
226.607	20750.23
226.68	20801.02
226.753	20824.4
226.825	20826.52
226.898	20866.86
226.971	20890.71
227.044	20927.68
227.117	20952.79
227.189	20971.35
227.262	21010.43
227.335	21029.42
227.407	21049.86
227.48	21075.93
227.553	21094.1
227.626	21111.93
227.698	21135.17
227.771	21167.46
227.844	21164.9
227.916	21188.18
227.989	21194.06
228.062	21212.52
228.134	21257.83
228.207	21281.06
228.28	21289.01
228.352	21307.18
228.425	21323.95
228.498	21343.28
228.57	21341.59
228.643	21358.66
228.716	21372.83
228.788	21370.13
228.861	21377.65
228.934	21405.6
229.006	21420.35
229.079	21433.7
229.151	21429.07
229.224	21435.82
229.296	21459.78
229.369	21512.46
229.442	21541.05
229.514	21557.05
229.587	21585.34
229.659	21569
229.732	21579.46
229.804	21604.14
229.877	21636.14
229.949	21654.61
230.022	21680.15
230.094	21695.77
230.167	21711.05
230.239	21699.63
230.312	21714.38
230.384	21754.05
230.457	21746.87
230.529	21745.61
230.602	21748.17
230.674	21770.87
230.747	21781.09
230.819	21788.41
230.892	21753.27
230.964	21752.65
231.037	21751.88
231.109	21746.62
231.181	21758.38
231.254	21745.71
231.326	21739.54
231.399	21736.07
231.471	21713.6
231.544	21689.07
231.616	21697.46
231.688	21699.53
231.761	21704.06
231.833	21693.36
231.905	21653.01
231.978	21661.69
232.05	21661.83
232.122	21661.3
232.195	21642.65
232.267	21651.9
232.339	21637.49
232.412	21649.35
232.484	21643.71
232.556	21638.7
232.629	21652.05
232.701	21646.6
232.773	21651.71
232.846	21634.17
232.918	21622.36
232.99	21626.26
233.062	21640.43
233.135	21634.5
233.207	21609.78
233.279	21611.13
233.351	21609.63
233.424	21602.06
233.496	21582.06
233.568	21598.26
233.64	21569.82
233.713	21563.89
233.785	21544.71
233.857	21534.59
233.929	21508.61
234.001	21514.78
234.074	21516.17
234.146	21477.9
234.218	21470
234.29	21445.03
234.362	21435.25
234.434	21413.22
234.507	21393.7
234.579	21355.43
234.651	21333.93
234.723	21324.44
234.795	21305.64
234.867	21285.3
234.939	21281.4
235.012	21264.77
235.084	21246.02
235.156	21240.48
235.228	21217.68
235.3	21195.94
235.372	21185.48
235.444	21184.76
235.516	21128.99
235.588	21109.47
235.66	21092.17
235.732	21064.94
235.804	21100.51
235.876	21089.62
235.948	21070.2
236.02	21039.4
236.092	21017.04
236.164	20990.1
236.236	20966.09
236.308	20943.88
236.38	20927.2
236.452	20891.68
236.524	20867.34
236.596	20853.61
236.668	20838.86
236.74	20815.48
236.812	20806.23
236.884	20794.33
236.956	20762.08
237.028	20734.47
237.1	20693.22
237.172	20679
237.244	20674.66
237.316	20614.22
237.388	20574.75
237.46	20545.74
237.532	20542.32
237.604	20508.34
237.675	20495.43
237.747	20471.67
237.819	20439.28
237.891	20408.63
237.963	20371.67
238.035	20336.68
238.107	20270.13
238.178	20251.04
238.25	20221.02
238.322	20211.86
238.394	20161.26
238.466	20121.45
238.538	20098.03
238.609	20078.42
238.681	20033.26
238.753	19989.27
238.825	19965.12
238.897	19947.72
238.968	19937.17
239.04	19891.87
239.112	19884.69
239.184	19840.31
239.255	19809.27
239.327	19778.91
239.399	19742.96
239.471	19728.17
239.542	19711.2
239.614	19700.41
239.686	19650.05
239.758	19621.86
239.829	19567.26
239.901	19546.73
239.973	19524.18
240.044	19498.59
240.116	19465.39
240.188	19431.51
240.259	19393.58
240.331	19339.32
240.403	19305.92
240.474	19255.81
240.546	19215.28
240.618	19168.82
240.689	19128.3
240.761	19094.32
240.833	19074.08
240.904	19043.39
240.976	19006.76
241.048	18974.57
241.119	18949.13
241.191	18915.73
241.262	18898.53
241.334	18857.71
241.405	18810.82
241.477	18763.31
241.549	18732.95
241.62	18702.93
241.692	18678.01
241.763	18650.5
241.835	18620.95
241.906	18588.19
241.978	18543.71
242.049	18525.63
242.121	18502.89
242.192	18494.89
242.264	18449.21
242.335	18407.67
242.407	18385.06
242.478	18344.54
242.55	18311.14
242.621	18266.95
242.693	18226.57
242.764	18188.74
242.836	18154.67
242.907	18130.47
242.979	18109.08
243.05	18069.13
243.122	18035.39
243.193	17997.13
243.264	17944.26
243.336	17916.89
243.407	17894.24
243.479	17874.1
243.55	17844.6
243.622	17810.2
243.693	17767.64
243.764	17751.59
243.836	17706.05
243.907	17659.6
243.978	17630.05
244.05	17600.71
244.121	17553.81
244.192	17535.5
244.264	17483.55
244.335	17449.33
244.407	17405.19
244.478	17366.78
244.549	17334.58
244.62	17295.31
244.692	17260.22
244.763	17242.44
244.834	17194.44
244.906	17147.35
244.977	17116.85
245.048	17090.39
245.119	17047.83
245.191	17002.19
245.262	16943.59
245.333	16927.25
245.405	16907.68
245.476	16882.48
245.547	16851.06
245.618	16822.09
245.689	16784.45
245.761	16753.8
245.832	16725.6
245.903	16694.03
245.974	16673.07
246.045	16640.63
246.117	16625.5
246.188	16579.47
246.259	16537.78
246.33	16512.24
246.401	16479.9
246.473	16439.8
246.544	16404.23
246.615	16384.76
246.686	16347.6
246.757	16319.59
246.828	16265.51
246.899	16245.95
246.97	16195.63
247.042	16144.06
247.113	16127.24
247.184	16119.81
247.255	16086.32
247.326	16053.59
247.397	16022.11
247.468	15988.71
247.539	15954.59
247.61	15899.26
247.681	15887.16
247.752	15863.88
247.823	15823.77
247.894	15792.93
247.965	15743.28
248.037	15706.65
248.108	15658.64
248.179	15632.42
248.25	15612.32
248.321	15594.1
248.392	15539.1
248.463	15530.81
248.534	15511.2
248.605	15487.82
248.675	15452.39
248.746	15431.81
248.817	15411.61
248.888	15390.89
248.959	15345.82
249.03	15317.86
249.101	15294.15
249.172	15252.31
249.243	15204.68
249.314	15192.68
249.385	15165.69
249.456	15141.01
249.527	15108.47
249.598	15086.25
249.669	15056.31
249.739	15039.92
249.81	15026.14
249.881	14992.88
249.952	14962.56
250.023	14925.39
250.094	14873.57
250.165	14825.56
250.235	14795.15
250.306	14764.25
250.377	14720.58
250.448	14695.8
250.519	14658.54
250.59	14645.57
250.66	14610.28
250.731	14595.82
250.802	14559.76
250.873	14536.24
250.944	14523.13
251.014	14483.26
251.085	14478.44
251.156	14462.34
251.227	14439.4
251.297	14415.49
251.368	14399.68
251.439	14379.96
251.51	14368.78
251.58	14341.69
251.651	14313.92
251.722	14295.36
251.792	14251.69
251.863	14221.41
251.934	14212.64
252.005	14208.4
252.075	14180.97
252.146	14172.72
252.217	14168
252.287	14155.8
252.358	14125.53
252.429	14111.65
252.499	14081.52
252.57	14053.7
252.641	14026.71
252.711	13999.81
252.782	13961.44
252.852	13956.91
252.923	13928.27
252.994	13911.74
253.064	13892.26
253.135	13863.87
253.205	13835.14
253.276	13823.71
253.347	13820.39
253.417	13785.82
253.488	13755.6
253.558	13725.8
253.629	13693.75
253.699	13670.22
253.77	13656.53
253.841	13632.09
253.911	13615.41
253.982	13603.84
254.052	13589.23
254.123	13572.6
254.193	13547.44
254.264	13564.94
254.334	13523.29
254.405	13486.94
254.475	13445.72
254.546	13422.1
254.616	13414.73
254.687	13390.58
254.757	13374.04
254.827	13343.43
254.898	13327.76
254.968	13304
255.039	13276.95
255.109	13263.36
255.18	13222.72
255.25	13178.03
255.321	13162.94
255.391	13120.38
255.461	13113.97
255.532	13072.51
255.602	13046.29
255.673	13002.61
255.743	12968
255.813	12927.36
255.884	12917.05
255.954	12904.61
256.024	12900.46
256.095	12875.78
256.165	12844.78
256.235	12826.18
256.306	12796.34
256.376	12782.12
256.446	12764.09
256.517	12750.16
256.587	12746.93
256.657	12731.84
256.728	12706.68
256.798	12684.5
256.868	12666.96
256.938	12639.43
257.009	12626.32
257.079	12614.89
257.149	12628.05
257.219	12581.05
257.29	12568.62
257.36	12529.67
257.43	12517.04
257.5	12475.25
257.571	12455.92
257.641	12446.23
257.711	12414.03
257.781	12408.68
257.852	12392.48
257.922	12358.78
257.992	12335.07
258.062	12305.33
258.132	12294.34
258.202	12273.56
258.273	12255.39
258.343	12248.16
258.413	12222.95
258.483	12197.88
258.553	12165.59
258.623	12129.82
258.693	12117.04
258.764	12108.27
258.834	12110.44
258.904	12096.22
258.974	12071.93
259.044	12046.04
259.114	12029.56
259.184	12016.06
259.254	11994.03
259.324	11952.87
259.394	11937.69
259.464	11931.57
259.535	11911.18
259.605	11884.38
259.675	11857.39
259.745	11838.44
259.815	11811.35
259.885	11789.42
259.955	11802.92
260.025	11771.01
260.095	11748.36
260.165	11733.81
260.235	11732.89
260.305	11699.25
260.375	11666.71
260.445	11672.11
260.515	11665.36
260.585	11660.4
260.655	11639.91
260.725	11630.8
260.795	11630.03
260.865	11630.27
260.934	11606.27
261.004	11595.57
261.074	11578.51
261.144	11582.46
261.214	11572.68
261.284	11554.07
261.354	11538.99
261.424	11506.69
261.494	11510.16
261.564	11495.61
261.634	11488.72
261.703	11450.88
261.773	11442.25
261.843	11425.92
261.913	11403.41
261.983	11373.19
262.053	11351.65
262.123	11335.65
262.192	11302.63
262.262	11284.13
262.332	11253.62
262.402	11242.2
262.472	11230.29
262.541	11191.21
262.611	11178.63
262.681	11158.73
262.751	11142.97
262.821	11129.38
262.89	11100.66
262.96	11097.38
263.03	11102.15
263.1	11083.21
263.169	11068.08
263.239	11053.48
263.309	11060.13
263.379	11044.66
263.448	11026.69
263.518	11016.03
263.588	11000.42
263.657	11002.83
263.727	10989.43
263.797	10973
263.867	10953.05
263.936	10917.92
264.006	10918.6
264.076	10899.22
264.145	10879.56
264.215	10859.42
264.285	10852.87
264.354	10812.3
264.424	10780.4
264.494	10750.38
264.563	10729.56
264.633	10735.97
264.702	10728.93
264.772	10693.13
264.842	10672.84
264.911	10662.68
264.981	10632.51
265.05	10616.71
265.12	10596.81
265.19	10586.83
265.259	10587.31
265.329	10585.82
265.398	10578.45
265.468	10591.41
265.537	10575.61
265.607	10565.97
265.676	10562.07
265.746	10545.01
265.815	10548.38
265.885	10532.05
265.955	10507.43
266.024	10490.04
266.094	10451.88
266.163	10444.99
266.232	10437.42
266.302	10427.5
266.371	10412.27
266.441	10400.52
266.51	10397.48
266.58	10382.06
266.649	10361.97
266.719	10351.13
266.788	10338.41
266.858	10336.63
266.927	10293.7
266.996	10282.72
267.066	10272.46
267.135	10249.48
267.205	10249.38
267.274	10235.26
267.343	10238.06
267.413	10231.27
267.482	10224.71
267.552	10224.18
267.621	10200.19
267.69	10178.13
267.76	10165.46
267.829	10162.33
267.898	10150
267.968	10126.97
268.037	10123.64
268.106	10116.03
268.176	10092.23
268.245	10076.82
268.314	10050.23
268.384	10050.9
268.453	10036.64
268.522	10024.17
268.592	10022.91
268.661	9997.43
268.73	9991.7
268.799	9967.71
268.869	9967.18
268.938	9947.38
269.007	9924.98
269.076	9909.38
269.146	9906.01
269.215	9897
269.284	9895.36
269.353	9879.56
269.422	9864.34
269.492	9843.92
269.561	9809.14
269.63	9798.79
269.699	9775.43
269.768	9773.4
269.838	9765.55
269.907	9763.63
269.976	9740.32
270.045	9708.91
270.114	9702.7
270.183	9688.3
270.253	9681.22
270.322	9647.7
270.391	9633.54
270.46	9639.42
270.529	9635.95
270.598	9631.86
270.667	9622.08
270.736	9602.67
270.806	9594.82
270.875	9590.29
270.944	9575.07
271.013	9592.65
271.082	9581.96
271.151	9571.37
271.22	9543.05
271.289	9524.85
271.358	9514.25
271.427	9512.03
271.496	9502.65
271.565	9486.27
271.634	9478.13
271.703	9474.23
271.772	9478.52
271.841	9469.32
271.91	9443.17
271.979	9439.03
272.048	9409.8
272.117	9403.64
272.186	9382.54
272.255	9380.52
272.324	9376.04
272.393	9368.19
272.462	9350.23
272.531	9348.06
272.6	9345.08
272.669	9347.29
272.738	9340.89
272.807	9330.82
272.876	9311.47
272.945	9338.39
273.013	9341.28
273.082	9342.67
273.151	9326.73
273.22	9320.04
273.289	9312.43
273.358	9325.77
273.427	9311.18
273.496	9311.66
273.564	9305.21
273.633	9303.28
273.702	9285.61
273.771	9282.72
273.84	9281.42
273.909	9279.35
273.977	9269.19
274.046	9257.83
274.115	9259.8
274.184	9241.32
274.253	9232.75
274.322	9238.28
274.39	9208.04
274.459	9190.13
274.528	9163.27
274.597	9156.09
274.665	9154.94
274.734	9161.44
274.803	9148.39
274.872	9128.84
274.94	9117.96
275.009	9170.03
275.078	9160.26
275.147	9158.43
275.215	9146.97
275.284	9150.44
275.353	9135.99
275.421	9116.49
275.49	9132.67
275.559	9130.36
275.627	9123.09
275.696	9114.28
275.765	9112.6
275.833	9102.06
275.902	9101.91
275.971	9106.72
276.039	9114.86
276.108	9113.18
276.177	9106.34
276.245	9091.9
276.314	9097.29
276.383	9103.83
276.451	9043.1
276.52	9044.45
276.588	9055.18
276.657	9060.19
276.725	9046.47
276.794	9047.87
276.863	9055.28
276.931	9029.04
277	9028.32
277.068	9034.05
277.137	9049.5
277.205	9048.44
277.274	9066.59
277.342	9077.38
277.411	9058.27
277.48	9054.42
277.548	9040.02
277.617	9041.42
277.685	9039.64
277.754	9043.78
277.822	9031.45
277.89	9039.3
277.959	9036.36
278.027	9015.66
278.096	9002.13
278.164	9024.67
278.233	9016.58
278.301	9008.11
278.37	9008.3
278.438	8992.46
278.507	8994.72
278.575	8968.82
278.643	8966.56
278.712	8940.76
278.78	8925.16
278.849	8935.41
278.917	8937.91
278.985	8937
279.054	8936.71
279.122	8944.17
279.191	8935.46
279.259	8931.61
279.327	8910.18
279.396	8920.73
279.464	8911.05
279.532	8916.97
279.601	8916.2
279.669	8906.48
279.737	8923.23
279.806	8929.73
279.874	8939.55
279.942	8936.23
280.011	8932.81
280.079	8929.97
280.147	8951.78
280.215	8949.71
280.284	8946
280.352	8929.64
280.42	8938.93
280.488	8931.61
280.557	8926.89
280.625	8935.56
280.693	8940.71
280.761	8940.56
280.83	8922.8
280.898	8937.14
280.966	8922.13
281.034	8888.71
281.102	8876.92
281.171	8860.17
281.239	8864.31
281.307	8858.15
281.375	8852.42
281.443	8874.04
281.512	8874.37
281.58	8873.41
281.648	8862.72
281.716	8863.54
281.784	8867.35
281.852	8857.28
281.92	8857.96
281.989	8860.94
282.057	8841.83
282.125	8884.64
282.193	8885.27
282.261	8889.69
282.329	8885.36
282.397	8889.55
282.465	8890.37
282.533	8905.67
282.601	8898.64
282.67	8877.37
282.738	8867.84
282.806	8877.17
282.874	8868.03
282.942	8864.95
283.01	8859.22
283.078	8864.32
283.146	8858.21
283.214	8864.13
283.282	8862.73
283.35	8865.91
283.418	8858.26
283.486	8860.81
283.554	8816.8
283.622	8814.68
283.69	8814.15
283.758	8807.36
283.826	8809.05
283.894	8822.81
283.962	8844.48
284.03	8856.08
284.098	8862.86
284.165	8855.45
284.233	8852.71
284.301	8844.28
284.369	8839.18
284.437	8830.95
284.505	8825.61
284.573	8841.73
284.641	8827.87
284.709	8834.27
284.777	8816.85
284.845	8826.38
284.912	8832.97
284.98	8832.97
285.048	8831.67
285.116	8835.04
285.184	8852.95
285.252	8851.84
285.319	8829.12
285.387	8812.18
285.455	8798.03
285.523	8795.28
285.591	8794.37
285.659	8793.45
285.726	8795.09
285.794	8777.72
285.862	8774.64
285.93	8772.66
285.997	8769.58
286.065	8767.37
286.133	8760.24
286.201	8761.3
286.269	8744.07
286.336	8738.73
286.404	8729.58
286.472	8735.02
286.539	8714.95
286.607	8693
286.675	8691.99
286.743	8705.18
286.81	8700.41
286.878	8713.51
286.946	8708.26
287.013	8703.69
287.081	8707.54
287.149	8697.57
287.216	8716.01
287.284	8716.73
287.352	8720.87
287.419	8710.04
287.487	8722.41
287.555	8727.8
287.622	8728.38
287.69	8735.5
287.758	8738
287.825	8736.99
287.893	8727.99
287.96	8733.72
288.028	8741.08
288.096	8748.45
288.163	8752.92
288.231	8746.19
288.298	8746.43
288.366	8761.49
288.433	8762.17
288.501	8749.27
288.569	8754.08
288.636	8751.14
288.704	8758.94
288.771	8764.33
288.839	8757.35
288.906	8749.99
288.974	8751.05
289.041	8741.66
289.109	8732.52
289.176	8740.99
289.244	8746.43
289.311	8753.07
289.379	8759.67
289.446	8767.66
289.514	8753.89
289.581	8751.53
289.649	8755.57
289.716	8758.56
289.783	8747.58
289.851	8762.17
289.918	8760.19
289.986	8767.8
290.053	8766.55
290.121	8763.85
290.188	8768.38
290.255	8803.08
290.323	8797.88
290.39	8795.33
290.458	8800.29
290.525	8811.6
290.592	8805.68
290.66	8802.17
290.727	8805.54
290.794	8815.79
290.862	8816.99
290.929	8829.46
290.996	8825.9
291.064	8833.21
291.131	8838.8
291.198	8855.74
291.266	8856.7
291.333	8863.39
291.4	8872.35
291.468	8896.47
291.535	8892.95
291.602	8898.68
291.669	8884
291.737	8891.56
291.804	8895.65
291.871	8915.86
291.938	8921.69
292.006	8956.4
292.073	8976.57
292.14	8981.1
292.207	8980.81
292.275	8978.64
292.342	8985.86
292.409	9013.54
292.476	9034.82
292.543	9030.68
292.611	9025.97
292.678	9045.56
292.745	9068.47
292.812	9076.51
292.879	9069.15
292.946	9078.25
293.014	9078.97
293.081	9091.44
293.148	9103.52
293.215	9116.04
293.282	9112.38
293.349	9130.14
293.416	9104.48
293.484	9113.34
293.551	9123.26
293.618	9132.6
293.685	9156.96
293.752	9149.21
293.819	9143.09
293.886	9136.98
293.953	9144.3
294.02	9152.87
294.087	9156
294.154	9152.48
294.221	9163.99
294.288	9164.9
294.356	9181.23
294.423	9188.16
294.49	9181.42
294.557	9195.48
294.624	9187.82
294.691	9208.14
294.758	9200.73
294.825	9213.44
294.892	9206.45
294.959	9207.03
295.026	9216.37
295.093	9215.51
295.16	9219.93
295.226	9219.41
295.293	9236.26
295.36	9235.15
295.427	9253.21
295.494	9265.83
295.561	9272.9
295.628	9294.91
295.695	9304.4
295.762	9311.57
295.829	9323.27
295.896	9339.6
295.963	9346.15
296.03	9359.34
296.096	9364.97
296.163	9382.36
296.23	9391.46
296.297	9408.74
296.364	9410.81
296.431	9415.87
296.498	9404.41
296.564	9430.41
296.631	9437.68
296.698	9434.41
296.765	9455.74
296.832	9440.81
296.899	9431.42
296.965	9443.46
297.032	9423.86
297.099	9445.05
297.166	9450.63
297.233	9454.73
297.299	9443.7
297.366	9442.98
297.433	9440.23
297.5	9447.26
297.566	9439.22
297.633	9442.83
297.7	9446.25
297.767	9443.03
297.833	9451.07
297.9	9454.78
297.967	9438.69
298.033	9452.71
298.1	9470.57
298.167	9466.96
298.234	9475.29
298.3	9480.01
298.367	9476.74
298.434	9480.01
298.5	9475.15
298.567	9468.41
298.634	9464.36
298.7	9486.08
298.767	9490.27
298.834	9512.47
298.9	9500.53
298.967	9499.08
299.033	9507.08
299.1	9513.24
299.167	9531.06
299.233	9526.72
299.3	9546.76
299.366	9567.37
299.433	9575.5
299.5	9552.63
299.566	9554.07
299.633	9566.98
299.699	9577.14
299.766	9580.03
299.832	9587.88
299.899	9593.08
299.965	9603.87
300.032	9601.08
300.099	9608.74
300.165	9614.95
300.232	9597.95
300.298	9608.88
300.365	9621.69
300.431	9619.47
300.498	9613.45
300.564	9613.26
300.631	9625.01
300.697	9632.67
300.763	9635.13
300.83	9634.98
300.896	9645.05
300.963	9653.62
301.029	9659.69
301.096	9666.19
301.162	9672.69
301.229	9663.69
301.295	9648.18
301.361	9648.03
301.428	9653.28
301.494	9639.99
301.561	9638.88
301.627	9648.9
301.693	9642.01
301.76	9642.78
301.826	9640.95
301.892	9656.22
301.959	9673.56
302.025	9671.49
302.092	9671.97
302.158	9666.48
302.224	9669.71
302.291	9665.42
302.357	9661.71
302.423	9652.51
302.49	9640.52
302.556	9658.15
302.622	9654.35
302.688	9671.11
302.755	9686.47
302.821	9689.99
302.887	9694.32
302.954	9695.38
303.02	9699.81
303.086	9707.76
303.152	9704.82
303.219	9701.16
303.285	9701.98
303.351	9706.84
303.417	9704.24
303.483	9697.45
303.55	9697.02
303.616	9690.23
303.682	9688.11
303.748	9678.86
303.815	9692.73
303.881	9709.11
303.947	9686.52
304.013	9697.84
304.079	9685.46
304.145	9665.09
304.212	9660.08
304.278	9652.81
304.344	9649.77
304.41	9636.91
304.476	9634.5
304.542	9629.45
304.608	9636.53
304.674	9614.81
304.741	9604.21
304.807	9605.03
304.873	9601.95
304.939	9615.82
305.005	9606.33
305.071	9601.8
305.137	9610.42
305.203	9586.82
305.269	9580.95
305.335	9594.67
305.401	9587.93
305.467	9591.78
305.533	9592.02
305.599	9609.75
305.666	9624.15
305.732	9619.96
305.798	9640.47
305.864	9664.65
305.93	9669.95
305.996	9664.46
306.062	9669.42
306.128	9668.99
306.194	9657.57
306.259	9657.48
306.325	9640.48
306.391	9646.35
306.457	9655.55
306.523	9653.77
306.589	9681.37
306.655	9670.58
306.721	9653.14
306.787	9645.2
306.853	9652.9
306.919	9643.03
306.985	9624.83
307.051	9610.52
307.117	9604.94
307.183	9597.33
307.248	9560.77
307.314	9567.95
307.38	9568.72
307.446	9574.83
307.512	9558.07
307.578	9566.74
307.644	9558.94
307.709	9562.31
307.775	9554.89
307.841	9556.05
307.907	9554.61
307.973	9531.25
308.039	9534.38
308.104	9540.4
308.17	9536.83
308.236	9522.82
308.302	9522.05
308.368	9509.62
308.433	9513.91
308.499	9506.45
308.565	9490.75
308.631	9501
308.696	9475.48
308.762	9466.52
308.828	9464.4
308.894	9444.9
308.959	9427.76
309.025	9425.06
309.091	9419.33
309.156	9413.99
309.222	9408.64
309.288	9396.65
309.354	9376.72
309.419	9370.22
309.485	9357.41
309.551	9362.61
309.616	9347.68
309.682	9345.03
309.748	9341.81
309.813	9330.1
309.879	9324.13
309.945	9312.39
310.01	9301.55
310.076	9301.12
310.141	9293.46
310.207	9275.74
310.273	9281.47
310.338	9280.22
310.404	9261.97
310.469	9253.01
310.535	9241.55
310.601	9218.39
310.666	9220.7
310.732	9226.34
310.797	9212.66
310.863	9198.75
310.928	9188.54
310.994	9197.83
311.059	9195.76
311.125	9193.79
311.191	9205.68
311.256	9197.21
311.322	9201.64
311.387	9187
311.453	9522.53
311.518	9500.49
311.584	9493.5
311.649	9499.33
311.715	9488.02
311.78	9487.87
311.846	9480.12
311.911	9485.99
311.976	9490.71
312.042	9478.19
312.107	9466.21
312.173	9455.08
312.238	9451.28
312.304	9445.99
312.369	9427.64
312.434	9413.82
312.5	9403.95
312.565	9370.93
312.631	9374.1
312.696	9363.37
312.761	9363.56
312.827	9021.53
312.892	9055.42
312.958	9058.46
313.023	9053.4
313.088	9051.72
313.154	9039.83
313.219	9026.15
313.284	9015.66
313.35	9015.71
313.415	9006.61
313.48	8997.22
313.546	9004.83
313.611	9011.04
313.676	9006.99
313.741	9004.83
313.807	9016.57
313.872	9021.34
313.937	9025.72
314.003	9032.56
314.068	9028.99
314.133	9032.89
314.198	9017.73
314.264	8999.92
314.329	8989.13
314.394	8985.86
314.459	8981.62
314.525	8996.59
314.59	8993.27
314.655	8979.89
314.72	8980.8
314.785	8985.91
314.851	8987.06
314.916	8969.06
314.981	8955.05
315.046	8942.15
315.111	8927.66
315.176	8911.53
315.242	8913.89
315.307	8913.94
315.372	8891.03
315.437	8884.86
315.502	8877.69
315.567	8889.63
315.632	8869.31
315.698	8871.24
315.763	8864.79
315.828	8851.6
315.893	8845.73
315.958	8836.92
316.023	8828.21
316.088	8810.4
316.153	8780.7
316.218	8767.18
316.283	8745.76
316.348	8725.36
316.413	8719.01
316.479	8703.8
316.544	8670.16
316.609	8640.61
316.674	8604.18
316.739	8570.6
316.804	8541.05
316.869	8503.47
316.934	8466.12
316.999	8435.42
317.064	8377.83
317.129	8329.75
317.194	8295.93
317.259	8247.57
317.324	8199.47
317.389	8158.34
317.454	8116.1
317.518	8082.91
317.583	8055.97
317.648	8027.78
317.713	7996.28
317.778	7937.16
317.843	7902.96
317.908	7865.94
317.973	7825.05
318.038	7794.03
318.103	7761.67
318.168	7725.99
318.233	7689.54
318.297	7642.56
318.362	7605.97
318.427	7565.55
318.492	7542.66
318.557	7493.92
318.622	7458.68
318.687	7435.51
318.751	7392.88
318.816	7357.02
318.881	7322.13
318.946	7268.2
319.011	7223.79
319.075	7175.45
319.14	7142.73
319.205	7100.77
319.27	7066.81
319.335	7020.58
319.399	6976.43
319.464	6940.16
319.529	6881.99
319.594	6846.24
319.658	6808.87
319.723	6763.29
319.788	6739.61
319.853	6681.78
319.917	6650.14
319.982	6601.05
320.047	6564.75
320.112	6537.43
320.176	6484.9
320.241	6451.63
320.306	6418.74
320.37	6375.54
320.435	6345.54
320.5	6313.28
320.564	6272.1
320.629	6228.09
320.694	6196.7
320.758	6158.31
320.823	6111.67
320.888	6091.04
320.952	6038.74
321.017	5996
321.082	5958.44
321.146	5920.68
321.211	5882.35
321.275	5842.98
321.34	5795.32
321.405	5746.02
321.469	5697.39
321.534	5663.64
321.598	5610.03
321.663	5580.44
321.727	5551.87
321.792	5499.52
321.857	5452.97
321.921	5414
321.986	5375.52
322.05	5313.8
322.115	5274.65
322.179	5233.64
322.244	5177.21
322.308	5143.05
322.373	5101.18
322.437	5056.02
322.502	5029.66
322.566	4983.25
322.631	4947
322.695	4909.33
322.76	4865.81
322.824	4833.92
322.889	4785.09
322.953	4743.03
323.018	4676.25
323.082	4610.74
323.146	4565.77
323.211	4515.15
323.275	4473.13
323.34	4427.25
323.404	4393.59
323.468	4348.38
323.533	4304.86
323.597	4260.26
323.662	4210.04
323.726	4173.75
323.79	4128.24
323.855	4060.84
323.919	4016.01
323.983	3970.64
324.048	3905.74
324.112	4035.82
324.177	3900.23
324.241	3698.16
324.305	3497.75
324.37	3303.03
324.434	3118.3
324.498	3073.66
324.562	3025.06
324.627	2962.91
324.691	2904.09
324.755	2839.79
324.82	2762.43
324.884	2687.72
324.948	2614.01
325.012	2517.82
325.077	2390.45
