Data from 20250630_urea_2M_MAYP1162681_09-02-26-813.txt Node
Date: Tue Jul 01 09:02:26 BST 2025
User: adleo
Spectrometer: MAYP116268
Trigger mode: 0
Integration Time (sec): 1.000000E0
Scans to average: 1
Electric dark correction enabled: true
Nonlinearity correction enabled: true
Boxcar width: 10
XAxis mode: Wavelengths
Number of Pixels in Spectrum: 2068
>>>>>Begin Spectral Data<<<<<
179.565	1099.35
179.642	1144.21
179.718	1179.41
179.795	1212
179.871	1241.84
179.948	1257.98
180.024	1275.45
180.101	1297.07
180.177	1310.01
180.254	1332.63
180.33	1355.62
180.407	1401.04
180.483	1487.08
180.56	1567.6
180.636	1644.42
180.712	1630.44
180.789	1640.42
180.865	1649.3
180.942	1658.94
181.018	1667.26
181.095	1682.61
181.171	1684.89
181.248	1688.4
181.324	1703.85
181.4	1711.12
181.477	1718.91
181.553	1730.22
181.63	1750.32
181.706	1763.81
181.782	1768.94
181.859	1766.33
181.935	1767.9
182.011	1762.1
182.088	1778.26
182.164	1798.04
182.24	1809.11
182.317	1814.81
182.393	1813.48
182.469	1827.79
182.546	1837.58
182.622	1842.99
182.698	1836.43
182.775	1846.37
182.851	1858.77
182.927	1854.26
183.003	1849.32
183.08	1846.23
183.156	1857.21
183.232	1852.45
183.308	1842.99
183.385	1854.45
183.461	1870.66
183.537	1871.04
183.613	1883.87
183.69	1874.51
183.766	1864.8
183.842	1872.74
183.918	1881.11
183.995	1892.47
184.071	1894.04
184.147	1891.38
184.223	1880.59
184.299	1893.57
184.375	1882.88
184.452	1886.25
184.528	1938.61
184.604	1949.35
184.68	1960.95
184.756	1965.47
184.832	1971.22
184.908	1974.31
184.985	1970.61
185.061	1956.11
185.137	1966.52
185.213	1954.92
185.289	1957.44
185.365	1949.45
185.441	1948.22
185.517	1959.2
185.593	1957.68
185.669	1957.11
185.745	1967
185.822	1983.11
185.898	1975.79
185.974	1985.91
186.05	1980.78
186.126	1941.54
186.202	1937.21
186.278	1932.27
186.354	1925.75
186.43	1932.51
186.506	1931.27
186.582	1931.94
186.658	1938.31
186.734	1920.24
186.81	1924.14
186.886	1925.9
186.962	1936.78
187.038	1932.41
187.114	1925.23
187.19	1930.22
187.266	1919.76
187.341	1917.96
187.417	1909.45
187.493	1908.78
187.569	1910.07
187.645	1903.27
187.721	1893
187.797	1898.23
187.873	1901.84
187.949	1894.47
188.025	1887.19
188.101	1889.29
188.176	1893.75
188.252	1888.62
188.328	1895.32
188.404	1896.13
188.48	1892.66
188.556	1885.67
188.632	1884.53
188.707	1887.1
188.783	1882.39
188.859	1878.68
188.935	1869.41
189.011	1877.59
189.086	1871.7
189.162	1866.42
189.238	1867.13
189.314	1865.61
189.39	1860.24
189.465	1855.44
189.541	1870.79
189.617	1854.87
189.693	1851.92
189.768	1857.16
189.844	1878.98
189.92	1871.71
189.996	1876.84
190.071	1886.45
190.147	1886.31
190.223	1896.67
190.298	1888.44
190.374	1878.04
190.45	1889.63
190.526	1896.05
190.601	1890.92
190.677	1891.15
190.753	1916.03
190.828	1918.79
190.904	1929.82
190.98	1943.37
191.055	1952.69
191.131	1946.41
191.207	1967.09
191.282	1975.46
191.358	1965.71
191.433	1954.77
191.509	1966.46
191.585	1965.79
191.66	1966.6
191.736	1972.59
191.811	1962.94
191.887	1978.11
191.963	2000.03
192.038	2004.45
192.114	2004.74
192.189	2009.25
192.265	2006.26
192.34	1986.18
192.416	1984
192.491	1981
192.567	1982.81
192.642	1982.19
192.718	1979.72
192.793	1968.59
192.869	1964.03
192.944	1964.98
193.02	1973.49
193.095	1975.87
193.171	1980.63
193.246	1979.1
193.322	1978.39
193.397	1979.77
193.473	1965.74
193.548	1949.19
193.624	1954.8
193.699	1956.89
193.775	1972.97
193.85	1974.21
193.925	1981.2
194.001	1982.24
194.076	1974.92
194.152	1967.31
194.227	1962.41
194.302	1954.62
194.378	1958.56
194.453	1957.09
194.529	1969.17
194.604	1954.09
194.679	1949.39
194.755	1933.46
194.83	1945.55
194.905	1942.98
194.981	1951.54
195.056	1947.16
195.131	1953.96
195.207	1953.72
195.282	1943.98
195.357	1926.57
195.433	1941.07
195.508	1931.7
195.583	1939.55
195.659	1955.34
195.734	1959.33
195.809	1958.86
195.884	1966.13
195.96	1967.36
196.035	1982.91
196.11	1981.39
196.185	1991.71
196.261	1993.18
196.336	2020.9
196.411	2008.01
196.486	2014.38
196.561	2009.01
196.637	2014.1
196.712	2028.94
196.787	2030.6
196.862	2044.92
196.937	2052.29
197.013	2057.33
197.088	2065.89
197.163	2085.06
197.238	2100.1
197.313	2100.63
197.388	2114.85
197.464	2144.21
197.539	2152.96
197.614	2143.35
197.689	2151.67
197.764	2169.52
197.839	2188.02
197.914	2181.98
197.989	2203.72
198.065	2218
198.14	2263.37
198.215	2287.78
198.29	2299.3
198.365	2311.29
198.44	2323
198.515	2346.55
198.59	2360.69
198.665	2386.25
198.74	2393.96
198.815	2394.82
198.89	2418.62
198.965	2444.95
199.04	2439.86
199.115	2458.09
199.19	2496.74
199.265	2502.45
199.34	2512.83
199.415	2544.98
199.49	2566.88
199.565	2574.88
199.64	2597.55
199.715	2595.4
199.79	2605.36
199.865	2611.65
199.94	2609.46
200.015	2639.33
200.09	2650
200.165	2657.38
200.24	2662.19
200.315	2701.62
200.39	2714.48
200.464	2718.53
200.539	2720.1
200.614	2734.25
200.689	2749.87
200.764	2758.21
200.839	2773.64
200.914	2772.36
200.989	2763.49
201.063	2778.22
201.138	2762.31
201.213	2761.79
201.288	2744.54
201.363	2745.64
201.438	2743.73
201.512	2758.35
201.587	2739.1
201.662	2742.72
201.737	2750.54
201.812	2757.97
201.886	2721.26
201.961	2731.98
202.036	2718.7
202.111	2715.74
202.186	2688.99
202.26	2677.65
202.335	2658.35
202.41	2651.73
202.485	2637.49
202.559	2619.39
202.634	2591.29
202.709	2598.9
202.784	2576.85
202.858	2574.57
202.933	2557.95
203.008	2551.23
203.082	2532.76
203.157	2531.28
203.232	2488.96
203.306	2473.15
203.381	2444.52
203.456	2425.48
203.53	2403.7
203.605	2389.29
203.68	2366.52
203.754	2362.1
203.829	2348.2
203.904	2327.73
203.978	2315.88
204.053	2316.88
204.127	2305.93
204.202	2306.41
204.277	2293.32
204.351	2290.23
204.426	2283.37
204.5	2277.61
204.575	2245.69
204.65	2255.07
204.724	2248.45
204.799	2254.87
204.873	2249.06
204.948	2246.78
205.022	2236.65
205.097	2226.31
205.171	2236.69
205.246	2245.11
205.32	2245.21
205.395	2244.54
205.469	2238.41
205.544	2242.12
205.618	2232.03
205.693	2242.78
205.767	2230.98
205.842	2248.41
205.916	2241.7
205.991	2233.42
206.065	2240.32
206.14	2254.68
206.214	2252.11
206.289	2246.63
206.363	2260.24
206.438	2264.14
206.512	2270.66
206.586	2287.41
206.661	2295.89
206.735	2276.81
206.81	2277.72
206.884	2291.33
206.958	2279.53
207.033	2295.46
207.107	2304.18
207.181	2330.22
207.256	2324.27
207.33	2342.35
207.405	2352.16
207.479	2370.01
207.553	2375.53
207.628	2358.26
207.702	2371.77
207.776	2363.87
207.851	2367.92
207.925	2380.68
207.999	2376.3
208.073	2373.11
208.148	2376.78
208.222	2363.78
208.296	2394.09
208.371	2407.71
208.445	2416.24
208.519	2441.03
208.593	2450.22
208.668	2449.46
208.742	2451.89
208.816	2453.41
208.89	2461.51
208.965	2459.51
209.039	2465.17
209.113	2484.6
209.187	2503.39
209.261	2499.97
209.336	2519.54
209.41	2534.73
209.484	2534.2
209.558	2556.35
209.632	2570.35
209.707	2581.59
209.781	2604.97
209.855	2620.26
209.929	2637.52
210.003	2646.95
210.077	2646.9
210.151	2693.62
210.226	2722.32
210.3	2751.12
210.374	2772.74
210.448	2781.84
210.522	2792.8
210.596	2803.61
210.67	2809.9
210.744	2853.99
210.818	2885.72
210.892	2907.5
210.966	2906.17
211.041	2922.9
211.115	2923.28
211.189	2947.49
211.263	2963.12
211.337	2969.94
211.411	2985.96
211.485	2980.52
211.559	2991
211.633	2996.86
211.707	2969.39
211.781	2980.27
211.855	2944.89
211.929	2940.94
212.003	2921.64
212.077	2935.85
212.151	2950.25
212.225	2960.69
212.299	2954.01
212.373	2944.43
212.447	2943.38
212.52	2975.38
212.594	2983.63
212.668	2999.5
212.742	2992.02
212.816	2993.07
212.89	2996.4
212.964	3001.51
213.038	3013.34
213.112	3034.9
213.186	3056.06
213.26	3047.1
213.333	3016.63
213.407	3037.17
213.481	3050.99
213.555	3079.2
213.629	3076.67
213.703	3078.77
213.777	3095.13
213.85	3096.13
213.924	3147.53
213.998	3166.95
214.072	3181.89
214.146	3193.63
214.219	3211.86
214.293	3230.79
214.367	3259.8
214.441	3294.35
214.515	3311.54
214.588	3322.32
214.662	3321.99
214.736	3337.78
214.81	3373.79
214.883	3411.75
214.957	3436.37
215.031	3464.29
215.105	3476.54
215.178	3505.37
215.252	3538.75
215.326	3559.9
215.4	3581.81
215.473	3579.23
215.547	3604.31
215.621	3633.27
215.694	3679.47
215.768	3706.03
215.842	3743.38
215.915	3778.89
215.989	3805.51
216.063	3843.9
216.136	3894.37
216.21	3944.63
216.284	4012.29
216.357	4071.18
216.431	4125.91
216.504	4192.19
216.578	4272.74
216.652	4344.29
216.725	4405.85
216.799	4475.82
216.873	4537.72
216.946	4609.14
217.02	4670.33
217.093	4732.31
217.167	4778.65
217.24	4831.85
217.314	4894.27
217.387	4956.69
217.461	5015.55
217.535	5095.11
217.608	5154.65
217.682	5225.18
217.755	5306.78
217.829	5362.67
217.902	5435.19
217.976	5508.34
218.049	5566.78
218.123	5622.89
218.196	5703.34
218.27	5771.25
218.343	5833.33
218.417	5913.06
218.49	5990.34
218.563	6076.32
218.637	6159.68
218.71	6258.93
218.784	6339.62
218.857	6430
218.931	6513.27
219.004	6595.37
219.077	6679.43
219.151	6760.62
219.224	6830.12
219.298	6910.83
219.371	6999.81
219.444	7067.69
219.518	7145.38
219.591	7230.52
219.665	7332.33
219.738	7414.86
219.811	7493.01
219.885	7580.99
219.958	7668.74
220.031	7745.66
220.105	7830.59
220.178	7907.73
220.251	7974.3
220.325	8059.97
220.398	8134.91
220.471	8222.08
220.544	8308.34
220.618	8382.68
220.691	8472.51
220.764	8559.22
220.838	8635.59
220.911	8712.27
220.984	8816.13
221.057	8905.94
221.131	8987.24
221.204	9044.97
221.277	9133.65
221.35	9242.32
221.424	9314.15
221.497	9390
221.57	9467.56
221.643	9553
221.716	9635.11
221.79	9716.83
221.863	9792.06
221.936	9870.04
222.009	9941.94
222.082	10023.88
222.155	10092.52
222.229	10181.31
222.302	10263.3
222.375	10330.12
222.448	10410.14
222.521	10471.47
222.594	10539.7
222.667	10599.29
222.74	10680.24
222.814	10751.12
222.887	10809.19
222.96	10887.98
223.033	10965.66
223.106	11038.03
223.179	11112.44
223.252	11180.49
223.325	11246.27
223.398	11311
223.471	11380.54
223.544	11441.5
223.617	11509.55
223.69	11579.05
223.763	11627.3
223.837	11682.77
223.91	11762.3
223.983	11802.02
224.056	11863.28
224.129	11930.42
224.202	12008.79
224.275	12058.34
224.348	12111.12
224.42	12158.46
224.493	12203.38
224.566	12251.2
224.639	12320.22
224.712	12364.38
224.785	12414.51
224.858	12473.32
224.931	12531.12
225.004	12583.76
225.077	12655.05
225.15	12683.78
225.223	12737.96
225.296	12817.21
225.369	12872.12
225.442	12916.47
225.514	12985.88
225.587	13045.66
225.66	13107.12
225.733	13164.92
225.806	13228.27
225.879	13279.22
225.952	13333.98
226.025	13406.73
226.097	13489.06
226.17	13540.16
226.243	13577.42
226.316	13643.95
226.389	13698.18
226.461	13752.56
226.534	13816.29
226.607	13863.48
226.68	13940.95
226.753	14000.48
226.825	14032.64
226.898	14097.91
226.971	14150.93
227.044	14213.46
227.117	14265.18
227.189	14320.76
227.262	14381.45
227.335	14442.82
227.407	14491.94
227.48	14550.99
227.553	14598.13
227.626	14640.31
227.698	14693.14
227.771	14757.21
227.844	14800.35
227.916	14855.69
227.989	14907.89
228.062	14949.49
228.134	15017.6
228.207	15064.02
228.28	15107.26
228.352	15155.8
228.425	15199.91
228.498	15260.79
228.57	15292.22
228.643	15352.85
228.716	15401.54
228.788	15437.4
228.861	15480.83
228.934	15543.83
229.006	15581.76
229.079	15627.6
229.151	15658.16
229.224	15692.77
229.296	15745.06
229.369	15805.02
229.442	15857.95
229.514	15889.9
229.587	15940.13
229.659	15959.31
229.732	16007.94
229.804	16059.13
229.877	16134.8
229.949	16187.1
230.022	16243.68
230.094	16292.07
230.167	16329.28
230.239	16350.2
230.312	16402.35
230.384	16459.7
230.457	16504.23
230.529	16553.83
230.602	16597.54
230.674	16640.15
230.747	16690.75
230.819	16745.55
230.892	16764.2
230.964	16810.52
231.037	16856.69
231.109	16898.62
231.181	16947.88
231.254	16979.3
231.326	17016.8
231.399	17035.5
231.471	17068.89
231.544	17086.2
231.616	17132.03
231.688	17172.37
231.761	17210.58
231.833	17237.62
231.905	17243.02
231.978	17276.13
232.05	17303.26
232.122	17333.48
232.195	17368.32
232.267	17416.37
232.339	17435.45
232.412	17486.44
232.484	17508.32
232.556	17527.45
232.629	17580.17
232.701	17618.1
232.773	17648.75
232.846	17666.54
232.918	17698.63
232.99	17730.82
233.062	17761.86
233.135	17786.58
233.207	17798.15
233.279	17829.66
233.351	17864.8
233.424	17894.05
233.496	17903.11
233.568	17957.47
233.64	17972.6
233.713	17992.79
233.785	18001.42
233.857	18021.13
233.929	18019.59
234.001	18041.51
234.074	18090.91
234.146	18091.2
234.218	18100.02
234.29	18109.94
234.362	18125.56
234.434	18118.23
234.507	18117.99
234.579	18123.58
234.651	18138.72
234.723	18157.36
234.795	18177.6
234.867	18178.52
234.939	18200.88
235.012	18217.46
235.084	18215.77
235.156	18230.23
235.228	18228.49
235.3	18233.89
235.372	18236.93
235.444	18263.87
235.516	18259.14
235.588	18261.6
235.66	18260.97
235.732	18266.47
235.804	18327.53
235.876	18344.78
235.948	18369.64
236.02	18380.92
236.092	18384.97
236.164	18387.28
236.236	18387.28
236.308	18389.64
236.38	18399.33
236.452	18390.99
236.524	18398.32
236.596	18417.64
236.668	18430.8
236.74	18435.66
236.812	18434.51
236.884	18450.55
236.956	18453.64
237.028	18448.34
237.1	18432.29
237.172	18446.99
237.244	18461.06
237.316	18424.24
237.388	18411.33
237.46	18405.16
237.532	18414.17
237.604	18401.93
237.675	18411.95
237.747	18415.38
237.819	18400.73
237.891	18386.12
237.963	18382.37
238.035	18364.25
238.107	18327.04
238.178	18329.16
238.25	18313.5
238.322	18337.31
238.394	18297.89
238.466	18268.97
238.538	18268.54
238.609	18263.62
238.681	18237.55
238.753	18220.49
238.825	18210.61
238.897	18202.04
238.968	18211.77
239.04	18192.93
239.112	18205.89
239.184	18174.71
239.255	18162.71
239.327	18145.8
239.399	18129.65
239.471	18122.96
239.542	18118.09
239.614	18114.72
239.686	18077.56
239.758	18086.23
239.829	18053.95
239.901	18077.03
239.973	18071.73
240.044	18059.87
240.116	18048.94
240.188	18028.16
240.259	18006.05
240.331	17980.7
240.403	17971.83
240.474	17936.94
240.546	17904.46
240.618	17871.06
240.689	17853.62
240.761	17835.88
240.833	17845.42
240.904	17833.28
240.976	17812.61
241.048	17799.16
241.119	17781.96
241.191	17769.96
241.262	17760.08
241.334	17742.78
241.405	17702.49
241.477	17682.1
241.549	17655.79
241.62	17635.74
241.692	17628.13
241.763	17626.01
241.835	17608.51
241.906	17588.03
241.978	17550.78
242.049	17539.12
242.121	17525.04
242.192	17519.55
242.264	17478.83
242.335	17433.33
242.407	17416.37
242.478	17387.07
242.55	17361.91
242.621	17328.42
242.693	17296.75
242.764	17266.15
242.836	17228.32
242.907	17205.62
242.979	17177.23
243.05	17152.66
243.122	17134.82
243.193	17099.79
243.264	17043.26
243.336	17011.59
243.407	16994.96
243.479	16987.69
243.55	16963.49
243.622	16942.82
243.693	16910
243.764	16900.94
243.836	16867.59
243.907	16839.87
243.978	16809.85
244.05	16781.8
244.121	16745.41
244.192	16723.14
244.264	16678.18
244.335	16654.71
244.407	16618.41
244.478	16600.68
244.549	16575.47
244.62	16532.29
244.692	16504.19
244.763	16492.19
244.834	16466.55
244.906	16427.12
244.977	16400.52
245.048	16391.8
245.119	16353.14
245.191	16315.74
245.262	16268.7
245.333	16251.54
245.405	16223.39
245.476	16205.7
245.547	16183.68
245.618	16165.99
245.689	16139.24
245.761	16119.72
245.832	16098.61
245.903	16085.31
245.974	16048.77
246.045	16019.23
246.117	16003.75
246.188	15965.19
246.259	15924.66
246.33	15894.97
246.401	15868.75
246.473	15821.17
246.544	15785.27
246.615	15766.18
246.686	15728.68
246.757	15718.7
246.828	15683.32
246.899	15666.21
246.97	15620.13
247.042	15583.16
247.113	15555.83
247.184	15546.67
247.255	15513.99
247.326	15477.41
247.397	15445.45
247.468	15429.01
247.539	15411.04
247.61	15370.79
247.681	15360.28
247.752	15349.24
247.823	15307.93
247.894	15286.24
247.965	15255.63
248.037	15223.34
248.108	15179.71
248.179	15156.04
248.25	15130.3
248.321	15105.29
248.392	15064.07
248.463	15053.18
248.534	15027.39
248.605	15010.62
248.675	14980.15
248.746	14955.09
248.817	14935.47
248.888	14908.09
248.959	14863.36
249.03	14834.53
249.101	14806.67
249.172	14768.06
249.243	14715.37
249.314	14703.99
249.385	14667.79
249.456	14648.08
249.527	14619.64
249.598	14598.67
249.669	14567.81
249.739	14542.22
249.81	14512.76
249.881	14472.99
249.952	14448.07
250.023	14424.4
250.094	14380.88
250.165	14348.43
250.235	14317.53
250.306	14292.08
250.377	14253.81
250.448	14233.27
250.519	14186.27
250.59	14169.98
250.66	14137.77
250.731	14125.1
250.802	14094.92
250.873	14074.62
250.944	14050.09
251.014	14014.42
251.085	14010.32
251.156	13991.52
251.227	13976.53
251.297	13973.39
251.368	13959.94
251.439	13948.28
251.51	13926.49
251.58	13896.26
251.651	13867.68
251.722	13855
251.792	13806.21
251.863	13780.86
251.934	13773.82
252.005	13776.23
252.075	13758.78
252.146	13749.28
252.217	13739.98
252.287	13723.88
252.358	13696.88
252.429	13691.43
252.499	13664.53
252.57	13640.82
252.641	13632.28
252.711	13599.79
252.782	13555.78
252.852	13551.92
252.923	13525.7
252.994	13503.43
253.064	13490.7
253.135	13452.81
253.205	13423.69
253.276	13423.07
253.347	13414.44
253.417	13378.28
253.488	13349.36
253.558	13312.29
253.629	13284.86
253.699	13264.32
253.77	13253.28
253.841	13225.52
253.911	13202.57
253.982	13183.14
254.052	13168.15
254.123	13143.37
254.193	13124.14
254.264	13138.84
254.334	13104.76
254.405	13063.98
254.475	13035
254.546	13007.58
254.616	12999.91
254.687	12979.38
254.757	12959.95
254.827	12939.75
254.898	12919.36
254.968	12889.62
255.039	12867.01
255.109	12857.46
255.18	12828.68
255.25	12781.64
255.321	12768.23
255.391	12734.64
255.461	12734.01
255.532	12688.45
255.602	12662.23
255.673	12618.27
255.743	12579.94
255.813	12537.33
255.884	12532.32
255.954	12517.62
256.024	12518.29
256.095	12494.53
256.165	12459.82
256.235	12441.02
256.306	12410.41
256.376	12401.78
256.446	12389.39
256.517	12374.21
256.587	12358.16
256.657	12337
256.728	12319.84
256.798	12297.08
256.868	12267.87
256.938	12230.56
257.009	12215.52
257.079	12201.45
257.149	12211.38
257.219	12172.43
257.29	12158.6
257.36	12118.59
257.43	12100.46
257.5	12052.89
257.571	12033.8
257.641	12029.99
257.711	12003.34
257.781	11993.94
257.852	11973.07
257.922	11936.87
257.992	11920.96
258.062	11903.8
258.132	11887.22
258.202	11858.69
258.273	11847.26
258.343	11846.01
258.413	11825.82
258.483	11801.86
258.553	11770.48
258.623	11732.02
258.693	11722.14
258.764	11718.47
258.834	11717.85
258.904	11700.11
258.974	11679
259.044	11652.59
259.114	11637.07
259.184	11622.61
259.254	11598.85
259.324	11564.48
259.394	11559.61
259.464	11547.47
259.535	11527.71
259.605	11510.31
259.675	11490.31
259.745	11467.03
259.815	11435.31
259.885	11408.04
259.955	11422.01
260.025	11399.36
260.095	11384.23
260.165	11367.65
260.235	11366.49
260.305	11332.37
260.375	11306.06
260.445	11314.44
260.515	11310.97
260.585	11303.46
260.655	11281.24
260.725	11273.82
260.795	11260.37
260.865	11263.7
260.934	11242.15
261.004	11227.12
261.074	11207.07
261.144	11210.92
261.214	11207.07
261.284	11191.55
261.354	11190.39
261.424	11159.84
261.494	11156.9
261.564	11145.48
261.634	11136.37
261.703	11101.43
261.773	11095.74
261.843	11089.48
261.913	11066.87
261.983	11035.21
262.053	11019.5
262.123	11000.47
262.192	10969
262.262	10962.79
262.332	10923.51
262.402	10911.27
262.472	10898.45
262.541	10862.55
262.611	10853.01
262.681	10828.24
262.751	10819.95
262.821	10795.04
262.89	10764.97
262.96	10762.37
263.03	10761.7
263.1	10748.54
263.169	10729.03
263.239	10724.35
263.309	10722.09
263.379	10715.87
263.448	10706.67
263.518	10690.28
263.588	10677.42
263.657	10682.67
263.727	10675.64
263.797	10659.69
263.867	10644.03
263.936	10610.93
264.006	10613.77
264.076	10597.63
264.145	10573.63
264.215	10552.48
264.285	10547.09
264.354	10519.62
264.424	10494.76
264.494	10464.26
264.563	10446.92
264.633	10454.09
264.702	10434.48
264.772	10398.59
264.842	10374.4
264.911	10357.2
264.981	10329.98
265.05	10312.45
265.12	10291.29
265.19	10274.05
265.259	10270.72
265.329	10263.64
265.398	10251.16
265.468	10257.62
265.537	10233.67
265.607	10231.31
265.676	10228.33
265.746	10220.91
265.815	10220.76
265.885	10207.61
265.955	10183.38
266.024	10165.7
266.094	10125.67
266.163	10121.77
266.232	10123.36
266.302	10106.54
266.371	10097.63
266.441	10087.8
266.51	10085.35
266.58	10069.07
266.649	10050.37
266.719	10047.34
266.788	10035.3
266.858	10040.79
266.927	10003.74
266.996	9995.56
267.066	9985.58
267.135	9959.04
267.205	9952.97
267.274	9938.86
267.343	9925.13
267.413	9911.65
267.482	9914.05
267.552	9918.34
267.621	9887.75
267.69	9857.46
267.76	9851.73
267.829	9846.43
267.898	9838.67
267.968	9819.41
268.037	9810.69
268.106	9807.32
268.176	9774.66
268.245	9757.85
268.314	9731.5
268.384	9730.73
268.453	9713.3
268.522	9705.93
268.592	9703.76
268.661	9680.79
268.73	9675.73
268.799	9661.52
268.869	9669.85
268.938	9638.64
269.007	9622.65
269.076	9617.74
269.146	9612.88
269.215	9600.74
269.284	9598.86
269.353	9579.36
269.422	9566.64
269.492	9552.24
269.561	9508.38
269.63	9506.26
269.699	9494.7
269.768	9492
269.838	9485.45
269.907	9488.77
269.976	9460.46
270.045	9431.52
270.114	9425.79
270.183	9415.43
270.253	9407.68
270.322	9379.18
270.391	9368.25
270.46	9370.17
270.529	9371.33
270.598	9373.4
270.667	9362.18
270.736	9347.11
270.806	9337.76
270.875	9329.96
270.944	9314.22
271.013	9339.98
271.082	9331.74
271.151	9324.81
271.22	9297.65
271.289	9282.49
271.358	9270.59
271.427	9265.2
271.496	9257.45
271.565	9244.5
271.634	9227.31
271.703	9224.32
271.772	9226.15
271.841	9220.81
271.91	9196.73
271.979	9172.08
272.048	9146.42
272.117	9148.25
272.186	9126.92
272.255	9130.38
272.324	9129.37
272.393	9125.38
272.462	9102.94
272.531	9094.42
272.6	9075.5
272.669	9075.54
272.738	9062.26
272.807	9057.25
272.876	9040.93
272.945	9060.72
273.013	9056.38
273.082	9058.89
273.151	9042.9
273.22	9041.94
273.289	9023.99
273.358	9027.84
273.427	9012.82
273.496	9015.61
273.564	9002.85
273.633	9003.86
273.702	8982.68
273.771	8974.11
273.84	8968.91
273.909	8973.39
273.977	8970.07
274.046	8968.19
274.115	8974.45
274.184	8955.87
274.253	8939.55
274.322	8947.16
274.39	8925.06
274.459	8914.32
274.528	8892.04
274.597	8881.93
274.665	8874.52
274.734	8883.23
274.803	8872.83
274.872	8874.85
274.94	8862.67
275.009	8914.92
275.078	8904.62
275.147	8900.15
275.215	8894.8
275.284	8897.93
275.353	8886.57
275.421	8861.11
275.49	8870.88
275.559	8858.51
275.627	8860.77
275.696	8856.1
275.765	8852.83
275.833	8835.89
275.902	8836.56
275.971	8851.24
276.039	8864.14
276.108	8864.19
276.177	8863.37
276.245	8856.97
276.314	8853.79
276.383	8856.49
276.451	8796.92
276.52	8799.28
276.588	8809.87
276.657	8811.17
276.725	8804
276.794	8800.92
276.863	8810.11
276.931	8788.69
277	8796.68
277.068	8799.61
277.137	8817.95
277.205	8815.6
277.274	8841.59
277.342	8846.45
277.411	8814.73
277.48	8805.54
277.548	8797.55
277.617	8797.74
277.685	8791.1
277.754	8793.17
277.822	8780.75
277.89	8792.31
277.959	8784.12
278.027	8767.08
278.096	8759.53
278.164	8781.33
278.233	8769.74
278.301	8759.39
278.37	8761.36
278.438	8747.31
278.507	8748.8
278.575	8720.4
278.643	8714.19
278.712	8690.08
278.78	8676.36
278.849	8686.27
278.917	8688.97
278.985	8684.35
279.054	8681.26
279.122	8687.95
279.191	8687.52
279.259	8686.08
279.327	8666.15
279.396	8675.1
279.464	8669.95
279.532	8676.84
279.601	8672.45
279.669	8671.4
279.737	8686.8
279.806	8688.77
279.874	8693.1
279.942	8695.7
280.011	8693.25
280.079	8695.41
280.147	8706
280.215	8708.94
280.284	8702.87
280.352	8692.77
280.42	8694.79
280.488	8689.78
280.557	8680.54
280.625	8683.76
280.693	8681.21
280.761	8681.94
280.83	8666.78
280.898	8679.1
280.966	8664.95
281.034	8632.65
281.102	8621.39
281.171	8620.67
281.239	8631.3
281.307	8624.47
281.375	8609.55
281.443	8631.93
281.512	8631.55
281.58	8641.66
281.648	8625.82
281.716	8629.58
281.784	8629
281.852	8626.25
281.92	8622.79
281.989	8631.16
282.057	8612.92
282.125	8657.02
282.193	8652.54
282.261	8650.47
282.329	8644.22
282.397	8644.99
282.465	8648.31
282.533	8660.72
282.601	8644.94
282.67	8623.57
282.738	8614.86
282.806	8628.91
282.874	8613.07
282.942	8613.65
283.01	8606.33
283.078	8612.88
283.146	8615.67
283.214	8622.26
283.282	8623.71
283.35	8631.02
283.418	8621.49
283.486	8626.06
283.554	8581.63
283.622	8585.53
283.69	8591.84
283.758	8585.24
283.826	8588.76
283.894	8601.22
283.962	8621.34
284.03	8633.28
284.098	8632.26
284.165	8626.11
284.233	8621.05
284.301	8616.1
284.369	8611.76
284.437	8603.53
284.505	8600.5
284.573	8609.94
284.641	8591.79
284.709	8592.42
284.777	8575.48
284.845	8584
284.912	8586.31
284.98	8590.35
285.048	8580.29
285.116	8583.52
285.184	8600.36
285.252	8600.41
285.319	8580.63
285.387	8563.4
285.455	8544.44
285.523	8548.91
285.591	8546.12
285.659	8546.41
285.726	8561.76
285.794	8543.05
285.862	8540.06
285.93	8540.25
285.997	8538.62
286.065	8535.92
286.133	8529.76
286.201	8525.96
286.269	8516.72
286.336	8505.7
286.404	8502.19
286.472	8511.57
286.539	8490.74
286.607	8470.77
286.675	8460.76
286.743	8468.7
286.81	8471.68
286.878	8487.46
286.946	8483.18
287.013	8484.33
287.081	8482.07
287.149	8466.62
287.216	8491.17
287.284	8485.1
287.352	8486.83
287.419	8479.9
287.487	8504.11
287.555	8505.02
287.622	8509.16
287.69	8515.56
287.758	8533.99
287.825	8530.24
287.893	8519.75
287.96	8526.25
288.028	8537.31
288.096	8546.55
288.163	8551.9
288.231	8540.15
288.298	8537.75
288.366	8544.19
288.433	8540.78
288.501	8535.05
288.569	8534.81
288.636	8525.43
288.704	8536.98
288.771	8538.37
288.839	8528.32
288.906	8520.33
288.974	8531.59
289.041	8528.89
289.109	8519.46
289.176	8526.39
289.244	8528.85
289.311	8538.33
289.379	8549.54
289.446	8551.9
289.514	8554.93
289.581	8551.27
289.649	8554.88
289.716	8561.96
289.783	8559.6
289.851	8581.64
289.918	8583.27
289.986	8592.66
290.053	8603.77
290.121	8604.4
290.188	8606.61
290.255	8635.06
290.323	8621.49
290.39	8617.92
290.458	8623.79
290.525	8635.54
290.592	8624.47
290.66	8630.53
290.727	8627.4
290.794	8635.68
290.862	8635.49
290.929	8630.05
290.996	8631.83
291.064	8633.47
291.131	8635.92
291.198	8645.74
291.266	8648.15
291.333	8648.19
291.4	8652.48
291.468	8660.08
291.535	8655.61
291.602	8660.04
291.669	8654.31
291.737	8662.1
291.804	8661.09
291.871	8678.37
291.938	8685.78
292.006	8718.61
292.073	8721.45
292.14	8731.13
292.207	8726.84
292.275	8728.14
292.342	8742.1
292.409	8760.68
292.476	8786.91
292.543	8780.46
292.611	8781.04
292.678	8791.01
292.745	8811.85
292.812	8822.87
292.879	8816.47
292.946	8821.09
293.014	8831.05
293.081	8836.59
293.148	8857.43
293.215	8874.9
293.282	8871
293.349	8879.14
293.416	8851.31
293.484	8870.33
293.551	8879.42
293.618	8897.43
293.685	8917.64
293.752	8909.65
293.819	8912.64
293.886	8901.81
293.953	8916.01
294.02	8926.5
294.087	8934.16
294.154	8933.96
294.221	8945.18
294.288	8951.05
294.356	8968.96
294.423	8979.07
294.49	8971.8
294.557	8977.67
294.624	8965.93
294.691	8981.67
294.758	8979.12
294.825	8995.58
294.892	8990.48
294.959	8994.67
295.026	8999.96
295.093	8995.48
295.16	9006.31
295.226	9008.77
295.293	9031.64
295.36	9031.25
295.427	9042.57
295.494	9058.31
295.561	9068.62
295.628	9090.43
295.695	9106.37
295.762	9110.75
295.829	9114.84
295.896	9134.82
295.963	9144.54
296.03	9155.81
296.096	9163.27
296.163	9177.38
296.23	9187.68
296.297	9198.66
296.364	9198.27
296.431	9210.07
296.498	9207.85
296.564	9220.8
296.631	9224.95
296.698	9214.55
296.765	9236.74
296.832	9224.46
296.899	9209.39
296.965	9224.75
297.032	9203.9
297.099	9218.68
297.166	9225.76
297.233	9227.01
297.299	9222.05
297.366	9225.18
297.433	9228.99
297.5	9233.61
297.566	9231.59
297.633	9231.59
297.7	9235.49
297.767	9235.73
297.833	9232.74
297.9	9235.97
297.967	9225.71
298.033	9237.37
298.1	9267.9
298.167	9263.28
298.234	9269.97
298.3	9277.72
298.367	9266.69
298.434	9279.36
298.5	9268.43
298.567	9263.51
298.634	9261.4
298.7	9275.6
298.767	9274.3
298.834	9284.75
298.9	9279.5
298.967	9285.33
299.033	9299.92
299.1	9316.87
299.167	9334.35
299.233	9337.09
299.3	9348.79
299.366	9368.92
299.433	9381.73
299.5	9355.43
299.566	9356.15
299.633	9373.34
299.699	9383.02
299.766	9387.16
299.832	9385.24
299.899	9395.69
299.965	9407.58
300.032	9404.55
300.099	9412.78
300.165	9421.69
300.232	9418.71
300.298	9423.76
300.365	9432.09
300.431	9426.07
300.498	9411.34
300.564	9411.92
300.631	9416.25
300.697	9434.12
300.763	9426.03
300.83	9424.48
300.896	9430.46
300.963	9438.26
301.029	9448.42
301.096	9453.38
301.162	9461.42
301.229	9454.53
301.295	9442.01
301.361	9439.27
301.428	9450.54
301.494	9438.35
301.561	9442.4
301.627	9446.54
301.693	9449.81
301.76	9446.68
301.826	9445.91
301.892	9458.96
301.959	9469.85
302.025	9464.45
302.092	9453.57
302.158	9459.64
302.224	9459.3
302.291	9454.39
302.357	9447.65
302.423	9429.35
302.49	9422.89
302.556	9437
302.622	9442.3
302.688	9455.21
302.755	9475.96
302.821	9482.46
302.887	9492.48
302.954	9485.16
303.02	9494.98
303.086	9501.53
303.152	9500.47
303.219	9497.73
303.285	9508.13
303.351	9508.37
303.417	9511.94
303.483	9500.38
303.55	9492.82
303.616	9486.13
303.682	9484.87
303.748	9478.57
303.815	9500.29
303.881	9500.05
303.947	9482.23
304.013	9489.21
304.079	9483.48
304.145	9459.88
304.212	9459.78
304.278	9447.7
304.344	9443.36
304.41	9424.49
304.476	9410.33
304.542	9402.87
304.608	9411.1
304.674	9387.46
304.741	9381.82
304.807	9383.99
304.873	9394.77
304.939	9420.01
305.005	9408.64
305.071	9407.05
305.137	9412.54
305.203	9387.94
305.269	9390.87
305.335	9404.98
305.401	9398.34
305.467	9392.27
305.533	9402.48
305.599	9410.04
305.666	9421.45
305.732	9423.47
305.798	9437.54
305.864	9464.74
305.93	9472.5
305.996	9467.44
306.062	9471.49
306.128	9468.45
306.194	9459.88
306.259	9455.31
306.325	9437.63
306.391	9448.42
306.457	9458.91
306.523	9460.26
306.589	9477.5
306.655	9470.38
306.721	9450.39
306.787	9439.65
306.853	9455.16
306.919	9443.41
306.985	9429.78
307.051	9421.31
307.117	9411.87
307.183	9406.23
307.248	9374.07
307.314	9380.18
307.38	9379.7
307.446	9381.87
307.512	9374.55
307.578	9372.14
307.644	9369.25
307.709	9371.95
307.775	9367.08
307.841	9360.15
307.907	9362.56
307.973	9346.33
308.039	9344.79
308.104	9351.43
308.17	9349.12
308.236	9333.66
308.302	9331.16
308.368	9321.67
308.433	9318.88
308.499	9315.56
308.565	9307.61
308.631	9312
308.696	9289.99
308.762	9279.2
308.828	9277.62
308.894	9259.32
308.959	9244.15
309.025	9237.75
309.091	9235.82
309.156	9227.49
309.222	9225.66
309.288	9209.87
309.354	9191.72
309.419	9195.33
309.485	9185.56
309.551	9190.37
309.616	9174.97
309.682	9167.41
309.748	9160.72
309.813	9152.48
309.879	9146.75
309.945	9133.71
310.01	9128.46
310.076	9131.39
310.141	9125.76
310.207	9109.73
310.273	9112.91
310.338	9113.68
310.404	9098.37
310.469	9078.67
310.535	9065.68
310.601	9050.22
310.666	9056.34
310.732	9063.56
310.797	9044.54
310.863	9028.32
310.928	9017.58
310.994	9026.15
311.059	9023.02
311.125	9021.38
311.191	9038.76
311.256	9026.44
311.322	9026.68
311.387	9006.8
311.453	9226.84
311.518	9204.12
311.584	9202.14
311.649	9208.21
311.715	9198.87
311.78	9198.87
311.846	9191.46
311.911	9198.77
311.976	9199.02
312.042	9181.4
312.107	9164.26
312.173	9159.78
312.238	9155.88
312.304	9154.34
312.369	9139.37
312.434	9135.42
312.5	9124.79
312.565	9087.28
312.631	9097.63
312.696	9095.51
312.761	9098.69
312.827	8867.92
312.892	8901.86
312.958	8898.63
313.023	8895.65
313.088	8894.64
313.154	8878.99
313.219	8869.42
313.284	8859.69
313.35	8855.02
313.415	8844.19
313.48	8838.71
313.546	8840.34
313.611	8846.41
313.676	8835.43
313.741	8828.55
313.807	8831.68
313.872	8834.28
313.937	8836.59
314.003	8841.06
314.068	8838.42
314.133	8842.7
314.198	8827.39
314.264	8803.8
314.329	8788.26
314.394	8776.75
314.459	8772.66
314.525	8792.54
314.59	8794.56
314.655	8780.12
314.72	8786.28
314.785	8788.78
314.851	8785.18
314.916	8768.76
314.981	8757.5
315.046	8746.72
315.111	8737.81
315.176	8719.38
315.242	8722.32
315.307	8720.73
315.372	8695.46
315.437	8685.06
315.502	8675.92
315.567	8684.97
315.632	8671.59
315.698	8678.28
315.763	8670
315.828	8660.76
315.893	8649.44
315.958	8642.51
316.023	8631.74
316.088	8609.21
316.153	8586.21
316.218	8580.39
316.283	8556.76
316.348	8534.2
316.413	8535.54
316.479	8517.79
316.544	8488.49
316.609	8455.19
316.674	8423.05
316.739	8396.06
316.804	8366.76
316.869	8329.61
316.934	8291.31
316.999	8263.93
317.064	8210.77
317.129	8173.97
317.194	8139.86
317.259	8099.83
317.324	8053.85
317.389	8011.81
317.454	7971.45
317.518	7940.68
317.583	7915.32
317.648	7890.75
317.713	7855.55
317.778	7795.52
317.843	7767.53
317.908	7733.88
317.973	7693.87
318.038	7661.08
318.103	7622.09
318.168	7588.04
318.233	7559.63
318.297	7510.93
318.362	7476.36
318.427	7439.07
318.492	7407.19
318.557	7360.67
318.622	7327.83
318.687	7298.33
318.751	7261.09
318.816	7225.86
318.881	7192.27
318.946	7132.48
319.011	7086.69
319.075	7043.31
319.14	7006.27
319.205	6960.86
319.27	6921.33
319.335	6878.72
319.399	6840.43
319.464	6812.71
319.529	6757.63
319.594	6715.21
319.658	6682.89
319.723	6632.27
319.788	6603.8
319.853	6550.06
319.917	6516.65
319.982	6462.2
320.047	6422.01
320.112	6392.63
320.176	6346.4
320.241	6306.51
320.306	6279.39
320.37	6241.76
320.435	6219.16
320.5	6189.21
320.564	6150.91
320.629	6109.36
320.694	6075.78
320.758	6033.07
320.823	5986.29
320.888	5963.41
320.952	5915.49
321.017	5876.25
321.082	5841.24
321.146	5805.65
321.211	5770.79
321.275	5730.75
321.34	5692.63
321.405	5650.01
321.469	5604.17
321.534	5563.71
321.598	5518.17
321.663	5481.4
321.727	5448.8
321.792	5391.72
321.857	5348.58
321.921	5305.54
321.986	5265.3
322.05	5209.64
322.115	5173.99
322.179	5129.97
322.244	5073.21
322.308	5040.21
322.373	4990.93
322.437	4946.15
322.502	4917.31
322.566	4878.95
322.631	4842.28
322.695	4795.85
322.76	4751.57
322.824	4717.06
322.889	4673.13
322.953	4627.86
323.018	4570.43
323.082	4508.14
323.146	4459.69
323.211	4408.55
323.275	4363.77
323.34	4320.59
323.404	4283.06
323.468	4239.29
323.533	4196.26
323.597	4151.19
323.662	4099.51
323.726	4066.52
323.79	4026.8
323.855	3962.06
323.919	3909.91
323.983	3866.23
324.048	3805.4
324.112	3930.9
324.177	3801.64
324.241	3603.39
324.305	3409.15
324.37	3216.24
324.434	3033.71
324.498	2993.61
324.562	2943.41
324.627	2887.42
324.691	2832.46
324.755	2772.94
324.82	2696.26
324.884	2621.53
324.948	2552.03
325.012	2462.51
325.077	2343.5
