Data from 20250630_urea_2M_MAYP1162681_23-42-27-548.txt Node
Date: Mon Jun 30 23:42:27 BST 2025
User: adleo
Spectrometer: MAYP116268
Trigger mode: 0
Integration Time (sec): 1.000000E0
Scans to average: 1
Electric dark correction enabled: true
Nonlinearity correction enabled: true
Boxcar width: 10
XAxis mode: Wavelengths
Number of Pixels in Spectrum: 2068
>>>>>Begin Spectral Data<<<<<
179.565	1110.76
179.642	1165
179.718	1200.99
179.795	1234.33
179.871	1263.16
179.948	1279.91
180.024	1298.85
180.101	1318.91
180.177	1332.33
180.254	1351.35
180.33	1371.6
180.407	1419.64
180.483	1507.91
180.56	1588.62
180.636	1665.77
180.712	1649.8
180.789	1658.59
180.865	1668.85
180.942	1675.88
181.018	1685.24
181.095	1696.79
181.171	1701.82
181.248	1701.35
181.324	1716.22
181.4	1724.16
181.477	1732.9
181.553	1743.35
181.63	1761.51
181.706	1774.67
181.782	1784.03
181.859	1783.94
181.935	1787.69
182.011	1781.94
182.088	1795.53
182.164	1816.79
182.24	1826.34
182.317	1838.41
182.393	1837.36
182.469	1849.57
182.546	1861.22
182.622	1867.4
182.698	1863.64
182.775	1873.86
182.851	1883.51
182.927	1877.47
183.003	1870.35
183.08	1864.98
183.156	1873.63
183.232	1869.82
183.308	1860.7
183.385	1865.26
183.461	1883.9
183.537	1884.89
183.613	1896.07
183.69	1889.22
183.766	1877.19
183.842	1886.08
183.918	1890.88
183.995	1905.14
184.071	1907.19
184.147	1901.29
184.223	1889.36
184.299	1901.06
184.375	1891.36
184.452	1900.35
184.528	1952.28
184.604	1966.68
184.68	1978.33
184.756	1983.28
184.832	1988.55
184.908	1993.73
184.985	1993.64
185.061	1979.71
185.137	1989.12
185.213	1978.05
185.289	1978.28
185.365	1970.49
185.441	1967.92
185.517	1981.95
185.593	1975.82
185.669	1975.01
185.745	1988.28
185.822	2004.82
185.898	1996.54
185.974	2004.62
186.05	1996.3
186.126	1960.06
186.202	1952.45
186.278	1949.32
186.354	1941.61
186.43	1946.99
186.506	1945.89
186.582	1945.94
186.658	1949.13
186.734	1929.54
186.81	1935.34
186.886	1937.48
186.962	1953.74
187.038	1952.36
187.114	1942.13
187.19	1950.07
187.266	1941.18
187.341	1939.33
187.417	1932.39
187.493	1934.1
187.569	1936
187.645	1931.77
187.721	1919.22
187.797	1928.63
187.873	1933.19
187.949	1928.06
188.025	1922.16
188.101	1922.64
188.176	1927.11
188.252	1924.73
188.328	1934.33
188.404	1931.95
188.48	1928.1
188.556	1917.78
188.632	1919.35
188.707	1922.3
188.783	1918.64
188.859	1912.89
188.935	1904
189.011	1911.99
189.086	1902.53
189.162	1896.3
189.238	1893.35
189.314	1891.64
189.39	1883.08
189.465	1877.71
189.541	1892.97
189.617	1880.85
189.693	1879
189.768	1881.75
189.844	1902.87
189.92	1894.41
189.996	1902.68
190.071	1916
190.147	1914.66
190.223	1922.04
190.298	1912.76
190.374	1902.83
190.45	1916.75
190.526	1924.17
190.601	1917.09
190.677	1922.17
190.753	1949.76
190.828	1954.99
190.904	1967.35
190.98	1982.62
191.055	1990.51
191.131	1983.52
191.207	2000.83
191.282	2008.91
191.358	2001.21
191.433	1985.89
191.509	2000.1
191.585	1997.44
191.66	1995.25
191.736	2005.57
191.811	1994.01
191.887	2008.42
191.963	2029.35
192.038	2031.49
192.114	2029.92
192.189	2034.25
192.265	2027.35
192.34	2005.75
192.416	2004.23
192.491	2000.67
192.567	2003.95
192.642	2007.8
192.718	2007.85
192.793	1999.72
192.869	1996.63
192.944	1999.29
193.02	2008.18
193.095	2009.18
193.171	2014.13
193.246	2013.03
193.322	2009.51
193.397	2012.98
193.473	2001.9
193.548	1986.82
193.624	1992.53
193.699	1990.15
193.775	2004.71
193.85	2008.37
193.925	2017.26
194.001	2016.6
194.076	2011.41
194.152	2000.23
194.227	1993.77
194.302	1983.93
194.378	1985.78
194.453	1981.27
194.529	1991.68
194.604	1978.03
194.679	1971.28
194.755	1955.59
194.83	1969.1
194.905	1964.11
194.981	1972.24
195.056	1965.97
195.131	1967.49
195.207	1965.64
195.282	1960.12
195.357	1943.57
195.433	1959.97
195.508	1948.23
195.583	1952.08
195.659	1966.16
195.734	1972.24
195.809	1969.11
195.884	1976.76
195.96	1975.57
196.035	1993.73
196.11	1990.69
196.185	1999.82
196.261	2006.38
196.336	2032.68
196.411	2019.59
196.486	2025.63
196.561	2017.79
196.637	2026.06
196.712	2042.33
196.787	2045.89
196.862	2059.49
196.937	2067.96
197.013	2073.19
197.088	2083.61
197.163	2104.92
197.238	2120.2
197.313	2121.39
197.388	2135.66
197.464	2166.73
197.539	2177.81
197.614	2166.68
197.689	2176.39
197.764	2198.23
197.839	2216.74
197.914	2212.12
197.989	2232.25
198.065	2247.28
198.14	2294.42
198.215	2318.49
198.29	2329.87
198.365	2342.44
198.44	2352.72
198.515	2379.18
198.59	2394.27
198.665	2418.5
198.74	2426.5
198.815	2426.98
198.89	2447.21
198.965	2475.73
199.04	2472.11
199.115	2487.15
199.19	2529.95
199.265	2535.43
199.34	2541.38
199.415	2571.06
199.49	2592.34
199.565	2601.05
199.64	2622.44
199.715	2622.91
199.79	2629.06
199.865	2634.96
199.94	2634.11
200.015	2661.97
200.09	2665.98
200.165	2670.07
200.24	2674.88
200.315	2714.55
200.39	2729.89
200.464	2736.61
200.539	2737.13
200.614	2755.38
200.689	2777.96
200.764	2782.21
200.839	2796.59
200.914	2800.92
200.989	2790.58
201.063	2804.64
201.138	2789.5
201.213	2790.97
201.288	2771.87
201.363	2773.92
201.438	2773.58
201.512	2787.01
201.587	2773.19
201.662	2778.15
201.737	2788.92
201.812	2799.12
201.886	2766.26
201.961	2771.79
202.036	2759.5
202.111	2754.83
202.186	2722.74
202.26	2704.11
202.335	2683
202.41	2678.09
202.485	2661.42
202.559	2644.42
202.634	2615.6
202.709	2623.69
202.784	2604.4
202.858	2603.02
202.933	2586.07
203.008	2581.5
203.082	2563.31
203.157	2560.83
203.232	2521.51
203.306	2500.59
203.381	2470.44
203.456	2450.54
203.53	2434.05
203.605	2415.97
203.68	2398.72
203.754	2394.59
203.829	2383.59
203.904	2366.45
203.978	2352.98
204.053	2358.84
204.127	2346.46
204.202	2346.22
204.277	2332.99
204.351	2326.8
204.426	2318.38
204.5	2313.57
204.575	2281.36
204.65	2291.83
204.724	2282.07
204.799	2289.3
204.873	2286.25
204.948	2284.97
205.022	2273.45
205.097	2260.98
205.171	2274.87
205.246	2278.3
205.32	2280.06
205.395	2277.11
205.469	2269.59
205.544	2278.07
205.618	2263.93
205.693	2273.64
205.767	2262.65
205.842	2277.69
205.916	2276.07
205.991	2270.27
206.065	2275.31
206.14	2287.87
206.214	2282.1
206.289	2279.06
206.363	2289.67
206.438	2294.05
206.512	2299.43
206.586	2317.18
206.661	2328.03
206.735	2307.1
206.81	2308.29
206.884	2316.67
206.958	2304.11
207.033	2321.14
207.107	2327.28
207.181	2354.9
207.256	2350.71
207.33	2370.08
207.405	2384.47
207.479	2401.99
207.553	2408.27
207.628	2392.33
207.702	2403.37
207.776	2398.8
207.851	2398.66
207.925	2413.13
207.999	2408.33
208.073	2406.76
208.148	2407.76
208.222	2393.23
208.296	2420.69
208.371	2436.36
208.445	2446.12
208.519	2472.58
208.593	2482.06
208.668	2476.29
208.742	2476.77
208.816	2479.2
208.89	2492.63
208.965	2490.53
209.039	2493.39
209.113	2510.49
209.187	2530.52
209.261	2528.52
209.336	2544.95
209.41	2565.42
209.484	2564.66
209.558	2582.66
209.632	2596.71
209.707	2609
209.781	2631.1
209.855	2650.3
209.929	2667.27
210.003	2676.8
210.077	2679.46
210.151	2725.19
210.226	2759.27
210.3	2789.6
210.374	2812.22
210.448	2817.08
210.522	2826.38
210.596	2839.63
210.67	2850.06
210.744	2895.39
210.818	2924.59
210.892	2946.95
210.966	2941.38
211.041	2960.2
211.115	2963.49
211.189	2984.94
211.263	3002.86
211.337	3010.82
211.411	3026.99
211.485	3026.04
211.559	3039.33
211.633	3046.81
211.707	3021.24
211.781	3032.07
211.855	3000.03
211.929	3000.22
212.003	2988.73
212.077	3006.62
212.151	3026.37
212.225	3042.82
212.299	3043.82
212.373	3046.83
212.447	3057.37
212.52	3106.16
212.594	3121.72
212.668	3148.66
212.742	3152.57
212.816	3171.13
212.89	3189.4
212.964	3206.1
213.038	3233.84
213.112	3277.56
213.186	3320.59
213.26	3332.9
213.333	3325.36
213.407	3364.13
213.481	3400.39
213.555	3449.76
213.629	3480.03
213.703	3507.21
213.777	3552.49
213.85	3583.53
213.924	3665.76
213.998	3720.23
214.072	3763.97
214.146	3811.66
214.219	3871.74
214.293	3934.04
214.367	3999.39
214.441	4078.56
214.515	4139.72
214.588	4195.05
214.662	4236.38
214.736	4292.95
214.81	4381.54
214.883	4474.4
214.957	4556.96
215.031	4637.13
215.105	4709.46
215.178	4790.37
215.252	4880.91
215.326	4959.26
215.4	5044.55
215.473	5108.05
215.547	5192.59
215.621	5293.32
215.694	5408.19
215.768	5497.74
215.842	5609.6
215.915	5719.46
215.989	5816.03
216.063	5934.31
216.136	6055.47
216.21	6184.83
216.284	6327.82
216.357	6455.89
216.431	6583.65
216.504	6718.45
216.578	6882.6
216.652	7027.28
216.725	7170.67
216.799	7322.41
216.873	7461.59
216.946	7608.17
217.02	7744.89
217.093	7887.6
217.167	8012.46
217.24	8144.07
217.314	8288.12
217.387	8418.73
217.461	8550.91
217.535	8706.3
217.608	8837.64
217.682	8977.42
217.755	9127.13
217.829	9257.9
217.902	9403.93
217.976	9548.86
218.049	9691.07
218.123	9818.14
218.196	9968.55
218.27	10103.52
218.343	10232.48
218.417	10380.81
218.49	10527.95
218.563	10683.95
218.637	10830.43
218.71	10986.07
218.784	11138.25
218.857	11287.78
218.931	11442.62
219.004	11589.75
219.077	11740.56
219.151	11889.49
219.224	12030.13
219.298	12161.71
219.371	12305.49
219.444	12434.09
219.518	12572.29
219.591	12712.46
219.665	12867.68
219.738	13001.06
219.811	13124.7
219.885	13260.45
219.958	13396.82
220.031	13514.01
220.105	13642.72
220.178	13764.29
220.251	13883.46
220.325	14004.89
220.398	14125.06
220.471	14243.02
220.544	14361.75
220.618	14460.04
220.691	14578
220.764	14697.4
220.838	14818.53
220.911	14924.15
220.984	15052.03
221.057	15165.89
221.131	15273.23
221.204	15342.4
221.277	15459.24
221.35	15592.66
221.424	15690.8
221.497	15791.2
221.57	15897.29
221.643	15992.34
221.716	16103.34
221.79	16194.58
221.863	16296.37
221.936	16391.71
222.009	16487.23
222.082	16584.69
222.155	16676.41
222.229	16774.63
222.302	16864.47
222.375	16943.41
222.448	17037.15
222.521	17112.24
222.594	17190.55
222.667	17253.98
222.74	17347.13
222.814	17416
222.887	17486.75
222.96	17566.94
223.033	17641.69
223.106	17717.11
223.179	17793.35
223.252	17855.76
223.325	17929.49
223.398	17980.09
223.471	18041.68
223.544	18099.32
223.617	18161.19
223.69	18224.47
223.763	18267.02
223.837	18318.92
223.91	18394.68
223.983	18440.12
224.056	18494.67
224.129	18554.14
224.202	18619.73
224.275	18672.25
224.348	18718.42
224.42	18748.92
224.493	18782.37
224.566	18830.03
224.639	18877.4
224.712	18921.49
224.785	18966.6
224.858	19007.41
224.931	19056.42
225.004	19094.59
225.077	19138.15
225.15	19161.52
225.223	19203.26
225.296	19270
225.369	19305.42
225.442	19338.77
225.514	19376.93
225.587	19415.39
225.66	19455.24
225.733	19496.68
225.806	19538.47
225.879	19579.62
225.952	19614.9
226.025	19664.29
226.097	19714.99
226.17	19748.43
226.243	19764.72
226.316	19796.86
226.389	19836.52
226.461	19871.37
226.534	19904.38
226.607	19939.36
226.68	19990.64
226.753	20024.08
226.825	20031.6
226.898	20077.09
226.971	20103.45
227.044	20147.12
227.117	20182.87
227.189	20212.85
227.262	20252.13
227.335	20279.93
227.407	20304.22
227.48	20337.52
227.553	20375.06
227.626	20388.37
227.698	20414.68
227.771	20449.14
227.844	20465.81
227.916	20484.8
227.989	20499.5
228.062	20529.42
228.134	20569.04
228.207	20585.96
228.28	20598.39
228.352	20618.05
228.425	20634.87
228.498	20659.26
228.57	20659.26
228.643	20687.26
228.716	20707.79
228.788	20714.78
228.861	20724.66
228.934	20750.01
229.006	20767.94
229.079	20768.61
229.151	20783.55
229.224	20789.48
229.296	20811.46
229.369	20859.89
229.442	20885.2
229.514	20891.17
229.587	20923.32
229.659	20926.21
229.732	20949.54
229.804	20975.27
229.877	21019.47
229.949	21036.05
230.022	21061.74
230.094	21087.14
230.167	21100.87
230.239	21101.16
230.312	21118.51
230.384	21154.08
230.457	21175.29
230.529	21192.26
230.602	21217.51
230.674	21235.39
230.747	21256.26
230.819	21281.03
230.892	21259.54
230.964	21274.67
231.037	21285.18
231.109	21282.09
231.181	21302.58
231.254	21297.81
231.326	21302.34
231.399	21306.96
231.471	21304.6
231.544	21292.31
231.616	21303.49
231.688	21307.2
231.761	21311.49
231.833	21301.18
231.905	21280.7
231.978	21278
232.05	21276.26
232.122	21272.94
232.195	21265.13
232.267	21278.53
232.339	21272.94
232.412	21275.73
232.484	21267.83
232.556	21277.18
232.629	21294.72
232.701	21289.13
232.773	21278.96
232.846	21274.77
232.918	21271.06
232.99	21280.84
233.062	21281.37
233.135	21283.15
233.207	21270.62
233.279	21264.36
233.351	21271.2
233.424	21267.39
233.496	21253.75
233.568	21260.45
233.64	21239.2
233.713	21231.92
233.785	21221.89
233.857	21213.65
233.929	21200.88
234.001	21208.74
234.074	21198.95
234.146	21171.14
234.218	21157.84
234.29	21158.23
234.362	21146.51
234.434	21123.43
234.507	21094.89
234.579	21070.12
234.651	21048.82
234.723	21032.1
234.795	21023.13
234.867	21008.14
234.939	21006.99
235.012	20998.36
235.084	20981.78
235.156	20978.89
235.228	20954.93
235.3	20931.61
235.372	20908.04
235.444	20901.92
235.516	20855.94
235.588	20841.1
235.66	20824.71
235.732	20804.03
235.804	20830.69
235.876	20817.14
235.948	20799.99
236.02	20787.5
236.092	20768.32
236.164	20754.49
236.236	20737.77
236.308	20716.23
236.38	20703.7
236.452	20670.92
236.524	20642.39
236.596	20643.41
236.668	20624.46
236.74	20610.15
236.812	20595.07
236.884	20586.68
236.956	20569.28
237.028	20547.36
237.1	20523.98
237.172	20519.84
237.244	20511.5
237.316	20457.52
237.388	20428.8
237.46	20398.68
237.532	20381.91
237.604	20356.9
237.675	20344.85
237.747	20326.82
237.819	20299.31
237.891	20261.19
237.963	20231.21
238.035	20195.7
238.107	20135.6
238.178	20128.9
238.25	20099.94
238.322	20094.3
238.394	20042.35
238.466	20007.07
238.538	19990.11
238.609	19967.99
238.681	19919.22
238.753	19878.79
238.825	19858.79
238.897	19826.16
238.968	19814.45
239.04	19783.85
239.112	19784.96
239.184	19735.56
239.255	19696
239.327	19671.52
239.399	19654.94
239.471	19635.14
239.542	19617.26
239.614	19597.64
239.686	19531.53
239.758	19505.5
239.829	19457.46
239.901	19442.04
239.973	19415.58
240.044	19383.15
240.116	19349.37
240.188	19311.3
240.259	19282.91
240.331	19233.95
240.403	19214.2
240.474	19169.14
240.546	19130.2
240.618	19068.08
240.689	19032.38
240.761	19003.56
240.833	18981.78
240.904	18937.06
240.976	18902.65
241.048	18881.2
241.119	18860.63
241.191	18840.58
241.262	18818.17
241.334	18782.03
241.405	18755.86
241.477	18717.94
241.549	18681.12
241.62	18653.94
241.692	18632.3
241.763	18609.08
241.835	18580.84
241.906	18551.87
241.978	18504.6
242.049	18481.42
242.121	18466.14
242.192	18450.39
242.264	18409.38
242.335	18366.1
242.407	18343.26
242.478	18299.94
242.55	18262.2
242.621	18206.78
242.693	18175.46
242.764	18148.38
242.836	18121.29
242.907	18088.86
242.979	18058.79
243.05	18032.19
243.122	18001.3
243.193	17967.32
243.264	17911.57
243.336	17878.75
243.407	17847.42
243.479	17833.16
243.55	17805.5
243.622	17774.12
243.693	17740.1
243.764	17726.75
243.836	17679.91
243.907	17643.76
243.978	17613.69
244.05	17587.62
244.121	17553.6
244.192	17529.36
244.264	17477.31
244.335	17436.87
244.407	17385.16
244.478	17350.42
244.549	17317.02
244.62	17267.81
244.692	17231.28
244.763	17207.91
244.834	17163.86
244.906	17116.05
244.977	17091.57
245.048	17062.89
245.119	17020.72
245.191	16978.51
245.262	16919.56
245.333	16904.96
245.405	16868.38
245.476	16839.08
245.547	16807.22
245.618	16781.82
245.689	16737.82
245.761	16702.49
245.832	16662.59
245.903	16641.72
245.974	16619.98
246.045	16577.86
246.117	16560.12
246.188	16513.27
246.259	16465.46
246.33	16433.41
246.401	16401.55
246.473	16356.06
246.544	16316.39
246.615	16289.26
246.686	16248.05
246.757	16231.47
246.828	16181.63
246.899	16164.76
246.97	16117.38
247.042	16064.22
247.113	16037.71
247.184	16027.25
247.255	15993.8
247.326	15964.45
247.397	15928.68
247.468	15897.64
247.539	15873.4
247.61	15822.84
247.681	15807.56
247.752	15791.75
247.823	15755.4
247.894	15729.42
247.965	15683.34
248.037	15645.94
248.108	15603.19
248.179	15578.61
248.25	15547.42
248.321	15527.03
248.392	15485.29
248.463	15484.04
248.534	15463.31
248.605	15439.3
248.675	15408.46
248.746	15385.66
248.817	15370.72
248.888	15339.14
248.959	15293.06
249.03	15271.08
249.101	15253.05
249.172	15215.07
249.243	15161.76
249.314	15141.7
249.385	15112.06
249.456	15084.01
249.527	15054.51
249.598	15031.75
249.669	14998.3
249.739	14972.22
249.81	14947.93
249.881	14907.58
249.952	14873.45
250.023	14840.63
250.094	14792.95
250.165	14753.91
250.235	14719.88
250.306	14691.34
250.377	14660.39
250.448	14631.86
250.519	14583.51
250.59	14565.19
250.66	14532.31
250.731	14524.99
250.802	14504.59
250.873	14474.66
250.944	14457.5
251.014	14427.13
251.085	14419.03
251.156	14405.58
251.227	14390.69
251.297	14382.44
251.368	14364.75
251.439	14347.54
251.51	14334.86
251.58	14302.33
251.651	14270.7
251.722	14262.65
251.792	14221.92
251.863	14194.83
251.934	14179.93
252.005	14179.59
252.075	14149.03
252.146	14134.57
252.217	14119.29
252.287	14094.08
252.358	14072.43
252.429	14064.86
252.499	14031.12
252.57	14005.62
252.641	13981.56
252.711	13948.3
252.782	13900.77
252.852	13897.68
252.923	13870.5
252.994	13846.73
253.064	13840.56
253.135	13804.84
253.205	13769.7
253.276	13762.22
253.347	13746.7
253.417	13712.67
253.488	13685.67
253.558	13662.29
253.629	13642.91
253.699	13624.98
253.77	13608.59
253.841	13582.32
253.911	13555.8
253.982	13534.98
254.052	13520.28
254.123	13499.79
254.193	13481.28
254.264	13499.06
254.334	13469.03
254.405	13435.67
254.475	13403.13
254.546	13374.31
254.616	13370.45
254.687	13350.4
254.757	13330.82
254.827	13310.05
254.898	13296.31
254.968	13272.3
255.039	13241.45
255.109	13222.5
255.18	13185.29
255.25	13141.57
255.321	13129.56
255.391	13089.94
255.461	13090.8
255.532	13034.02
255.602	13004.95
255.673	12964.46
255.743	12931.87
255.813	12877.78
255.884	12869.68
255.954	12855.32
256.024	12845.58
256.095	12811.45
256.165	12780.65
256.235	12754.76
256.306	12726.42
256.376	12714.17
256.446	12698.94
256.517	12683.18
256.587	12667.85
256.657	12648.28
256.728	12633.67
256.798	12610.63
256.868	12593.23
256.938	12558.61
257.009	12559.67
257.079	12546.47
257.149	12548.06
257.219	12500.38
257.29	12493.88
257.36	12450.64
257.43	12438.54
257.5	12404.17
257.571	12390
257.641	12379.29
257.711	12352.83
257.781	12337.26
257.852	12322.22
257.922	12287.66
257.992	12268.67
258.062	12244.9
258.132	12234.54
258.202	12214.15
258.273	12191.35
258.343	12191.88
258.413	12172.21
258.483	12148.64
258.553	12120.49
258.623	12093.88
258.693	12085.35
258.764	12082.94
258.834	12075.52
258.904	12057.88
258.974	12030.35
259.044	12008.81
259.114	11987.84
259.184	11974.01
259.254	11952.8
259.324	11914.43
259.394	11897.03
259.464	11894.38
259.535	11871.87
259.605	11847.29
259.675	11820.44
259.745	11811.14
259.815	11774.07
259.885	11747.71
259.955	11754.36
260.025	11726.21
260.095	11709.87
260.165	11687.36
260.235	11679.41
260.305	11651.6
260.375	11612.17
260.445	11616.99
260.515	11610.54
260.585	11603.64
260.655	11583.35
260.725	11582.48
260.795	11571.16
260.865	11568.94
260.934	11543.73
261.004	11536.36
261.074	11515.44
261.144	11512.79
261.214	11502.14
261.284	11486.43
261.354	11484.84
261.424	11460.83
261.494	11462.47
261.564	11438.71
261.634	11429.99
261.703	11388.64
261.773	11387.48
261.843	11384.01
261.913	11357.26
261.983	11321.07
262.053	11312.68
262.123	11292.97
262.192	11256.15
262.262	11242.56
262.332	11212.97
262.402	11201.84
262.472	11184.73
262.541	11152.78
262.611	11141.94
262.681	11117.36
262.751	11102.8
262.821	11081.94
262.89	11043.82
262.96	11032.63
263.03	11038.23
263.1	11026.56
263.169	11015.09
263.239	10997.46
263.309	11000.73
263.379	10993.5
263.448	10982.71
263.518	10962.47
263.588	10938.71
263.657	10940.01
263.727	10943.24
263.797	10927.53
263.867	10910.62
263.936	10883.2
264.006	10879.78
264.076	10862.96
264.145	10843.93
264.215	10826.87
264.285	10810.87
264.354	10782.98
264.424	10760.09
264.494	10727.94
264.563	10707.85
264.633	10711.32
264.702	10701.83
264.772	10661.49
264.842	10642.89
264.911	10632.01
264.981	10607.67
265.05	10597.55
265.12	10581.89
265.19	10560.45
265.259	10557.08
265.329	10549.75
265.398	10536.07
265.468	10543.39
265.537	10522.48
265.607	10512.94
265.676	10506.15
265.746	10498.25
265.815	10501.28
265.885	10478.3
265.955	10452.72
266.024	10429.88
266.094	10396.35
266.163	10399.14
266.232	10401.65
266.302	10381.17
266.371	10379.01
266.441	10360.6
266.51	10363.59
266.58	10339.36
266.649	10322.97
266.719	10318.2
266.788	10303.7
266.858	10304.71
266.927	10268.48
266.996	10252.73
267.066	10238.28
267.135	10210.29
267.205	10209.86
267.274	10194.63
267.343	10198.78
267.413	10188.76
267.482	10194.87
267.552	10194.06
267.621	10155.71
267.69	10119.29
267.76	10109.56
267.829	10096.84
267.898	10093.18
267.968	10059.89
268.037	10062.01
268.106	10055.65
268.176	10024.87
268.245	10007.48
268.314	9990.67
268.384	9984.65
268.453	9977.37
268.522	9973.76
268.592	9974.91
268.661	9947.75
268.73	9944.04
268.799	9924.24
268.869	9932.48
268.938	9898.56
269.007	9873.76
269.076	9863.98
269.146	9867.59
269.215	9858.25
269.284	9854.73
269.353	9833.2
269.422	9826.51
269.492	9808.01
269.561	9769.48
269.63	9764.52
269.699	9751.61
269.768	9737.07
269.838	9732.01
269.907	9727.91
269.976	9694.39
270.045	9661.36
270.114	9655.67
270.183	9635.64
270.253	9624.8
270.322	9597.73
270.391	9583.53
270.46	9591.09
270.529	9588.58
270.598	9585.84
270.667	9578.66
270.736	9556.17
270.806	9552.03
270.875	9546.35
270.944	9528.67
271.013	9546.01
271.082	9539.99
271.151	9530.55
271.22	9507
271.289	9492.99
271.358	9479.79
271.427	9481.96
271.496	9476.09
271.565	9460.53
271.634	9451.86
271.703	9454.03
271.772	9450.66
271.841	9448.73
271.91	9423.12
271.979	9412.86
272.048	9389.07
272.117	9385.31
272.186	9374.09
272.255	9366.68
272.324	9363.55
272.393	9357.24
272.462	9337.21
272.531	9327.24
272.6	9317.99
272.669	9324.68
272.738	9310.77
272.807	9299.02
272.876	9279.09
272.945	9305.33
273.013	9309.33
273.082	9311.25
273.151	9293.82
273.22	9284.67
273.289	9273.07
273.358	9287.61
273.427	9275.48
273.496	9269.65
273.564	9259.78
273.633	9257.42
273.702	9238.31
273.771	9228.24
273.84	9221.31
273.909	9217.12
273.977	9204.22
274.046	9189.15
274.115	9186.36
274.184	9172.83
274.253	9165.22
274.322	9173.74
274.39	9144.27
274.459	9124.82
274.528	9097.67
274.597	9077.45
274.665	9074.85
274.734	9080.15
274.803	9066.76
274.872	9057.13
274.94	9046.78
275.009	9095.47
275.078	9080.69
275.147	9081.03
275.215	9074.48
275.284	9079.06
275.353	9072.27
275.421	9055.85
275.49	9072.32
275.559	9064.66
275.627	9062.07
275.696	9057.06
275.765	9047.96
275.833	9035.83
275.902	9038.33
275.971	9048.2
276.039	9064.52
276.108	9067.36
276.177	9069.53
276.245	9059.95
276.314	9058.41
276.383	9065.1
276.451	9007.88
276.52	9006.78
276.588	9019.53
276.657	9022.13
276.725	9014.33
276.794	9014.43
276.863	9018.81
276.931	8993.01
277	8995.61
277.068	9006
277.137	9021.17
277.205	9019.24
277.274	9028.73
277.342	9038.84
277.411	9018.76
277.48	9004.71
277.548	8991.9
277.617	8984.2
277.685	8972.84
277.754	8971.83
277.822	8958.01
277.89	8967.83
277.959	8965.67
278.027	8944.73
278.096	8932.98
278.164	8955.37
278.233	8938.33
278.301	8934.19
278.37	8935.15
278.438	8920.52
278.507	8919.46
278.575	8897.31
278.643	8894.18
278.712	8882.01
278.78	8859.86
278.849	8872.18
278.917	8883.06
278.985	8877.28
279.054	8879.02
279.122	8887.39
279.191	8882.72
279.259	8882.24
279.327	8859.9
279.396	8870.88
279.464	8870.98
279.532	8884.02
279.601	8876.27
279.669	8873.67
279.737	8887.15
279.806	8890.13
279.874	8901.35
279.942	8902.51
280.011	8895.05
280.079	8902.99
280.147	8922.1
280.215	8930.57
280.284	8919.36
280.352	8904.63
280.42	8914.4
280.488	8907.95
280.557	8904.82
280.625	8906.12
280.693	8904.53
280.761	8909.44
280.83	8894.04
280.898	8896.63
280.966	8878.82
281.034	8849.6
281.102	8841.81
281.171	8832.47
281.239	8845.08
281.307	8832.04
281.375	8811.39
281.443	8831.94
281.512	8825.83
281.58	8828.76
281.648	8811.34
281.716	8815.58
281.784	8813.75
281.852	8803.35
281.92	8798.78
281.989	8806.77
282.057	8800.99
282.125	8836.67
282.193	8836.14
282.261	8836.18
282.329	8836.52
282.397	8836.81
282.465	8838.64
282.533	8850.29
282.601	8840.8
282.67	8815.87
282.738	8816.35
282.806	8832.62
282.874	8819.28
282.942	8823.95
283.01	8811.72
283.078	8814.76
283.146	8808.45
283.214	8817.31
283.282	8822.84
283.35	8835.94
283.418	8823.09
283.486	8824.82
283.554	8787.46
283.622	8784.09
283.69	8781.78
283.758	8773.69
283.826	8776.58
283.894	8788.28
283.962	8802.38
284.03	8814.66
284.098	8820.67
284.165	8814.22
284.233	8814.66
284.301	8811.14
284.369	8800.31
284.437	8800.31
284.505	8798.53
284.573	8812.01
284.641	8801.9
284.709	8802.04
284.777	8781.39
284.845	8785.63
284.912	8787.65
284.98	8792.08
285.048	8786.98
285.116	8790.49
285.184	8798.96
285.252	8795.59
285.319	8774.46
285.387	8771.09
285.455	8750.21
285.523	8754.68
285.591	8746.07
285.659	8740.58
285.726	8747.8
285.794	8732.06
285.862	8721.62
285.93	8725.37
285.997	8722.15
286.065	8719.02
286.133	8712.57
286.201	8717.24
286.269	8711.99
286.336	8701.4
286.404	8697.7
286.472	8707.52
286.539	8683.41
286.607	8669.79
286.675	8668.63
286.743	8678.64
286.81	8665.74
286.878	8682.92
286.946	8672.96
287.013	8673.87
287.081	8673.63
287.149	8661.26
287.216	8680.61
287.284	8673.49
287.352	8672.04
287.419	8670.65
287.487	8684.65
287.555	8686.82
287.622	8678.54
287.69	8680.8
287.758	8692.07
287.825	8688.94
287.893	8677.15
287.96	8690.71
288.028	8702.27
288.096	8712.71
288.163	8716.18
288.231	8711.51
288.298	8710.06
288.366	8714.16
288.433	8716.75
288.501	8710.4
288.569	8714.54
288.636	8704.1
288.704	8722.19
288.771	8725.71
288.839	8713.72
288.906	8710.98
288.974	8723.64
289.041	8722.53
289.109	8715.07
289.176	8723.88
289.244	8716.47
289.311	8723.21
289.379	8728.94
289.446	8730.23
289.514	8722.29
289.581	8723.64
289.649	8725.76
289.716	8729.18
289.783	8730.33
289.851	8742.94
289.918	8747.46
289.986	8753.67
290.053	8759.5
290.121	8754.83
290.188	8758.68
290.255	8785.01
290.323	8773.41
290.39	8763.3
290.458	8770.23
290.525	8783.8
290.592	8775.38
290.66	8784.47
290.727	8779.47
290.794	8796.75
290.862	8794.63
290.929	8795.55
290.996	8791.74
291.064	8794.29
291.131	8800.12
291.198	8815.14
291.266	8819.57
291.333	8814.66
291.4	8823.56
291.468	8844.36
291.535	8839.59
291.602	8841.57
291.669	8836.9
291.737	8843.88
291.804	8844.07
291.871	8857.16
291.938	8857.35
292.006	8883.69
292.073	8897.17
292.14	8908.62
292.207	8898.61
292.275	8905.16
292.342	8916.47
292.409	8941.4
292.476	8970.29
292.543	8965.91
292.611	8963.31
292.678	8977.08
292.745	9003.26
292.812	9010.82
292.879	9004.95
292.946	9011.64
293.014	9025.89
293.081	9032.92
293.148	9045.72
293.215	9063.29
293.282	9064.74
293.349	9077.74
293.416	9055.45
293.484	9065.56
293.551	9078.31
293.618	9097.38
293.685	9117.99
293.752	9115
293.819	9115.92
293.886	9102.77
293.953	9110.62
294.02	9126.03
294.087	9126.8
294.154	9116.3
294.221	9127.57
294.288	9130.26
294.356	9145.04
294.423	9152.99
294.49	9147.6
294.557	9164.21
294.624	9154.96
294.691	9168.06
294.758	9166.66
294.825	9176
294.892	9171.24
294.959	9171.14
295.026	9176.15
295.093	9169.16
295.16	9175.37
295.226	9178.84
295.293	9203.93
295.36	9212.4
295.427	9217.22
295.494	9227.81
295.561	9235.13
295.628	9251.21
295.695	9260.17
295.762	9262
295.829	9266.33
295.896	9285.5
295.963	9287.52
296.03	9300.57
296.096	9306.34
296.163	9322.47
296.23	9340.39
296.297	9358.92
296.364	9354.21
296.431	9356.57
296.498	9354.35
296.564	9372.98
296.631	9370.96
296.698	9358.25
296.765	9375.1
296.832	9364.32
296.899	9355.7
296.965	9377.7
297.032	9360.61
297.099	9381.6
297.166	9392.05
297.233	9389.93
297.299	9383.1
297.366	9381.84
297.433	9383.91
297.5	9393.16
297.566	9396.1
297.633	9398.6
297.7	9398.6
297.767	9406.31
297.833	9408.52
297.9	9414.59
297.967	9396.63
298.033	9411.75
298.1	9435.06
298.167	9422.83
298.234	9432.55
298.3	9444.59
298.367	9436.55
298.434	9450.76
298.5	9441.7
298.567	9442.86
298.634	9441.6
298.7	9456.87
298.767	9464.91
298.834	9483.89
298.9	9483.31
298.967	9470.26
299.033	9475.03
299.1	9488.85
299.167	9504.84
299.233	9506.76
299.3	9515.62
299.366	9535.99
299.433	9549.38
299.5	9533.2
299.566	9534.11
299.633	9544.61
299.699	9555.78
299.766	9556.94
299.832	9557.76
299.899	9568.07
299.965	9575.14
300.032	9571.97
300.099	9576.45
300.165	9579.77
300.232	9573.17
300.298	9567.49
300.365	9582.75
300.431	9586.89
300.498	9572.78
300.564	9574.52
300.631	9587.57
300.697	9600.77
300.763	9599.47
300.83	9594.36
300.896	9603.8
300.963	9619.74
301.029	9625.33
301.096	9623.35
301.162	9637.03
301.229	9628.36
301.295	9614.92
301.361	9619.35
301.428	9626.14
301.494	9615.02
301.561	9613.14
301.627	9612.18
301.693	9619.16
301.76	9627.69
301.826	9620.65
301.892	9634.76
301.959	9640.93
302.025	9633.99
302.092	9620.56
302.158	9626.05
302.224	9626.05
302.291	9618.68
302.357	9613.14
302.423	9606.25
302.49	9601.29
302.556	9608.13
302.622	9608.18
302.688	9619.59
302.755	9635.2
302.821	9639.24
302.887	9648.83
302.954	9658.56
303.02	9665.93
303.086	9670.45
303.152	9664.82
303.219	9660
303.285	9668.91
303.351	9672.24
303.417	9676.57
303.483	9676.76
303.55	9668.82
303.616	9669.44
303.682	9668.24
303.748	9664.29
303.815	9681.63
303.881	9689.72
303.947	9681
304.013	9682.01
304.079	9671.95
304.145	9646.81
304.212	9649.75
304.278	9638
304.344	9631.11
304.41	9619.21
304.476	9611.07
304.542	9601.87
304.608	9610.21
304.674	9589.83
304.741	9588.39
304.807	9589.78
304.873	9593.44
304.939	9610.3
305.005	9590.03
305.071	9589.5
305.137	9590.84
305.203	9562.48
305.269	9561.47
305.335	9570.18
305.401	9569.32
305.467	9571.19
305.533	9577.17
305.599	9578.9
305.666	9591.61
305.732	9590.46
305.798	9597.78
305.864	9619.02
305.93	9620.03
305.996	9613.91
306.062	9620.46
306.128	9613.82
306.194	9598.84
306.259	9597.49
306.325	9584.25
306.391	9601.34
306.457	9601.54
306.523	9599.99
306.589	9628.46
306.655	9621.52
306.721	9598.55
306.787	9585.64
306.853	9597.83
306.919	9585.94
306.985	9575.82
307.051	9567.2
307.117	9556.03
307.183	9550.39
307.248	9521.59
307.314	9530.55
307.38	9536.43
307.446	9536.04
307.512	9525.54
307.578	9528.53
307.644	9525.83
307.709	9529.54
307.775	9517.07
307.841	9513.21
307.907	9510.28
307.973	9486.05
308.039	9485.09
308.104	9498.38
308.17	9505.55
308.236	9490.09
308.302	9485.66
308.368	9478.15
308.433	9478.63
308.499	9474.69
308.565	9463.13
308.631	9471.41
308.696	9441.99
308.762	9425.95
308.828	9424.94
308.894	9405.2
308.959	9387.14
309.025	9375.68
309.091	9368.41
309.156	9364.03
309.222	9367.21
309.288	9361
309.354	9340.1
309.419	9335.38
309.485	9314.58
309.551	9310
309.616	9286.02
309.682	9284.05
309.748	9276.15
309.813	9268.26
309.879	9256.17
309.945	9238.41
310.01	9225.21
310.076	9230.65
310.141	9224.68
310.207	9205.42
310.273	9209.95
310.338	9214.71
310.404	9205.13
310.469	9192.71
310.535	9181.25
310.601	9166.85
310.666	9165.46
310.732	9174.99
310.797	9155.39
310.863	9149.71
310.928	9146.1
310.994	9157.22
311.059	9156.93
311.125	9159.34
311.191	9167.48
311.256	9156.74
311.322	9174.46
311.387	9156.69
311.453	9535.89
311.518	9515.43
311.584	9512.73
311.649	9517.74
311.715	9504.65
311.78	9504.6
311.846	9496.27
311.911	9500.75
311.976	9497.86
312.042	9484.52
312.107	9465.7
312.173	9466.23
312.238	9459.97
312.304	9454.77
312.369	9443.46
312.434	9430.41
312.5	9414.76
312.565	9381.54
312.631	9389.92
312.696	9376.63
312.761	9382.02
312.827	8995.03
312.892	9026.75
312.958	9021.36
313.023	9014.72
313.088	9013.37
313.154	8993.01
313.219	8984.73
313.284	8974.38
313.35	8963.74
313.415	8952.04
313.48	8952.67
313.546	8955.36
313.611	8961.77
313.676	8951.22
313.741	8949.88
313.807	8953.73
313.872	8957.19
313.937	8962.25
314.003	8971.15
314.068	8972.5
314.133	8972.98
314.198	8960.95
314.264	8944.14
314.329	8938.66
314.394	8926
314.459	8921.95
314.525	8939.38
314.59	8938.12
314.655	8930.09
314.72	8943.28
314.785	8946.55
314.851	8941.11
314.916	8923.54
314.981	8911.55
315.046	8901.25
315.111	8888.16
315.176	8879.16
315.242	8880.89
315.307	8877.28
315.372	8855.09
315.437	8839.88
315.502	8829.58
315.567	8840.74
315.632	8824.71
315.698	8827.99
315.763	8824.43
315.828	8813.6
315.893	8808.73
315.958	8803.97
316.023	8791.94
316.088	8768.11
316.153	8741.55
316.218	8731.68
316.283	8706.56
316.348	8683.27
316.413	8680.62
316.479	8663.49
316.544	8627.93
316.609	8597.22
316.674	8558.63
316.739	8522.98
316.804	8495.26
316.869	8459.32
316.934	8420.1
316.999	8388.96
317.064	8333.82
317.129	8290.18
317.194	8254.54
317.259	8205.7
317.324	8154.7
317.389	8107.52
317.454	8062.92
317.518	8029.4
317.583	8002.7
317.648	7979.42
317.713	7943.25
317.778	7881.35
317.843	7849.41
317.908	7813.73
317.973	7779.1
318.038	7751.79
318.103	7714.67
318.168	7679.28
318.233	7646.25
318.297	7597.35
318.362	7561.95
318.427	7521.82
318.492	7495.14
318.557	7447.74
318.622	7416.83
318.687	7386.6
318.751	7350.41
318.816	7321
318.881	7288.12
318.946	7234.96
319.011	7190.94
319.075	7149.27
319.14	7119.2
319.205	7072.73
319.27	7039.53
319.335	6993.31
319.399	6951.6
319.464	6921.73
319.529	6865.77
319.594	6825.75
319.658	6793.52
319.723	6746.78
319.788	6713.31
319.853	6657.75
319.917	6625.24
319.982	6570.64
320.047	6530.6
320.112	6499.87
320.176	6447.73
320.241	6413.3
320.306	6374.8
320.37	6330.06
320.435	6295.93
320.5	6265.16
320.564	6223.99
320.629	6179.07
320.694	6148.59
320.758	6108.09
320.823	6068.5
320.888	6042.88
320.952	5994.86
321.017	5949.28
321.082	5905.2
321.146	5870.33
321.211	5840.64
321.275	5801.89
321.34	5758.74
321.405	5715.06
321.469	5670.65
321.534	5631.39
321.598	5580.09
321.663	5552.71
321.727	5517.38
321.792	5473.71
321.857	5427.73
321.921	5387.71
321.986	5345.5
322.05	5285.03
322.115	5242.96
322.179	5197.68
322.244	5139.58
322.308	5106.19
322.373	5061.26
322.437	5021.89
322.502	4996.35
322.566	4953.73
322.631	4914.89
322.695	4876.36
322.76	4835.47
322.824	4796.26
322.889	4753.47
322.953	4708.06
323.018	4642.76
323.082	4584.11
323.146	4531.52
323.211	4479.42
323.275	4436.55
323.34	4392.07
323.404	4356.44
323.468	4313.1
323.533	4265.66
323.597	4223.75
323.662	4169.24
323.726	4135
323.79	4089.87
323.855	4025.79
323.919	3974.5
323.983	3932.39
324.048	3867.68
324.112	4052.29
324.177	3923.98
324.241	3720.71
324.305	3524.74
324.37	3330.03
324.434	3144.25
324.498	3102.78
324.562	3056.53
324.627	3001.19
324.691	2949.83
324.755	2888.43
324.82	2819.1
324.884	2749.97
324.948	2686.18
325.012	2606.41
325.077	2491.43
