Data from 20250630_urea_2M_MAYP1162681_03-32-27-420.txt Node
Date: Tue Jul 01 03:32:27 BST 2025
User: adleo
Spectrometer: MAYP116268
Trigger mode: 0
Integration Time (sec): 1.000000E0
Scans to average: 1
Electric dark correction enabled: true
Nonlinearity correction enabled: true
Boxcar width: 10
XAxis mode: Wavelengths
Number of Pixels in Spectrum: 2068
>>>>>Begin Spectral Data<<<<<
179.565	1071.88
179.642	1122.43
179.718	1157.37
179.795	1191.53
179.871	1220.66
179.948	1236.31
180.024	1254.51
180.101	1273.46
180.177	1288.58
180.254	1308.12
180.33	1327.14
180.407	1371.51
180.483	1457.55
180.56	1534.37
180.636	1609.62
180.712	1598.02
180.789	1609.38
180.865	1618.64
180.942	1626.66
181.018	1637.25
181.095	1650.28
181.171	1653.03
181.248	1651.13
181.324	1664.1
181.4	1668.95
181.477	1679.21
181.553	1689.76
181.63	1707.81
181.706	1722.02
181.782	1726.1
181.859	1725.53
181.935	1732.38
182.011	1727.91
182.088	1739.89
182.164	1759.52
182.24	1771.06
182.317	1777.71
182.393	1773.68
182.469	1786.7
182.546	1797.86
182.622	1800.1
182.698	1795.77
182.775	1807.99
182.851	1822.86
182.927	1817.3
183.003	1815.49
183.08	1810.08
183.156	1817.97
183.232	1815.26
183.308	1802.71
183.385	1811.26
183.461	1828.52
183.537	1829.61
183.613	1840.35
183.69	1835.12
183.766	1824.85
183.842	1832.6
183.918	1840.45
183.995	1852.14
184.071	1858.51
184.147	1854.23
184.223	1843.4
184.299	1854.71
184.375	1845.35
184.452	1850.3
184.528	1902.93
184.604	1910.82
184.68	1921.18
184.756	1928.5
184.832	1931.83
184.908	1938.86
184.985	1937.53
185.061	1922.13
185.137	1928.64
185.213	1917.62
185.289	1917.24
185.365	1912.86
185.441	1908.87
185.517	1918.1
185.593	1914.72
185.669	1908.3
185.745	1918.38
185.822	1934.16
185.898	1925.6
185.974	1930.92
186.05	1923.03
186.126	1886.6
186.202	1880.62
186.278	1875.15
186.354	1866.16
186.43	1871.06
186.506	1867.4
186.582	1867.26
186.658	1874.1
186.734	1853.95
186.81	1855.19
186.886	1858.09
186.962	1867.36
187.038	1865.45
187.114	1859.51
187.19	1866.64
187.266	1857.61
187.341	1854.76
187.417	1849.77
187.493	1851.24
187.569	1854.47
187.645	1850.05
187.721	1839.93
187.797	1845.96
187.873	1851.1
187.949	1846.58
188.025	1842.4
188.101	1845.15
188.176	1849.33
188.252	1844.11
188.328	1854.32
188.404	1857.41
188.48	1852.8
188.556	1843.01
188.632	1844.58
188.707	1842.77
188.783	1842.58
188.859	1841.06
188.935	1833.93
189.011	1840.92
189.086	1836.02
189.162	1831.55
189.238	1828.8
189.314	1823.95
189.39	1820.77
189.465	1814.06
189.541	1830.08
189.617	1815.54
189.693	1813.12
189.768	1817.63
189.844	1839.55
189.92	1831.9
189.996	1837.94
190.071	1848.3
190.147	1850.39
190.223	1858.38
190.298	1853.48
190.374	1839.56
190.45	1849.54
190.526	1856.53
190.601	1852.63
190.677	1853.05
190.753	1877.17
190.828	1880.21
190.904	1893.85
190.98	1908.12
191.055	1918.1
191.131	1908.59
191.207	1929.03
191.282	1940.1
191.358	1932.36
191.433	1919.66
191.509	1929.97
191.585	1925.93
191.66	1925.12
191.736	1930.44
191.811	1918.7
191.887	1932.92
191.963	1954.46
192.038	1957.69
192.114	1958.31
192.189	1961.73
192.265	1957.93
192.34	1936.43
192.416	1934.19
192.491	1931.2
192.567	1933.29
192.642	1935.95
192.718	1937.57
192.793	1924.16
192.869	1919.31
192.944	1915.75
193.02	1921.22
193.095	1924.69
193.171	1931.3
193.246	1934.53
193.322	1934.53
193.397	1935.81
193.473	1922.12
193.548	1906.9
193.624	1913.94
193.699	1909.57
193.775	1923.36
193.85	1925.64
193.925	1937.38
194.001	1938.33
194.076	1931.58
194.152	1920.31
194.227	1913.37
194.302	1901.21
194.378	1905.82
194.453	1902.3
194.529	1918.08
194.604	1905.44
194.679	1899.73
194.755	1882.34
194.83	1893.42
194.905	1891.04
194.981	1900.93
195.056	1896.18
195.131	1901.55
195.207	1898.03
195.282	1892.9
195.357	1873.07
195.433	1886.19
195.508	1871.36
195.583	1877.82
195.659	1891.85
195.734	1899.88
195.809	1900.79
195.884	1910.43
195.96	1910.91
196.035	1926.65
196.11	1919.94
196.185	1929.97
196.261	1933.2
196.336	1965.58
196.411	1949.6
196.486	1955.54
196.561	1951.6
196.637	1957.44
196.712	1971.9
196.787	1976.85
196.862	1992.02
196.937	2001.62
197.013	2010.42
197.088	2020.45
197.163	2041.76
197.238	2056.56
197.313	2057.28
197.388	2068.83
197.464	2097.47
197.539	2109.65
197.614	2102.51
197.689	2115.02
197.764	2133.86
197.839	2153.93
197.914	2146.42
197.989	2167.01
198.065	2178.71
198.14	2219.79
198.215	2244.34
198.29	2254.48
198.365	2265.33
198.44	2272.66
198.515	2300.88
198.59	2311.06
198.665	2335.14
198.74	2342.28
198.815	2343.57
198.89	2358.94
198.965	2386.08
199.04	2382.22
199.115	2393.17
199.19	2431.77
199.265	2434.96
199.34	2442.38
199.415	2473.35
199.49	2493.29
199.565	2503.67
199.64	2525.28
199.715	2524
199.79	2531.52
199.865	2536.66
199.94	2534
200.015	2565.91
200.09	2569.39
200.165	2573.1
200.24	2580.96
200.315	2616.99
200.39	2629.04
200.464	2638.62
200.539	2638.9
200.614	2652.9
200.689	2675.15
200.764	2679.58
200.839	2696.29
200.914	2698.24
200.989	2688.66
201.063	2699.24
201.138	2683.15
201.213	2683.58
201.288	2667.33
201.363	2672.33
201.438	2674.29
201.512	2691.14
201.587	2675.56
201.662	2679.94
201.737	2690.71
201.812	2698
201.886	2669.2
201.961	2680.83
202.036	2669.6
202.111	2665.31
202.186	2641.12
202.26	2625.69
202.335	2606.63
202.41	2601.78
202.485	2588.4
202.559	2570.73
202.634	2547.2
202.709	2555.53
202.784	2535.49
202.858	2533.01
202.933	2515.92
203.008	2509.35
203.082	2490.25
203.157	2487.78
203.232	2448.51
203.306	2429.22
203.381	2398.46
203.456	2374.37
203.53	2352.31
203.605	2334.95
203.68	2315.33
203.754	2307.96
203.829	2293.2
203.904	2274.22
203.978	2264.03
204.053	2267.79
204.127	2255.04
204.202	2253.08
204.277	2235.24
204.351	2231.58
204.426	2226.44
204.5	2221.35
204.575	2190.47
204.65	2200.28
204.724	2191.95
204.799	2197.89
204.873	2196.51
204.948	2195.27
205.022	2183.86
205.097	2173.96
205.171	2186.42
205.246	2194.65
205.32	2197.17
205.395	2198.27
205.469	2192.61
205.544	2197.28
205.618	2181.19
205.693	2193.56
205.767	2181.63
205.842	2203.47
205.916	2199.95
205.991	2190.95
206.065	2192.14
206.14	2205.74
206.214	2202.65
206.289	2195.51
206.363	2209.54
206.438	2212.35
206.512	2219.97
206.586	2239.85
206.661	2250.23
206.735	2230.44
206.81	2230.68
206.884	2240.1
206.958	2229.35
207.033	2243.52
207.107	2249.76
207.181	2278.27
207.256	2272.18
207.33	2289.93
207.405	2302.07
207.479	2318.68
207.553	2326.58
207.628	2313.12
207.702	2325.39
207.776	2319.68
207.851	2323.3
207.925	2335.82
207.999	2329.73
208.073	2325.83
208.148	2327.16
208.222	2315.5
208.296	2348.14
208.371	2362.04
208.445	2372.8
208.519	2399.64
208.593	2408.68
208.668	2404.26
208.742	2406.35
208.816	2408.92
208.89	2422.92
208.965	2421.97
209.039	2428.26
209.113	2442.59
209.187	2463.57
209.261	2459
209.336	2475.9
209.41	2496.95
209.484	2496.28
209.558	2520.37
209.632	2534.8
209.707	2546.22
209.781	2563.94
209.855	2576.7
209.929	2591.86
210.003	2595.67
210.077	2594.43
210.151	2640.19
210.226	2671.07
210.3	2696.67
210.374	2717.38
210.448	2720.91
210.522	2730.63
210.596	2741.78
210.67	2751.97
210.744	2791.43
210.818	2819.67
210.892	2840.69
210.966	2833.74
211.041	2849.03
211.115	2845.46
211.189	2867.81
211.263	2884.58
211.337	2894.59
211.411	2907.36
211.485	2904.31
211.559	2919.32
211.633	2922.89
211.707	2897
211.781	2907.78
211.855	2880.18
211.929	2875.36
212.003	2864.46
212.077	2874.23
212.151	2892.16
212.225	2905.89
212.299	2903.98
212.373	2903.98
212.447	2905.46
212.52	2942.36
212.594	2955.28
212.668	2978.26
212.742	2976.92
212.816	2986.32
212.89	2994.13
212.964	3005.97
213.038	3024.28
213.112	3055.96
213.186	3092.67
213.26	3094.43
213.333	3075.02
213.407	3101
213.481	3127.22
213.555	3162.68
213.629	3184.78
213.703	3197.76
213.777	3227.68
213.85	3244.81
213.924	3306.25
213.998	3343.53
214.072	3374.48
214.146	3404.51
214.219	3440.26
214.293	3481.36
214.367	3527.58
214.441	3583.98
214.515	3624.72
214.588	3656.48
214.662	3675.59
214.736	3709.64
214.81	3774.77
214.883	3843.77
214.957	3895.16
215.031	3952.53
215.105	3996.37
215.178	4049.15
215.252	4112.88
215.326	4160.65
215.4	4211.41
215.473	4242.12
215.547	4301.11
215.621	4362.9
215.694	4445.32
215.768	4509.39
215.842	4581.31
215.915	4651.45
215.989	4710.48
216.063	4786.24
216.136	4873.35
216.21	4964.85
216.284	5061.89
216.357	5152.73
216.431	5237.29
216.504	5339.5
216.578	5456.39
216.652	5567.8
216.725	5666.34
216.799	5773.02
216.873	5872.43
216.946	5987.72
217.02	6088.54
217.093	6192.05
217.167	6278.43
217.24	6369.31
217.314	6474.38
217.387	6569.57
217.461	6666.04
217.535	6789.84
217.608	6891.34
217.682	7004.34
217.755	7124.12
217.829	7228.36
217.902	7341.69
217.976	7455.35
218.049	7560.2
218.123	7653.15
218.196	7764.46
218.27	7872.52
218.343	7968.24
218.417	8089.55
218.49	8201.64
218.563	8325.51
218.637	8435.12
218.71	8566.77
218.784	8684.63
218.857	8800.81
218.931	8926.32
219.004	9045.83
219.077	9164.61
219.151	9274.09
219.224	9376.79
219.298	9479.79
219.371	9603.89
219.444	9695
219.518	9806.73
219.591	9916.45
219.665	10047.81
219.738	10161.01
219.811	10257.11
219.885	10375.19
219.958	10483.78
220.031	10583.66
220.105	10694.77
220.178	10805.49
220.251	10898.54
220.325	11007.45
220.398	11110.38
220.471	11212.93
220.544	11317.65
220.618	11406.76
220.691	11519.68
220.764	11621.56
220.838	11724.51
220.911	11807.41
220.984	11929.31
221.057	12029.27
221.131	12122.68
221.204	12192.05
221.277	12300.45
221.35	12432.43
221.424	12518.23
221.497	12609.15
221.57	12704.59
221.643	12796.08
221.716	12889.26
221.79	12974.39
221.863	13066.56
221.936	13155.36
222.009	13236.2
222.082	13319.3
222.155	13401.11
222.229	13491.88
222.302	13581.16
222.375	13663.79
222.448	13756.63
222.521	13835.35
222.594	13917.83
222.667	13985.37
222.74	14073.3
222.814	14141.46
222.887	14198.73
222.96	14283.47
223.033	14365.13
223.106	14433.92
223.179	14514.13
223.252	14586.78
223.325	14664.15
223.398	14728.26
223.471	14798.11
223.544	14871.33
223.617	14945.47
223.69	15012.61
223.763	15074.79
223.837	15145.6
223.91	15218.82
223.983	15260.62
224.056	15310.12
224.129	15368.2
224.202	15453.57
224.275	15500.61
224.348	15549.39
224.42	15594.12
224.493	15632.4
224.566	15680.07
224.639	15742.15
224.712	15798.01
224.785	15852.81
224.858	15905.88
224.931	15955.91
225.004	15998.91
225.077	16051.3
225.15	16078.15
225.223	16140.61
225.296	16211.8
225.369	16242.11
225.442	16280.48
225.514	16339.33
225.587	16388.15
225.66	16450.66
225.733	16503.24
225.806	16561.03
225.879	16622
225.952	16664.27
226.025	16735.89
226.097	16801.1
226.17	16853.73
226.243	16876.57
226.316	16928.33
226.389	16983.32
226.461	17024.96
226.534	17083.52
226.607	17133.21
226.68	17205.4
226.753	17238.32
226.825	17252.15
226.898	17312.54
226.971	17360.3
227.044	17405.07
227.117	17460.15
227.189	17503.52
227.262	17537.93
227.335	17591.48
227.407	17620.01
227.48	17678.51
227.553	17709.4
227.626	17739.52
227.698	17774.17
227.771	17818.03
227.844	17843.66
227.916	17878.46
227.989	17908.72
228.062	17940.72
228.134	17992.82
228.207	18017.54
228.28	18057.01
228.352	18097.68
228.425	18125.97
228.498	18162.16
228.57	18196.37
228.643	18246.54
228.716	18273
228.788	18306.25
228.861	18328.66
228.934	18373.14
229.006	18399.98
229.079	18428.89
229.151	18451.25
229.224	18468.79
229.296	18506.09
229.369	18556.11
229.442	18604.83
229.514	18629.51
229.587	18668.25
229.659	18680.93
229.732	18721.89
229.804	18765.36
229.877	18812.53
229.949	18850.89
230.022	18908.33
230.094	18929.54
230.167	18952.62
230.239	18971.42
230.312	19000.67
230.384	19043.07
230.457	19073.38
230.529	19109.14
230.602	19150.83
230.674	19190.29
230.747	19242.34
230.819	19284.02
230.892	19293.27
230.964	19310.57
231.037	19347.3
231.109	19370.47
231.181	19399.34
231.254	19411.92
231.326	19424.45
231.399	19439.63
231.471	19463.05
231.544	19452.4
231.616	19487.24
231.688	19503.77
231.761	19520.01
231.833	19536.2
231.905	19534.8
231.978	19544.15
232.05	19552.49
232.122	19558.75
232.195	19568.78
232.267	19587.57
232.339	19588.73
232.412	19604.15
232.484	19621.3
232.556	19632.48
232.629	19673.64
232.701	19696.63
232.773	19713.97
232.846	19724.09
232.918	19743.61
232.99	19753.25
233.062	19771.56
233.135	19786.74
233.207	19794.36
233.279	19810.07
233.351	19822.88
233.424	19836.43
233.496	19840.86
233.568	19873.44
233.64	19865.53
233.713	19863.65
233.785	19862.98
233.857	19875.08
233.929	19869.92
234.001	19880.76
234.074	19891.27
234.146	19864.95
234.218	19869.1
234.29	19869.58
234.362	19858.26
234.434	19840.04
234.507	19826.74
234.579	19808.96
234.651	19801.63
234.723	19799.13
234.795	19799.8
234.867	19789.87
234.939	19794.36
235.012	19793.2
235.084	19786.31
235.156	19798.89
235.228	19797.97
235.3	19789.54
235.372	19786.74
235.444	19787.99
235.516	19756.24
235.588	19751.71
235.66	19745.25
235.732	19724.48
235.804	19771.66
235.876	19779.42
235.948	19786.69
236.02	19785.49
236.092	19782.21
236.164	19780
236.236	19767.13
236.308	19752
236.38	19747.9
236.452	19736.91
236.524	19731.76
236.596	19731.52
236.668	19724.29
236.74	19715.42
236.812	19713.11
236.884	19701.78
236.956	19695.13
237.028	19679.71
237.1	19656.05
237.172	19665.54
237.244	19666.6
237.316	19610.56
237.388	19589.45
237.46	19560.3
237.532	19557.11
237.604	19529.36
237.675	19519.67
237.747	19506.42
237.819	19488.54
237.891	19477.31
237.963	19440.64
238.035	19407.68
238.107	19354.28
238.178	19346.96
238.25	19326.91
238.322	19326.67
238.394	19292.26
238.466	19276.12
238.538	19262.72
238.609	19251.11
238.681	19206.77
238.753	19171.11
238.825	19152.56
238.897	19133.67
238.968	19134.97
239.04	19099.02
239.112	19110.06
239.184	19071.84
239.255	19053.82
239.327	19036.95
239.399	19007.46
239.471	19000.91
239.542	18997.58
239.614	18993.82
239.686	18940.57
239.758	18920.48
239.829	18880.14
239.901	18866.46
239.973	18824.77
240.044	18806.94
240.116	18781.98
240.188	18762.46
240.259	18737.84
240.331	18714.37
240.403	18697.99
240.474	18650.57
240.546	18626.95
240.618	18582.67
240.689	18555.68
240.761	18524.84
240.833	18506.43
240.904	18479.78
240.976	18450.05
241.048	18410.58
241.119	18384.22
241.191	18374
241.262	18363.45
241.334	18329.04
241.405	18294.78
241.477	18275.46
241.549	18235.22
241.62	18208.13
241.692	18185.1
241.763	18168.04
241.835	18138.26
241.906	18101.34
241.978	18070.5
242.049	18049.49
242.121	18034.31
242.192	18014.98
242.264	17973.2
242.335	17927.9
242.407	17902.55
242.478	17873.93
242.55	17856.48
242.621	17815.13
242.693	17772.05
242.764	17740.97
242.836	17704.78
242.907	17684.54
242.979	17656.39
243.05	17643.43
243.122	17625.69
243.193	17586.22
243.264	17538.61
243.336	17497.98
243.407	17471
243.479	17457.07
243.55	17430.76
243.622	17397.7
243.693	17369.5
243.764	17350.27
243.836	17309.65
243.907	17273.64
243.978	17236.1
244.05	17205.11
244.121	17161.35
244.192	17137.64
244.264	17078.31
244.335	17058.89
244.407	17009.2
244.478	16980.58
244.549	16944.43
244.62	16894.21
244.692	16863.08
244.763	16844.81
244.834	16810.88
244.906	16777.92
244.977	16745.48
245.048	16724.61
245.119	16687.41
245.191	16658.2
245.262	16613.91
245.333	16609.14
245.405	16592.12
245.476	16567.5
245.547	16543.11
245.618	16529.23
245.689	16510.82
245.761	16501.9
245.832	16457.66
245.903	16438.91
245.974	16414.33
246.045	16379.53
246.117	16360.25
246.188	16313.69
246.259	16273.93
246.33	16250.98
246.401	16223.27
246.473	16179.7
246.544	16135.7
246.615	16108.32
246.686	16065.95
246.757	16048.17
246.828	16000.31
246.899	15976.54
246.97	15932.39
247.042	15887.28
247.113	15856.43
247.184	15831.9
247.255	15791.03
247.326	15762.73
247.397	15728.17
247.468	15695.4
247.539	15665.17
247.61	15625.7
247.681	15604.63
247.752	15587.81
247.823	15541.73
247.894	15508.04
247.965	15467.6
248.037	15437.42
248.108	15388.6
248.179	15353.36
248.25	15323.38
248.321	15305.59
248.392	15257.05
248.463	15246.4
248.534	15218.73
248.605	15195.07
248.675	15167.45
248.746	15143.92
248.817	15124.45
248.888	15095.82
248.959	15053.88
249.03	15027.08
249.101	15002.83
249.172	14976.13
249.243	14918.91
249.314	14908.06
249.385	14877.7
249.456	14856.53
249.527	14823.95
249.598	14807.46
249.669	14780.42
249.739	14751.06
249.81	14718.91
249.881	14681.5
249.952	14650.8
250.023	14618.65
250.094	14578.4
250.165	14533.61
250.235	14499.82
250.306	14472.44
250.377	14443.9
250.448	14420.14
250.519	14372.46
250.59	14358.82
250.66	14327.59
250.731	14319.53
250.802	14286.85
250.873	14267.28
250.944	14244.29
251.014	14216.91
251.085	14218.3
251.156	14199.31
251.227	14191.26
251.297	14178.15
251.368	14165.71
251.439	14155.44
251.51	14140.4
251.58	14107.33
251.651	14081.11
251.722	14067.08
251.792	14022.68
251.863	13988.5
251.934	13978
252.005	13994.53
252.075	13964.16
252.146	13947.67
252.217	13936.06
252.287	13919.28
252.358	13885.05
252.429	13866.74
252.499	13833.95
252.57	13806.67
252.641	13792.16
252.711	13761.84
252.782	13721.49
252.852	13712.38
252.923	13677.96
252.994	13665.28
253.064	13650.96
253.135	13625.17
253.205	13595.19
253.276	13591.33
253.347	13586.27
253.417	13556.09
253.488	13517.05
253.558	13485.61
253.629	13458.19
253.699	13433.89
253.77	13416.39
253.841	13399.66
253.911	13390.74
253.982	13374.93
254.052	13356.57
254.123	13333.86
254.193	13316.12
254.264	13334.05
254.334	13299.92
254.405	13264.54
254.475	13223.66
254.546	13202.26
254.616	13188.52
254.687	13165.28
254.757	13144.46
254.827	13125.42
254.898	13100.98
254.968	13077.88
255.039	13051.9
255.109	13035.7
255.18	12999.94
255.25	12962.29
255.321	12941.08
255.391	12903.43
255.461	12901.07
255.532	12856.33
255.602	12831.46
255.673	12785.32
255.743	12757.99
255.813	12720.44
255.884	12713.11
255.954	12702.17
256.024	12693.01
256.095	12669.34
256.165	12637.62
256.235	12621.57
256.306	12588.98
256.376	12579.63
256.446	12565.75
256.517	12555.19
256.587	12555.43
256.657	12545.16
256.728	12522.51
256.798	12508
256.868	12483.51
256.938	12456.76
257.009	12439.65
257.079	12422.82
257.149	12426.92
257.219	12380.98
257.29	12365.07
257.36	12324.49
257.43	12313.79
257.5	12273.25
257.571	12250.74
257.641	12239.6
257.711	12204.17
257.781	12189.04
257.852	12164.84
257.922	12124.35
257.992	12105.02
258.062	12080
258.132	12068.58
258.202	12051.08
258.273	12033.05
258.343	12028.23
258.413	11992.9
258.483	11971.55
258.553	11939.88
258.623	11912.69
258.693	11901.03
258.764	11893.51
258.834	11895.15
258.904	11869.75
258.974	11852.01
259.044	11829.6
259.114	11812.54
259.184	11797.45
259.254	11773.54
259.324	11735.8
259.394	11730.21
259.464	11720.19
259.535	11692.66
259.605	11662.83
259.675	11640.66
259.745	11620.17
259.815	11592.46
259.885	11574.14
259.955	11586.44
260.025	11561.95
260.095	11543.78
260.165	11518.24
260.235	11514.53
260.305	11485.42
260.375	11459.24
260.445	11462.23
260.515	11458.96
260.585	11455.48
260.655	11438.66
260.725	11440.54
260.795	11437.85
260.865	11441.17
260.934	11410.23
261.004	11391.39
261.074	11380.98
261.144	11370.85
261.214	11366.37
261.284	11348.25
261.354	11338.47
261.424	11306.46
261.494	11307.04
261.564	11281.74
261.634	11274.18
261.703	11236.73
261.773	11231.19
261.843	11219.77
261.913	11191.28
261.983	11155
262.053	11138.61
262.123	11121.07
262.192	11084.44
262.262	11077.12
262.332	11037.84
262.402	11037.98
262.472	11029.84
262.541	10994.08
262.611	10993.6
262.681	10962.62
262.751	10956.78
262.821	10933.51
262.89	10902.62
262.96	10890.28
263.03	10900.35
263.1	10890.91
263.169	10881.95
263.239	10863.49
263.309	10858.77
263.379	10851.78
263.448	10843.98
263.518	10826.63
263.588	10810.68
263.657	10812.03
263.727	10803.88
263.797	10785.24
263.867	10754.01
263.936	10726.06
264.006	10721.78
264.076	10692.14
264.145	10678.5
264.215	10652.97
264.285	10653.11
264.354	10624.69
264.424	10602.81
264.494	10568.69
264.563	10547.44
264.633	10550.87
264.702	10539.88
264.772	10507.89
264.842	10490.01
264.911	10479.89
264.981	10452.24
265.05	10442.84
265.12	10425.88
265.19	10413.98
265.259	10412.82
265.329	10413.06
265.398	10395.67
265.468	10407.33
265.537	10392.69
265.607	10385.84
265.676	10379.24
265.746	10359.83
265.815	10360.89
265.885	10342.34
265.955	10317.68
266.024	10294.74
266.094	10252.73
266.163	10253.5
266.232	10255.62
266.302	10240.79
266.371	10229.27
266.441	10217.04
266.51	10210.92
266.58	10190.3
266.649	10164.52
266.719	10158.74
266.788	10146.74
266.858	10150.98
266.927	10108.73
266.996	10102.62
267.066	10089.32
267.135	10068.65
267.205	10062.58
267.274	10050.73
267.343	10047.89
267.413	10037.73
267.482	10041.25
267.552	10042.93
267.621	10008.73
267.69	9977.42
267.76	9960.85
267.829	9950.83
267.898	9938.93
267.968	9911.67
268.037	9904.25
268.106	9896.4
268.176	9871.83
268.245	9857.53
268.314	9840.28
268.384	9832.57
268.453	9816.2
268.522	9800.3
268.592	9793.99
268.661	9775.55
268.73	9766.15
268.799	9755.56
268.869	9761.1
268.938	9730.32
269.007	9715.29
269.076	9708.5
269.146	9712.4
269.215	9706.09
269.284	9707.49
269.353	9695.69
269.422	9680.57
269.492	9663.66
269.561	9626.44
269.63	9619.07
269.699	9604.09
269.768	9592.77
269.838	9593.21
269.907	9589.74
269.976	9566.48
270.045	9530.94
270.114	9528.97
270.183	9516.16
270.253	9498.15
270.322	9470.65
270.391	9460.92
270.46	9456.97
270.529	9450.71
270.598	9442.86
270.667	9432.7
270.736	9411.27
270.806	9404.05
270.875	9405.97
270.944	9397.45
271.013	9421.43
271.082	9412.14
271.151	9403.42
271.22	9373.95
271.289	9355.22
271.358	9342.51
271.427	9342.89
271.496	9341.93
271.565	9326.13
271.634	9311.93
271.703	9314.67
271.772	9309.62
271.841	9301.24
271.91	9276.78
271.979	9269.7
272.048	9247.12
272.117	9238.55
272.186	9221.36
272.255	9219.67
272.324	9217.46
272.393	9208.12
272.462	9191.6
272.531	9181.25
272.6	9167.19
272.669	9173.69
272.738	9168.2
272.807	9161.03
272.876	9141.77
272.945	9163.34
273.013	9165.84
273.082	9172.87
273.151	9151.21
273.22	9149.86
273.289	9141.53
273.358	9151.74
273.427	9139.51
273.496	9134.16
273.564	9132.77
273.633	9133.15
273.702	9107.11
273.771	9093.91
273.84	9091.6
273.909	9087.08
273.977	9085.87
274.046	9083.52
274.115	9085.68
274.184	9066.14
274.253	9053.48
274.322	9058.1
274.39	9031.62
274.459	9009.37
274.528	8985.74
274.597	8981.69
274.665	8973.94
274.734	8978.8
274.803	8969.08
274.872	8958.49
274.94	8950.31
275.009	9002.18
275.078	8983.45
275.147	8988.26
275.215	8978.01
275.284	8980.61
275.353	8968.14
275.421	8942.77
275.49	8948.45
275.559	8938.15
275.627	8928.82
275.696	8921.93
275.765	8921.88
275.833	8909.37
275.902	8907.25
275.971	8907.25
276.039	8918.81
276.108	8923.76
276.177	8916.06
276.245	8902.1
276.314	8895.36
276.383	8893.54
276.451	8829.58
276.52	8837.33
276.588	8849.13
276.657	8858.22
276.725	8846.72
276.794	8842.34
276.863	8857.45
276.931	8836.08
277	8839.54
277.068	8848.16
277.137	8864.19
277.205	8862.22
277.274	8877.18
277.342	8884.31
277.411	8873.34
277.48	8857.59
277.548	8849.84
277.617	8851.19
277.685	8849.8
277.754	8858.03
277.822	8856.58
277.89	8868.42
277.959	8856.1
278.027	8834.73
278.096	8821.49
278.164	8846.34
278.233	8838.59
278.301	8821.45
278.37	8825.06
278.438	8812.35
278.507	8818.03
278.575	8795.99
278.643	8790.98
278.712	8772.69
278.78	8762.92
278.849	8767.59
278.917	8772.98
278.985	8763.06
279.054	8764.03
279.122	8773.8
279.191	8764.6
279.259	8755.75
279.327	8735.29
279.396	8746.36
279.464	8746.31
279.532	8757.86
279.601	8750.26
279.669	8749.29
279.737	8758.1
279.806	8760.36
279.874	8767.49
279.942	8765.85
280.011	8758.73
280.079	8758.78
280.147	8776.68
280.215	8773.7
280.284	8770.38
280.352	8759.21
280.42	8768.74
280.488	8758.25
280.557	8742.94
280.625	8749.01
280.693	8748.62
280.761	8752.18
280.83	8744.05
280.898	8750.5
280.966	8734.04
281.034	8700.39
281.102	8687.93
281.171	8686.77
281.239	8692.5
281.307	8686.82
281.375	8674.26
281.443	8696.88
281.512	8695.77
281.58	8694.71
281.648	8687.83
281.716	8689.85
281.784	8684.27
281.852	8674.02
281.92	8674.35
281.989	8690.38
282.057	8676.91
282.125	8720.18
282.193	8712.53
282.261	8705.75
282.329	8704.49
282.397	8700.07
282.465	8707.91
282.533	8718.64
282.601	8704.01
282.67	8687.45
282.738	8680.19
282.806	8690.05
282.874	8676
282.942	8676.58
283.01	8672.63
283.078	8678.79
283.146	8668.01
283.214	8679.32
283.282	8685.96
283.35	8696.65
283.418	8693.13
283.486	8704.01
283.554	8659.24
283.622	8658.9
283.69	8662.37
283.758	8651.78
283.826	8656.45
283.894	8665.69
283.962	8685.95
284.03	8701.55
284.098	8697.84
284.165	8692.16
284.233	8689.37
284.301	8684.99
284.369	8676.42
284.437	8671.8
284.505	8667.62
284.573	8687.11
284.641	8679.55
284.709	8679.02
284.777	8665.98
284.845	8666.89
284.912	8665.3
284.98	8672.62
285.048	8671.46
285.116	8675.22
285.184	8683.74
285.252	8682.25
285.319	8659.63
285.387	8650.34
285.455	8630.94
285.523	8637.29
285.591	8635.32
285.659	8633.54
285.726	8643.31
285.794	8632.48
285.862	8626.28
285.93	8622.71
285.997	8614.29
286.065	8609.62
286.133	8601.92
286.201	8597.25
286.269	8584.36
286.336	8571.02
286.404	8562.22
286.472	8569.58
286.539	8548.55
286.607	8534.26
286.675	8536.91
286.743	8553.41
286.81	8548.74
286.878	8566.74
286.946	8561.93
287.013	8560.29
287.081	8562.6
287.149	8549.32
287.216	8567.46
287.284	8567.22
287.352	8566.4
287.419	8563.13
287.487	8574.54
287.555	8582.62
287.622	8579.74
287.69	8588.16
287.758	8598.31
287.825	8599.56
287.893	8587.1
287.96	8595.95
288.028	8611.64
288.096	8610.82
288.163	8608.32
288.231	8594.65
288.298	8591.28
288.366	8600.72
288.433	8598.6
288.501	8587.68
288.569	8592.78
288.636	8588.54
288.704	8594.7
288.771	8598.94
288.839	8595.86
288.906	8592.2
288.974	8598.5
289.041	8596.68
289.109	8582.38
289.176	8590.85
289.244	8592.2
289.311	8608.56
289.379	8615.45
289.446	8612.32
289.514	8615.73
289.581	8617.08
289.649	8618.81
289.716	8624.4
289.783	8617.32
289.851	8637.29
289.918	8641.24
289.986	8648.03
290.053	8652.36
290.121	8651.88
290.188	8658.04
290.255	8684.03
290.323	8675.03
290.39	8670.22
290.458	8673.15
290.525	8691.25
290.592	8687.4
290.66	8685.33
290.727	8673.29
290.794	8686.14
290.862	8689.61
290.929	8690.62
290.996	8687.78
291.064	8700.97
291.131	8707.42
291.198	8714.2
291.266	8709.92
291.333	8707.76
291.4	8713.96
291.468	8725.66
291.535	8726.29
291.602	8728.98
291.669	8719.64
291.737	8731.92
291.804	8728.79
291.871	8746.64
291.938	8751.51
292.006	8777.16
292.073	8793.29
292.14	8806.19
292.207	8802.77
292.275	8800.99
292.342	8809.8
292.409	8835.07
292.476	8851.48
292.543	8846.38
292.611	8854.32
292.678	8872.42
292.745	8897.26
292.812	8906.94
292.879	8905.06
292.946	8905.11
293.014	8923.25
293.081	8932.88
293.148	8940.39
293.215	8955.89
293.282	8954.98
293.349	8962.39
293.416	8941.35
293.484	8953.77
293.551	8963.21
293.618	8977.02
293.685	8999.79
293.752	8994.07
293.819	8993.44
293.886	8986.17
293.953	8994.02
294.02	9001.57
294.087	9010.1
294.154	9001
294.221	9011.49
294.288	9015.49
294.356	9035.66
294.423	9031.95
294.49	9024.54
294.557	9040.67
294.624	9031.18
294.691	9042.78
294.758	9041.2
294.825	9051.93
294.892	9045.14
294.959	9048.22
295.026	9056.02
295.093	9049.86
295.16	9050.53
295.226	9053.42
295.293	9069.5
295.36	9069.55
295.427	9078.85
295.494	9089.78
295.561	9107.59
295.628	9129.55
295.695	9139.13
295.762	9142.6
295.829	9155.16
295.896	9169.75
295.963	9172.06
296.03	9186.79
296.096	9198.11
296.163	9215.58
296.23	9231.09
296.297	9242.31
296.364	9241.2
296.431	9246.16
296.498	9246.3
296.564	9278.9
296.631	9275.38
296.698	9268.69
296.765	9288.91
296.832	9280.58
296.899	9262.09
296.965	9277.45
297.032	9252.65
297.099	9271.1
297.166	9280.44
297.233	9277.21
297.299	9274.03
297.366	9274.76
297.433	9271.53
297.5	9280.97
297.566	9279.19
297.633	9280.15
297.7	9283.91
297.767	9284.43
297.833	9292.28
297.9	9296.95
297.967	9275.58
298.033	9291.42
298.1	9322.91
298.167	9318.92
298.234	9328.06
298.3	9353.15
298.367	9345.69
298.434	9355.61
298.5	9345.68
298.567	9345.78
298.634	9344.24
298.7	9361.14
298.767	9365.86
298.834	9377.95
298.9	9371.78
298.967	9360.56
299.033	9367.11
299.1	9383.48
299.167	9396.68
299.233	9394.46
299.3	9403.71
299.366	9421.57
299.433	9435.2
299.5	9408.95
299.566	9411.22
299.633	9425.37
299.699	9430.43
299.766	9424.27
299.832	9431.44
299.899	9439.58
299.965	9444.88
300.032	9441.03
300.099	9446.61
300.165	9449.98
300.232	9455.81
300.298	9454.56
300.365	9470.35
300.431	9478.01
300.498	9464.53
300.564	9469.53
300.631	9475.51
300.697	9490.19
300.763	9492.07
300.83	9484.22
300.896	9497.42
300.963	9505.6
301.029	9506.57
301.096	9500.59
301.162	9517.59
301.229	9507.43
301.295	9498.23
301.361	9499.05
301.428	9503.39
301.494	9488.99
301.561	9495.49
301.627	9494.67
301.693	9501.22
301.76	9501.22
301.826	9493.18
301.892	9510.08
301.959	9522.84
302.025	9520.63
302.092	9519.81
302.158	9525.97
302.224	9531.75
302.291	9519.42
302.357	9517.84
302.423	9508.35
302.49	9503.24
302.556	9516.15
302.622	9522.22
302.688	9534.79
302.755	9550.15
302.821	9560.02
302.887	9569.41
302.954	9566.33
303.02	9571.24
303.086	9573.22
303.152	9573.55
303.219	9567.44
303.285	9574.23
303.351	9577.31
303.417	9576.64
303.483	9560.22
303.55	9552.22
303.616	9550.44
303.682	9553.38
303.748	9549.43
303.815	9568.98
303.881	9582.71
303.947	9557.47
304.013	9556.7
304.079	9550.54
304.145	9530.65
304.212	9528.82
304.278	9524.68
304.344	9523.66
304.41	9514.18
304.476	9506.66
304.542	9503.92
304.608	9506.13
304.674	9490.92
304.741	9480.95
304.807	9483.64
304.873	9492.07
304.939	9505.41
305.005	9483.31
305.071	9480.95
305.137	9483.07
305.203	9457.59
305.269	9454.27
305.335	9470.21
305.401	9467.41
305.467	9465.54
305.533	9474.78
305.599	9478.92
305.666	9480.99
305.732	9478.88
305.798	9488.12
305.864	9510.66
305.93	9512.54
305.996	9514.13
306.062	9509.31
306.128	9507.15
306.194	9495.01
306.259	9487.45
306.325	9476.23
306.391	9491.25
306.457	9500.98
306.523	9501.7
306.589	9522.6
306.655	9509.12
306.721	9494.77
306.787	9482.05
306.853	9493.61
306.919	9473
306.985	9465.44
307.051	9458.46
307.117	9453.26
307.183	9451.91
307.248	9419.65
307.314	9424.56
307.38	9423.93
307.446	9428.55
307.512	9417.09
307.578	9420.9
307.644	9422.73
307.709	9420.66
307.775	9418.88
307.841	9417.86
307.907	9415.7
307.973	9395.95
308.039	9398.46
308.104	9398.79
308.17	9404.19
308.236	9385.5
308.302	9390.22
308.368	9379.19
308.433	9373.85
308.499	9367.01
308.565	9355.12
308.631	9361.42
308.696	9336.1
308.762	9326.47
308.828	9325.26
308.894	9306.87
308.959	9287.42
309.025	9273.6
309.091	9269.75
309.156	9261.47
309.222	9251.55
309.288	9240.52
309.354	9224.87
309.419	9222.8
309.485	9213.6
309.551	9217.31
309.616	9203.11
309.682	9199.06
309.748	9190.64
309.813	9188.18
309.879	9177.59
309.945	9164.79
310.01	9160.21
310.076	9162.81
310.141	9154.72
310.207	9137.82
310.273	9142.2
310.338	9150.15
310.404	9137.73
310.469	9133.39
310.535	9122.99
310.601	9103.78
310.666	9097.76
310.732	9103.97
310.797	9087.07
310.863	9072.68
310.928	9061.12
310.994	9061.36
311.059	9054.77
311.125	9054.29
311.191	9064.98
311.256	9061.27
311.322	9068.4
311.387	9046.2
311.453	9379.22
311.518	9355.83
311.584	9350.53
311.649	9354.82
311.715	9346.73
311.78	9352.31
311.846	9330.7
311.911	9333.44
311.976	9337.77
312.042	9329.3
312.107	9310.86
312.173	9300.37
312.238	9295.32
312.304	9283.96
312.369	9278.9
312.434	9272.79
312.5	9267.54
312.565	9238.08
312.631	9234.71
312.696	9217.62
312.761	9218.68
312.827	8875.11
312.892	8906.84
312.958	8908.18
313.023	8903.23
313.088	8896.63
313.154	8879.16
313.219	8871.75
313.284	8859.28
313.35	8855.57
313.415	8845.46
313.48	8845.75
313.546	8852.73
313.611	8860.92
313.676	8860.29
313.741	8846.67
313.807	8852.25
313.872	8851.29
313.937	8854.13
314.003	8865.39
314.068	8870.98
314.133	8876.03
314.198	8870.06
314.264	8843.97
314.329	8832.08
314.394	8827.27
314.459	8821.59
314.525	8838.29
314.59	8839.35
314.655	8827.89
314.72	8830.64
314.785	8834.29
314.851	8823.23
314.916	8803.3
314.981	8787.13
315.046	8775.29
315.111	8770.76
315.176	8754.73
315.242	8759.4
315.307	8759.79
315.372	8733.31
315.437	8722.05
315.502	8712.09
315.567	8720.17
315.632	8713.1
315.698	8706.94
315.763	8700.68
315.828	8692.35
315.893	8683.11
315.958	8676.23
316.023	8664.54
316.088	8643.94
316.153	8616.6
316.218	8615.11
316.283	8595.58
316.348	8583.55
316.413	8577.1
316.479	8558.33
316.544	8527.97
316.609	8495.39
316.674	8457.96
316.739	8428.08
316.804	8390.55
316.869	8361.58
316.934	8315.87
316.999	8288.88
317.064	8244.62
317.129	8201.8
317.194	8163.6
317.259	8117.51
317.324	8064.89
317.389	8019.4
317.454	7982.84
317.518	7951.14
317.583	7920.36
317.648	7897.75
317.713	7853.94
317.778	7799.06
317.843	7770.06
317.908	7734.09
317.973	7690.62
318.038	7656.49
318.103	7617.55
318.168	7588.17
318.233	7547.4
318.297	7503.46
318.362	7461.73
318.427	7419.91
318.492	7388.23
318.557	7340.8
318.622	7310.13
318.687	7287.93
318.751	7254.15
318.816	7217.33
318.881	7185.85
318.946	7129
319.011	7084.26
319.075	7043.03
319.14	7007.29
319.205	6961.45
319.27	6921.63
319.335	6877.63
319.399	6844.67
319.464	6818.06
319.529	6765.86
319.594	6727.77
319.658	6697.94
319.723	6652.13
319.788	6624.66
319.853	6572.37
319.917	6545.19
319.982	6490.84
320.047	6453.24
320.112	6423
320.176	6371.82
320.241	6333.13
320.306	6308.26
320.37	6268.04
320.435	6239.24
320.5	6209.92
320.564	6168.65
320.629	6128.06
320.694	6095.43
320.758	6048.26
320.823	6005.03
320.888	5975.96
320.952	5931.88
321.017	5890.19
321.082	5852.73
321.146	5814.41
321.211	5783.43
321.275	5743.19
321.34	5702.78
321.405	5654.83
321.469	5613.11
321.534	5569.54
321.598	5517.77
321.663	5484.54
321.727	5450.12
321.792	5397.26
321.857	5352.05
321.921	5316.3
321.986	5275.05
322.05	5217.96
322.115	5181.02
322.179	5134.79
322.244	5082.06
322.308	5043.45
322.373	4990.34
322.437	4947.05
322.502	4920.7
322.566	4872.91
322.631	4833.74
322.695	4794.44
322.76	4754.81
322.824	4713.93
322.889	4674.16
322.953	4630.63
323.018	4568.16
323.082	4507.06
323.146	4459.23
323.211	4404.84
323.275	4357.52
323.34	4311.76
323.404	4278.87
323.468	4231.52
323.533	4189.15
323.597	4141.7
323.662	4092.22
323.726	4060.33
323.79	4016.41
323.855	3953.29
323.919	3906.93
323.983	3860.53
324.048	3793.44
324.112	3931.4
324.177	3803.77
324.241	3605.19
324.305	3412.24
324.37	3216.85
324.434	3032.03
324.498	2990.89
324.562	2944.32
324.627	2887.1
324.691	2833.49
324.755	2772.85
324.82	2701.33
324.884	2625.75
324.948	2560.22
325.012	2470.89
325.077	2354.12
