Data from 20250630_urea_2M_MAYP1162681_20-02-27-580.txt Node
Date: Mon Jun 30 20:02:27 BST 2025
User: adleo
Spectrometer: MAYP116268
Trigger mode: 0
Integration Time (sec): 1.000000E0
Scans to average: 1
Electric dark correction enabled: true
Nonlinearity correction enabled: true
Boxcar width: 10
XAxis mode: Wavelengths
Number of Pixels in Spectrum: 2068
>>>>>Begin Spectral Data<<<<<
179.565	1125.95
179.642	1178.63
179.718	1221.51
179.795	1255.28
179.871	1286.87
179.948	1304.29
180.024	1324.94
180.101	1348.39
180.177	1362.81
180.254	1385.77
180.33	1407.3
180.407	1456.86
180.483	1545.94
180.56	1629.75
180.636	1708.74
180.712	1697.48
180.789	1708.79
180.865	1722.18
180.942	1729.26
181.018	1740.57
181.095	1754.5
181.171	1760.01
181.248	1760.39
181.324	1773.94
181.4	1780.92
181.477	1791.28
181.553	1804.35
181.63	1823.46
181.706	1834.77
181.782	1840.19
181.859	1835.81
181.935	1839.24
182.011	1832.15
182.088	1848.79
182.164	1868.86
182.24	1880.07
182.317	1886.63
182.393	1882.74
182.469	1894.57
182.546	1906.6
182.622	1909.97
182.698	1903.89
182.775	1916.44
182.851	1929.18
182.927	1922.48
183.003	1918.34
183.08	1910.54
183.156	1918.06
183.232	1914.87
183.308	1907.12
183.385	1918.81
183.461	1936.31
183.537	1938.12
183.613	1949.62
183.69	1939.59
183.766	1927.46
183.842	1933.74
183.918	1940.15
183.995	1954.65
184.071	1956.89
184.147	1953.28
184.223	1944.06
184.299	1956.85
184.375	1945.2
184.452	1950.1
184.528	2004.18
184.604	2015.21
184.68	2025.15
184.756	2029.48
184.832	2034.9
184.908	2039.13
184.985	2037.61
185.061	2024.53
185.137	2034.14
185.213	2025.48
185.289	2025.63
185.365	2021.11
185.441	2022.68
185.517	2035.57
185.593	2029.82
185.669	2028.87
185.745	2038.66
185.822	2055.59
185.898	2047.45
185.974	2055.11
186.05	2049.26
186.126	2009.91
186.202	2003.16
186.278	2003.64
186.354	1996.27
186.43	2000.79
186.506	1999.03
186.582	1996.7
186.658	2000.55
186.734	1979.77
186.81	1982.48
186.886	1987.85
186.962	1999.12
187.038	1995.51
187.114	1984.85
187.19	1993.89
187.266	1983.05
187.341	1984.33
187.417	1974.63
187.493	1975.63
187.569	1977.68
187.645	1971.64
187.721	1956.56
187.797	1966.64
187.873	1969.12
187.949	1964.84
188.025	1959.18
188.101	1960.94
188.176	1963.12
188.252	1961.22
188.328	1969.06
188.404	1966.64
188.48	1961.5
188.556	1952.37
188.632	1952.47
188.707	1957.04
188.783	1953.14
188.859	1951.52
188.935	1942.2
189.011	1951.18
189.086	1948
189.162	1942.58
189.238	1940.82
189.314	1940.44
189.39	1934.59
189.465	1927.41
189.541	1942.63
189.617	1928.74
189.693	1922.85
189.768	1927.46
189.844	1950.29
189.92	1943.21
189.996	1954.58
190.071	1963.56
190.147	1964.89
190.223	1973.88
190.298	1963.33
190.374	1951.72
190.45	1962.66
190.526	1968.79
190.601	1961.95
190.677	1959.85
190.753	1985.74
190.828	1990.06
190.904	2004.52
190.98	2017.6
191.055	2029.34
191.131	2021.35
191.207	2042.09
191.282	2053.07
191.358	2048.88
191.433	2035.13
191.509	2047.63
191.585	2041.69
191.66	2044.21
191.736	2052.44
191.811	2044.83
191.887	2062.47
191.963	2084.73
192.038	2089.01
192.114	2087.4
192.189	2091.06
192.265	2087.49
192.34	2064.27
192.416	2062.23
192.491	2058.61
192.567	2061.8
192.642	2063.04
192.718	2064.18
192.793	2051.2
192.869	2045.82
192.944	2044.82
193.02	2053.01
193.095	2056
193.171	2064.47
193.246	2063.37
193.322	2060.76
193.397	2059
193.473	2047.3
193.548	2028.89
193.624	2034.26
193.699	2036.31
193.775	2052.82
193.85	2056.05
193.925	2067.32
194.001	2068.75
194.076	2064.7
194.152	2054.81
194.227	2045.68
194.302	2034.55
194.378	2036.79
194.453	2035.84
194.529	2050.91
194.604	2035.36
194.679	2028.8
194.755	2007.45
194.83	2021.2
194.905	2016.31
194.981	2027.01
195.056	2020.87
195.131	2028.39
195.207	2025.63
195.282	2016.88
195.357	1998.61
195.433	2013.93
195.508	2001.18
195.583	2006.84
195.659	2019.16
195.734	2025.63
195.809	2027.2
195.884	2037.23
195.96	2039.18
196.035	2054.92
196.11	2047.36
196.185	2060.29
196.261	2064.48
196.336	2099.48
196.411	2086.16
196.486	2092.05
196.561	2083.92
196.637	2091
196.712	2105.71
196.787	2110.32
196.862	2123.83
196.937	2134.1
197.013	2138.19
197.088	2147.7
197.163	2168.64
197.238	2183.78
197.313	2183.35
197.388	2197.53
197.464	2226.23
197.539	2233.08
197.614	2224.61
197.689	2237.08
197.764	2251.07
197.839	2272.53
197.914	2263.34
197.989	2284.14
198.065	2299.37
198.14	2348.8
198.215	2375.6
198.29	2388.21
198.365	2400.54
198.44	2413.16
198.515	2440.05
198.59	2454.62
198.665	2479.23
198.74	2487.76
198.815	2490.62
198.89	2511.9
198.965	2538.28
199.04	2536
199.115	2554.47
199.19	2596.65
199.265	2597.61
199.34	2607.04
199.415	2637.39
199.49	2659.24
199.565	2668.63
199.64	2689.11
199.715	2682.67
199.79	2687.53
199.865	2691.29
199.94	2691.48
200.015	2720.22
200.09	2722.6
200.165	2727.74
200.24	2737.03
200.315	2776.19
200.39	2789.2
200.464	2795.68
200.539	2799.16
200.614	2811.88
200.689	2833.22
200.764	2840.47
200.839	2862.19
200.914	2868.62
200.989	2859.56
201.063	2873.48
201.138	2857.62
201.213	2860.05
201.288	2844.14
201.363	2847.04
201.438	2850.81
201.512	2864.77
201.587	2845.75
201.662	2853.76
201.737	2865.2
201.812	2874.01
201.886	2839.63
201.961	2845.63
202.036	2836.54
202.111	2830.96
202.186	2805.15
202.26	2789.61
202.335	2768.11
202.41	2758.3
202.485	2742.01
202.559	2722
202.634	2693.89
202.709	2701.32
202.784	2680.36
202.858	2681.41
202.933	2667.31
203.008	2658.35
203.082	2638.82
203.157	2641.77
203.232	2600.35
203.306	2581.57
203.381	2548.13
203.456	2528.37
203.53	2510.26
203.605	2489.22
203.68	2469.78
203.754	2463.41
203.829	2448.5
203.904	2427.03
203.978	2419.84
204.053	2424.89
204.127	2411.94
204.202	2414.32
204.277	2396
204.351	2389.62
204.426	2380.05
204.5	2369.91
204.575	2335.84
204.65	2344.74
204.724	2335.55
204.799	2345.4
204.873	2340.21
204.948	2337.68
205.022	2325.5
205.097	2315.74
205.171	2330.25
205.246	2337.4
205.32	2335.49
205.395	2335.83
205.469	2331.93
205.544	2334.4
205.618	2315.32
205.693	2329.4
205.767	2316.79
205.842	2338.36
205.916	2334.64
205.991	2325.6
206.065	2332.93
206.14	2348.77
206.214	2344.2
206.289	2336.72
206.363	2344.82
206.438	2349.15
206.512	2357.38
206.586	2375.9
206.661	2384.04
206.735	2361.15
206.81	2359.58
206.884	2374.62
206.958	2362.01
207.033	2374.28
207.107	2380.86
207.181	2413.52
207.256	2407.48
207.33	2423.09
207.405	2432.47
207.479	2448.95
207.553	2456.99
207.628	2441.05
207.702	2454.42
207.776	2447.19
207.851	2451.04
207.925	2464.62
207.999	2461.33
208.073	2459.28
208.148	2461.62
208.222	2453.9
208.296	2483.79
208.371	2504.94
208.445	2517.28
208.519	2545.03
208.593	2558.75
208.668	2555.46
208.742	2558.37
208.816	2560.94
208.89	2573.27
208.965	2575.56
209.039	2586.23
209.113	2604.33
209.187	2621.13
209.261	2616.27
209.336	2635.75
209.41	2656.81
209.484	2658.33
209.558	2677.67
209.632	2689.72
209.707	2700.49
209.781	2715.87
209.855	2733.84
209.929	2744.81
210.003	2752.48
210.077	2753.19
210.151	2796.88
210.226	2830.39
210.3	2853.38
210.374	2875.77
210.448	2881.35
210.522	2891.41
210.596	2900.61
210.67	2910.57
210.744	2958.77
210.818	2988.92
210.892	3008.38
210.966	3003.7
211.041	3021.34
211.115	3021.96
211.189	3049.18
211.263	3067.78
211.337	3079.36
211.411	3095.05
211.485	3096.82
211.559	3109.36
211.633	3117.84
211.707	3095.6
211.781	3107.73
211.855	3083.59
211.929	3082.07
212.003	3076.11
212.077	3097.58
212.151	3116.9
212.225	3135.84
212.299	3138.37
212.373	3142.71
212.447	3159.65
212.52	3203.92
212.594	3224.49
212.668	3254.68
212.742	3264.18
212.816	3286.32
212.89	3310.7
212.964	3338.11
213.038	3372.3
213.112	3416.99
213.186	3467.15
213.26	3483.76
213.333	3482.75
213.407	3530.76
213.481	3578.82
213.555	3638.81
213.629	3678.09
213.703	3719.8
213.777	3777.38
213.85	3821.02
213.924	3917.1
213.998	3982.75
214.072	4045.5
214.146	4112.12
214.219	4184.76
214.293	4266.2
214.367	4348.53
214.441	4442.98
214.515	4523.15
214.588	4591.02
214.662	4655.82
214.736	4735.77
214.81	4849.37
214.883	4965.93
214.957	5064.04
215.031	5165.65
215.105	5261.86
215.178	5368.7
215.252	5486.71
215.326	5587.92
215.4	5697.56
215.473	5785.79
215.547	5900.99
215.621	6027.52
215.694	6164.27
215.768	6288.54
215.842	6413.01
215.915	6549.17
215.989	6666.69
216.063	6804.95
216.136	6958.58
216.21	7114.66
216.284	7281.39
216.357	7437.26
216.431	7592.01
216.504	7757.73
216.578	7946.54
216.652	8118.68
216.725	8282.92
216.799	8460.77
216.873	8630.38
216.946	8806.2
217.02	8965.58
217.093	9127.9
217.167	9276.28
217.24	9434.8
217.314	9599.46
217.387	9771.08
217.461	9932.91
217.535	10120.99
217.608	10282.84
217.682	10456.08
217.755	10632.6
217.829	10799.46
217.902	10968.97
217.976	11142.78
218.049	11309.41
218.123	11464.6
218.196	11639.4
218.27	11804.71
218.343	11954.41
218.417	12128.27
218.49	12292.48
218.563	12481.57
218.637	12658.81
218.71	12843.76
218.784	13016.57
218.857	13191.89
218.931	13353.75
219.004	13521.36
219.077	13689.36
219.151	13851.9
219.224	14000.95
219.298	14154.44
219.371	14314.91
219.444	14453.07
219.518	14599.7
219.591	14755.35
219.665	14925.36
219.738	15074.17
219.811	15212.46
219.885	15368.01
219.958	15512.32
220.031	15652.44
220.105	15785.67
220.178	15919.47
220.251	16046.23
220.325	16177.57
220.398	16307.76
220.471	16446.37
220.544	16575.93
220.618	16691.31
220.691	16818.55
220.764	16936.43
220.838	17053.84
220.911	17167.43
220.984	17316.79
221.057	17437.32
221.131	17544.93
221.204	17626.33
221.277	17745.94
221.35	17885.12
221.424	17978.33
221.497	18086.85
221.57	18194.61
221.643	18307.42
221.716	18414.07
221.79	18503.7
221.863	18607.89
221.936	18693.72
222.009	18781.38
222.082	18876.07
222.155	18957.22
222.229	19061.46
222.302	19158.75
222.375	19243.76
222.448	19322.02
222.521	19388.67
222.594	19469.87
222.667	19530.15
222.74	19624.56
222.814	19694.68
222.887	19755.49
222.96	19838.19
223.033	19905.08
223.106	19969.65
223.179	20042.91
223.252	20103.68
223.325	20173.02
223.398	20223.63
223.471	20291.19
223.544	20349.65
223.617	20403.77
223.69	20464.63
223.763	20502.95
223.837	20564.25
223.91	20631.87
223.983	20672.97
224.056	20719.53
224.129	20768.88
224.202	20836.83
224.275	20873.03
224.348	20909.66
224.42	20939.15
224.493	20965.08
224.566	21004.46
224.639	21048.07
224.712	21068.7
224.785	21099.45
224.858	21138.2
224.931	21168.81
225.004	21190.83
225.077	21231.08
225.15	21244.81
225.223	21281.88
225.296	21339.19
225.369	21345.55
225.442	21367.43
225.514	21398.33
225.587	21428.64
225.66	21457.47
225.733	21495.64
225.806	21522.44
225.879	21538.15
225.952	21549.87
226.025	21591.7
226.097	21624.19
226.17	21640.77
226.243	21638.07
226.316	21662.7
226.389	21675
226.461	21699.39
226.534	21726.96
226.607	21729.08
226.68	21776.6
226.753	21787.98
226.825	21774.82
226.898	21808.8
226.971	21822.15
227.044	21848.62
227.117	21867.71
227.189	21880.19
227.262	21895.47
227.335	21914.95
227.407	21927.58
227.48	21953.07
227.553	21959
227.626	21964.5
227.698	21982.09
227.771	22012.17
227.844	22011.54
227.916	22026.54
227.989	22016.36
228.062	22028.61
228.134	22070.88
228.207	22062.79
228.28	22066.21
228.352	22071.37
228.425	22081.92
228.498	22094.46
228.57	22092.53
228.643	22097.54
228.716	22105.69
228.788	22095.85
228.861	22086.79
228.934	22106.31
229.006	22109.11
229.079	22105.98
229.151	22106.99
229.224	22097.01
229.296	22106.03
229.369	22140.59
229.442	22160.79
229.514	22166.86
229.587	22174.48
229.659	22150.23
229.732	22161.8
229.804	22172.31
229.877	22198
229.949	22203.02
230.022	22215.36
230.094	22214.68
230.167	22226.69
230.239	22222.73
230.312	22227.7
230.384	22259.52
230.457	22267.42
230.529	22267.38
230.602	22275.14
230.674	22281.21
230.747	22291.67
230.819	22305.6
230.892	22273.16
230.964	22271.18
231.037	22274.8
231.109	22261.54
231.181	22261.4
231.254	22248.82
231.326	22235.41
231.399	22224.23
231.471	22209.67
231.544	22182.43
231.616	22183.45
231.688	22169.08
231.761	22154.09
231.833	22150.52
231.905	22113.69
231.978	22102.27
232.05	22086.41
232.122	22084.24
232.195	22066.98
232.267	22067.37
232.339	22036.9
232.412	22038.44
232.484	22010.14
232.556	21997.13
232.629	22021.04
232.701	22023.35
232.773	22016.17
232.846	22008.75
232.918	22003.54
232.99	22000.65
233.062	22004.36
233.135	21987.73
233.207	21959.1
233.279	21953.22
233.351	21934.27
233.424	21910.03
233.496	21876.43
233.568	21889.35
233.64	21858.31
233.713	21843.12
233.785	21823.99
233.857	21798.34
233.929	21767.74
234.001	21770.44
234.074	21763.25
234.146	21718.57
234.218	21693.79
234.29	21680.06
234.362	21652.87
234.434	21612.81
234.507	21584.18
234.579	21541.14
234.651	21524.46
234.723	21518.39
234.795	21497.76
234.867	21472.99
234.939	21473.76
235.012	21459.73
235.084	21439.63
235.156	21422.18
235.228	21386.81
235.3	21352.63
235.372	21347.67
235.444	21342.37
235.516	21301.54
235.588	21281.64
235.66	21254.5
235.732	21226.35
235.804	21237.01
235.876	21220.33
235.948	21215.61
236.02	21188.18
236.092	21167.75
236.164	21129.53
236.236	21097.09
236.308	21063.69
236.38	21046.78
236.452	21006.58
236.524	20986.48
236.596	20964.75
236.668	20945.76
236.74	20917.18
236.812	20895.25
236.884	20880.93
236.956	20844.26
237.028	20807.39
237.1	20761.51
237.172	20759.87
237.244	20751.1
237.316	20691.62
237.388	20655.04
237.46	20615.33
237.532	20603.38
237.604	20564.3
237.675	20555.33
237.747	20538.17
237.819	20499.04
237.891	20472.1
237.963	20440.73
238.035	20405.16
238.107	20341.45
238.178	20320.39
238.25	20297.89
238.322	20290.56
238.394	20229.74
238.466	20203.04
238.538	20185.02
238.609	20167.53
238.681	20110.23
238.753	20063.82
238.825	20026.81
238.897	20002.18
238.968	19990.37
239.04	19939.97
239.112	19937.41
239.184	19899.34
239.255	19858.62
239.327	19845.37
239.399	19804.89
239.471	19784.45
239.542	19752.55
239.614	19736.12
239.686	19686.14
239.758	19660.89
239.829	19615.35
239.901	19601.81
239.973	19559.74
240.044	19532.85
240.116	19501.91
240.188	19467.75
240.259	19432.42
240.331	19403.12
240.403	19376.72
240.474	19324.96
240.546	19287.27
240.618	19230.46
240.689	19190.61
240.761	19158.9
240.833	19132.63
240.904	19098.71
240.976	19056.83
241.048	19029.07
241.119	18999.58
241.191	18968.07
241.262	18951.15
241.334	18916.21
241.405	18881.04
241.477	18850.24
241.549	18806.58
241.62	18778.97
241.692	18753.04
241.763	18726.49
241.835	18686.88
241.906	18653.43
241.978	18604.71
242.049	18590.69
242.121	18583.13
242.192	18565.01
242.264	18522.94
242.335	18475.18
242.407	18447.04
242.478	18400.58
242.55	18358.9
242.621	18317.12
242.693	18278.08
242.764	18235.53
242.836	18199.77
242.907	18169.22
242.979	18136.02
243.05	18101.75
243.122	18069.46
243.193	18029.75
243.264	17983.35
243.336	17952.65
243.407	17925.76
243.479	17912.65
243.55	17876.8
243.622	17828.32
243.693	17791.93
243.764	17772.99
243.836	17726.92
243.907	17688.03
243.978	17661.52
244.05	17640.27
244.121	17595.6
244.192	17573.72
244.264	17529.72
244.335	17493.09
244.407	17437.81
244.478	17411.79
244.549	17376.99
244.62	17330.1
244.692	17288.32
244.763	17263.74
244.834	17224.8
244.906	17188.56
244.977	17155.93
245.048	17129.81
245.119	17097.43
245.191	17054.1
245.262	16994.96
245.333	16981.52
245.405	16950.53
245.476	16924.17
245.547	16890.96
245.618	16867.39
245.689	16835.1
245.761	16796.88
245.832	16761.17
245.903	16749.27
245.974	16717.41
246.045	16680.06
246.117	16664.97
246.188	16628.78
246.259	16588.05
246.33	16547.47
246.401	16508.43
246.473	16462.35
246.544	16427.65
246.615	16399.17
246.686	16356.47
246.757	16343.31
246.828	16292.99
246.899	16280.75
246.97	16229.9
247.042	16195.44
247.113	16171.67
247.184	16153.5
247.255	16123.62
247.326	16096.34
247.397	16048.58
247.468	16014.55
247.539	15992.18
247.61	15943.21
247.681	15923.07
247.752	15897.28
247.823	15865.66
247.894	15834.28
247.965	15786.47
248.037	15751.62
248.108	15707.85
248.179	15683.42
248.25	15644.42
248.321	15629.87
248.392	15584.08
248.463	15581.38
248.534	15551.78
248.605	15528.84
248.675	15489.56
248.746	15458.32
248.817	15437.93
248.888	15419.18
248.959	15372.86
249.03	15347.99
249.101	15318.01
249.172	15286.58
249.243	15238.37
249.314	15221.84
249.385	15187.28
249.456	15174.89
249.527	15133.73
249.598	15114.4
249.669	15083.79
249.739	15065.28
249.81	15043.15
249.881	14997.79
249.952	14971.86
250.023	14940.87
250.094	14889.82
250.165	14856.32
250.235	14834.67
250.306	14803.78
250.377	14766.37
250.448	14742.56
250.519	14697.24
250.59	14683.55
250.66	14654.29
250.731	14649.52
250.802	14618
250.873	14603.25
250.944	14578.52
251.014	14555.38
251.085	14548.92
251.156	14531.71
251.227	14519.51
251.297	14498.21
251.368	14480.23
251.439	14456.61
251.51	14434.05
251.58	14409.27
251.651	14382.76
251.722	14367.91
251.792	14321.15
251.863	14290.97
251.934	14291.17
252.005	14294.4
252.075	14262.58
252.146	14245.42
252.217	14226.09
252.287	14211.34
252.358	14179.28
252.429	14175.71
252.499	14140.86
252.57	14115.84
252.641	14100.9
252.711	14070.33
252.782	14029.7
252.852	14028.88
252.923	14001.3
252.994	13982.74
253.064	13969.39
253.135	13937.62
253.205	13906.72
253.276	13906.63
253.347	13894.43
253.417	13857.46
253.488	13831.42
253.558	13810.65
253.629	13783.36
253.699	13764.08
253.77	13749.28
253.841	13729.13
253.911	13704.88
253.982	13686.56
254.052	13667.14
254.123	13641.92
254.193	13619.75
254.264	13635.13
254.334	13599.7
254.405	13562.82
254.475	13532.93
254.546	13507.62
254.616	13498.08
254.687	13474.12
254.757	13451.99
254.827	13434.64
254.898	13415.35
254.968	13381.32
255.039	13352.59
255.109	13336.97
255.18	13306.02
255.25	13254.34
255.321	13235.16
255.391	13194.47
255.461	13191.87
255.532	13145.06
255.602	13115.41
255.673	13065.76
255.743	13029.17
255.813	12983.96
255.884	12982.08
255.954	12962.55
256.024	12962.07
256.095	12935.32
256.165	12905.57
256.235	12891.45
256.306	12867.1
256.376	12855.53
256.446	12850.18
256.517	12833.75
256.587	12822.08
256.657	12807.14
256.728	12794.8
256.798	12776.14
256.868	12757.53
256.938	12729.96
257.009	12717.91
257.079	12709.86
257.149	12721.14
257.219	12686.38
257.29	12679.34
257.36	12642.03
257.43	12628.82
257.5	12577.73
257.571	12554.01
257.641	12539.79
257.711	12507.25
257.781	12490.48
257.852	12472.64
257.922	12424.39
257.992	12403.28
258.062	12381.97
258.132	12362.69
258.202	12338.63
258.273	12315.16
258.343	12304.22
258.413	12277.85
258.483	12261.8
258.553	12228.15
258.623	12192.96
258.693	12176.72
258.764	12171.27
258.834	12161.73
258.904	12137.72
258.974	12118.35
259.044	12102.34
259.114	12084.85
259.184	12064.75
259.254	12036.5
259.324	11998.42
259.394	11990.52
259.464	11986.42
259.535	11960.78
259.605	11934.12
259.675	11909.3
259.745	11896.38
259.815	11870.74
259.885	11842.15
259.955	11846.78
260.025	11821.33
260.095	11802.1
260.165	11788.94
260.235	11782.92
260.305	11754.24
260.375	11730.81
260.445	11729.8
260.515	11717.75
260.585	11709.9
260.655	11691.44
260.725	11683.92
260.795	11673.75
260.865	11674.81
260.934	11650.76
261.004	11643.77
261.074	11624.44
261.144	11623.14
261.214	11617.69
261.284	11602.17
261.354	11599.96
261.424	11566.75
261.494	11568.63
261.564	11552.53
261.634	11536.72
261.703	11500.14
261.773	11489.92
261.843	11482.16
261.913	11457.05
261.983	11420.95
262.053	11406.83
262.123	11388.18
262.192	11361.67
262.262	11353.34
262.332	11322.3
262.402	11306.54
262.472	11289.04
262.541	11259.74
262.611	11251.84
262.681	11224.99
262.751	11210.73
262.821	11186.78
262.89	11158.92
262.96	11142.29
263.03	11151.55
263.1	11137.62
263.169	11121.62
263.239	11107.79
263.309	11106.82
263.379	11102.34
263.448	11087.41
263.518	11075.4
263.588	11057.72
263.657	11056.37
263.727	11047.41
263.797	11028.56
263.867	11011.89
263.936	10975.41
264.006	10972.09
264.076	10949.78
264.145	10929.68
264.215	10907.56
264.285	10903.71
264.354	10872.82
264.424	10850.03
264.494	10814.85
264.563	10792.2
264.633	10793.4
264.702	10785.55
264.772	10750.52
264.842	10732.83
264.911	10735.63
264.981	10699.92
265.05	10684.02
265.12	10668.07
265.19	10654.62
265.259	10650.96
265.329	10638.53
265.398	10631.3
265.468	10642.24
265.537	10621.28
265.607	10617.24
265.676	10614.68
265.746	10595.65
265.815	10596.81
265.885	10579.41
265.955	10554.84
266.024	10537.01
266.094	10501.36
266.163	10501.31
266.232	10498.66
266.302	10482.66
266.371	10465.9
266.441	10461.56
266.51	10455.83
266.58	10439.25
266.649	10410.25
266.719	10403.41
266.788	10394.59
266.858	10394.64
266.927	10354.74
266.996	10345.25
267.066	10328.15
267.135	10301.56
267.205	10301.94
267.274	10286.62
267.343	10290.38
267.413	10283.15
267.482	10285.47
267.552	10283.39
267.621	10251.26
267.69	10220.96
267.76	10209.63
267.829	10197.25
267.898	10182.03
267.968	10159.82
268.037	10146.53
268.106	10150.14
268.176	10120.95
268.245	10103.27
268.314	10086.93
268.384	10088.09
268.453	10080.43
268.522	10073.93
268.592	10071.13
268.661	10046.18
268.73	10040.59
268.799	10014.68
268.869	10010.53
268.938	9979.66
269.007	9965.83
269.076	9953.31
269.146	9949.98
269.215	9942.18
269.284	9947.09
269.353	9931.1
269.422	9922.87
269.492	9909.72
269.561	9866.37
269.63	9865.26
269.699	9850.57
269.768	9840.36
269.838	9826.05
269.907	9819.69
269.976	9795.51
270.045	9763.44
270.114	9760.64
270.183	9744.32
270.253	9736.75
270.322	9712.62
270.391	9705.02
270.46	9705.88
270.529	9710.12
270.598	9707.04
270.667	9689.46
270.736	9669.18
270.806	9662.92
270.875	9660.66
270.944	9645.87
271.013	9665.37
271.082	9658.05
271.151	9648.76
271.22	9622.22
271.289	9609.32
271.358	9597.13
271.427	9588.22
271.496	9582.69
271.565	9570.6
271.634	9558.7
271.703	9559.76
271.772	9561.5
271.841	9547.34
271.91	9524.12
271.979	9508.23
272.048	9485.02
272.117	9476.78
272.186	9458.1
272.255	9457.04
272.324	9451.93
272.393	9441.34
272.462	9422.51
272.531	9407.97
272.6	9398
272.669	9399.64
272.738	9390.87
272.807	9383.89
272.876	9361.12
272.945	9382.93
273.013	9378.84
273.082	9382.59
273.151	9363.14
273.22	9358.61
273.289	9346.86
273.358	9350.96
273.427	9338.73
273.496	9336.46
273.564	9337.57
273.633	9338.53
273.702	9316.09
273.771	9310.41
273.84	9308.49
273.909	9308.34
273.977	9310.17
274.046	9300.2
274.115	9307.23
274.184	9287.06
274.253	9276.57
274.322	9288.5
274.39	9255.47
274.459	9241.85
274.528	9209.64
274.597	9199.09
274.665	9194.52
274.734	9205.74
274.803	9193.07
274.872	9185.56
274.94	9173.19
275.009	9224.73
275.078	9212.21
275.147	9212.6
275.215	9202.58
275.284	9213.75
275.353	9204.22
275.421	9177.78
275.49	9187.08
275.559	9172.63
275.627	9166.57
275.696	9160.98
275.765	9159.54
275.833	9150.73
275.902	9151.35
275.971	9167.34
276.039	9181.2
276.108	9184.67
276.177	9180.53
276.245	9180.38
276.314	9175.81
276.383	9179.76
276.451	9120.66
276.52	9120.13
276.588	9130.77
276.657	9130.63
276.725	9114.3
276.794	9110.02
276.863	9116.37
276.931	9099.33
277	9105.3
277.068	9109.87
277.137	9119.26
277.205	9110.45
277.274	9128.21
277.342	9125.61
277.411	9107.9
277.48	9092.11
277.548	9080.07
277.617	9078.39
277.685	9060.81
277.754	9056.58
277.822	9050.99
277.89	9058.41
277.959	9049.26
278.027	9028.99
278.096	9020.91
278.164	9050.9
278.233	9044.98
278.301	9031.7
278.37	9038.82
278.438	9023.42
278.507	9027.31
278.575	9005.84
278.643	9008.64
278.712	8988.71
278.78	8980.04
278.849	8985.38
278.917	8996.75
278.985	8989.19
279.054	8991.26
279.122	9007.38
279.191	9007.77
279.259	9000.93
279.327	8979.7
279.396	8993.9
279.464	8984.28
279.532	8991.55
279.601	8979.99
279.669	8972.91
279.737	8987.84
279.806	8983.94
279.874	8992.41
279.942	8992.55
280.011	8993.52
280.079	8996.02
280.147	9013.4
280.215	9021
280.284	9017.78
280.352	8999.97
280.42	9009.69
280.488	8996.5
280.557	8985.14
280.625	8988.85
280.693	8989.18
280.761	8988.12
280.83	8973.44
280.898	8988.46
280.966	8970.79
281.034	8938.92
281.102	8927.03
281.171	8919.33
281.239	8929.73
281.307	8923.52
281.375	8908.93
281.443	8927.81
281.512	8919.09
281.58	8923.52
281.648	8909.66
281.716	8911.58
281.784	8910.38
281.852	8899.69
281.92	8898.87
281.989	8909.18
282.057	8892.14
282.125	8940.48
282.193	8941.88
282.261	8938.6
282.329	8937.4
282.397	8937.59
282.465	8943.32
282.533	8958.1
282.601	8946.25
282.67	8920.79
282.738	8916.55
282.806	8932.05
282.874	8912.36
282.942	8920.4
283.01	8910.19
283.078	8906.49
283.146	8897.3
283.214	8907.5
283.282	8910.73
283.35	8923.29
283.418	8911.93
283.486	8917.13
283.554	8864.21
283.622	8863.83
283.69	8865.56
283.758	8851.5
283.826	8856.08
283.894	8861.18
283.962	8874.9
284.03	8888.86
284.098	8889
284.165	8876.15
284.233	8874.27
284.301	8875.04
284.369	8863.73
284.437	8853.33
284.505	8853.77
284.573	8871.87
284.641	8862.53
284.709	8865.61
284.777	8843.22
284.845	8853.48
284.912	8850.83
284.98	8854.73
285.048	8843.66
285.116	8844.53
285.184	8862.38
285.252	8857.23
285.319	8844.14
285.387	8831.29
285.455	8818.92
285.523	8829.31
285.591	8830.18
285.659	8825.41
285.726	8834.46
285.794	8816.95
285.862	8819.35
285.93	8819.79
285.997	8810.78
286.065	8806.26
286.133	8796.68
286.201	8798.51
286.269	8785.22
286.336	8788.06
286.404	8784.4
286.472	8794.42
286.539	8769.87
286.607	8754.27
286.675	8756.2
286.743	8761.49
286.81	8757.4
286.878	8771.46
286.946	8758.51
287.013	8758.66
287.081	8753.22
287.149	8740.41
287.216	8761.78
287.284	8756.58
287.352	8755.14
287.419	8750.66
287.487	8764.14
287.555	8764.72
287.622	8766.79
287.69	8766.5
287.758	8769
287.825	8757.98
287.893	8745.23
287.96	8756.73
288.028	8764
288.096	8765.97
288.163	8769
288.231	8757.21
288.298	8748.59
288.366	8769.73
288.433	8771.89
288.501	8772.32
288.569	8769.53
288.636	8764.67
288.704	8775.79
288.771	8783.73
288.839	8778
288.906	8768.09
288.974	8779.55
289.041	8770.16
289.109	8761.3
289.176	8763.81
289.244	8777.52
289.311	8791.48
289.379	8804.86
289.446	8810.16
289.514	8808.04
289.581	8809.87
289.649	8816.37
289.716	8822.14
289.783	8805.1
289.851	8823.39
289.918	8821.03
289.986	8830.52
290.053	8837.74
290.121	8844.62
290.188	8844.09
290.255	8869.12
290.323	8869.89
290.39	8865.75
290.458	8874.66
290.525	8891.07
290.592	8887.08
290.66	8880.67
290.727	8877.4
290.794	8886.93
290.862	8886.31
290.929	8891.51
290.996	8888.52
291.064	8896.22
291.131	8902.82
291.198	8920.15
291.266	8916.1
291.333	8919.18
291.4	8928.43
291.468	8937.28
291.535	8928.48
291.602	8936.18
291.669	8928.19
291.737	8930.59
291.804	8928.57
291.871	8943.2
291.938	8945.03
292.006	8982.16
292.073	9001.51
292.14	9014.12
292.207	9003.29
292.275	9003.09
292.342	9011.38
292.409	9031.88
292.476	9058.85
292.543	9056.1
292.611	9055.43
292.678	9064.29
292.745	9085.56
292.812	9096.69
292.879	9096.35
292.946	9102.46
293.014	9111.56
293.081	9124.18
293.148	9132.89
293.215	9148.05
293.282	9146.56
293.349	9160.43
293.416	9138.86
293.484	9149.59
293.551	9158.07
293.618	9178.77
293.685	9201.4
293.752	9197.5
293.819	9196.01
293.886	9179.11
293.953	9185.36
294.02	9197.55
294.087	9208.28
294.154	9205.3
294.221	9217.63
294.288	9217.14
294.356	9233.08
294.423	9241.56
294.49	9233.61
294.557	9246.03
294.624	9240.5
294.691	9262.02
294.758	9259.32
294.825	9263.32
294.892	9254.27
294.959	9251.14
295.026	9253.79
295.093	9253.16
295.16	9258.26
295.226	9263.75
295.293	9286.09
295.36	9289.95
295.427	9300.16
295.494	9311.28
295.561	9319.46
295.628	9336.23
295.695	9352.55
295.762	9353.75
295.829	9357.08
295.896	9370.89
295.963	9382.55
296.03	9393.24
296.096	9392.27
296.163	9409.56
296.23	9425.07
296.297	9441.05
296.364	9442.45
296.431	9451.02
296.498	9443.03
296.564	9462.34
296.631	9465.18
296.698	9452.42
296.765	9474.33
296.832	9463.78
296.899	9451.31
296.965	9471.44
297.032	9450.05
297.099	9465.75
297.166	9476.25
297.233	9474.76
297.299	9471.24
297.366	9473.94
297.433	9475.87
297.5	9484.34
297.566	9480.25
297.633	9478.03
297.7	9480.88
297.767	9478.71
297.833	9476.25
297.9	9477.55
297.967	9460.75
298.033	9476.21
298.1	9506.26
298.167	9495.42
298.234	9495.86
298.3	9502.74
298.367	9492.05
298.434	9497.93
298.5	9489.98
298.567	9480.64
298.634	9482.95
298.7	9493.64
298.767	9494.46
298.834	9504.76
298.9	9500.77
298.967	9495.71
299.033	9506.4
299.1	9518.44
299.167	9532.45
299.233	9535.87
299.3	9553.64
299.366	9574.88
299.433	9585.62
299.5	9560.48
299.566	9565.15
299.633	9581.67
299.699	9596.94
299.766	9599.25
299.832	9612.49
299.899	9621.45
299.965	9635.61
300.032	9630.84
300.099	9645.68
300.165	9645.77
300.232	9643.17
300.298	9647.8
300.365	9660.94
300.431	9659.45
300.498	9657.91
300.564	9668.26
300.631	9674.81
300.697	9687.77
300.763	9687.53
300.83	9684.06
300.896	9701.54
300.963	9714.74
301.029	9724.76
301.096	9724.52
301.162	9729.52
301.229	9720.61
301.295	9708.04
301.361	9714.59
301.428	9716.47
301.494	9697.54
301.561	9703.47
301.627	9703.61
301.693	9705.06
301.76	9702.41
301.826	9698.75
301.892	9710.12
301.959	9713.97
302.025	9713.05
302.092	9700.24
302.158	9705.06
302.224	9709.54
302.291	9697.06
302.357	9688.49
302.423	9677.37
302.49	9671.73
302.556	9687.19
302.622	9684.78
302.688	9695.72
302.755	9701.54
302.821	9714.5
302.887	9722.78
302.954	9721.1
303.02	9730.2
303.086	9726.88
303.152	9730.97
303.219	9728.42
303.285	9724.95
303.351	9731.26
303.417	9733.38
303.483	9727.79
303.55	9723.99
303.616	9716.67
303.682	9719.03
303.748	9711.75
303.815	9725.48
303.881	9731.45
303.947	9719.75
304.013	9722.49
304.079	9716.57
304.145	9696.48
304.212	9692.92
304.278	9685.65
304.344	9678.47
304.41	9663.3
304.476	9660.99
304.542	9651.5
304.608	9657.43
304.674	9638.31
304.741	9632.62
304.807	9629.78
304.873	9636.48
304.939	9644.23
305.005	9627.61
305.071	9625.21
305.137	9625.59
305.203	9602.38
305.269	9601.12
305.335	9607.68
305.401	9603.53
305.467	9601.37
305.533	9612.68
305.599	9620.29
305.666	9631.8
305.732	9631.95
305.798	9647.02
305.864	9668.5
305.93	9675.92
305.996	9675.29
306.062	9682.18
306.128	9676.93
306.194	9671.59
306.259	9675.25
306.325	9670.57
306.391	9683.96
306.457	9691.86
306.523	9692.87
306.589	9714.4
306.655	9707.95
306.721	9694.99
306.787	9682.04
306.853	9690.22
306.919	9674.96
306.985	9667.11
307.051	9658.49
307.117	9653.53
307.183	9647.46
307.248	9621.59
307.314	9622.51
307.38	9621.11
307.446	9624.15
307.512	9612.01
307.578	9618.42
307.644	9606.13
307.709	9611
307.775	9606.09
307.841	9605.6
307.907	9606.09
307.973	9588.65
308.039	9582.68
308.104	9583.55
308.17	9586.39
308.236	9577.72
308.302	9575.21
308.368	9562.84
308.433	9561.49
308.499	9554.02
308.565	9536.83
308.631	9538.47
308.696	9515.26
308.762	9504.42
308.828	9500.81
308.894	9491.18
308.959	9462.43
309.025	9454.06
309.091	9436.24
309.156	9425.59
309.222	9417.45
309.288	9407.73
309.354	9385.96
309.419	9389.09
309.485	9370.99
309.551	9372.48
309.616	9351.82
309.682	9353.89
309.748	9343.49
309.813	9339.69
309.879	9336.41
309.945	9330.2
310.01	9324.04
310.076	9326.64
310.141	9322.93
310.207	9308.15
310.273	9301.65
310.338	9314.74
310.404	9304.1
310.469	9294.86
310.535	9285.08
310.601	9262.5
310.666	9262.16
310.732	9269.38
310.797	9251.57
310.863	9244.63
310.928	9236.83
310.994	9242.18
311.059	9233.75
311.125	9231.87
311.191	9237.03
311.256	9218.11
311.322	9222.3
311.387	9205.01
311.453	9564.02
311.518	9533.35
311.584	9526.37
311.649	9533.88
311.715	9519.19
311.78	9520.35
311.846	9513.22
311.911	9517.65
311.976	9518.28
312.042	9502.15
312.107	9484.53
312.173	9475.82
312.238	9471.87
312.304	9471.44
312.369	9459.3
312.434	9443.56
312.5	9436.63
312.565	9406.87
312.631	9417.32
312.696	9411.49
312.761	9412.6
312.827	9042.13
312.892	9079.93
312.958	9077.91
313.023	9073.24
313.088	9068.57
313.154	9046.37
313.219	9036.94
313.284	9025.38
313.35	9026.49
313.415	9022.35
313.48	9017.73
313.546	9018.02
313.611	9026.01
313.676	9010.7
313.741	9005.02
313.807	9018.16
313.872	9023.75
313.937	9023.22
314.003	9035.16
314.068	9034.2
314.133	9036.65
314.198	9026.11
314.264	9008.1
314.329	8999.68
314.394	8994.96
314.459	8991.97
314.525	9011.23
314.59	9005.21
314.655	8989.47
314.72	8992.36
314.785	8993.03
314.851	8988.46
314.916	8970.12
314.981	8953.42
315.046	8941.53
315.111	8932.09
315.176	8915.39
315.242	8914.62
315.307	8916.97
315.372	8891.8
315.437	8874.8
315.502	8867.05
315.567	8874.56
315.632	8856.37
315.698	8857.57
315.763	8850.97
315.828	8842.41
315.893	8835.81
315.958	8834.56
316.023	8830.76
316.088	8808.33
316.153	8785.85
316.218	8785.8
316.283	8771.89
316.348	8750.48
316.413	8747.74
316.479	8728.15
316.544	8696.39
316.609	8665.05
316.674	8627.86
316.739	8591
316.804	8561.65
316.869	8524.45
316.934	8489.27
316.999	8457.17
317.064	8408.19
317.129	8359.92
317.194	8320.47
317.259	8273.27
317.324	8219.87
317.389	8170.95
317.454	8136.21
317.518	8095.32
317.583	8058.85
317.648	8031.2
317.713	7999.98
317.778	7938.56
317.843	7907.48
317.908	7872.43
317.973	7829.86
318.038	7796.01
318.103	7756.2
318.168	7724.51
318.233	7691.32
318.297	7637.38
318.362	7602.18
318.427	7558.15
318.492	7538.05
318.557	7496.56
318.622	7467.28
318.687	7444.26
318.751	7407.73
318.816	7369.61
318.881	7343.61
318.946	7288.86
319.011	7242.82
319.075	7195.29
319.14	7165.79
319.205	7122.87
319.27	7084.77
319.335	7038.89
319.399	7002.23
319.464	6977.68
319.529	6925.27
319.594	6882.65
319.658	6854.99
319.723	6812.62
319.788	6787.16
319.853	6726.83
319.917	6688.75
319.982	6631.79
320.047	6590.25
320.112	6561.44
320.176	6511.6
320.241	6470.97
320.306	6441.74
320.37	6400.16
320.435	6368.72
320.5	6338.57
320.564	6297.1
320.629	6258.66
320.694	6228.9
320.758	6183.55
320.823	6135.23
320.888	6104.28
320.952	6058.99
321.017	6010.82
321.082	5969.76
321.146	5934.3
321.211	5900.48
321.275	5862.74
321.34	5820.35
321.405	5776.94
321.469	5729.85
321.534	5689.14
321.598	5635.68
321.663	5604.99
321.727	5575.88
321.792	5530.2
321.857	5485.94
321.921	5445.68
321.986	5400.68
322.05	5341.98
322.115	5305.99
322.179	5262.01
322.244	5206.73
322.308	5170.94
322.373	5130.51
322.437	5088.02
322.502	5055.38
322.566	5015.19
322.631	4973.68
322.695	4935.28
322.76	4888.65
322.824	4854.31
322.889	4811.33
322.953	4766.35
323.018	4700.81
323.082	4639.16
323.146	4586.48
323.211	4533.41
323.275	4487.76
323.34	4441.89
323.404	4405.69
323.468	4358.28
323.533	4314.71
323.597	4271.12
323.662	4217.65
323.726	4183.55
323.79	4135.74
323.855	4073.52
323.919	4018.83
323.983	3981.06
324.048	3915.58
324.112	4023.42
324.177	3891.07
324.241	3685.93
324.305	3489.73
324.37	3292.91
324.434	3101.11
324.498	3057.16
324.562	3005.47
324.627	2945.81
324.691	2887.93
324.755	2822.12
324.82	2746.33
324.884	2669.89
324.948	2595.89
325.012	2502.78
325.077	2372.59
