Data from 20250630_urea_2M_MAYP1162681_06-52-27-456.txt Node
Date: Tue Jul 01 06:52:27 BST 2025
User: adleo
Spectrometer: MAYP116268
Trigger mode: 0
Integration Time (sec): 1.000000E0
Scans to average: 1
Electric dark correction enabled: true
Nonlinearity correction enabled: true
Boxcar width: 10
XAxis mode: Wavelengths
Number of Pixels in Spectrum: 2068
>>>>>Begin Spectral Data<<<<<
179.565	1086
179.642	1134.4
179.718	1175.12
179.795	1207.89
179.871	1234.89
179.948	1250.23
180.024	1269.16
180.101	1288.53
180.177	1302.14
180.254	1322.87
180.33	1342.48
180.407	1387.71
180.483	1470.52
180.56	1549.34
180.636	1625.96
180.712	1613.7
180.789	1621.73
180.865	1632.36
180.942	1641.44
181.018	1651.6
181.095	1662.44
181.171	1662.82
181.248	1663.29
181.324	1676.27
181.4	1681.82
181.477	1694.32
181.553	1705.72
181.63	1724.92
181.706	1738.51
181.782	1745.16
181.859	1743.64
181.935	1747.68
182.011	1743.4
182.088	1763.22
182.164	1782.57
182.24	1795.54
182.317	1804.66
182.393	1802.86
182.469	1813.41
182.546	1826.15
182.622	1828.24
182.698	1825.1
182.775	1838.31
182.851	1853.43
182.927	1847.39
183.003	1844.25
183.08	1839.03
183.156	1847.58
183.232	1846.15
183.308	1836.89
183.385	1844.68
183.461	1861.13
183.537	1861.36
183.613	1874.06
183.69	1862.41
183.766	1852.76
183.842	1857.18
183.918	1861.74
183.995	1873.96
184.071	1879.76
184.147	1873.48
184.223	1865.78
184.299	1878.24
184.375	1867.83
184.452	1872.4
184.528	1922.32
184.604	1933.16
184.68	1942.52
184.756	1949.61
184.832	1951.42
184.908	1956.12
184.985	1953.84
185.061	1941.76
185.137	1951.65
185.213	1939.15
185.289	1944.05
185.365	1934.45
185.441	1934.11
185.517	1945.38
185.593	1943.53
185.669	1939.25
185.745	1946.71
185.822	1963.35
185.898	1954.69
185.974	1964.77
186.05	1957.45
186.126	1918.07
186.202	1910.47
186.278	1907.66
186.354	1897.58
186.43	1904.43
186.506	1902.91
186.582	1903.67
186.658	1907.57
186.734	1889.22
186.81	1891.5
186.886	1890.65
186.962	1904.19
187.038	1900.15
187.114	1896.4
187.19	1903.05
187.266	1895.31
187.341	1897.45
187.417	1888.75
187.493	1888.13
187.569	1888.6
187.645	1883.28
187.721	1876.15
187.797	1883.61
187.873	1884.32
187.949	1878.76
188.025	1871.01
188.101	1873.43
188.176	1878.09
188.252	1874.29
188.328	1880.9
188.404	1881.32
188.48	1879.14
188.556	1872.72
188.632	1871.15
188.707	1867.58
188.783	1868.06
188.859	1862.45
188.935	1849.66
189.011	1857.79
189.086	1852.37
189.162	1846.53
189.238	1844.29
189.314	1841.87
189.39	1837.54
189.465	1835.5
189.541	1853.47
189.617	1839.4
189.693	1835.7
189.768	1838.12
189.844	1861.14
189.92	1854.01
189.996	1861.19
190.071	1871.36
190.147	1871.27
190.223	1880.3
190.298	1874.69
190.374	1858.67
190.45	1872.64
190.526	1881.58
190.601	1876.54
190.677	1877.73
190.753	1903.6
190.828	1905.79
190.904	1918.29
190.98	1930.7
191.055	1934.98
191.131	1924.9
191.207	1945.86
191.282	1952.33
191.358	1943.72
191.433	1930.74
191.509	1944.28
191.585	1940.91
191.66	1941.48
191.736	1948.32
191.811	1938.96
191.887	1955.7
191.963	1977.9
192.038	1979.99
192.114	1979.75
192.189	1982.42
192.265	1981.32
192.34	1960.49
192.416	1959.73
192.491	1955.68
192.567	1959.97
192.642	1965.05
192.718	1966.34
192.793	1954.31
192.869	1952.5
192.944	1955.59
193.02	1960.49
193.095	1959.63
193.171	1966.34
193.246	1962.87
193.322	1962.06
193.397	1963.82
193.473	1949.79
193.548	1932.52
193.624	1938.23
193.699	1938.09
193.775	1952.21
193.85	1954.35
193.925	1960.96
194.001	1961.15
194.076	1955.07
194.152	1944.56
194.227	1936.76
194.302	1927.2
194.378	1930.1
194.453	1928.25
194.529	1939.14
194.604	1927.3
194.679	1926.06
194.755	1908.67
194.83	1921.65
194.905	1917.75
194.981	1925.5
195.056	1918.75
195.131	1924.08
195.207	1922.7
195.282	1914.71
195.357	1897.16
195.433	1906.58
195.508	1895.4
195.583	1900.78
195.659	1914.99
195.734	1923.6
195.809	1924.7
195.884	1932.97
195.96	1933.68
196.035	1947.47
196.11	1943.19
196.185	1952.55
196.261	1955.83
196.336	1986.98
196.411	1972.19
196.486	1975.94
196.561	1971.62
196.637	1980.03
196.712	1995.11
196.787	1996.44
196.862	2009.08
196.937	2018.5
197.013	2026.58
197.088	2036.28
197.163	2059.45
197.238	2074.06
197.313	2071.88
197.388	2084.29
197.464	2110.6
197.539	2120.68
197.614	2114.83
197.689	2127.2
197.764	2141.9
197.839	2161.17
197.914	2156.07
197.989	2180.43
198.065	2194.37
198.14	2239.4
198.215	2263.34
198.29	2277.86
198.365	2291.13
198.44	2302.79
198.515	2330.01
198.59	2343.43
198.665	2369.04
198.74	2371.85
198.815	2372.18
198.89	2392.4
198.965	2419.02
199.04	2419.4
199.115	2433.11
199.19	2470.14
199.265	2473.57
199.34	2482.18
199.415	2512.15
199.49	2529.43
199.565	2536.71
199.64	2559.95
199.715	2557.19
199.79	2566.71
199.865	2569.9
199.94	2568.28
200.015	2596.62
200.09	2601.24
200.165	2606.58
200.24	2614.01
200.315	2653.19
200.39	2666.62
200.464	2671.57
200.539	2672.57
200.614	2683.86
200.689	2705.44
200.764	2714.69
200.839	2731.5
200.914	2736.93
200.989	2727.15
201.063	2743.02
201.138	2727.79
201.213	2725.69
201.288	2708.64
201.363	2711.11
201.438	2710.02
201.512	2722.54
201.587	2707.63
201.662	2709.34
201.737	2722.73
201.812	2726.49
201.886	2696.74
201.961	2705.28
202.036	2694.42
202.111	2692.56
202.186	2667.04
202.26	2654.08
202.335	2630.69
202.41	2623.26
202.485	2607.98
202.559	2588.07
202.634	2559.49
202.709	2569.58
202.784	2553.06
202.858	2552.53
202.933	2535.39
203.008	2529.15
203.082	2513.54
203.157	2510.3
203.232	2471.84
203.306	2451.88
203.381	2424.45
203.456	2402.84
203.53	2382.35
203.605	2364.32
203.68	2342.65
203.754	2336.14
203.829	2320.95
203.904	2303.96
203.978	2293.82
204.053	2297.77
204.127	2285.54
204.202	2284.92
204.277	2267.89
204.351	2260.89
204.426	2254.18
204.5	2244.09
204.575	2214.6
204.65	2227.45
204.724	2221.69
204.799	2232.34
204.873	2225.63
204.948	2221.35
205.022	2211.26
205.097	2202.36
205.171	2218.54
205.246	2225.68
205.32	2227.53
205.395	2224.25
205.469	2216.12
205.544	2220.02
205.618	2205.36
205.693	2220.59
205.767	2210.6
205.842	2227.54
205.916	2223.12
205.991	2215.74
206.065	2225.78
206.14	2241.62
206.214	2232.71
206.289	2227.67
206.363	2233.76
206.438	2241.76
206.512	2250.46
206.586	2266.88
206.661	2274.87
206.735	2252.71
206.81	2254.99
206.884	2265.98
206.958	2258.75
207.033	2275.16
207.107	2281.83
207.181	2309.87
207.256	2298.78
207.33	2313.91
207.405	2324.86
207.479	2343.33
207.553	2348.66
207.628	2331.2
207.702	2340.67
207.776	2336.38
207.851	2336.67
207.925	2355.19
207.999	2349.38
208.073	2348
208.148	2350.91
208.222	2343
208.296	2372.5
208.371	2385.84
208.445	2398.93
208.519	2422.3
208.593	2433.2
208.668	2432.92
208.742	2435.01
208.816	2439.06
208.89	2450.06
208.965	2453.87
209.039	2458.92
209.113	2474.77
209.187	2493.32
209.261	2486.42
209.336	2506.09
209.41	2525.09
209.484	2522.99
209.558	2542.33
209.632	2553.51
209.707	2561.85
209.781	2580.37
209.855	2596.95
209.929	2611.82
210.003	2617.63
210.077	2620.11
210.151	2662.92
210.226	2691.37
210.3	2716.45
210.374	2738.97
210.448	2745.26
210.522	2751.22
210.596	2762.51
210.67	2774.9
210.744	2816.45
210.818	2850.89
210.892	2868.24
210.966	2865.43
211.041	2880.49
211.115	2880.68
211.189	2903.98
211.263	2921.28
211.337	2923.95
211.411	2939.2
211.485	2939.82
211.559	2952.26
211.633	2957.12
211.707	2931.51
211.781	2940.86
211.855	2912.02
211.929	2905.73
212.003	2892.25
212.077	2905.26
212.151	2919.43
212.225	2932.97
212.299	2929.48
212.373	2922.43
212.447	2924.77
212.52	2957.42
212.594	2968.68
212.668	2985.12
212.742	2982.69
212.816	2988.51
212.89	2995.75
212.964	2997.28
213.038	3009.68
213.112	3030.77
213.186	3057.04
213.26	3049.46
213.333	3021.04
213.407	3042.68
213.481	3064.13
213.555	3092.1
213.629	3100.97
213.703	3106.65
213.777	3124.59
213.85	3127.98
213.924	3186.06
213.998	3215.03
214.072	3230.6
214.146	3245.87
214.219	3273.5
214.293	3297.88
214.367	3327.75
214.441	3368.6
214.515	3399.06
214.588	3412.42
214.662	3421.02
214.736	3440.21
214.81	3488.48
214.883	3542.64
214.957	3573.85
215.031	3608.88
215.105	3635.13
215.178	3668.75
215.252	3711.02
215.326	3736.67
215.4	3772.11
215.473	3777.41
215.547	3807.71
215.621	3856.14
215.694	3914.61
215.768	3955.14
215.842	4002.55
215.915	4054.34
215.989	4095.22
216.063	4148.27
216.136	4211.82
216.21	4275.18
216.284	4352.4
216.357	4420.66
216.431	4483
216.504	4560.66
216.578	4650.84
216.652	4733.08
216.725	4805.03
216.799	4888.8
216.873	4965.35
216.946	5050.58
217.02	5118.09
217.093	5194.25
217.167	5256.84
217.24	5323.41
217.314	5391.97
217.387	5467.72
217.461	5537.9
217.535	5630.29
217.608	5700.97
217.682	5782.07
217.755	5875.79
217.829	5948.24
217.902	6031.19
217.976	6116.98
218.049	6197.22
218.123	6264.19
218.196	6352.21
218.27	6436.89
218.343	6505.95
218.417	6599.06
218.49	6685.21
218.563	6792.3
218.637	6892.08
218.71	6994.03
218.784	7089.46
218.857	7191.17
218.931	7282.65
219.004	7378.86
219.077	7474.92
219.151	7570.86
219.224	7654.03
219.298	7738.71
219.371	7837.59
219.444	7918.95
219.518	8008.93
219.591	8098.54
219.665	8218.53
219.738	8310.27
219.811	8389.3
219.885	8482.93
219.958	8572.1
220.031	8654.82
220.105	8745.45
220.178	8830.03
220.251	8911.38
220.325	9004.15
220.398	9098.36
220.471	9192.72
220.544	9288.34
220.618	9364.47
220.691	9451.77
220.764	9542.39
220.838	9636.4
220.911	9718.85
220.984	9831.02
221.057	9922.1
221.131	10007.07
221.204	10062.76
221.277	10165.99
221.35	10287.44
221.424	10373.19
221.497	10454.37
221.57	10542.67
221.643	10628.25
221.716	10715.89
221.79	10793.95
221.863	10880.3
221.936	10960.83
222.009	11042.21
222.082	11121.68
222.155	11198.78
222.229	11292.86
222.302	11377.43
222.375	11447.7
222.448	11531.9
222.521	11598.36
222.594	11675.96
222.667	11746.37
222.74	11827.44
222.814	11896.18
222.887	11950.69
222.96	12032.63
223.033	12110.77
223.106	12188.23
223.179	12266.27
223.252	12338.38
223.325	12417.19
223.398	12480.24
223.471	12550.96
223.544	12619.46
223.617	12691.67
223.69	12762.04
223.763	12817.09
223.837	12887.14
223.91	12957.28
223.983	13002.88
224.056	13050.12
224.129	13118.72
224.202	13191.56
224.275	13253.31
224.348	13298.67
224.42	13356.76
224.493	13406.36
224.566	13468.45
224.639	13532.52
224.712	13579.14
224.785	13629.56
224.858	13680.56
224.931	13736.48
225.004	13783.19
225.077	13837.67
225.15	13863.36
225.223	13912.92
225.296	13988.45
225.369	14030.78
225.442	14078.07
225.514	14140.3
225.587	14201.96
225.66	14245.92
225.733	14302.32
225.806	14362.48
225.879	14421
225.952	14464.39
226.025	14533.71
226.097	14597
226.17	14642.89
226.243	14685.02
226.316	14748.79
226.389	14806.83
226.461	14859.61
226.534	14918.33
226.607	14977.81
226.68	15063.81
226.753	15119.87
226.825	15156.79
226.898	15228.22
226.971	15287.46
227.044	15343.67
227.117	15397.27
227.189	15463.74
227.262	15519.22
227.335	15575.04
227.407	15629.7
227.48	15697.13
227.553	15740.27
227.626	15790.2
227.698	15841.68
227.771	15900.1
227.844	15926.7
227.916	15978.66
227.989	16015.1
228.062	16053.37
228.134	16119.98
228.207	16160.95
228.28	16202.93
228.352	16238.12
228.425	16273.06
228.498	16316.34
228.57	16351.53
228.643	16410.9
228.716	16441.7
228.788	16475.58
228.861	16510.72
228.934	16564.07
229.006	16602.1
229.079	16640.41
229.151	16670.54
229.224	16691.55
229.296	16729.82
229.369	16803.51
229.442	16858.35
229.514	16890.98
229.587	16947.42
229.659	16961.39
229.732	16999.37
229.804	17054.84
229.877	17119.71
229.949	17165.21
230.022	17218.51
230.094	17260.78
230.167	17307.14
230.239	17339.91
230.312	17377.35
230.384	17435.76
230.457	17470.7
230.529	17504.53
230.602	17551.09
230.674	17584.24
230.747	17643.19
230.819	17697.45
230.892	17698.75
230.964	17724.15
231.037	17768
231.109	17801.45
231.181	17849.64
231.254	17867.76
231.326	17888.19
231.399	17918.12
231.471	17944.24
231.544	17955.28
231.616	17993.83
231.688	18007.18
231.761	18035.51
231.833	18059.95
231.905	18065.3
231.978	18087.17
232.05	18107.08
232.122	18134.93
232.195	18161.53
232.267	18195.41
232.339	18212.81
232.412	18257
232.484	18274.01
232.556	18297.04
232.629	18338.2
232.701	18363.11
232.773	18394.15
232.846	18422
232.918	18437.62
232.99	18467.16
233.062	18502.82
233.135	18521.47
233.207	18536.74
233.279	18556.84
233.351	18585.27
233.424	18599.49
233.496	18613.41
233.568	18657.65
233.64	18658.33
233.713	18679.77
233.785	18686.81
233.857	18700.25
233.929	18692.93
234.001	18732.54
234.074	18754.18
234.146	18743.62
234.218	18748.87
234.29	18756.39
234.362	18763.77
234.434	18759.28
234.507	18755.43
234.579	18746.51
234.651	18743.86
234.723	18757.26
234.795	18775.48
234.867	18779.09
234.939	18798.41
235.012	18805.4
235.084	18804.82
235.156	18812.15
235.228	18800
235.3	18801.93
235.372	18810.8
235.444	18830.75
235.516	18802.61
235.588	18807.57
235.66	18804.39
235.732	18800
235.804	18853.88
235.876	18855.86
235.948	18868
236.02	18872.63
236.092	18877.59
236.164	18891.37
236.236	18894.02
236.308	18884.67
236.38	18892.29
236.452	18884.96
236.524	18882.94
236.596	18895.42
236.668	18904.67
236.74	18905.88
236.812	18911.95
236.884	18904.29
236.956	18908
237.028	18895.71
237.1	18877.35
237.172	18898.75
237.244	18907.85
237.316	18871.28
237.388	18852.68
237.46	18839.13
237.532	18844.97
237.604	18823.86
237.675	18829.79
237.747	18822.36
237.819	18808.73
237.891	18796.29
237.963	18770.95
238.035	18756.54
238.107	18712.83
238.178	18710.61
238.25	18697.41
238.322	18700.59
238.394	18679.43
238.466	18656.11
238.538	18653.22
238.609	18651.24
238.681	18606.91
238.753	18580.45
238.825	18570.14
238.897	18567.39
238.968	18569.95
239.04	18540.89
239.112	18555.39
239.184	18524.12
239.255	18500.89
239.327	18496.41
239.399	18483.3
239.471	18476.6
239.542	18465.61
239.614	18456.65
239.686	18413.28
239.758	18408.46
239.829	18374.15
239.901	18367.4
239.973	18345.72
240.044	18331.07
240.116	18306.54
240.188	18287.55
240.259	18270.73
240.331	18239.99
240.403	18216.66
240.474	18183.51
240.546	18160.71
240.618	18115.51
240.689	18087.37
240.761	18073.59
240.833	18061.1
240.904	18032.14
240.976	18013.97
241.048	17989.35
241.119	17974.89
241.191	17957.93
241.262	17950.17
241.334	17929.88
241.405	17902.36
241.477	17882.8
241.549	17852.2
241.62	17836.92
241.692	17828.15
241.763	17820.49
241.835	17800
241.906	17782.08
241.978	17741.16
242.049	17732.34
242.121	17724.92
242.192	17715.28
242.264	17678.9
242.335	17636.39
242.407	17616.01
242.478	17585.84
242.55	17565.89
242.621	17527.53
242.693	17500.54
242.764	17467.04
242.836	17434.47
242.907	17416.78
242.979	17392.83
243.05	17368.15
243.122	17349.36
243.193	17313.21
243.264	17256.15
243.336	17223.14
243.407	17205.4
243.479	17195.04
243.55	17164.49
243.622	17137.93
243.693	17103.33
243.764	17090.8
243.836	17049.83
243.907	17024.53
243.978	16998.36
244.05	16985.93
244.121	16946.02
244.192	16927.47
244.264	16886.36
244.335	16855.51
244.407	16804.52
244.478	16777.15
244.549	16751.36
244.62	16703.12
244.692	16669.67
244.763	16655.74
244.834	16616.61
244.906	16584.8
244.977	16566.53
245.048	16550.87
245.119	16512.84
245.191	16481.13
245.262	16426.28
245.333	16418.81
245.405	16382.9
245.476	16361.6
245.547	16328.15
245.618	16313.31
245.689	16283.47
245.761	16259.71
245.832	16234.55
245.903	16213.44
245.974	16188.23
246.045	16158.49
246.117	16143.65
246.188	16105.62
246.259	16064.26
246.33	16034.19
246.401	15997.08
246.473	15952.54
246.544	15905.31
246.615	15882.07
246.686	15845.1
246.757	15832.04
246.828	15784.13
246.899	15771.31
246.97	15722.53
247.042	15673.56
247.113	15648.11
247.184	15637.89
247.255	15599.24
247.326	15566.41
247.397	15540.67
247.468	15508.23
247.539	15480.08
247.61	15440.56
247.681	15422.19
247.752	15413.03
247.823	15385.42
247.894	15363.24
247.965	15322.56
248.037	15293.11
248.108	15254.26
248.179	15230.25
248.25	15205.81
248.321	15193.86
248.392	15158.19
248.463	15156.55
248.534	15134.28
248.605	15111.63
248.675	15081.89
248.746	15063.57
248.817	15040.62
248.888	15013.78
248.959	14964.17
249.03	14939.69
249.101	14909.8
249.172	14879.33
249.243	14823.85
249.314	14799.99
249.385	14762.78
249.456	14742.77
249.527	14714.48
249.598	14696.21
249.669	14665.79
249.739	14633.69
249.81	14605.15
249.881	14558
249.952	14524.98
250.023	14493.99
250.094	14454.12
250.165	14410.88
250.235	14381.43
250.306	14360.7
250.377	14323.39
250.448	14306.95
250.519	14259.04
250.59	14251.61
250.66	14225.05
250.731	14213.58
250.802	14190.63
250.873	14170.92
250.944	14147.87
251.014	14116.44
251.085	14109.89
251.156	14090.56
251.227	14077.2
251.297	14067.08
251.368	14053.78
251.439	14031.17
251.51	14013.91
251.58	13983.25
251.651	13947.77
251.722	13931.28
251.792	13889.1
251.863	13866.93
251.934	13864.28
252.005	13870.4
252.075	13841.14
252.146	13823.93
252.217	13806.67
252.287	13791.24
252.358	13765.02
252.429	13759.86
252.499	13735.32
252.57	13711.03
252.641	13696.47
252.711	13672.27
252.782	13625.22
252.852	13616.88
252.923	13595.24
252.994	13584.15
253.064	13577.74
253.135	13551.37
253.205	13515.89
253.276	13507.93
253.347	13498.44
253.417	13459.97
253.488	13430.95
253.558	13406.85
253.629	13382.84
253.699	13376.04
253.77	13358.64
253.841	13334.01
253.911	13311.54
253.982	13287.15
254.052	13263.96
254.123	13235.81
254.193	13212.09
254.264	13229.49
254.334	13195.99
254.405	13158.15
254.475	13120.79
254.546	13084.63
254.616	13081.69
254.687	13067.81
254.757	13042.84
254.827	13020.28
254.898	13002.25
254.968	12980.41
255.039	12948.26
255.109	12935.87
255.18	12892.68
255.25	12849.24
255.321	12832.18
255.391	12794.82
255.461	12792.89
255.532	12751.82
255.602	12724.83
255.673	12683.9
255.743	12650.59
255.813	12609.95
255.884	12601.28
255.954	12582.09
256.024	12579.63
256.095	12552.44
256.165	12519.86
256.235	12505.93
256.306	12471.7
256.376	12462.74
256.446	12445.62
256.517	12427.45
256.587	12415.4
256.657	12399.44
256.728	12384.55
256.798	12365.7
256.868	12347.05
256.938	12317.45
257.009	12298.26
257.079	12292.05
257.149	12302.12
257.219	12268.28
257.29	12255.12
257.36	12217.72
257.43	12211.07
257.5	12178.77
257.571	12151.44
257.641	12139.48
257.711	12115.82
257.781	12104.83
257.852	12088.68
257.922	12051.13
257.992	12032.67
258.062	12006.4
258.132	11995.07
258.202	11969.48
258.273	11952.75
258.343	11940.51
258.413	11917.61
258.483	11903.73
258.553	11867.48
258.623	11831.43
258.693	11811.76
258.764	11805.16
258.834	11797.79
258.904	11770.99
258.974	11735.08
259.044	11716.14
259.114	11695.46
259.184	11677.92
259.254	11660.66
259.324	11617.57
259.394	11610.78
259.464	11607.88
259.535	11587.01
259.605	11564.55
259.675	11542.48
259.745	11514.81
259.815	11483.44
259.885	11452.45
259.955	11462.76
260.025	11435.15
260.095	11415.53
260.165	11401.56
260.235	11393.6
260.305	11370.23
260.375	11343.29
260.445	11356.59
260.515	11360.78
260.585	11357.75
260.655	11333.26
260.725	11319.14
260.795	11316.93
260.865	11315.09
260.934	11284.78
261.004	11278.66
261.074	11259.04
261.144	11253.89
261.214	11253.55
261.284	11240.73
261.354	11238.66
261.424	11207.76
261.494	11216.68
261.564	11201.02
261.634	11197.79
261.703	11169.16
261.773	11160.29
261.843	11154.41
261.913	11130.22
261.983	11090.18
262.053	11074.61
262.123	11053.84
262.192	11029.36
262.262	11012.25
262.332	10983.19
262.402	10972.83
262.472	10954.66
262.541	10916.5
262.611	10907.25
262.681	10883.39
262.751	10872.7
262.821	10853.71
262.89	10823.35
262.96	10805.38
263.03	10806.44
263.1	10791.55
263.169	10774.87
263.239	10763.5
263.309	10761.24
263.379	10753.05
263.448	10738.21
263.518	10727.65
263.588	10719.51
263.657	10719.85
263.727	10717.39
263.797	10695.47
263.867	10677.73
263.936	10647.23
264.006	10655.04
264.076	10638.51
264.145	10623.29
264.215	10601.22
264.285	10594.67
264.354	10563.64
264.424	10542.58
264.494	10515.55
264.563	10490.3
264.633	10491.84
264.702	10481.49
264.772	10446.17
264.842	10425.83
264.911	10426.75
264.981	10399.96
265.05	10384.35
265.12	10367.34
265.19	10355.1
265.259	10350.48
265.329	10342.67
265.398	10331.26
265.468	10332.17
265.537	10313
265.607	10306.35
265.676	10309.77
265.746	10301.1
265.815	10305.82
265.885	10287.37
265.955	10264.97
266.024	10248.01
266.094	10215.15
266.163	10209.56
266.232	10210.05
266.302	10190.68
266.371	10169.39
266.441	10150.84
266.51	10137.79
266.58	10121.65
266.649	10092.31
266.719	10089.8
266.788	10081.85
266.858	10084.12
266.927	10044.76
266.996	10037.01
267.066	10024.05
267.135	9993.89
267.205	9987.25
267.274	9972.55
267.343	9970.15
267.413	9959.36
267.482	9956.18
267.552	9957.04
267.621	9927.56
267.69	9901.07
267.76	9887.92
267.829	9879.11
267.898	9869.18
267.968	9854.69
268.037	9842.6
268.106	9841.15
268.176	9808.06
268.245	9789.81
268.314	9772.37
268.384	9777.57
268.453	9763.84
268.522	9749.97
268.592	9754.35
268.661	9729.21
268.73	9712.98
268.799	9699.54
268.869	9706.33
268.938	9682.49
269.007	9655.86
269.076	9646.9
269.146	9641.56
269.215	9638.19
269.284	9642.57
269.353	9625.28
269.422	9611.56
269.492	9598.12
269.561	9554.92
269.63	9556.85
269.699	9543.61
269.768	9531.23
269.838	9525.26
269.907	9515
269.976	9494.53
270.045	9456.83
270.114	9454.61
270.183	9446.33
270.253	9434.97
270.322	9401.64
270.391	9388.06
270.46	9394.51
270.529	9392.64
270.598	9389.07
270.667	9374.39
270.736	9355.27
270.806	9354.11
270.875	9355.55
270.944	9340.44
271.013	9362.2
271.082	9349.58
271.151	9342.46
271.22	9313.66
271.289	9297.58
271.358	9292.28
271.427	9286.6
271.496	9279.57
271.565	9266.19
271.634	9258.34
271.703	9253.57
271.772	9251.36
271.841	9234.6
271.91	9214.72
271.979	9201.96
272.048	9175.91
272.117	9173.69
272.186	9149.81
272.255	9146.88
272.324	9140.28
272.393	9139.03
272.462	9128.34
272.531	9128.48
272.6	9117.74
272.669	9128
272.738	9114.28
272.807	9103.93
272.876	9081.88
272.945	9108.46
273.013	9107.01
273.082	9110.86
273.151	9095.65
273.22	9095.36
273.289	9095.36
273.358	9099.36
273.427	9086.98
273.496	9089.49
273.564	9082.65
273.633	9085.97
273.702	9066.96
273.771	9054.2
273.84	9045.1
273.909	9037.73
273.977	9024.3
274.046	9008.27
274.115	9007.35
274.184	8988.1
274.253	8980.3
274.322	8993.59
274.39	8960.08
274.459	8943.86
274.528	8915.02
274.597	8908.96
274.665	8897.6
274.734	8901.54
274.803	8896.82
274.872	8888.74
274.94	8872.9
275.009	8903.19
275.078	8891.54
275.147	8887.64
275.215	8885.52
275.284	8890.63
275.353	8877.39
275.421	8857.46
275.49	8875.71
275.559	8867.14
275.627	8869.98
275.696	8860.78
275.765	8854.24
275.833	8845.48
275.902	8842.83
275.971	8852.46
276.039	8866.03
276.108	8869.74
276.177	8864.01
276.245	8851.06
276.314	8848.65
276.383	8853.71
276.451	8813.16
276.52	8811.34
276.588	8822.55
276.657	8819.95
276.725	8805.94
276.794	8809.7
276.863	8815.67
276.931	8791.74
277	8794.82
277.068	8800.12
277.137	8817.16
277.205	8813.6
277.274	8830.92
277.342	8841.51
277.411	8819.33
277.48	8797.86
277.548	8788.91
277.617	8790.06
277.685	8787.61
277.754	8792.08
277.822	8783.08
277.89	8797.82
277.959	8793.19
278.027	8777.65
278.096	8773.03
278.164	8797.91
278.233	8784.44
278.301	8779.1
278.37	8786.07
278.438	8769.71
278.507	8766.87
278.575	8739.19
278.643	8740.83
278.712	8721.87
278.78	8708.58
278.849	8723.07
278.917	8733.56
278.985	8726.92
279.054	8727.93
279.122	8730.38
279.191	8726.87
279.259	8725.23
279.327	8700.2
279.396	8709.63
279.464	8702.51
279.532	8708.53
279.601	8702.22
279.669	8701.21
279.737	8706.31
279.806	8708.91
279.874	8716.03
279.942	8716.95
280.011	8718.59
280.079	8717.33
280.147	8733.84
280.215	8736.3
280.284	8728.98
280.352	8716.85
280.42	8726.24
280.488	8719.6
280.557	8707.42
280.625	8706.41
280.693	8701.26
280.761	8704.39
280.83	8692.64
280.898	8699.86
280.966	8679.31
281.034	8649.57
281.102	8635.03
281.171	8634.36
281.239	8637.01
281.307	8636.19
281.375	8622.28
281.443	8640.48
281.512	8637.64
281.58	8642.26
281.648	8628.44
281.716	8626.23
281.784	8628.44
281.852	8618.58
281.92	8612.75
281.989	8629.07
282.057	8618.67
282.125	8658.1
282.193	8657.95
282.261	8658.19
282.329	8656.75
282.397	8661.66
282.465	8667.24
282.533	8682.3
282.601	8670.22
282.67	8656.46
282.738	8644.57
282.806	8664.35
282.874	8654.39
282.942	8656.46
283.01	8650.25
283.078	8653.08
283.146	8654.1
283.214	8659.77
283.282	8664.59
283.35	8674.74
283.418	8668.44
283.486	8672.29
283.554	8632.09
283.622	8626.66
283.69	8626.8
283.758	8622.61
283.826	8627.62
283.894	8636.14
283.962	8650.91
284.03	8660.64
284.098	8656.83
284.165	8653.08
284.233	8641.96
284.301	8636.62
284.369	8630.46
284.437	8619.92
284.505	8612.89
284.573	8625.93
284.641	8612.89
284.709	8622.04
284.777	8605.82
284.845	8611.26
284.912	8613.71
284.98	8627.43
285.048	8630.65
285.116	8632.05
285.184	8641
285.252	8640.71
285.319	8622.86
285.387	8609.76
285.455	8593.26
285.523	8597.69
285.591	8592.63
285.659	8593.84
285.726	8600.29
285.794	8582.96
285.862	8579.88
285.93	8579.31
285.997	8571.51
286.065	8571.08
286.133	8556.88
286.201	8556.97
286.269	8544.99
286.336	8538.73
286.404	8528.58
286.472	8533.25
286.539	8516.12
286.607	8501.44
286.675	8500.28
286.743	8508.99
286.81	8509.33
286.878	8524.3
286.946	8520.73
287.013	8519.24
287.081	8519.82
287.149	8508.66
287.216	8529.59
287.284	8526.51
287.352	8526.84
287.419	8523.19
287.487	8532.67
287.555	8534.93
287.622	8536.37
287.69	8538.39
287.758	8548.41
287.825	8545.52
287.893	8531.27
287.96	8532.24
288.028	8542.97
288.096	8548.26
288.163	8550.67
288.231	8540.9
288.298	8539.36
288.366	8544.89
288.433	8549.17
288.501	8542.49
288.569	8544.89
288.636	8543.54
288.704	8556.88
288.771	8570.3
288.839	8564.67
288.906	8561.93
288.974	8570.3
289.041	8563.71
289.109	8556.3
289.176	8554.62
289.244	8555.48
289.311	8567.71
289.379	8583.34
289.446	8583.44
289.514	8575.74
289.581	8568.62
289.649	8571.02
289.716	8572.47
289.783	8568.91
289.851	8582.96
289.918	8585.51
289.986	8590.56
290.053	8587.48
290.121	8584.59
290.188	8577.33
290.255	8603.89
290.323	8598.89
290.39	8605.19
290.458	8607.74
290.525	8619.34
290.592	8620.5
290.66	8621.7
290.727	8619.29
290.794	8631.52
290.862	8631.23
290.929	8635.71
290.996	8641.82
291.064	8653.27
291.131	8664.39
291.198	8677.48
291.266	8677.96
291.333	8671.08
291.4	8675.27
291.468	8692.21
291.535	8688.12
291.602	8696.83
291.669	8691.59
291.737	8696.83
291.804	8688.07
291.871	8711.12
291.938	8717.67
292.006	8737.31
292.073	8751.07
292.14	8759.31
292.207	8746.45
292.275	8751.46
292.342	8756.75
292.409	8783.23
292.476	8804.12
292.543	8798.49
292.611	8800.9
292.678	8815
292.745	8839.93
292.812	8855.67
292.879	8855.53
292.946	8856.44
293.014	8872.57
293.081	8874.44
293.148	8889.56
293.215	8909.39
293.282	8900.25
293.349	8913.29
293.416	8903.13
293.484	8915.55
293.551	8931.01
293.618	8955.75
293.685	8975.63
293.752	8975.2
293.819	8972.07
293.886	8961.76
293.953	8970.33
294.02	8978.08
294.087	8987.86
294.154	8981.84
294.221	8997.1
294.288	8994.94
294.356	9016.89
294.423	9019.2
294.49	9017.95
294.557	9030.85
294.624	9017.27
294.691	9038.21
294.758	9036.86
294.825	9039.51
294.892	9035.18
294.959	9028.73
295.026	9030.41
295.093	9023.48
295.16	9021.41
295.226	9026.76
295.293	9051.84
295.36	9056.99
295.427	9067.05
295.494	9074.81
295.561	9088.29
295.628	9105
295.695	9120.59
295.762	9124.25
295.829	9136.48
295.896	9151.46
295.963	9158.29
296.03	9168.4
296.096	9176.2
296.163	9186.07
296.23	9206.97
296.297	9219.34
296.364	9223.82
296.431	9230.08
296.498	9230.75
296.564	9261.51
296.631	9263.2
296.698	9250.3
296.765	9275.96
296.832	9264.4
296.899	9252.85
296.965	9272.3
297.032	9252.51
297.099	9268.69
297.166	9273.46
297.233	9265.46
297.299	9257.76
297.366	9258.58
297.433	9264.79
297.5	9273.26
297.566	9273.36
297.633	9267.82
297.7	9273.75
297.767	9275.91
297.833	9280.58
297.9	9277.55
297.967	9263.97
298.033	9278.61
298.1	9304.33
298.167	9282.37
298.234	9291.8
298.3	9302.98
298.367	9296.96
298.434	9303.17
298.5	9294.26
298.567	9287.42
298.634	9290.7
298.7	9309.62
298.767	9309.52
298.834	9320.93
298.9	9312.12
298.967	9306.73
299.033	9314.96
299.1	9327.92
299.167	9339.18
299.233	9334.56
299.3	9352.04
299.366	9365.76
299.433	9374.57
299.5	9348.38
299.566	9359.11
299.633	9368.7
299.699	9378.18
299.766	9376.84
299.832	9379.97
299.899	9384.16
299.965	9405.15
300.032	9395.76
300.099	9399.04
300.165	9405.63
300.232	9410.79
300.298	9406.6
300.365	9417.09
300.431	9420.66
300.498	9414.2
300.564	9414.4
300.631	9428.41
300.697	9443.24
300.763	9441.46
300.83	9431.06
300.896	9444.97
300.963	9455.23
301.029	9463.13
301.096	9465.92
301.162	9475.07
301.229	9467.56
301.295	9461.49
301.361	9460.05
301.428	9475.65
301.494	9463.99
301.561	9471.89
301.627	9465.54
301.693	9473.91
301.76	9478.01
301.826	9473.19
301.892	9482.34
301.959	9489.76
302.025	9487.11
302.092	9481.04
302.158	9490.05
302.224	9500.35
302.291	9492.21
302.357	9484.65
302.423	9482.25
302.49	9474.35
302.556	9478.39
302.622	9481.38
302.688	9490.19
302.755	9499.73
302.821	9500.02
302.887	9512.01
302.954	9505.84
303.02	9510.75
303.086	9519.86
303.152	9519.81
303.219	9521.01
303.285	9519.95
303.351	9531.08
303.417	9529.82
303.483	9524.24
303.55	9513.55
303.616	9504.93
303.682	9507.09
303.748	9503.48
303.815	9514.95
303.881	9527.56
303.947	9520.24
304.013	9525.78
304.079	9520.63
304.145	9498.33
304.212	9496.21
304.278	9483.84
304.344	9480.37
304.41	9471.89
304.476	9463.37
304.542	9454.7
304.608	9456.58
304.674	9441.7
304.741	9437.61
304.807	9437.17
304.873	9437.9
304.939	9456.77
305.005	9437.71
305.071	9430.96
305.137	9429.95
305.203	9405.68
305.269	9400.09
305.335	9411.65
305.401	9406.6
305.467	9404.19
305.533	9419.74
305.599	9423.31
305.666	9434.09
305.732	9427.93
305.798	9437.08
305.864	9458.85
305.93	9464.24
305.996	9457.4
306.062	9465.88
306.128	9460.87
306.194	9452.06
306.259	9451.53
306.325	9447.53
306.391	9461.88
306.457	9471.8
306.523	9472.71
306.589	9493.28
306.655	9489.86
306.721	9472.76
306.787	9454.8
306.853	9463.61
306.919	9446.33
306.985	9438.14
307.051	9430.24
307.117	9425.19
307.183	9416.28
307.248	9380.83
307.314	9385.07
307.38	9389.84
307.446	9389.7
307.512	9375.92
307.578	9379.77
307.644	9375.25
307.709	9368.46
307.775	9365.62
307.841	9360.22
307.907	9361.43
307.973	9339.71
308.039	9333.59
308.104	9340.09
308.17	9352.8
308.236	9343.94
308.302	9349.82
308.368	9343.41
308.433	9341.15
308.499	9336.87
308.565	9325.31
308.631	9336.48
308.696	9312.41
308.762	9301.33
308.828	9300.56
308.894	9280.1
308.959	9261.42
309.025	9252.46
309.091	9245.34
309.156	9234.94
309.222	9235.9
309.288	9223.96
309.354	9208.26
309.419	9207.78
309.485	9191.51
309.551	9190.88
309.616	9176.92
309.682	9171.19
309.748	9168.11
309.813	9163.97
309.879	9156.02
309.945	9146.15
310.01	9133.15
310.076	9137.15
310.141	9130.07
310.207	9111.77
310.273	9117.02
310.338	9116.92
310.404	9103.16
310.469	9096.61
310.535	9090.88
310.601	9068.97
310.666	9068.68
310.732	9072.58
310.797	9055.4
310.863	9039.85
310.928	9025.6
310.994	9026.75
311.059	9021.07
311.125	9011.92
311.191	9014.96
311.256	9005.91
311.322	9017.12
311.387	9004.27
311.453	9281.42
311.518	9255.87
311.584	9251.34
311.649	9253.94
311.715	9248.5
311.78	9246.24
311.846	9230.3
311.911	9232.95
311.976	9237.43
312.042	9229.53
312.107	9214.71
312.173	9207.82
312.238	9209.6
312.304	9208.4
312.369	9201.66
312.434	9189.91
312.5	9187.12
312.565	9164.06
312.631	9164.64
312.696	9153.9
312.761	9151.45
312.827	8861.68
312.892	8899.52
312.958	8898.36
313.023	8899.62
313.088	8895.81
313.154	8886.14
313.219	8877.33
313.284	8867.13
313.35	8862.22
313.415	8850.42
313.48	8850.09
313.546	8852.83
313.611	8860.19
313.676	8850.81
313.741	8832.66
313.807	8837.57
313.872	8839.02
313.937	8845.42
314.003	8858.8
314.068	8855.77
314.133	8861.11
314.198	8858.42
314.264	8838.72
314.329	8829
314.394	8825.44
314.459	8819.95
314.525	8838.92
314.59	8836.56
314.655	8822.17
314.72	8828.71
314.785	8829.24
314.851	8822.22
314.916	8801.76
314.981	8788.57
315.046	8783.81
315.111	8773.32
315.176	8758.54
315.242	8757.38
315.307	8750.55
315.372	8728.31
315.437	8722.49
315.502	8711.22
315.567	8715.46
315.632	8702.32
315.698	8701.36
315.763	8690.62
315.828	8684.41
315.893	8670.94
315.958	8666.75
316.023	8658.62
316.088	8639.65
316.153	8620.16
316.218	8611.74
316.283	8597.16
316.348	8573.29
316.413	8571.85
316.479	8560.54
316.544	8527.97
316.609	8491.93
316.674	8451.9
316.739	8421.3
316.804	8387.28
316.869	8350.62
316.934	8312.13
316.999	8277.05
317.064	8229.62
317.129	8187.61
317.194	8146.58
317.259	8095.49
317.324	8045.18
317.389	8000.59
317.454	7959.89
317.518	7925.12
317.583	7895.01
317.648	7866.63
317.713	7835.61
317.778	7771.31
317.843	7743.61
317.908	7710.53
317.973	7672.11
318.038	7652.97
318.103	7610.76
318.168	7577.3
318.233	7552.92
318.297	7503.5
318.362	7464.32
318.427	7424.28
318.492	7397.26
318.557	7352.23
318.622	7328.82
318.687	7306.19
318.751	7265.87
318.816	7226.65
318.881	7190.47
318.946	7141.11
319.011	7097.14
319.075	7052.36
319.14	7018.25
319.205	6967.76
319.27	6933.74
319.335	6891.91
319.399	6845.93
319.464	6820.28
319.529	6766.63
319.594	6720.71
319.658	6695.2
319.723	6650.02
319.788	6618.47
319.853	6561.9
319.917	6533.96
319.982	6481.33
320.047	6438.69
320.112	6412.43
320.176	6366.35
320.241	6331.78
320.306	6298.42
320.37	6260.5
320.435	6229.4
320.5	6197.68
320.564	6163.46
320.629	6120.13
320.694	6092.26
320.758	6044.62
320.823	5999.61
320.888	5972.89
320.952	5926.07
321.017	5877.09
321.082	5840.07
321.146	5805.58
321.211	5774.22
321.275	5733.03
321.34	5688.3
321.405	5648.02
321.469	5606.4
321.534	5563.07
321.598	5509.29
321.663	5478.31
321.727	5446.81
321.792	5397.01
321.857	5352.34
321.921	5314.72
321.986	5273.33
322.05	5212.91
322.115	5179.09
322.179	5136.36
322.244	5078.17
322.308	5044.26
322.373	5001.49
322.437	4963.42
322.502	4931.76
322.566	4883.25
322.631	4843.22
322.695	4808.23
322.76	4759.07
322.824	4720.87
322.889	4678.52
322.953	4638.42
323.018	4576.01
323.082	4512.42
323.146	4460.72
323.211	4409.67
323.275	4362.02
323.34	4311.81
323.404	4278.92
323.468	4238.5
323.533	4191.69
323.597	4147.63
323.662	4097.62
323.726	4061.28
323.79	4018.12
323.855	3955.44
323.919	3910.47
323.983	3868.5
324.048	3802.89
324.112	3904.94
324.177	3774.06
324.241	3575.91
324.305	3381.24
324.37	3188.63
324.434	3004.71
324.498	2963.09
324.562	2913.66
324.627	2854.84
324.691	2803.2
324.755	2737.08
324.82	2656.72
324.884	2581.52
324.948	2512.86
325.012	2417.56
325.077	2292.53
