Data from 20250630_urea_2M_MAYP1162681_00-52-27-198.txt Node
Date: Tue Jul 01 00:52:27 BST 2025
User: adleo
Spectrometer: MAYP116268
Trigger mode: 0
Integration Time (sec): 1.000000E0
Scans to average: 1
Electric dark correction enabled: true
Nonlinearity correction enabled: true
Boxcar width: 10
XAxis mode: Wavelengths
Number of Pixels in Spectrum: 2068
>>>>>Begin Spectral Data<<<<<
179.565	1087
179.642	1135.98
179.718	1176.28
179.795	1212.67
179.871	1241.01
179.948	1254.41
180.024	1274.09
180.101	1294.69
180.177	1306.24
180.254	1326.41
180.33	1347.18
180.407	1390.75
180.483	1477.08
180.56	1558.36
180.636	1634.61
180.712	1621.39
180.789	1631.32
180.865	1643.05
180.942	1651.08
181.018	1660.49
181.095	1671.99
181.171	1678.73
181.248	1680.35
181.324	1694.37
181.4	1699.12
181.477	1708.2
181.553	1723.78
181.63	1742.36
181.706	1756.47
181.782	1766.45
181.859	1767.16
181.935	1773.43
182.011	1770.58
182.088	1787.69
182.164	1806.19
182.24	1817.4
182.317	1827.76
182.393	1825.1
182.469	1839.21
182.546	1850.24
182.622	1856.89
182.698	1854.14
182.775	1865.88
182.851	1879.66
182.927	1874.15
183.003	1871.25
183.08	1868.16
183.156	1876.57
183.232	1873.77
183.308	1861.84
183.385	1867.26
183.461	1882.04
183.537	1882.23
183.613	1894.07
183.69	1886.22
183.766	1873.53
183.842	1881.18
183.918	1884.65
183.995	1895.2
184.071	1896.58
184.147	1893.87
184.223	1882.61
184.299	1894.5
184.375	1882.71
184.452	1889.75
184.528	1938.92
184.604	1946
184.68	1957.79
184.756	1962.78
184.832	1965.44
184.908	1969.43
184.985	1971.48
185.061	1957.5
185.137	1962.45
185.213	1953.32
185.289	1950.8
185.365	1946.52
185.441	1947.33
185.517	1959.17
185.593	1958.51
185.669	1956.46
185.745	1966.31
185.822	1978.38
185.898	1974.71
185.974	1981.13
186.05	1971.24
186.126	1934.48
186.202	1932.2
186.278	1926.25
186.354	1917.98
186.43	1923.54
186.506	1924.02
186.582	1920.84
186.658	1928.73
186.734	1912.85
186.81	1914.56
186.886	1918.13
186.962	1929.11
187.038	1923.78
187.114	1915.84
187.19	1924.21
187.266	1915.32
187.341	1913.18
187.417	1910.9
187.493	1905.48
187.569	1910.09
187.645	1906.95
187.721	1893.31
187.797	1899.77
187.873	1903.48
187.949	1898.49
188.025	1893.5
188.101	1896.73
188.176	1904.24
188.252	1896.16
188.328	1903.9
188.404	1904.81
188.48	1900.1
188.556	1892.64
188.632	1892.4
188.707	1895.97
188.783	1891.45
188.859	1888.36
188.935	1877.38
189.011	1881.61
189.086	1876.24
189.162	1870.58
189.238	1867.16
189.314	1867.73
189.39	1860.22
189.465	1854.13
189.541	1869.49
189.617	1856.28
189.693	1851.19
189.768	1853.66
189.844	1876.77
189.92	1868.03
189.996	1876.54
190.071	1887.28
190.147	1887.47
190.223	1896.22
190.298	1885.14
190.374	1871.36
190.45	1882.29
190.526	1891.08
190.601	1888.47
190.677	1891.51
190.753	1916.01
190.828	1918.48
190.904	1932.41
190.98	1947.86
191.055	1958.23
191.131	1949.19
191.207	1969.68
191.282	1977.48
191.358	1965.64
191.433	1953.51
191.509	1966.2
191.585	1959.35
191.66	1957.6
191.736	1964.54
191.811	1955.31
191.887	1972.1
191.963	1998.02
192.038	2002.96
192.114	2004.48
192.189	2006.81
192.265	2002.54
192.34	1981.41
192.416	1981.56
192.491	1977.85
192.567	1980.41
192.642	1983.84
192.718	1986.45
192.793	1972.9
192.869	1970.91
192.944	1975.71
193.02	1982.41
193.095	1986.31
193.171	1993.25
193.246	1995.77
193.322	1994.39
193.397	1996.25
193.473	1982.5
193.548	1963.19
193.624	1968.38
193.699	1969.42
193.775	1985.4
193.85	1986.92
193.925	1993.82
194.001	1993.3
194.076	1987.97
194.152	1979.36
194.227	1971.28
194.302	1961.06
194.378	1964.43
194.453	1962.01
194.529	1974.9
194.604	1962.49
194.679	1953.36
194.755	1935.63
194.83	1947.57
194.905	1945.38
194.981	1949.38
195.056	1942.67
195.131	1948.57
195.207	1946.67
195.282	1934.97
195.357	1916.8
195.433	1932.68
195.508	1923.41
195.583	1929.45
195.659	1939.96
195.734	1946
195.809	1946.24
195.884	1955.79
195.96	1956.55
196.035	1969.77
196.11	1963.21
196.185	1971.62
196.261	1976.66
196.336	2007.99
196.411	1991.82
196.486	1996.01
196.561	1992.06
196.637	2001.14
196.712	2015.93
196.787	2017.79
196.862	2032.1
196.937	2040.14
197.013	2042.61
197.088	2053.26
197.163	2075
197.238	2092.23
197.313	2091.85
197.388	2104.17
197.464	2130.01
197.539	2139.66
197.614	2135.72
197.689	2147.7
197.764	2165.88
197.839	2187.29
197.914	2182.19
197.989	2205.17
198.065	2217.64
198.14	2266.62
198.215	2290.94
198.29	2300.75
198.365	2313.5
198.44	2323.44
198.515	2349.86
198.59	2365.99
198.665	2388.36
198.74	2395.65
198.815	2397.41
198.89	2415.83
198.965	2443.83
199.04	2439.35
199.115	2455.01
199.19	2493.91
199.265	2497.81
199.34	2505.71
199.415	2535.58
199.49	2554.43
199.565	2561.24
199.64	2584.58
199.715	2580.81
199.79	2586.81
199.865	2592.05
199.94	2592.43
200.015	2623.01
200.09	2628.54
200.165	2632.25
200.24	2639.06
200.315	2675.68
200.39	2687.54
200.464	2691.64
200.539	2689.78
200.614	2707.35
200.689	2729.27
200.764	2734.89
200.839	2753.04
200.914	2758.13
200.989	2747.17
201.063	2759.65
201.138	2746.89
201.213	2749.09
201.288	2731.84
201.363	2738.27
201.438	2738.99
201.512	2750.22
201.587	2732.5
201.662	2738.84
201.737	2751.94
201.812	2758.09
201.886	2727.86
201.961	2737.15
202.036	2727.58
202.111	2728.63
202.186	2697.68
202.26	2681.72
202.335	2662.28
202.41	2651.27
202.485	2636.08
202.559	2619.41
202.634	2595.17
202.709	2603.12
202.784	2580.78
202.858	2579.93
202.933	2563.83
203.008	2561.07
203.082	2547.64
203.157	2548.59
203.232	2503.99
203.306	2484.5
203.381	2454.08
203.456	2430.08
203.53	2406.4
203.605	2391.84
203.68	2367.22
203.754	2364.46
203.829	2351.03
203.904	2330.28
203.978	2324.09
204.053	2326.23
204.127	2314.62
204.202	2309.72
204.277	2293.73
204.351	2288.11
204.426	2282.73
204.5	2275.45
204.575	2239.63
204.65	2246.1
204.724	2237.1
204.799	2247.99
204.873	2244.28
204.948	2247.28
205.022	2240.28
205.097	2235.66
205.171	2247.32
205.246	2256.6
205.32	2257.6
205.395	2255.37
205.469	2249.66
205.544	2253.99
205.618	2239.81
205.693	2252.47
205.767	2245
205.842	2265.9
205.916	2261.33
205.991	2248.53
206.065	2252.62
206.14	2267.55
206.214	2263.65
206.289	2257.79
206.363	2268.88
206.438	2268.21
206.512	2269.93
206.586	2285.3
206.661	2292.3
206.735	2274.5
206.81	2276.55
206.884	2286.97
206.958	2277.22
207.033	2290.39
207.107	2294.06
207.181	2320.43
207.256	2312.91
207.33	2329.28
207.405	2340.57
207.479	2359.37
207.553	2365.94
207.628	2349.29
207.702	2361.56
207.776	2354.66
207.851	2359.14
207.925	2369.37
207.999	2369.71
208.073	2371.61
208.148	2376.18
208.222	2366.52
208.296	2393.69
208.371	2406.74
208.445	2417.74
208.519	2445.58
208.593	2459.15
208.668	2455.53
208.742	2459.82
208.816	2462.63
208.89	2476.06
208.965	2470.86
209.039	2476.1
209.113	2494.86
209.187	2514.99
209.261	2509.23
209.336	2529.13
209.41	2546.66
209.484	2549.51
209.558	2571.42
209.632	2583.47
209.707	2593.9
209.781	2611.85
209.855	2626.72
209.929	2646.5
210.003	2653.74
210.077	2655.65
210.151	2701.9
210.226	2737.31
210.3	2762.01
210.374	2780.91
210.448	2787.35
210.522	2797.78
210.596	2809.93
210.67	2819.03
210.744	2864.41
210.818	2897.61
210.892	2916.73
210.966	2910.82
211.041	2930.22
211.115	2928.55
211.189	2950.09
211.263	2968.16
211.337	2979.45
211.411	2996.09
211.485	2988.32
211.559	3002.9
211.633	3007.67
211.707	2980.28
211.781	2989.63
211.855	2962.89
211.929	2962.32
212.003	2949.36
212.077	2968.53
212.151	2987.79
212.225	3008.11
212.299	3005.01
212.373	3005.82
212.447	3015.4
212.52	3055.94
212.594	3069.72
212.668	3093.52
212.742	3098
212.816	3106.68
212.89	3117.74
212.964	3134.69
213.038	3161.07
213.112	3195.72
213.186	3232.4
213.26	3238.88
213.333	3225.43
213.407	3262.72
213.481	3298.4
213.555	3347.37
213.629	3372.49
213.703	3395.4
213.777	3428.73
213.85	3454.13
213.924	3526.54
213.998	3574.7
214.072	3617.42
214.146	3657.83
214.219	3712.29
214.293	3769.61
214.367	3832.44
214.441	3906.99
214.515	3963.6
214.588	4008.86
214.662	4046.82
214.736	4098.11
214.81	4182.36
214.883	4269.78
214.957	4340.98
215.031	4414.85
215.105	4472.09
215.178	4546.17
215.252	4630.78
215.326	4707.89
215.4	4781.64
215.473	4844.01
215.547	4922.76
215.621	5013.33
215.694	5120.86
215.768	5202.17
215.842	5293.55
215.915	5392.74
215.989	5474.53
216.063	5573.27
216.136	5685.81
216.21	5800.99
216.284	5932.39
216.357	6050.08
216.431	6166.3
216.504	6287.29
216.578	6430.45
216.652	6565.73
216.725	6687.89
216.799	6822.68
216.873	6944.4
216.946	7084.65
217.02	7202.41
217.093	7327.93
217.167	7436.61
217.24	7549.88
217.314	7681.93
217.387	7808.23
217.461	7928.22
217.535	8077.12
217.608	8200.94
217.682	8336.37
217.755	8480.71
217.829	8605.31
217.902	8733.47
217.976	8864.76
218.049	8996.17
218.123	9115.09
218.196	9257.93
218.27	9389.33
218.343	9506.3
218.417	9648.89
218.49	9773.14
218.563	9914.3
218.637	10052.06
218.71	10208.62
218.784	10350.59
218.857	10495.26
218.931	10634.11
219.004	10764
219.077	10899.98
219.151	11026.71
219.224	11150.6
219.298	11279.42
219.371	11417.01
219.444	11536.91
219.518	11662.51
219.591	11789.79
219.665	11932.03
219.738	12050.31
219.811	12165.31
219.885	12296.8
219.958	12419.48
220.031	12552.56
220.105	12681.56
220.178	12800.14
220.251	12899.68
220.325	13022.22
220.398	13139.07
220.471	13255.72
220.544	13379.61
220.618	13474.43
220.691	13606.28
220.764	13714.83
220.838	13832.94
220.911	13933.5
220.984	14055.31
221.057	14163.29
221.131	14265.1
221.204	14343.19
221.277	14456.77
221.35	14583.25
221.424	14671.81
221.497	14771.93
221.57	14855.08
221.643	14955.63
221.716	15058.98
221.79	15148.59
221.863	15241.33
221.936	15325.73
222.009	15412.06
222.082	15505.91
222.155	15597.59
222.229	15684.15
222.302	15781.08
222.375	15846.01
222.448	15935.27
222.521	16018.22
222.594	16102.81
222.667	16170.34
222.74	16255.75
222.814	16331.08
222.887	16408.29
222.96	16499.24
223.033	16572.6
223.106	16660.31
223.179	16736.94
223.252	16807.31
223.325	16878.16
223.398	16941.2
223.471	17006.93
223.544	17070.94
223.617	17132.91
223.69	17198.84
223.763	17261.06
223.837	17328.77
223.91	17407.09
223.983	17444.24
224.056	17496.29
224.129	17559.28
224.202	17636.2
224.275	17697.83
224.348	17746.41
224.42	17786.36
224.493	17828.19
224.566	17887.57
224.639	17934.46
224.712	17970.55
224.785	18007.56
224.858	18065.63
224.931	18106.06
225.004	18146.83
225.077	18200.18
225.15	18223.17
225.223	18267.7
225.296	18325.86
225.369	18351.6
225.442	18383.16
225.514	18438.63
225.587	18482.43
225.66	18524.74
225.733	18574.38
225.806	18613.94
225.879	18658.18
225.952	18691.29
226.025	18745.69
226.097	18795.14
226.17	18832.77
226.243	18854.02
226.316	18896.43
226.389	18931.42
226.461	18978.5
226.534	19027.12
226.607	19060.33
226.68	19130.2
226.753	19164.95
226.825	19170.05
226.898	19217.52
226.971	19253.9
227.044	19289.95
227.117	19320.65
227.189	19360.84
227.262	19399.97
227.335	19437.22
227.407	19470.23
227.48	19508.2
227.553	19540.49
227.626	19570.37
227.698	19602.41
227.771	19643.28
227.844	19671.37
227.916	19706.6
227.989	19724.38
228.062	19745.78
228.134	19799.18
228.207	19818.93
228.28	19843.32
228.352	19875.99
228.425	19898.4
228.498	19925.87
228.57	19941.53
228.643	19980.32
228.716	20003.36
228.788	20011.02
228.861	20029.58
228.934	20059.74
229.006	20086.39
229.079	20103.36
229.151	20103.12
229.224	20107.93
229.296	20132.42
229.369	20178.1
229.442	20209.91
229.514	20218.39
229.587	20247.31
229.659	20240.61
229.732	20256.66
229.804	20285.28
229.877	20333.67
229.949	20366.73
230.022	20404.95
230.094	20417.52
230.167	20432.61
230.239	20433.28
230.312	20460.22
230.384	20497.14
230.457	20513.57
230.529	20531.02
230.602	20545.48
230.674	20572.75
230.747	20600.99
230.819	20635.6
230.892	20614.1
230.964	20633.96
231.037	20663.31
231.109	20676.08
231.181	20704.47
231.254	20708.66
231.326	20711.41
231.399	20718.3
231.471	20722.97
231.544	20708.47
231.616	20735.02
231.688	20751.17
231.761	20771.02
231.833	20771.99
231.905	20760.85
231.978	20774.64
232.05	20771.89
232.122	20782.59
232.195	20776.37
232.267	20801.14
232.339	20805.19
232.412	20826.97
232.484	20811.41
232.556	20803.7
232.629	20835.55
232.701	20844.23
232.773	20854.64
232.846	20860.81
232.918	20861.48
232.99	20870.5
233.062	20885.1
233.135	20885.39
233.207	20877.19
233.279	20877.68
233.351	20881.05
233.424	20869
233.496	20854.11
233.568	20868.42
233.64	20847.46
233.713	20849.29
233.785	20834.88
233.857	20816.71
233.929	20804.85
234.001	20818.25
234.074	20828.08
234.146	20786.54
234.218	20772.42
234.29	20752.95
234.362	20733.57
234.434	20705.57
234.507	20675.55
234.579	20647.21
234.651	20630.25
234.723	20630.34
234.795	20614.73
234.867	20599.5
234.939	20612.27
235.012	20600.17
235.084	20592.37
235.156	20597.23
235.228	20586.49
235.3	20576.9
235.372	20561.81
235.444	20561.38
235.516	20528.89
235.588	20518.34
235.66	20511.35
235.732	20484.46
235.804	20532.8
235.876	20530.92
235.948	20532.03
236.02	20520.75
236.092	20505.57
236.164	20496.17
236.236	20469.57
236.308	20451.79
236.38	20432.17
236.452	20392.9
236.524	20376.71
236.596	20370.01
236.668	20353.14
236.74	20333.43
236.812	20313.04
236.884	20310.34
236.956	20282.25
237.028	20256.37
237.1	20232.42
237.172	20227.55
237.244	20236.18
237.316	20174.54
237.388	20152.22
237.46	20119.93
237.532	20104.8
237.604	20071.17
237.675	20063.6
237.747	20049.48
237.819	20028.61
237.891	20007.65
237.963	19979.17
238.035	19957.63
238.107	19895.8
238.178	19883.41
238.25	19860.43
238.322	19861.68
238.394	19816.14
238.466	19794.98
238.538	19770.36
238.609	19742.6
238.681	19694.41
238.753	19650.22
238.825	19613.93
238.897	19588.29
238.968	19582.99
239.04	19552.34
239.112	19562.46
239.184	19521.55
239.255	19489.17
239.327	19465.31
239.399	19438.13
239.471	19427.82
239.542	19398.09
239.614	19396.59
239.686	19336.16
239.758	19308.94
239.829	19263.06
239.901	19255.59
239.973	19215.5
240.044	19192.08
240.116	19161.91
240.188	19138.78
240.259	19105.62
240.331	19085.29
240.403	19063.79
240.474	19020.04
240.546	18981.2
240.618	18926.26
240.689	18888.29
240.761	18868.14
240.833	18842.56
240.904	18814.08
240.976	18779.67
241.048	18756.59
241.119	18725.17
241.191	18714.8
241.262	18710.61
241.334	18671.53
241.405	18634.13
241.477	18601.9
241.549	18565.17
241.62	18541.95
241.692	18515.97
241.763	18505.52
241.835	18464.51
241.906	18425.47
241.978	18372.75
242.049	18352.17
242.121	18336.8
242.192	18322.25
242.264	18265.72
242.335	18215.22
242.407	18189.53
242.478	18156.38
242.55	18129.44
242.621	18089.63
242.693	18051.75
242.764	18001.92
242.836	17980.34
242.907	17947.76
242.979	17920.1
243.05	17901.01
243.122	17871.33
243.193	17832.15
243.264	17768.49
243.336	17744.73
243.407	17724.92
243.479	17712.97
243.55	17688.78
243.622	17659.62
243.693	17623.33
243.764	17611.09
243.836	17578.56
243.907	17538.42
243.978	17497.74
244.05	17461.4
244.121	17417.21
244.192	17392.83
244.264	17348.97
244.335	17311.86
244.407	17267.14
244.478	17251.38
244.549	17216.87
244.62	17170.03
244.692	17141.11
244.763	17118.12
244.834	17070.84
244.906	17027.42
244.977	17000.19
245.048	16977.64
245.119	16932.96
245.191	16891.85
245.262	16832.38
245.333	16818.98
245.405	16788.57
245.476	16770.78
245.547	16739.55
245.618	16711.12
245.689	16668.32
245.761	16637.91
245.832	16596.27
245.903	16572.99
245.974	16536.7
246.045	16497.8
246.117	16473.95
246.188	16428.5
246.259	16389.94
246.33	16358.18
246.401	16320.77
246.473	16273.11
246.544	16232.38
246.615	16213.1
246.686	16175.7
246.757	16163.99
246.828	16115.21
246.899	16097.91
246.97	16045.81
247.042	16004.02
247.113	15982.04
247.184	15967.68
247.255	15931.91
247.326	15906.32
247.397	15868.58
247.468	15842.65
247.539	15822.45
247.61	15782.4
247.681	15761.91
247.752	15739.16
247.823	15703.59
247.894	15673.42
247.965	15633.5
248.037	15590.37
248.108	15542.45
248.179	15512.86
248.25	15477.72
248.321	15454.44
248.392	15411.11
248.463	15404.84
248.534	15376.74
248.605	15351.58
248.675	15318.85
248.746	15297.98
248.817	15272.19
248.888	15245.44
248.959	15194.01
249.03	15160.6
249.101	15129.75
249.172	15093.94
249.243	15050.17
249.314	15039.47
249.385	15022.31
249.456	14999.41
249.527	14981.86
249.598	14952.46
249.669	14929.13
249.739	14907.15
249.81	14887.72
249.881	14850.46
249.952	14818.69
250.023	14788.61
250.094	14747.26
250.165	14704.93
250.235	14666.51
250.306	14636.44
250.377	14600.67
250.448	14575.46
250.519	14531.83
250.59	14525.37
250.66	14493.75
250.731	14476.68
250.802	14448.58
250.873	14416.38
250.944	14390.69
251.014	14351.83
251.085	14352.17
251.156	14331.68
251.227	14315.24
251.297	14292.73
251.368	14271.67
251.439	14250.07
251.51	14228.86
251.58	14191.36
251.651	14167.54
251.722	14156.99
251.792	14117.26
251.863	14094.65
251.934	14086.8
252.005	14083.71
252.075	14052.47
252.146	14042.98
252.217	14029.72
252.287	14011.5
252.358	13986.05
252.429	13983.06
252.499	13959.1
252.57	13938.47
252.641	13917.45
252.711	13890.55
252.782	13850.88
252.852	13840.17
252.923	13816.07
252.994	13797.27
253.064	13791.87
253.135	13762.8
253.205	13727.9
253.276	13727.32
253.347	13714.64
253.417	13678.2
253.488	13647.59
253.558	13622.38
253.629	13594.03
253.699	13573.3
253.77	13547.08
253.841	13517.48
253.911	13490.72
253.982	13465.27
254.052	13451.68
254.123	13432.15
254.193	13410.75
254.264	13427.19
254.334	13398.07
254.405	13366.54
254.475	13330.78
254.546	13307.78
254.616	13296.89
254.687	13278.37
254.757	13256.59
254.827	13230.31
254.898	13213.49
254.968	13194.54
255.039	13163.07
255.109	13145.13
255.18	13115.87
255.25	13080.54
255.321	13077.55
255.391	13039.42
255.461	13041.01
255.532	12990.05
255.602	12959.2
255.673	12913.69
255.743	12876.72
255.813	12832.85
255.884	12827.6
255.954	12823.02
256.024	12817.96
256.095	12793.33
256.165	12763.87
256.235	12746.81
256.306	12714.99
256.376	12706.31
256.446	12694.26
256.517	12679.8
256.587	12668.52
256.657	12644.66
256.728	12611.45
256.798	12579.15
256.868	12562.18
256.938	12525.88
257.009	12512.24
257.079	12503.37
257.149	12512.63
257.219	12472.52
257.29	12460.42
257.36	12417.47
257.43	12396.79
257.5	12351.58
257.571	12336.49
257.641	12320.68
257.711	12280.77
257.781	12275.37
257.852	12255.75
257.922	12215.45
257.992	12197.28
258.062	12177.42
258.132	12169.61
258.202	12161.71
258.273	12144.98
258.343	12137.41
258.413	12118.76
258.483	12099.76
258.553	12065.59
258.623	12028.23
258.693	12015.7
258.764	12013.43
258.834	12007.65
258.904	11983.84
258.974	11956.32
259.044	11931.93
259.114	11917.03
259.184	11903.68
259.254	11879.82
259.324	11837.99
259.394	11828.15
259.464	11818.8
259.535	11793.06
259.605	11769.2
259.675	11745.44
259.745	11730.6
259.815	11702.16
259.885	11672.18
259.955	11677.24
260.025	11649.24
260.095	11634.92
260.165	11619.84
260.235	11614.01
260.305	11587.64
260.375	11562.15
260.445	11568.7
260.515	11560.89
260.585	11554.1
260.655	11532.55
260.725	11526
260.795	11515.73
260.865	11517.42
260.934	11490.04
261.004	11479.63
261.074	11465.32
261.144	11464.31
261.214	11452.88
261.284	11430.04
261.354	11422.76
261.424	11397.02
261.494	11403.63
261.564	11384.93
261.634	11376.93
261.703	11347.09
261.773	11336.44
261.843	11330.18
261.913	11306.56
261.983	11275.52
262.053	11265.16
262.123	11249.98
262.192	11216.68
262.262	11213.26
262.332	11184.2
262.402	11173.88
262.472	11155.81
262.541	11119.96
262.611	11108.68
262.681	11086.71
262.751	11083.09
262.821	11065.07
262.89	11029.79
262.96	11017.7
263.03	11024.64
263.1	11005.41
263.169	10984.78
263.239	10973.84
263.309	10969.22
263.379	10959.96
263.448	10944.5
263.518	10928.11
263.588	10913.65
263.657	10918.71
263.727	10913.27
263.797	10893.32
263.867	10879.3
263.936	10851.4
264.006	10847.11
264.076	10827.88
264.145	10809.91
264.215	10785.14
264.285	10781.19
264.354	10752.81
264.424	10724.48
264.494	10687.52
264.563	10673.16
264.633	10672.77
264.702	10656.34
264.772	10627.72
264.842	10610.23
264.911	10601.79
264.981	10572.79
265.05	10556.5
265.12	10530.48
265.19	10510.77
265.259	10500.37
265.329	10492.99
265.398	10478.35
265.468	10481.82
265.537	10461.29
265.607	10453.34
265.676	10448.33
265.746	10428.19
265.815	10425.21
265.885	10409.36
265.955	10384.55
266.024	10359.83
266.094	10332.03
266.163	10333.91
266.232	10328.99
266.302	10307.17
266.371	10291.85
266.441	10274.07
266.51	10268.05
266.58	10251.14
266.649	10227
266.719	10226.76
266.788	10210.33
266.858	10212.98
266.927	10181.24
266.996	10171.6
267.066	10163.12
267.135	10139.32
267.205	10134.65
267.274	10123.91
267.343	10121.93
267.413	10109.6
267.482	10108.5
267.552	10100.64
267.621	10068.41
267.69	10038.88
267.76	10029.88
267.829	10024.1
267.898	10019.62
267.968	10001.75
268.037	9997.89
268.106	9988.6
268.176	9964.6
268.245	9951.31
268.314	9932.28
268.384	9930.07
268.453	9918.55
268.522	9902.37
268.592	9899.62
268.661	9876.4
268.73	9863.54
268.799	9844.9
268.869	9852.75
268.938	9830.4
269.007	9819.33
269.076	9808.3
269.146	9807.67
269.215	9797.36
269.284	9794.47
269.353	9774.15
269.422	9758.06
269.492	9737.74
269.561	9706.96
269.63	9696.7
269.699	9682.3
269.768	9676.33
269.838	9672.09
269.907	9669.83
269.976	9652.1
270.045	9620.47
270.114	9619.79
270.183	9606.6
270.253	9601.39
270.322	9570
270.391	9557.67
270.46	9555.69
270.529	9550.88
270.598	9545.77
270.667	9536.81
270.736	9516.2
270.806	9512.01
270.875	9513.21
270.944	9503.82
271.013	9522.41
271.082	9511.43
271.151	9503.53
271.22	9475.75
271.289	9457.93
271.358	9437.8
271.427	9431.16
271.496	9429.9
271.565	9408.48
271.634	9395.62
271.703	9391.67
271.772	9398.89
271.841	9387.14
271.91	9363.6
271.979	9356.76
272.048	9337.16
272.117	9330.9
272.186	9320.93
272.255	9314.96
272.324	9310.87
272.393	9306.15
272.462	9286.74
272.531	9281.35
272.6	9270.22
272.669	9271.19
272.738	9258.24
272.807	9258.28
272.876	9235.75
272.945	9258.05
273.013	9266.57
273.082	9275.04
273.151	9254.72
273.22	9247.36
273.289	9234.31
273.358	9242.16
273.427	9223.86
273.496	9222.95
273.564	9222.61
273.633	9211.63
273.702	9200.66
273.771	9183.27
273.84	9175.43
273.909	9170.18
273.977	9160.69
274.046	9145.48
274.115	9152.89
274.184	9137.59
274.253	9122.52
274.322	9127.28
274.39	9089.92
274.459	9074.85
274.528	9045.82
274.597	9037.2
274.665	9036.19
274.734	9044.23
274.803	9032.34
274.872	9036.19
274.94	9016.65
275.009	9065.19
275.078	9055.37
275.147	9046.66
275.215	9046.08
275.284	9050.27
275.353	9037.8
275.421	9017.54
275.49	9036.75
275.559	9024.9
275.627	9019.27
275.696	9015.71
275.765	9016.14
275.833	9008.2
275.902	9002.76
275.971	9014.17
276.039	9030.44
276.108	9025.92
276.177	9022.16
276.245	9006.27
276.314	8995.25
276.383	9001.22
276.451	8944.15
276.52	8955.8
276.588	8965.28
276.657	8968.65
276.725	8951.85
276.794	8954.93
276.863	8968.79
276.931	8942.41
277	8943.86
277.068	8953.1
277.137	8967.3
277.205	8964.94
277.274	8989.54
277.342	8999.7
277.411	8979.67
277.48	8968.36
277.548	8962.25
277.617	8961.24
277.685	8955.94
277.754	8957.14
277.822	8946.41
277.89	8949.06
277.959	8934.38
278.027	8919.6
278.096	8908.53
278.164	8940.59
278.233	8932.89
278.301	8915.8
278.37	8919.46
278.438	8913.1
278.507	8908.29
278.575	8881.38
278.643	8871.37
278.712	8842.01
278.78	8823.18
278.849	8835.12
278.917	8839.12
278.985	8836.56
279.054	8837.91
279.122	8852.11
279.191	8846.43
279.259	8847.73
279.327	8835.12
279.396	8848.07
279.464	8841.76
279.532	8851.25
279.601	8842.34
279.669	8839.79
279.737	8852.69
279.806	8857.36
279.874	8856.78
279.942	8860.97
280.011	8860.53
280.079	8867.8
280.147	8885.75
280.215	8889.56
280.284	8880.32
280.352	8868.91
280.42	8868.09
280.488	8857.26
280.557	8847.1
280.625	8852.78
280.693	8854.95
280.761	8853.89
280.83	8841.56
280.898	8854.42
280.966	8829.82
281.034	8804.5
281.102	8790.06
281.171	8786.45
281.239	8797.81
281.307	8788.76
281.375	8776.49
281.443	8800.99
281.512	8794.54
281.58	8801.91
281.648	8791.99
281.716	8793.58
281.784	8790.16
281.852	8783.81
281.92	8786.22
281.989	8798.92
282.057	8783.09
282.125	8812.12
282.193	8810
282.261	8803.55
282.329	8790.51
282.397	8792.96
282.465	8790.12
282.533	8805.43
282.601	8791.37
282.67	8766.34
282.738	8760.71
282.806	8772.26
282.874	8748.67
282.942	8751.9
283.01	8746.6
283.078	8752.76
283.146	8748.96
283.214	8761.04
283.282	8765.37
283.35	8773.75
283.418	8762.44
283.486	8763.45
283.554	8724.07
283.622	8716.95
283.69	8716.95
283.758	8714.83
283.826	8718.01
283.894	8731.87
283.962	8747.8
284.03	8762.43
284.098	8761.86
284.165	8752.81
284.233	8748.86
284.301	8752.95
284.369	8745.2
284.437	8726.72
284.505	8716.13
284.573	8729.66
284.641	8706.6
284.709	8711.47
284.777	8696.88
284.845	8701.26
284.912	8708.77
284.98	8716.52
285.048	8715.84
285.116	8715.89
285.184	8732.5
285.252	8739.57
285.319	8718.01
285.387	8706.31
285.455	8686.58
285.523	8690.24
285.591	8696.83
285.659	8702.85
285.726	8711.51
285.794	8705.01
285.862	8710.21
285.93	8713.92
285.997	8701.5
286.065	8705.54
286.133	8696.78
286.201	8693.03
286.269	8681.86
286.336	8669.93
286.404	8664.25
286.472	8672.24
286.539	8653.81
286.607	8639.13
286.675	8633.3
286.743	8638.35
286.81	8628.82
286.878	8642.25
286.946	8632.72
287.013	8627.62
287.081	8624.44
287.149	8609.33
287.216	8624.44
287.284	8615.2
287.352	8611.06
287.419	8620.02
287.487	8624.69
287.555	8628.63
287.622	8625.55
287.69	8629.45
287.758	8642.69
287.825	8639.85
287.893	8628.92
287.96	8636.09
288.028	8641.05
288.096	8641.82
288.163	8646.58
288.231	8645.38
288.298	8645.72
288.366	8657.22
288.433	8652.31
288.501	8641.1
288.569	8644.8
288.636	8633.3
288.704	8649.61
288.771	8663.48
288.839	8645.72
288.906	8645.91
288.974	8656.07
289.041	8653.42
289.109	8640.62
289.176	8648.9
289.244	8654.19
289.311	8665.41
289.379	8678.74
289.446	8682.44
289.514	8682.15
289.581	8682.11
289.649	8679.46
289.716	8679.8
289.783	8680.61
289.851	8703.14
289.918	8705.25
289.986	8712.09
290.053	8722.2
290.121	8717.24
290.188	8717.72
290.255	8750.21
290.323	8749.54
290.39	8740.63
290.458	8743.08
290.525	8763.63
290.592	8753.81
290.66	8753.09
290.727	8751.26
290.794	8767.1
290.862	8762.24
290.929	8763.35
290.996	8767.63
291.064	8775.33
291.131	8784.72
291.198	8790.83
291.266	8788.47
291.333	8787.65
291.4	8794.1
291.468	8807.39
291.535	8805.61
291.602	8810.09
291.669	8802.72
291.737	8806.04
291.804	8810.09
291.871	8831.6
291.938	8837.23
292.006	8869.97
292.073	8882.63
292.14	8891.49
292.207	8875.41
292.275	8884.07
292.342	8901.55
292.409	8924.03
292.476	8953.01
292.543	8949.16
292.611	8950.8
292.678	8970.2
292.745	8994.7
292.812	8999.94
292.879	8996.96
292.946	9005.67
293.014	9018.77
293.081	9023.39
293.148	9034.27
293.215	9046.4
293.282	9040.29
293.349	9047.84
293.416	9024.06
293.484	9039.9
293.551	9048.61
293.618	9071.53
293.685	9088.52
293.752	9073.84
293.819	9069.41
293.886	9051.35
293.953	9054.48
294.02	9066.76
294.087	9071.33
294.154	9067.58
294.221	9088.48
294.288	9087.32
294.356	9101.04
294.423	9099.12
294.49	9099.6
294.557	9109.27
294.624	9099.36
294.691	9117.26
294.758	9124.82
294.825	9131.9
294.892	9121.31
294.959	9117.89
295.026	9127.76
295.093	9121.5
295.16	9131.23
295.226	9129.97
295.293	9154.77
295.36	9167.38
295.427	9177.11
295.494	9182.46
295.561	9189.15
295.628	9207.88
295.695	9222.52
295.762	9225.94
295.829	9239.18
295.896	9252.47
295.963	9267.06
296.03	9275.34
296.096	9283.91
296.163	9288.2
296.23	9310.54
296.297	9326.14
296.364	9326.23
296.431	9333.12
296.498	9332.59
296.564	9352.72
296.631	9356.81
296.698	9346.55
296.765	9363.65
296.832	9353.15
296.899	9347.76
296.965	9374.77
297.032	9353.72
297.099	9372.07
297.166	9377.9
297.233	9371.25
297.299	9363.41
297.366	9359.84
297.433	9366.49
297.5	9380.36
297.566	9374.24
297.633	9370.92
297.7	9375.25
297.767	9380.4
297.833	9378.04
297.9	9385.41
297.967	9373.13
298.033	9387.34
298.1	9414.69
298.167	9405.16
298.234	9410.07
298.3	9412.14
298.367	9394.27
298.434	9399.23
298.5	9391.81
298.567	9389.26
298.634	9394.27
298.7	9411.08
298.767	9417.96
298.834	9429.23
298.9	9419.98
298.967	9421.43
299.033	9427.5
299.1	9439.05
299.167	9454.17
299.233	9452.92
299.3	9464.29
299.366	9481.86
299.433	9492.6
299.5	9466.93
299.566	9477.19
299.633	9494.04
299.699	9504.78
299.766	9503.53
299.832	9509.17
299.899	9512.97
299.965	9525.73
300.032	9519.95
300.099	9526.7
300.165	9524.48
300.232	9525.73
300.298	9527.95
300.365	9539.5
300.431	9536.81
300.498	9529.54
300.564	9530.07
300.631	9540.52
300.697	9550.44
300.763	9551.06
300.83	9545.43
300.896	9558.48
300.963	9561.99
301.029	9570.13
301.096	9573.5
301.162	9585.93
301.229	9582.56
301.295	9572.3
301.361	9570.47
301.428	9577.79
301.494	9562.09
301.561	9569.65
301.627	9566.71
301.693	9565.46
301.76	9567.53
301.826	9564.5
301.892	9575.48
301.959	9586.27
302.025	9581.07
302.092	9577.79
302.158	9578.61
302.224	9587.76
302.291	9578.03
302.357	9579.43
302.423	9569.36
302.49	9561.61
302.556	9570.86
302.622	9566.91
302.688	9580.01
302.755	9597.06
302.821	9604.62
302.887	9610.44
302.954	9610.64
303.02	9622.29
303.086	9627.97
303.152	9627.4
303.219	9626.19
303.285	9628.07
303.351	9634.14
303.417	9633.47
303.483	9622.05
303.55	9615.02
303.616	9612.18
303.682	9613.96
303.748	9602.74
303.815	9617.19
303.881	9630.24
303.947	9614.11
304.013	9613.53
304.079	9608.91
304.145	9587.43
304.212	9582.08
304.278	9581.7
304.344	9573.36
304.41	9562
304.476	9556.51
304.542	9550.34
304.608	9559.83
304.674	9547.12
304.741	9539.17
304.807	9542.83
304.873	9553.91
304.939	9570.04
305.005	9549.14
305.071	9547.07
305.137	9544.37
305.203	9518.65
305.269	9509.55
305.335	9524.05
305.401	9527.85
305.467	9520.19
305.533	9527.51
305.599	9531.66
305.666	9536.66
305.732	9543.65
305.798	9548.7
305.864	9572.3
305.93	9576.69
305.996	9575.05
306.062	9574.66
306.128	9569.94
306.194	9561.18
306.259	9555.4
306.325	9550.49
306.391	9563.78
306.457	9566.52
306.523	9576.4
306.589	9600.28
306.655	9596.29
306.721	9578.37
306.787	9562.72
306.853	9575.15
306.919	9561.95
306.985	9558.77
307.051	9554.29
307.117	9545.43
307.183	9541.24
307.248	9512.54
307.314	9516.34
307.38	9512.83
307.446	9512.73
307.512	9500.5
307.578	9501.22
307.644	9502.28
307.709	9496.93
307.775	9493.9
307.841	9490.58
307.907	9487.54
307.973	9467.12
308.039	9470.59
308.104	9476.8
308.17	9480.51
308.236	9470.11
308.302	9471.31
308.368	9459.56
308.433	9458.41
308.499	9451.18
308.565	9441.7
308.631	9439.92
308.696	9416.99
308.762	9405.73
308.828	9407.99
308.894	9395.28
308.959	9377.7
309.025	9366.29
309.091	9366.15
309.156	9353.19
309.222	9356.13
309.288	9343.22
309.354	9322.95
309.419	9315.39
309.485	9301.62
309.551	9302.15
309.616	9282.99
309.682	9277.26
309.748	9267.82
309.813	9264.26
309.879	9255.11
309.945	9245.67
310.01	9237.97
310.076	9241.1
310.141	9237.15
310.207	9220.15
310.273	9225.06
310.338	9229.88
310.404	9210.96
310.469	9192.61
310.535	9187.94
310.601	9169.35
310.666	9172.48
310.732	9178.55
310.797	9163.91
310.863	9151.73
310.928	9149.57
310.994	9148.6
311.059	9147.74
311.125	9145.71
311.191	9147.88
311.256	9133.58
311.322	9136.95
311.387	9117.79
311.453	9455.59
311.518	9429.21
311.584	9429.31
311.649	9430.41
311.715	9417.32
311.78	9420.16
311.846	9409.52
311.911	9410.39
311.976	9405.57
312.042	9387.42
312.107	9371.87
312.173	9363.21
312.238	9365.04
312.304	9349.15
312.369	9345.06
312.434	9326.57
312.5	9323.92
312.565	9292.05
312.631	9297.59
312.696	9286.66
312.761	9287.19
312.827	8932.59
312.892	8965.66
312.958	8957.48
313.023	8949.92
313.088	8949.82
313.154	8934.95
313.219	8930.23
313.284	8918.78
313.35	8915.5
313.415	8906.12
313.48	8903.42
313.546	8905.49
313.611	8906.45
313.676	8899.04
313.741	8888.35
313.807	8900.77
313.872	8902.55
313.937	8911.89
314.003	8923.35
314.068	8925.71
314.133	8930.52
314.198	8931.77
314.264	8912.9
314.329	8906.55
314.394	8902.21
314.459	8895.43
314.525	8907.6
314.59	8903.56
314.655	8890.61
314.72	8895.14
314.785	8902.74
314.851	8896.58
314.916	8885.99
314.981	8870.3
315.046	8866.55
315.111	8857.98
315.176	8844.36
315.242	8841.23
315.307	8840.84
315.372	8818.99
315.437	8808.3
315.502	8804.31
315.567	8810.71
315.632	8795.11
315.698	8792.18
315.763	8786.88
315.828	8779.66
315.893	8777.69
315.958	8773.93
316.023	8764.5
316.088	8743.61
316.153	8712.91
316.218	8705.07
316.283	8683.65
316.348	8670.9
316.413	8671.28
316.479	8658.05
316.544	8621.67
316.609	8589.09
316.674	8547.81
316.739	8514.51
316.804	8481.4
316.869	8438.63
316.934	8396.95
316.999	8369.77
317.064	8314.78
317.129	8267.91
317.194	8226.59
317.259	8175.2
317.324	8126.33
317.389	8082.32
317.454	8044.94
317.518	8016.08
317.583	7986.88
317.648	7963.21
317.713	7922.52
317.778	7858.31
317.843	7824.16
317.908	7788.82
317.973	7746.79
318.038	7717.12
318.103	7676.59
318.168	7643.74
318.233	7619.65
318.297	7568.5
318.362	7524.89
318.427	7489.61
318.492	7466.29
318.557	7421.55
318.622	7391.17
318.687	7358.87
318.751	7319.08
318.816	7284.91
318.881	7246.22
318.946	7195.32
319.011	7148.51
319.075	7108.67
319.14	7070.43
319.205	7025.69
319.27	6991.44
319.335	6950.94
319.399	6908.09
319.464	6881.43
319.529	6823.45
319.594	6777.62
319.658	6746.55
319.723	6706.25
319.788	6675.86
319.853	6618.75
319.917	6587.3
319.982	6536.06
320.047	6497.99
320.112	6470.62
320.176	6418.92
320.241	6381.33
320.306	6348.06
320.37	6306.83
320.435	6272.74
320.5	6238.67
320.564	6199.36
320.629	6156.27
320.694	6126.23
320.758	6082.52
320.823	6036.79
320.888	6012.85
320.952	5969.53
321.017	5926.93
321.082	5887.12
321.146	5851.67
321.211	5816.13
321.275	5776.95
321.34	5738.88
321.405	5694.09
321.469	5646.96
321.534	5606.89
321.598	5557.13
321.663	5523.22
321.727	5488.32
321.792	5436.94
321.857	5394.14
321.921	5358.19
321.986	5313.73
322.05	5253.17
322.115	5220.01
322.179	5173.45
322.244	5116.73
322.308	5080.37
322.373	5034.97
322.437	4990.57
322.502	4963.74
322.566	4916.86
322.631	4882.91
322.695	4837.52
322.76	4796.5
322.824	4762.94
322.889	4724.27
322.953	4682.68
323.018	4619.55
323.082	4558.74
323.146	4508.94
323.211	4461.1
323.275	4410.34
323.34	4371.07
323.404	4337.74
323.468	4289.95
323.533	4247.35
323.597	4202.14
323.662	4149.25
323.726	4113.49
323.79	4067.79
323.855	4000.89
323.919	3954.3
323.983	3903.49
324.048	3844.12
324.112	3966.13
324.177	3835.86
324.241	3631.87
324.305	3435.19
324.37	3241.95
324.434	3056.27
324.498	3014.52
324.562	2964.05
324.627	2907.3
324.691	2849.07
324.755	2782.3
324.82	2707.77
324.884	2632.34
324.948	2562.2
325.012	2469.84
325.077	2348.11
