Data from 20250630_urea_2M_MAYP1162681_11-22-27-150.txt Node
Date: Tue Jul 01 11:22:27 BST 2025
User: adleo
Spectrometer: MAYP116268
Trigger mode: 0
Integration Time (sec): 1.000000E0
Scans to average: 1
Electric dark correction enabled: true
Nonlinearity correction enabled: true
Boxcar width: 10
XAxis mode: Wavelengths
Number of Pixels in Spectrum: 2068
>>>>>Begin Spectral Data<<<<<
179.565	1119.61
179.642	1171.57
179.718	1211.69
179.795	1247.87
179.871	1274.5
179.948	1289.7
180.024	1308.63
180.101	1329.61
180.177	1344.54
180.254	1366.17
180.33	1388.82
180.407	1435.82
180.483	1524.89
180.56	1608.32
180.636	1684.42
180.712	1669.87
180.789	1680.47
180.865	1693.39
180.942	1701.61
181.018	1712.3
181.095	1725.99
181.171	1730.88
181.248	1731.12
181.324	1744.81
181.4	1750.75
181.477	1763.82
181.553	1776.31
181.63	1795.94
181.706	1811.77
181.782	1817.42
181.859	1816.95
181.935	1821.56
182.011	1817.94
182.088	1829.73
182.164	1846.28
182.24	1860.53
182.317	1870.8
182.393	1869.71
182.469	1882.78
182.546	1893.71
182.622	1895.94
182.698	1893.04
182.775	1904.5
182.851	1917.57
182.927	1911.25
183.003	1907.92
183.08	1903.41
183.156	1914.01
183.232	1910.73
183.308	1898.99
183.385	1906.97
183.461	1921.95
183.537	1920.81
183.613	1931.6
183.69	1926.51
183.766	1917.33
183.842	1925.94
183.918	1932.07
183.995	1942.15
184.071	1945
184.147	1939.34
184.223	1929.22
184.299	1936.5
184.375	1927.66
184.452	1932.6
184.528	1987.83
184.604	1997.52
184.68	2005.23
184.756	2008.7
184.832	2011.79
184.908	2016.02
184.985	2014.73
185.061	2000.19
185.137	2009.7
185.213	2000.43
185.289	2003.14
185.365	1995.67
185.441	1995.53
185.517	2005.81
185.593	2005.57
185.669	2000.05
185.745	2012.03
185.822	2029.48
185.898	2022.77
185.974	2028.72
186.05	2021.72
186.126	1977.58
186.202	1971.87
186.278	1969.07
186.354	1960.98
186.43	1970.31
186.506	1968.79
186.582	1970.74
186.658	1976.87
186.734	1955.38
186.81	1956.52
186.886	1957.23
186.962	1971.64
187.038	1965.51
187.114	1959.8
187.19	1967.31
187.266	1963.46
187.341	1963.56
187.417	1956.33
187.493	1956.09
187.569	1961.37
187.645	1956.52
187.721	1949.01
187.797	1956.28
187.873	1961.7
187.949	1957.14
188.025	1949.19
188.101	1951.52
188.176	1955.42
188.252	1951.9
188.328	1960.93
188.404	1961.36
188.48	1956.28
188.556	1946.96
188.632	1947.24
188.707	1947.15
188.783	1944.1
188.859	1938.16
188.935	1924.09
189.011	1933.4
189.086	1928.75
189.162	1919.62
189.238	1917.15
189.314	1916.48
189.39	1908.21
189.465	1900.98
189.541	1916.01
189.617	1901.74
189.693	1897.75
189.768	1899.04
189.844	1924.24
189.92	1917.59
189.996	1926.91
190.071	1939.37
190.147	1939.6
190.223	1947.74
190.298	1940.22
190.374	1926.53
190.45	1938.89
190.526	1950.21
190.601	1941.69
190.677	1941.79
190.753	1966.91
190.828	1970.42
190.904	1981.36
190.98	1997.53
191.055	2007.32
191.131	1999.34
191.207	2017.88
191.282	2028.95
191.358	2021.35
191.433	2003.93
191.509	2015.34
191.585	2010.54
191.66	2010.49
191.736	2018.1
191.811	2009.06
191.887	2023.48
191.963	2046.73
192.038	2049.35
192.114	2049.06
192.189	2055.05
192.265	2051.54
192.34	2032.5
192.416	2032.74
192.491	2029.65
192.567	2031.84
192.642	2034.93
192.718	2036.07
192.793	2026.23
192.869	2020.38
192.944	2022.99
193.02	2031.79
193.095	2036.22
193.171	2041.07
193.246	2041.3
193.322	2041.07
193.397	2043.68
193.473	2032.17
193.548	2012.81
193.624	2016.85
193.699	2013.62
193.775	2029.46
193.85	2034.17
193.925	2040.26
194.001	2037.21
194.076	2030.51
194.152	2019.71
194.227	2012.01
194.302	2000.79
194.378	2002.98
194.453	2001.22
194.529	2012.39
194.604	2001.07
194.679	1994.89
194.755	1980.25
194.83	1990.57
194.905	1988.86
194.981	1994.95
195.056	1988.2
195.131	1993.76
195.207	1995.14
195.282	1986.82
195.357	1966.6
195.433	1980.63
195.508	1971.17
195.583	1979.73
195.659	1993.9
195.734	2002.03
195.809	2001.08
195.884	2010.83
195.96	2014.77
196.035	2031.42
196.11	2027.04
196.185	2036.55
196.261	2039.79
196.336	2067.56
196.411	2055.62
196.486	2057.14
196.561	2049.53
196.637	2058
196.712	2077.26
196.787	2078.22
196.862	2094.24
196.937	2102.61
197.013	2107.13
197.088	2116.02
197.163	2137.82
197.238	2152
197.313	2153.52
197.388	2166.27
197.464	2195.54
197.539	2201.25
197.614	2192.02
197.689	2201.77
197.764	2215.86
197.839	2237.17
197.914	2231.37
197.989	2251.26
198.065	2266.2
198.14	2315.48
198.215	2338.32
198.29	2346.98
198.365	2360.79
198.44	2369.88
198.515	2398.96
198.59	2412.39
198.665	2437.28
198.74	2441.57
198.815	2446.71
198.89	2463.56
198.965	2494.14
199.04	2493.47
199.115	2510.8
199.19	2551.12
199.265	2555.6
199.34	2564.6
199.415	2596.52
199.49	2620.33
199.565	2632.38
199.64	2651.33
199.715	2646.76
199.79	2657.71
199.865	2664.53
199.94	2661.62
200.015	2691.35
200.09	2695.78
200.165	2702.07
200.24	2707.93
200.315	2750.22
200.39	2762.94
200.464	2774.28
200.539	2775.33
200.614	2786.57
200.689	2807.54
200.764	2815.64
200.839	2837.84
200.914	2844.27
200.989	2833.25
201.063	2844.5
201.138	2826.07
201.213	2830.5
201.288	2815.35
201.363	2816.55
201.438	2816.21
201.512	2833.26
201.587	2819.49
201.662	2822.59
201.737	2835.31
201.812	2845.18
201.886	2808.27
201.961	2814.7
202.036	2801.56
202.111	2797.08
202.186	2770.55
202.26	2756.4
202.335	2733.86
202.41	2725.76
202.485	2707.99
202.559	2687.98
202.634	2661.69
202.709	2670.78
202.784	2650.97
202.858	2651.82
202.933	2636.2
203.008	2629.2
203.082	2608.77
203.157	2606.38
203.232	2562.4
203.306	2540.53
203.381	2510.71
203.456	2492.85
203.53	2472.79
203.605	2456.94
203.68	2436.27
203.754	2429.99
203.829	2414.89
203.904	2395.04
203.978	2381.28
204.053	2386.33
204.127	2377.14
204.202	2379.09
204.277	2361.39
204.351	2353.53
204.426	2345.87
204.5	2338.35
204.575	2308.27
204.65	2316.84
204.724	2312.08
204.799	2322.83
204.873	2319.97
204.948	2318.54
205.022	2307.89
205.097	2300.5
205.171	2310.21
205.246	2315.97
205.32	2313.83
205.395	2314.59
205.469	2308.6
205.544	2315.12
205.618	2299.13
205.693	2308.22
205.767	2293.99
205.842	2315.8
205.916	2312.27
205.991	2300.47
206.065	2305.95
206.14	2318.03
206.214	2314.98
206.289	2306.93
206.363	2317.97
206.438	2321.73
206.512	2324.26
206.586	2341.91
206.661	2347.86
206.735	2326.17
206.81	2330.12
206.884	2344.4
206.958	2331.36
207.033	2345.73
207.107	2352.78
207.181	2384.87
207.256	2376.49
207.33	2395.67
207.405	2407.68
207.479	2425.53
207.553	2436.14
207.628	2421.34
207.702	2433.77
207.776	2427.29
207.851	2430.39
207.925	2444.15
207.999	2440.39
208.073	2442.58
208.148	2445.96
208.222	2435.25
208.296	2466.46
208.371	2481.95
208.445	2494.57
208.519	2525.08
208.593	2537.65
208.668	2533.32
208.742	2531.94
208.816	2538.31
208.89	2548.55
208.965	2546.79
209.039	2554.32
209.113	2568.08
209.187	2585.07
209.261	2579.12
209.336	2597.98
209.41	2617.7
209.484	2617.94
209.558	2636.89
209.632	2651.13
209.707	2662.04
209.781	2680.71
209.855	2694.91
209.929	2710.31
210.003	2713.5
210.077	2709.5
210.151	2752.04
210.226	2785.31
210.3	2810.25
210.374	2834.11
210.448	2840.21
210.522	2849.46
210.596	2862.38
210.67	2870.72
210.744	2916.1
210.818	2951.78
210.892	2969.9
210.966	2965.51
211.041	2982.77
211.115	2986.72
211.189	3007.94
211.263	3021.57
211.337	3031.15
211.411	3044.22
211.485	3039.11
211.559	3053.17
211.633	3056.6
211.707	3032.08
211.781	3042.53
211.855	3011.4
211.929	3002.87
212.003	2989.53
212.077	3001.31
212.151	3010.51
212.225	3024.34
212.299	3015.8
212.373	3003.93
212.447	3004.69
212.52	3033.4
212.594	3039.79
212.668	3048.61
212.742	3038.5
212.816	3041.07
212.89	3039.4
212.964	3046.7
213.038	3054.67
213.112	3072.13
213.186	3094.15
213.26	3082.48
213.333	3043.8
213.407	3062.49
213.481	3073.31
213.555	3095.28
213.629	3095.75
213.703	3092.8
213.777	3103.67
213.85	3101.57
213.924	3149.58
213.998	3166.95
214.072	3178.64
214.146	3185.61
214.219	3204.55
214.293	3221.29
214.367	3240.04
214.441	3272.72
214.515	3282.17
214.588	3282.22
214.662	3273.82
214.736	3281.46
214.81	3314.55
214.883	3350.03
214.957	3364.72
215.031	3383.37
215.105	3388.43
215.178	3406.71
215.252	3429.86
215.326	3439.4
215.4	3453.29
215.473	3440.2
215.547	3453.29
215.621	3477.18
215.694	3516.82
215.768	3534.49
215.842	3561.8
215.915	3586.12
215.989	3601.97
216.063	3630.4
216.136	3675.73
216.21	3718.09
216.284	3767.2
216.357	3808.77
216.431	3849.86
216.504	3899.45
216.578	3970.25
216.652	4028
216.725	4075.37
216.799	4134.28
216.873	4179.69
216.946	4241.17
217.02	4288.49
217.093	4340.48
217.167	4368.84
217.24	4408.18
217.314	4456.05
217.387	4504.79
217.461	4560.3
217.535	4633.77
217.608	4683.3
217.682	4737.69
217.755	4808.69
217.829	4862.56
217.902	4923.9
217.976	4983.8
218.049	5039.93
218.123	5084.16
218.196	5150.64
218.27	5208.57
218.343	5256.16
218.417	5331.25
218.49	5393.6
218.563	5475.41
218.637	5546.32
218.71	5635.35
218.784	5707.24
218.857	5783.72
218.931	5855.45
219.004	5920.87
219.077	5986.85
219.151	6061.15
219.224	6132.46
219.298	6196.24
219.371	6272.22
219.444	6326.59
219.518	6395.13
219.591	6465.01
219.665	6559.63
219.738	6630.93
219.811	6691.71
219.885	6770.52
219.958	6848.05
220.031	6912.17
220.105	6984.48
220.178	7058.62
220.251	7124.61
220.325	7201.7
220.398	7281.91
220.471	7359.77
220.544	7446.48
220.618	7510.81
220.691	7586.14
220.764	7658.74
220.838	7738.03
220.911	7807.33
220.984	7903.74
221.057	7988.09
221.131	8073.8
221.204	8121.14
221.277	8216.2
221.35	8320.5
221.424	8391.8
221.497	8462.59
221.57	8542.74
221.643	8626.77
221.716	8702.62
221.79	8768.99
221.863	8837.38
221.936	8901.69
222.009	8972.93
222.082	9044.61
222.155	9114.08
222.229	9204.16
222.302	9275.75
222.375	9344.37
222.448	9422.61
222.521	9490.13
222.594	9551.67
222.667	9601.89
222.74	9680
222.814	9742.14
222.887	9804.33
222.96	9884.52
223.033	9956.05
223.106	10025.51
223.179	10085.82
223.252	10153.22
223.325	10222.3
223.398	10291.09
223.471	10364.71
223.544	10427
223.617	10489.15
223.69	10556.7
223.763	10599.24
223.837	10665.2
223.91	10727.51
223.983	10766.97
224.056	10816.17
224.129	10887.72
224.202	10960.38
224.275	11010.5
224.348	11055.41
224.42	11098.01
224.493	11139.8
224.566	11191.7
224.639	11253.1
224.712	11308.18
224.785	11362.55
224.858	11413.25
224.931	11468
225.004	11511.38
225.077	11571
225.15	11598.9
225.223	11655.63
225.296	11742.63
225.369	11786.01
225.442	11838.74
225.514	11906.99
225.587	11972.55
225.66	12029.91
225.733	12092.42
225.806	12154.27
225.879	12208.11
225.952	12269.37
226.025	12343.9
226.097	12423.24
226.17	12484.36
226.243	12523.84
226.316	12580.29
226.389	12644.5
226.461	12701.14
226.534	12763.8
226.607	12822.81
226.68	12909.72
226.753	12966.27
226.825	12997.55
226.898	13073.43
226.971	13128.43
227.044	13194.33
227.117	13249.91
227.189	13310.65
227.262	13381.71
227.335	13451.08
227.407	13513.65
227.48	13563.64
227.553	13616.81
227.626	13662.56
227.698	13711.97
227.771	13778.73
227.844	13831.23
227.916	13889.22
227.989	13930.78
228.062	13985.78
228.134	14056.26
228.207	14103.35
228.28	14150.84
228.352	14203.91
228.425	14251.59
228.498	14321.15
228.57	14360.63
228.643	14427.39
228.716	14475.6
228.788	14515.75
228.861	14548.15
228.934	14599.92
229.006	14655.06
229.079	14698.01
229.151	14736.53
229.224	14774.71
229.296	14826.04
229.369	14897.53
229.442	14955.37
229.514	14999.82
229.587	15054.14
229.659	15085.96
229.732	15142.11
229.804	15194.94
229.877	15259.2
229.949	15314.77
230.022	15370.11
230.094	15417.34
230.167	15465.83
230.239	15499.33
230.312	15534.76
230.384	15608.75
230.457	15660.28
230.529	15705.15
230.602	15762.37
230.674	15816.11
230.747	15876.6
230.819	15937.04
230.892	15947.79
230.964	15998.54
231.037	16052.19
231.109	16093.79
231.181	16144.49
231.254	16169.36
231.326	16212.93
231.399	16255.92
231.471	16289.37
231.544	16307.21
231.616	16349.67
231.688	16391.84
231.761	16436.76
231.833	16481.44
231.905	16501.06
231.978	16547.9
232.05	16595.67
232.122	16631.14
232.195	16661.16
232.267	16707.86
232.339	16726.23
232.412	16778.86
232.484	16807.68
232.556	16835.97
232.629	16897.56
232.701	16939.73
232.773	16982.14
232.846	17012.94
232.918	17039.69
232.99	17072.51
233.062	17116.46
233.135	17152.61
233.207	17168.56
233.279	17199.26
233.351	17232.18
233.424	17258.83
233.496	17272.56
233.568	17313.09
233.64	17324.32
233.713	17342.3
233.785	17355.36
233.857	17387.74
233.929	17392.66
234.001	17426.97
234.074	17467.94
234.146	17466.78
234.218	17486.2
234.29	17509.67
234.362	17527.12
234.434	17536.85
234.507	17544.66
234.579	17539.6
234.651	17556.13
234.723	17579.31
234.795	17604.9
234.867	17616.42
234.939	17640.22
235.012	17660.32
235.084	17683.4
235.156	17709.62
235.228	17727.31
235.3	17741.09
235.372	17753.43
235.444	17780.51
235.516	17773.43
235.588	17784.85
235.66	17788.8
235.732	17787.31
235.804	17851.64
235.876	17873.04
235.948	17899.54
236.02	17909.81
236.092	17929.52
236.164	17939.78
236.236	17938.53
236.308	17934.14
236.38	17948.36
236.452	17954.87
236.524	17963.64
236.596	17976.02
236.668	17989.37
236.74	17998.38
236.812	18014.82
236.884	18026.67
236.956	18041.51
237.028	18034.81
237.1	18025.08
237.172	18051.25
237.244	18076.31
237.316	18036.79
237.388	18033.03
237.46	18029.47
237.532	18054.33
237.604	18050.86
237.675	18062.81
237.747	18074.14
237.819	18074.38
237.891	18075.97
237.963	18062.62
238.035	18057.61
238.107	18012.5
238.178	18022.43
238.25	18014.14
238.322	18031.3
238.394	18007.73
238.466	17988.84
238.538	17998.96
238.609	18004.74
238.681	17974.62
238.753	17956.89
238.825	17951.59
238.897	17942.96
238.968	17943.64
239.04	17916.07
239.112	17940.75
239.184	17920.51
239.255	17904.07
239.327	17900.31
239.399	17883.21
239.471	17884.8
239.542	17873.9
239.614	17888.12
239.686	17852.6
239.758	17850.68
239.829	17824.17
239.901	17826.1
239.973	17815.98
240.044	17802.97
240.116	17787.21
240.188	17779.84
240.259	17760.66
240.331	17739.93
240.403	17732.99
240.474	17709.72
240.546	17699.74
240.618	17659.84
240.689	17642.97
240.761	17632.85
240.833	17628.71
240.904	17616.08
240.976	17593.96
241.048	17578.63
241.119	17562.97
241.191	17545.43
241.262	17539.74
241.334	17512.66
241.405	17488.85
241.477	17467.55
241.549	17449.05
241.62	17435.6
241.692	17422.78
241.763	17416.95
241.835	17398.68
241.906	17374.73
241.978	17339.17
242.049	17324.61
242.121	17317.57
242.192	17314.73
242.264	17277.53
242.335	17241.09
242.407	17227.74
242.478	17199.74
242.55	17174.97
242.621	17144.66
242.693	17124.37
242.764	17096.8
242.836	17072.41
242.907	17066.68
242.979	17056.17
243.05	17036.07
243.122	17016.65
243.193	16993.33
243.264	16952.36
243.336	16923.88
243.407	16912.79
243.479	16908.41
243.55	16891.35
243.622	16867.92
243.693	16839.78
243.764	16833.61
243.836	16799.05
243.907	16769.99
243.978	16754.18
244.05	16745.17
244.121	16707.53
244.192	16689.94
244.264	16655.19
244.335	16633.55
244.407	16587.52
244.478	16563.37
244.549	16533.06
244.62	16493.49
244.692	16464.96
244.763	16444.09
244.834	16409.77
244.906	16377.29
244.977	16354.73
245.048	16336.03
245.119	16302.49
245.191	16262.19
245.262	16218.43
245.333	16212.84
245.405	16184.69
245.476	16161.27
245.547	16130.42
245.618	16114.13
245.689	16078.65
245.761	16054.55
245.832	16030.7
245.903	16018.16
245.974	15986.59
246.045	15949.87
246.117	15939.55
246.188	15897.96
246.259	15858.19
246.33	15833.99
246.401	15805.89
246.473	15771.14
246.544	15734.94
246.615	15713.79
246.686	15684.19
246.757	15670.65
246.828	15632.57
246.899	15617.24
246.97	15574.24
247.042	15538.14
247.113	15522.77
247.184	15520.79
247.255	15483.53
247.326	15451.19
247.397	15418.41
247.468	15395.13
247.539	15378.5
247.61	15335.5
247.681	15324.9
247.752	15311.45
247.823	15274.33
247.894	15246.67
247.965	15195.96
248.037	15163.9
248.108	15122.74
248.179	15094.83
248.25	15064.36
248.321	15039.59
248.392	14997.36
248.463	14988.15
248.534	14967.62
248.605	14937.97
248.675	14905.39
248.746	14889.96
248.817	14868.27
248.888	14839.88
248.959	14788.74
249.03	14766.03
249.101	14744.53
249.172	14706.79
249.243	14661.14
249.314	14659.5
249.385	14640.41
249.456	14616.41
249.527	14586.61
249.598	14567.43
249.669	14544.05
249.739	14524.53
249.81	14502.35
249.881	14468.85
249.952	14447.45
250.023	14412.74
250.094	14373.4
250.165	14334.65
250.235	14307.03
250.306	14281.67
250.377	14243.39
250.448	14235.73
250.519	14187.28
250.59	14176.73
250.66	14145.78
250.731	14141.92
250.802	14115.89
250.873	14090.58
250.944	14078.29
251.014	14046.28
251.085	14037.51
251.156	14005.55
251.227	13995.13
251.297	13982.84
251.368	13972.33
251.439	13943.07
251.51	13928.08
251.58	13893.61
251.651	13870.18
251.722	13856.44
251.792	13812.82
251.863	13792.43
251.934	13780.47
252.005	13786.3
252.075	13755.55
252.146	13749.47
252.217	13733.37
252.287	13715.63
252.358	13684.64
252.429	13676.39
252.499	13650.79
252.57	13622.55
252.641	13622.11
252.711	13586.97
252.782	13546.67
252.852	13532.45
252.923	13517.21
252.994	13491.09
253.064	13484.58
253.135	13453.97
253.205	13418.54
253.276	13419.93
253.347	13415.93
253.417	13379.49
253.488	13345.41
253.558	13313.93
253.629	13279.8
253.699	13254.83
253.77	13234.58
253.841	13210.91
253.911	13189.46
253.982	13167.28
254.052	13157.26
254.123	13128.24
254.193	13109.44
254.264	13128.67
254.334	13098.64
254.405	13055.59
254.475	13025.46
254.546	13002.71
254.616	12994.27
254.687	12981.88
254.757	12959.76
254.827	12931.75
254.898	12915.74
254.968	12897.62
255.039	12874.82
255.109	12864.94
255.18	12844.35
255.25	12800.34
255.321	12780.09
255.391	12742.93
255.461	12742.54
255.532	12696.22
255.602	12668.55
255.673	12630.56
255.743	12592.96
255.813	12552.18
255.884	12548.85
255.954	12544.23
256.024	12539.4
256.095	12511.64
256.165	12479
256.235	12456.2
256.306	12432.1
256.376	12424.53
256.446	12408.05
256.517	12391.85
256.587	12386.55
256.657	12361.96
256.728	12340.23
256.798	12325.48
256.868	12298
256.938	12269.75
257.009	12262.81
257.079	12254.52
257.149	12259.15
257.219	12217.36
257.29	12201.88
257.36	12166.36
257.43	12151.37
257.5	12104.76
257.571	12085.33
257.641	12072.56
257.711	12050.43
257.781	12036.21
257.852	12021.9
257.922	11987.05
257.992	11965.93
258.062	11936.43
258.132	11926.07
258.202	11903.95
258.273	11881.25
258.343	11883.99
258.413	11861.63
258.483	11837.96
258.553	11805.33
258.623	11772.99
258.693	11756.94
258.764	11751.78
258.834	11753.18
258.904	11734.43
258.974	11709.75
259.044	11684.83
259.114	11666.18
259.184	11650.42
259.254	11623.53
259.324	11576
259.394	11571.57
259.464	11578.27
259.535	11556.24
259.605	11525.64
259.675	11508.91
259.745	11493.1
259.815	11463.46
259.885	11436.57
259.955	11441.82
260.025	11419.22
260.095	11397.77
260.165	11391.8
260.235	11387.27
260.305	11355.94
260.375	11326.49
260.445	11336.47
260.515	11335.41
260.585	11326.88
260.655	11302.63
260.725	11302.25
260.795	11297.62
260.865	11289.82
260.934	11255.98
261.004	11248.7
261.074	11233.14
261.144	11228.85
261.214	11224.61
261.284	11208.42
261.354	11198.92
261.424	11172.27
261.494	11166.63
261.564	11147.64
261.634	11132.08
261.703	11100.27
261.773	11085.14
261.843	11070.49
261.913	11051.74
261.983	11020.42
262.053	11013.24
262.123	10996.71
262.192	10961.48
262.262	10952.71
262.332	10926.35
262.402	10911.22
262.472	10890.31
262.541	10859.28
262.611	10852.19
262.681	10829.83
262.751	10820.19
262.821	10802.61
262.89	10770.18
262.96	10764.1
263.03	10766.9
263.1	10756.1
263.169	10736.25
263.239	10725.6
263.309	10728.45
263.379	10713.22
263.448	10699.01
263.518	10681.56
263.588	10665.76
263.657	10668.07
263.727	10664.75
263.797	10647.98
263.867	10644.89
263.936	10618.83
264.006	10613.19
264.076	10600.08
264.145	10573.58
264.215	10551.66
264.285	10548.82
264.354	10521.94
264.424	10500.83
264.494	10475.44
264.563	10454.53
264.633	10463.2
264.702	10457.47
264.772	10421.14
264.842	10400.08
264.911	10389.05
264.981	10362.6
265.05	10353.59
265.12	10333.26
265.19	10314.23
265.259	10308.59
265.329	10284.74
265.398	10272.94
265.468	10288.55
265.537	10264.07
265.607	10265.33
265.676	10259.4
265.746	10245.33
265.815	10246.39
265.885	10225.34
265.955	10197.84
266.024	10177.79
266.094	10140.17
266.163	10136.41
266.232	10137.13
266.302	10125.53
266.371	10117.29
266.441	10109.39
266.51	10097.44
266.58	10082.32
266.649	10056.3
266.719	10056.01
266.788	10048.59
266.858	10049.27
266.927	10007.98
266.996	9998.78
267.066	9985.73
267.135	9958.18
267.205	9950.28
267.274	9932.36
267.343	9932.02
267.413	9924.07
267.482	9928.41
267.552	9934
267.621	9899.12
267.69	9874.41
267.76	9867.33
267.829	9857.55
267.898	9842.48
267.968	9818.78
268.037	9812.66
268.106	9815.55
268.176	9785.4
268.245	9776.49
268.314	9765.89
268.384	9768.01
268.453	9748.02
268.522	9738.24
268.592	9744.12
268.661	9727.21
268.73	9719.65
268.799	9699.96
268.869	9706.7
268.938	9673.13
269.007	9651.36
269.076	9643.37
269.146	9643.17
269.215	9631.9
269.284	9632.1
269.353	9614.18
269.422	9605.56
269.492	9588.61
269.561	9543.87
269.63	9536.89
269.699	9522.15
269.768	9502.07
269.838	9488.92
269.907	9493.4
269.976	9464.99
270.045	9430.61
270.114	9427.96
270.183	9422.28
270.253	9416.26
270.322	9391.65
270.391	9386.88
270.46	9389.87
270.529	9386.88
270.598	9382.5
270.667	9369.98
270.736	9343.97
270.806	9336.17
270.875	9339.21
270.944	9322.12
271.013	9343.2
271.082	9336.61
271.151	9320.67
271.22	9294.28
271.289	9278.3
271.358	9260.82
271.427	9260
271.496	9256.78
271.565	9238.43
271.634	9224.56
271.703	9250.04
271.772	9249.17
271.841	9233.43
271.91	9211.52
271.979	9203.14
272.048	9177.96
272.117	9176.9
272.186	9162.55
272.255	9164.09
272.324	9157.88
272.393	9157.55
272.462	9141.46
272.531	9132.8
272.6	9123.26
272.669	9136.16
272.738	9129.71
272.807	9128.7
272.876	9106.94
272.945	9125.77
273.013	9128.18
273.082	9129.91
273.151	9083.2
273.22	9080.51
273.289	9072.03
273.358	9082.39
273.427	9071.84
273.496	9075.36
273.564	9067.22
273.633	9072.42
273.702	9050.42
273.771	9038.05
273.84	9032.22
273.909	9031.64
273.977	9024.47
274.046	9013.64
274.115	9019.22
274.184	9003.87
274.253	8994.19
274.322	9004.11
274.39	8976.19
274.459	8960.15
274.528	8938.3
274.597	8934.79
274.665	8927.95
274.734	8934.01
274.803	8921.01
274.872	8913.22
274.94	8890.06
275.009	8943.43
275.078	8929.13
275.147	8934.38
275.215	8932.64
275.284	8942.41
275.353	8931.05
275.421	8908.48
275.49	8919.21
275.559	8894.18
275.627	8890.43
275.696	8878.92
275.765	8878.3
275.833	8867.04
275.902	8862.27
275.971	8871.37
276.039	8877.29
276.108	8879.12
276.177	8882.78
276.245	8867.52
276.314	8864.29
276.383	8873.34
276.451	8810.21
276.52	8814.54
276.588	8816.56
276.657	8819.21
276.725	8804.38
276.794	8807.9
276.863	8820.26
276.931	8799.71
277	8809.63
277.068	8816.7
277.137	8830.32
277.205	8820.7
277.274	8838.99
277.342	8850.01
277.411	8825.85
277.48	8816.03
277.548	8804.14
277.617	8803.27
277.685	8793.89
277.754	8793.31
277.822	8784.89
277.89	8797.36
277.959	8784.56
278.027	8760.92
278.096	8747.98
278.164	8771.18
278.233	8759.58
278.301	8747.59
278.37	8754.28
278.438	8742.73
278.507	8739.51
278.575	8718.62
278.643	8713.32
278.712	8697.88
278.78	8684.4
278.849	8694.89
278.917	8703.98
278.985	8702.78
279.054	8700.37
279.122	8718.13
279.191	8716.88
279.259	8713.18
279.327	8691.8
279.396	8710.14
279.464	8712.74
279.532	8717.02
279.601	8708.45
279.669	8702.82
279.737	8716.68
279.806	8715.63
279.874	8724.19
279.942	8724.19
280.011	8722.41
280.079	8734.25
280.147	8745.9
280.215	8750.23
280.284	8750.42
280.352	8736.71
280.42	8738.68
280.488	8728.19
280.557	8714.86
280.625	8716.64
280.693	8712.55
280.761	8711.1
280.83	8697.67
280.898	8709.75
280.966	8694.83
281.034	8664.51
281.102	8652.87
281.171	8646.22
281.239	8660.81
281.307	8644.25
281.375	8633.57
281.443	8654.99
281.512	8649.79
281.58	8650.85
281.648	8630.44
281.716	8626.21
281.784	8627.17
281.852	8621.63
281.92	8618.31
281.989	8635.74
282.057	8622.07
282.125	8663.95
282.193	8664.53
282.261	8662.36
282.329	8659.76
282.397	8658.46
282.465	8658.46
282.533	8671.69
282.601	8659.71
282.67	8634.15
282.738	8631.31
282.806	8638.53
282.874	8624.67
282.942	8627.61
283.01	8628.38
283.078	8637.04
283.146	8633.67
283.214	8639.93
283.282	8639.97
283.35	8656.87
283.418	8643.3
283.486	8649.02
283.554	8614.02
283.622	8611.14
283.69	8611.14
283.758	8607.96
283.826	8616.77
283.894	8631.73
283.962	8646.13
284.03	8654.98
284.098	8658.06
284.165	8655.85
284.233	8658.3
284.301	8654.02
284.369	8649.25
284.437	8636.98
284.505	8634.29
284.573	8649.78
284.641	8641.17
284.709	8648.39
284.777	8626.92
284.845	8635.3
284.912	8637.94
284.98	8634.67
285.048	8627.4
285.116	8630.19
285.184	8638.23
285.252	8634.19
285.319	8620.28
285.387	8613.21
285.455	8607.77
285.523	8610.22
285.591	8608.15
285.659	8603.87
285.726	8613.11
285.794	8592.95
285.862	8590.4
285.93	8585.92
285.997	8579.18
286.065	8567.01
286.133	8556.76
286.201	8556.13
286.269	8541.07
286.336	8533.27
286.404	8534.86
286.472	8541.64
286.539	8516.48
286.607	8501.22
286.675	8506.13
286.743	8513.06
286.81	8506.18
286.878	8511.09
286.946	8505.02
287.013	8507.33
287.081	8513.21
287.149	8494.58
287.216	8515.32
287.284	8510.27
287.352	8517.05
287.419	8512.58
287.487	8536.11
287.555	8539
287.622	8535.39
287.69	8543.62
287.758	8551.13
287.825	8544.25
287.893	8534.38
287.96	8548.19
288.028	8557.62
288.096	8556.61
288.163	8559.98
288.231	8553
288.298	8553.87
288.366	8568.07
288.433	8564.26
288.501	8553.24
288.569	8562.63
288.636	8555.07
288.704	8573.21
288.771	8579.86
288.839	8570.57
288.906	8563.59
288.974	8568.98
289.041	8565.52
289.109	8549.11
289.176	8553.2
289.244	8556.61
289.311	8574.76
289.379	8577.6
289.446	8583.76
289.514	8583.66
289.581	8579.09
289.649	8577.02
289.716	8578.75
289.783	8571.77
289.851	8592.27
289.918	8597.9
289.986	8608.11
290.053	8620.28
290.121	8617.06
290.188	8617.2
290.255	8650.56
290.323	8647.28
290.39	8648.2
290.458	8651.09
290.525	8664.46
290.592	8660.37
290.66	8663.98
290.727	8660.85
290.794	8673.9
290.862	8671.87
290.929	8675.1
290.996	8678.18
291.064	8689.01
291.131	8696.23
291.198	8703.01
291.266	8700.37
291.333	8701.33
291.4	8704.84
291.468	8714.08
291.535	8706.38
291.602	8707.92
291.669	8697.72
291.737	8697.48
291.804	8696.42
291.871	8717.93
291.938	8732.42
292.006	8761.11
292.073	8770.83
292.14	8776.66
292.207	8773.96
292.275	8772.76
292.342	8787.34
292.409	8810.16
292.476	8835.62
292.543	8833.27
292.611	8838.8
292.678	8854.54
292.745	8877.6
292.812	8883.04
292.879	8877.84
292.946	8884.82
293.014	8905.08
293.081	8912.55
293.148	8927.18
293.215	8942.44
293.282	8939.31
293.349	8943.21
293.416	8927.13
293.484	8942.58
293.551	8952.3
293.618	8973.1
293.685	8997.94
293.752	8985.81
293.819	8989.47
293.886	8974.79
293.953	8979.36
294.02	8989.37
294.087	8996.06
294.154	8987.93
294.221	9003.96
294.288	9011.42
294.356	9030.44
294.423	9029.23
294.49	9019.37
294.557	9028.61
294.624	9014.94
294.691	9026.83
294.758	9029.19
294.825	9032.94
294.892	9020.38
294.959	9020.62
295.026	9019.17
295.093	9017.25
295.16	9017.58
295.226	9014.84
295.293	9041.7
295.36	9045.22
295.427	9055.52
295.494	9066.69
295.561	9078.58
295.628	9098.38
295.695	9110.56
295.762	9109.4
295.829	9118.7
295.896	9137.37
295.963	9150.28
296.03	9164.09
296.096	9173.24
296.163	9180.46
296.23	9202.71
296.297	9217.82
296.364	9220.42
296.431	9228.66
296.498	9221
296.564	9242.81
296.631	9241.37
296.698	9222.73
296.765	9242.62
296.832	9228.12
296.899	9209.15
296.965	9221.48
297.032	9205.2
297.099	9217.29
297.166	9224.8
297.233	9217.05
297.299	9211.56
297.366	9209.68
297.433	9214.54
297.5	9231.98
297.566	9239.49
297.633	9231.3
297.7	9235.06
297.767	9236.55
297.833	9241.46
297.9	9248.15
297.967	9240.26
298.033	9253.02
298.1	9284.61
298.167	9274.78
298.234	9286
298.3	9297.17
298.367	9294.81
298.434	9301.99
298.5	9294.47
298.567	9287.78
298.634	9290.67
298.7	9304.15
298.767	9303.86
298.834	9318.36
298.9	9306.7
298.967	9297.89
299.033	9310.75
299.1	9326.93
299.167	9335.07
299.233	9330.01
299.3	9342.38
299.366	9357.31
299.433	9377.92
299.5	9354.23
299.566	9364.25
299.633	9374.74
299.699	9388.18
299.766	9386.59
299.832	9390.59
299.899	9396.08
299.965	9418.71
300.032	9419.14
300.099	9429.59
300.165	9443.75
300.232	9440.14
300.298	9441.58
300.365	9456.51
300.431	9461.13
300.498	9457.62
300.564	9466.72
300.631	9482.22
300.697	9494.21
300.763	9492.53
300.83	9483.47
300.896	9499.61
300.963	9502.59
301.029	9509.57
301.096	9510.83
301.162	9519.54
301.229	9520.89
301.295	9512.7
301.361	9510.44
301.428	9513.09
301.494	9501.82
301.561	9499.56
301.627	9499.85
301.693	9504.33
301.76	9503.55
301.826	9495.22
301.892	9506.2
301.959	9512.75
302.025	9508.27
302.092	9501.72
302.158	9508.32
302.224	9513.76
302.291	9502.88
302.357	9503.6
302.423	9501.34
302.49	9494.89
302.556	9500.95
302.622	9494.89
302.688	9507.02
302.755	9522.77
302.821	9528.02
302.887	9533.8
302.954	9536.98
303.02	9538.9
303.086	9544.39
303.152	9547.57
303.219	9546.99
303.285	9549.98
303.351	9554.51
303.417	9547.67
303.483	9539.19
303.55	9534.62
303.616	9532.88
303.682	9532.16
303.748	9523.54
303.815	9534.04
303.881	9545.89
303.947	9541.99
304.013	9542.52
304.079	9533.03
304.145	9507.36
304.212	9508.66
304.278	9500.28
304.344	9487.96
304.41	9480.73
304.476	9472.98
304.542	9465.37
304.608	9471.82
304.674	9455.45
304.741	9457.09
304.807	9467.39
304.873	9475.24
304.939	9488.2
305.005	9472.64
305.071	9469.61
305.137	9473.56
305.203	9454.48
305.269	9448.71
305.335	9458.15
305.401	9454
305.467	9452.9
305.533	9461.47
305.599	9466.81
305.666	9479.09
305.732	9484.82
305.798	9496.57
305.864	9520.99
305.93	9523.21
305.996	9516.22
306.062	9513
306.128	9501.05
306.194	9486.37
306.259	9484.01
306.325	9473.27
306.391	9479.62
306.457	9489.93
306.523	9490.07
306.589	9510.06
306.655	9507.99
306.721	9490.17
306.787	9476.98
306.853	9488.58
306.919	9470.72
306.985	9464.41
307.051	9449.96
307.117	9440.96
307.183	9437.25
307.248	9405.66
307.314	9411.15
307.38	9408.02
307.446	9414.13
307.512	9405.66
307.578	9406.48
307.644	9398.67
307.709	9396.17
307.775	9396.36
307.841	9393.91
307.907	9395.54
307.973	9370.98
308.039	9367.04
308.104	9367.28
308.17	9375.65
308.236	9364.91
308.302	9372.71
308.368	9360.77
308.433	9359.76
308.499	9353.07
308.565	9339.68
308.631	9344.31
308.696	9321.34
308.762	9313.25
308.828	9309.06
308.894	9296.49
308.959	9274.88
309.025	9268.47
309.091	9264.28
309.156	9250.8
309.222	9246.47
309.288	9232.36
309.354	9216.23
309.419	9214.26
309.485	9202.22
309.551	9201.35
309.616	9186.62
309.682	9184.4
309.748	9172.46
309.813	9167.36
309.879	9156.58
309.945	9146.42
310.01	9137.9
310.076	9140.01
310.141	9138.33
310.207	9121.81
310.273	9115.17
310.338	9126.19
310.404	9103.28
310.469	9093.84
310.535	9084.21
310.601	9063.9
310.666	9066.98
310.732	9076.12
310.797	9060
310.863	9053.26
310.928	9043.29
310.994	9048.3
311.059	9043.19
311.125	9047.43
311.191	9058.31
311.256	9053.06
311.322	9053.5
311.387	9029.23
311.453	9366.35
311.518	9336.84
311.584	9333.47
311.649	9346.09
311.715	9336.94
311.78	9345.27
311.846	9335.11
311.911	9342.04
311.976	9348.35
312.042	9338.29
312.107	9324.37
312.173	9313.83
312.238	9305.94
312.304	9298.57
312.369	9288.9
312.434	9271.57
312.5	9259.48
312.565	9231.08
312.631	9238.49
312.696	9231.32
312.761	9239.55
312.827	8892.28
312.892	8928.96
312.958	8929.63
313.023	8921.45
313.088	8917.64
313.154	8900.41
313.219	8890.02
313.284	8880.2
313.35	8870.76
313.415	8858.87
313.48	8848.43
313.546	8852.71
313.611	8860.56
313.676	8855.84
313.741	8841.59
313.807	8850.83
313.872	8854.78
313.937	8860.36
314.003	8866.48
314.068	8872.11
314.133	8875.48
314.198	8865.52
314.264	8847.41
314.329	8838.8
314.394	8836.73
314.459	8830.61
314.525	8853.33
314.59	8849.34
314.655	8841.59
314.72	8846.93
314.785	8847.8
314.851	8848.38
314.916	8837.26
314.981	8824.4
315.046	8817.67
315.111	8816.17
315.176	8802.79
315.242	8803.56
315.307	8799.66
315.372	8779.21
315.437	8764.57
315.502	8757.74
315.567	8767.03
315.632	8750.42
315.698	8748.11
315.763	8739.01
315.828	8732.13
315.893	8721.44
315.958	8720.72
316.023	8705.08
316.088	8686.31
316.153	8658.02
316.218	8645.46
316.283	8625.34
316.348	8601.28
316.413	8593.77
316.479	8573.47
316.544	8545.56
316.609	8512.55
316.674	8477.81
316.739	8438.31
316.804	8411.07
316.869	8374.6
316.934	8337.6
316.999	8311.23
317.064	8260.76
317.129	8215.73
317.194	8179.26
317.259	8131.78
317.324	8077.38
317.389	8035.15
317.454	7994.5
317.518	7966.55
317.583	7940.96
317.648	7914.17
317.713	7882.86
317.778	7820.92
317.843	7787.01
317.908	7744.03
317.973	7710.13
318.038	7682.04
318.103	7647.57
318.168	7611.22
318.233	7577.28
318.297	7528.67
318.362	7486.41
318.427	7441.62
318.492	7414.26
318.557	7368.17
318.622	7337.5
318.687	7314.29
318.751	7275.99
318.816	7240.85
318.881	7205.44
318.946	7152.71
319.011	7105.19
319.075	7065.74
319.14	7029.9
319.205	6988.77
319.27	6956.3
319.335	6907.11
319.399	6862.86
319.464	6833.99
319.529	6786.15
319.594	6752.38
319.658	6720.05
319.723	6677.55
319.788	6654.6
319.853	6603.93
319.917	6574.79
319.982	6525.13
320.047	6487.44
320.112	6454.8
320.176	6405.78
320.241	6373.52
320.306	6339.77
320.37	6299.41
320.435	6268.44
320.5	6240.66
320.564	6200.97
320.629	6159.42
320.694	6131.73
320.758	6088.98
320.823	6045.27
320.888	6015.14
320.952	5962.94
321.017	5921.87
321.082	5885.37
321.146	5851.98
321.211	5816.35
321.275	5775.53
321.34	5732.86
321.405	5691.91
321.469	5651.1
321.534	5613.95
321.598	5561.98
321.663	5534.36
321.727	5499.99
321.792	5450.38
321.857	5407.48
321.921	5371.53
321.986	5332.1
322.05	5274.32
322.115	5239.82
322.179	5199.24
322.244	5143.44
322.308	5105.55
322.373	5059.23
322.437	5018.23
322.502	4990.1
322.566	4947.76
322.631	4909.41
322.695	4873.36
322.76	4834.58
322.824	4801.44
322.889	4757.17
322.953	4712.86
323.018	4644.89
323.082	4586.09
323.146	4531.8
323.211	4480.22
323.275	4429.31
323.34	4387.03
323.404	4350.31
323.468	4303.81
323.533	4261.2
323.597	4217.95
323.662	4170.42
323.726	4130.5
323.79	4083.74
323.855	4015.26
323.919	3967.94
323.983	3923.63
324.048	3855.81
324.112	3984.72
324.177	3849.34
324.241	3648.36
324.305	3452.78
324.37	3261.31
324.434	3076.06
324.498	3036.08
324.562	2988.88
324.627	2933.65
324.691	2875.52
324.755	2814.89
324.82	2741.5
324.884	2662.07
324.948	2589.85
325.012	2497.33
325.077	2384.8
