Data from 20250630_urea_2M_MAYP1162681_18-42-26-990.txt Node
Date: Mon Jun 30 18:42:26 BST 2025
User: adleo
Spectrometer: MAYP116268
Trigger mode: 0
Integration Time (sec): 1.000000E0
Scans to average: 1
Electric dark correction enabled: true
Nonlinearity correction enabled: true
Boxcar width: 10
XAxis mode: Wavelengths
Number of Pixels in Spectrum: 2068
>>>>>Begin Spectral Data<<<<<
179.565	1112.25
179.642	1165.17
179.718	1205.41
179.795	1242.27
179.871	1269.75
179.948	1284.76
180.024	1304.86
180.101	1324.62
180.177	1338.93
180.254	1357.06
180.33	1377.59
180.407	1425.96
180.483	1513.85
180.56	1595.94
180.636	1673.84
180.712	1659.82
180.789	1667.47
180.865	1678.92
180.942	1689.18
181.018	1699.06
181.095	1709.66
181.171	1714.13
181.248	1713.37
181.324	1726.63
181.4	1730.29
181.477	1741.93
181.553	1754.09
181.63	1774.1
181.706	1789.55
181.782	1794.11
181.859	1795.34
181.935	1800.76
182.011	1794.82
182.088	1811.32
182.164	1829.57
182.24	1842.5
182.317	1853.14
182.393	1851.53
182.469	1866.22
182.546	1877.48
182.622	1884.66
182.698	1880.67
182.775	1894.5
182.851	1910.14
182.927	1904.24
183.003	1899.68
183.08	1893.88
183.156	1904.82
183.232	1900.59
183.308	1891.41
183.385	1900.15
183.461	1917.46
183.537	1919.17
183.613	1929.68
183.69	1921.31
183.766	1911.42
183.842	1916.98
183.918	1920.07
183.995	1931.86
184.071	1932.1
184.147	1927.86
184.223	1915.22
184.299	1929.06
184.375	1917.03
184.452	1919.55
184.528	1972.87
184.604	1984.7
184.68	1995.83
184.756	2002.68
184.832	2009.81
184.908	2014.66
184.985	2017.46
185.061	2002.92
185.137	2010.05
185.213	2001.92
185.289	2005.34
185.365	1999.21
185.441	1997.5
185.517	2011.15
185.593	2007.3
185.669	2005.87
185.745	2015.05
185.822	2031.83
185.898	2023.03
185.974	2032.49
186.05	2027.11
186.126	1988.25
186.202	1983.59
186.278	1980.69
186.354	1970.85
186.43	1972.18
186.506	1967.14
186.582	1966.43
186.658	1973.66
186.734	1953.74
186.81	1955.69
186.886	1954.26
186.962	1964.67
187.038	1963.67
187.114	1956.25
187.19	1964.38
187.266	1957.11
187.341	1957.06
187.417	1948.03
187.493	1947.36
187.569	1949.12
187.645	1943.99
187.721	1931.43
187.797	1937.71
187.873	1941.42
187.949	1935.48
188.025	1931.01
188.101	1935.76
188.176	1939.94
188.252	1933.86
188.328	1941.6
188.404	1940.42
188.48	1939.56
188.556	1933.24
188.632	1931.71
188.707	1932.52
188.783	1928.81
188.859	1924.3
188.935	1914.69
189.011	1923.11
189.086	1918.45
189.162	1909.51
189.238	1905.95
189.314	1907.94
189.39	1900.81
189.465	1896.29
189.541	1911.99
189.617	1899.53
189.693	1894.21
189.768	1895.49
189.844	1918.99
189.92	1912.76
189.996	1923.03
190.071	1929.88
190.147	1931.25
190.223	1938.63
190.298	1929.73
190.374	1920.8
190.45	1931.97
190.526	1938.1
190.601	1932.92
190.677	1935.91
190.753	1965.5
190.828	1972.73
190.904	1982.38
190.98	2000.93
191.055	2008.49
191.131	1999.22
191.207	2016.43
191.282	2026.79
191.358	2019.61
191.433	2006.53
191.509	2018.22
191.585	2012.94
191.66	2015.37
191.736	2021.45
191.811	2014.8
191.887	2031.92
191.963	2051.56
192.038	2054.46
192.114	2054.27
192.189	2057.74
192.265	2053.23
192.34	2029.44
192.416	2026.92
192.491	2025.73
192.567	2024.68
192.642	2026.68
192.718	2030.15
192.793	2019.45
192.869	2017.69
192.944	2018.69
193.02	2025.35
193.095	2030.67
193.171	2037.66
193.246	2036.38
193.322	2033.72
193.397	2034.29
193.473	2022.11
193.548	2004.32
193.624	2011.22
193.699	2012.41
193.775	2028.2
193.85	2030.96
193.925	2040.66
194.001	2039.47
194.076	2031.77
194.152	2022.06
194.227	2017.45
194.302	2005.57
194.378	2008.94
194.453	2004.38
194.529	2015.65
194.604	2002.24
194.679	1996.01
194.755	1979.61
194.83	1991.45
194.905	1989.22
194.981	1997.21
195.056	1989.41
195.131	1996.3
195.207	1994.35
195.282	1983.85
195.357	1964.58
195.433	1977.04
195.508	1966.15
195.583	1973.33
195.659	1987.17
195.734	1994.64
195.809	1992.31
195.884	2001.86
195.96	2001.86
196.035	2015.41
196.11	2010.85
196.185	2020.74
196.261	2023.45
196.336	2049.56
196.411	2036.57
196.486	2041.94
196.561	2036.14
196.637	2045.46
196.712	2060.54
196.787	2061.16
196.862	2075.76
196.937	2086.69
197.013	2094.07
197.088	2103.44
197.163	2123.42
197.238	2138.04
197.313	2137.23
197.388	2150.26
197.464	2178.96
197.539	2187.42
197.614	2180.15
197.689	2193.75
197.764	2209.46
197.839	2230.06
197.914	2227.68
197.989	2250.66
198.065	2263.94
198.14	2307.93
198.215	2332.58
198.29	2343.58
198.365	2354.86
198.44	2364.04
198.515	2389.99
198.59	2403.46
198.665	2428.35
198.74	2434.12
198.815	2435.16
198.89	2455.06
198.965	2481.82
199.04	2479.39
199.115	2494.24
199.19	2535.23
199.265	2536.38
199.34	2546.66
199.415	2574.68
199.49	2593.58
199.565	2600.34
199.64	2621.58
199.715	2619.63
199.79	2628.39
199.865	2633.39
199.94	2632.25
200.015	2664.12
200.09	2666.84
200.165	2670.03
200.24	2677.13
200.315	2719.18
200.39	2732.81
200.464	2740.29
200.539	2743.05
200.614	2759.96
200.689	2784.55
200.764	2792.56
200.839	2814.09
200.914	2817.94
200.989	2810.65
201.063	2824.52
201.138	2810.76
201.213	2811.42
201.288	2794.56
201.363	2798.7
201.438	2799.85
201.512	2817.66
201.587	2800.74
201.662	2803.27
201.737	2815.75
201.812	2824
201.886	2789.23
201.961	2800.29
202.036	2791.05
202.111	2787.28
202.186	2757.09
202.26	2742.13
202.335	2717.82
202.41	2709.2
202.485	2693.39
202.559	2672.72
202.634	2643.14
202.709	2650.56
202.784	2630.94
202.858	2632.89
202.933	2610.41
203.008	2603.17
203.082	2587.6
203.157	2584.79
203.232	2546.8
203.306	2528.65
203.381	2496.31
203.456	2474.12
203.53	2453.15
203.605	2430.87
203.68	2408.25
203.754	2400.54
203.829	2385.59
203.904	2367.27
203.978	2355.6
204.053	2360.89
204.127	2351.56
204.202	2353.41
204.277	2337.04
204.351	2330.62
204.426	2322.14
204.5	2318.19
204.575	2288.21
204.65	2292.74
204.724	2286.12
204.799	2294.01
204.873	2288.68
204.948	2285.87
205.022	2275.74
205.097	2266.31
205.171	2278.16
205.246	2285.2
205.32	2286.44
205.395	2285.77
205.469	2280.3
205.544	2287.26
205.618	2271.36
205.693	2280.54
205.767	2269.89
205.842	2287.4
205.916	2283.93
205.991	2272.89
206.065	2277.84
206.14	2292.25
206.214	2288.92
206.289	2285.54
206.363	2295
206.438	2297.81
206.512	2306.76
206.586	2323.61
206.661	2332.08
206.735	2314.82
206.81	2318.48
206.884	2333.61
206.958	2322.15
207.033	2337.28
207.107	2344.99
207.181	2372.18
207.256	2368.13
207.33	2385.46
207.405	2397.94
207.479	2414.41
207.553	2424.59
207.628	2408.46
207.702	2419.07
207.776	2415.74
207.851	2417.79
207.925	2435.07
207.999	2432.69
208.073	2429.36
208.148	2432.74
208.222	2419.93
208.296	2450.53
208.371	2465.54
208.445	2474.01
208.519	2500.01
208.593	2513.05
208.668	2506.14
208.742	2508.29
208.816	2509.72
208.89	2523.77
208.965	2526.91
209.039	2536.73
209.113	2553.87
209.187	2571.86
209.261	2568.86
209.336	2585.05
209.41	2603.34
209.484	2602.15
209.558	2620.63
209.632	2634.48
209.707	2646.87
209.781	2665.82
209.855	2681.74
209.929	2698.52
210.003	2703.19
210.077	2705.62
210.151	2749.01
210.226	2782.76
210.3	2810.56
210.374	2833.9
210.448	2840.34
210.522	2847.68
210.596	2858.07
210.67	2865.98
210.744	2914.65
210.818	2946.19
210.892	2968.17
210.966	2964.5
211.041	2982.28
211.115	2983.61
211.189	3006.16
211.263	3023.17
211.337	3037.28
211.411	3054.4
211.485	3051.21
211.559	3069.32
211.633	3074.51
211.707	3052.57
211.781	3064.78
211.855	3040.32
211.929	3041.13
212.003	3031.98
212.077	3051.25
212.151	3075.87
212.225	3099.67
212.299	3104.01
212.373	3110.97
212.447	3126.1
212.52	3173.9
212.594	3196.09
212.668	3230.57
212.742	3243.79
212.816	3264.16
212.89	3283.72
212.964	3309.55
213.038	3345.69
213.112	3393.63
213.186	3445.41
213.26	3463.87
213.333	3460.39
213.407	3510.69
213.481	3558.74
213.555	3618.68
213.629	3662.06
213.703	3699.23
213.777	3754.91
213.85	3795.1
213.924	3886.74
213.998	3955.35
214.072	4017.77
214.146	4080.36
214.219	4152.71
214.293	4229.65
214.367	4316.66
214.441	4417.71
214.515	4500.41
214.588	4571.72
214.662	4632.36
214.736	4711.53
214.81	4820.53
214.883	4937.3
214.957	5037.77
215.031	5143.36
215.105	5239.23
215.178	5340.98
215.252	5460.47
215.326	5560.82
215.4	5671.12
215.473	5764.1
215.547	5878.83
215.621	6004.2
215.694	6151.07
215.768	6277.46
215.842	6411.86
215.915	6543.21
215.989	6670.07
216.063	6814.1
216.136	6969.13
216.21	7121.02
216.284	7296.64
216.357	7450.28
216.431	7613.35
216.504	7789.63
216.578	7980.47
216.652	8154.05
216.725	8328.49
216.799	8501.95
216.873	8679.98
216.946	8864.52
217.02	9028.44
217.093	9192.15
217.167	9350.27
217.24	9502.34
217.314	9663.39
217.387	9827.45
217.461	9997.56
217.535	10185.62
217.608	10348.68
217.682	10520.53
217.755	10708.22
217.829	10870.22
217.902	11050.86
217.976	11225.54
218.049	11386.5
218.123	11542.17
218.196	11722.8
218.27	11883.54
218.343	12038.11
218.417	12210.23
218.49	12371.27
218.563	12550.28
218.637	12726.17
218.71	12905.49
218.784	13083.02
218.857	13268.56
218.931	13447.34
219.004	13620.06
219.077	13783.91
219.151	13948.05
219.224	14104.23
219.298	14263.74
219.371	14436.6
219.444	14581.55
219.518	14736.86
219.591	14892.32
219.665	15066.91
219.738	15214.41
219.811	15356.94
219.885	15517.07
219.958	15666.25
220.031	15818.08
220.105	15969.86
220.178	16117.78
220.251	16250.71
220.325	16396.17
220.398	16527.85
220.471	16652.2
220.544	16785.46
220.618	16891.68
220.691	17016.65
220.764	17142.06
220.838	17269.58
220.911	17382.83
220.984	17528.23
221.057	17647.46
221.131	17758.16
221.204	17844.13
221.277	17980.08
221.35	18116.37
221.424	18221.57
221.497	18325.57
221.57	18422
221.643	18524.45
221.716	18618.66
221.79	18718.46
221.863	18812.34
221.936	18904.33
222.009	19007.75
222.082	19091.17
222.155	19192.65
222.229	19301.28
222.302	19402.28
222.375	19482.71
222.448	19570.8
222.521	19640.63
222.594	19710.32
222.667	19780.87
222.74	19863.37
222.814	19928.91
222.887	20000.72
222.96	20083.8
223.033	20157.43
223.106	20230.73
223.179	20295.94
223.252	20358.59
223.325	20423.7
223.398	20480.66
223.471	20547.99
223.544	20604.66
223.617	20672.66
223.69	20726.88
223.763	20769.29
223.837	20824.96
223.91	20888.91
223.983	20917.88
224.056	20965.54
224.129	21026.75
224.202	21077.93
224.275	21104.25
224.348	21136.83
224.42	21171.58
224.493	21197.89
224.566	21238.53
224.639	21283.54
224.712	21323.64
224.785	21364.47
224.858	21405.44
224.931	21433.92
225.004	21457.59
225.077	21492.92
225.15	21490.31
225.223	21517.98
225.296	21566.09
225.369	21581.65
225.442	21596.45
225.514	21631.83
225.587	21657.09
225.66	21685.05
225.733	21714.83
225.806	21752.62
225.879	21773.78
225.952	21783.62
226.025	21814.8
226.097	21851.15
226.17	21874.29
226.243	21872.12
226.316	21884.6
226.389	21888.07
226.461	21911.26
226.534	21932.23
226.607	21942.45
226.68	21990.84
226.753	22018.94
226.825	22014.61
226.898	22039.67
226.971	22052.01
227.044	22070.81
227.117	22081.8
227.189	22094.38
227.262	22117.09
227.335	22134.49
227.407	22148.23
227.48	22166.5
227.553	22173.44
227.626	22166.69
227.698	22166.6
227.771	22174.31
227.844	22183.47
227.916	22206.17
227.989	22201.01
228.062	22198.41
228.134	22221.45
228.207	22215.52
228.28	22206.32
228.352	22212.29
228.425	22205.69
228.498	22219.09
228.57	22210.13
228.643	22230.76
228.716	22231.53
228.788	22216.83
228.861	22210.61
228.934	22217.6
229.006	22217.02
229.079	22221.07
229.151	22214.22
229.224	22206.94
229.296	22227.34
229.369	22252.89
229.442	22262.43
229.514	22258.29
229.587	22279.93
229.659	22266.48
229.732	22275.35
229.804	22284.03
229.877	22294.54
229.949	22314.06
230.022	22334.41
230.094	22332
230.167	22322.45
230.239	22309.44
230.312	22320.23
230.384	22351.91
230.457	22363.38
230.529	22361.6
230.602	22355.81
230.674	22367.96
230.747	22378.9
230.819	22378.47
230.892	22341.16
230.964	22328.38
231.037	22337.44
231.109	22328.09
231.181	22331.13
231.254	22311.51
231.326	22300.47
231.399	22289.96
231.471	22268.8
231.544	22231.82
231.616	22237.56
231.688	22226.95
231.761	22214.32
231.833	22202.95
231.905	22159.41
231.978	22128.61
232.05	22124.37
232.122	22114.97
232.195	22086.33
232.267	22079.49
232.339	22053.07
232.412	22048.44
232.484	22030.56
232.556	22004.19
232.629	22012.87
232.701	22008.68
232.773	21996.67
232.846	21976.57
232.918	21963.46
232.99	21953.39
233.062	21946.98
233.135	21924.32
233.207	21896.55
233.279	21897.81
233.351	21887.4
233.424	21881.18
233.496	21868.5
233.568	21857.85
233.64	21827.91
233.713	21808.34
233.785	21793.02
233.857	21778.36
233.929	21753.49
234.001	21754.5
234.074	21752.48
234.146	21704.71
234.218	21675.07
234.29	21663.02
234.362	21651.11
234.434	21613.85
234.507	21580.83
234.579	21550.42
234.651	21530.56
234.723	21525.69
234.795	21501.3
234.867	21473.78
234.939	21457.54
235.012	21435.32
235.084	21419.84
235.156	21401.05
235.228	21379.46
235.3	21346.39
235.372	21325.23
235.444	21315.3
235.516	21268.98
235.588	21242.38
235.66	21218.33
235.732	21188.45
235.804	21212.98
235.876	21184.93
235.948	21173.75
236.02	21145.94
236.092	21111.19
236.164	21087.57
236.236	21065.02
236.308	21023.28
236.38	21000.58
236.452	20966.84
236.524	20939.52
236.596	20932.86
236.668	20918.55
236.74	20890.84
236.812	20869.39
236.884	20852.62
236.956	20829.58
237.028	20795.27
237.1	20758.01
237.172	20745.68
237.244	20735.75
237.316	20675.98
237.388	20647.84
237.46	20612.95
237.532	20602.44
237.604	20569.19
237.675	20549.81
237.747	20520.66
237.819	20497.72
237.891	20467.5
237.963	20431.69
238.035	20392.51
238.107	20316.95
238.178	20287.74
238.25	20262.1
238.322	20251.11
238.394	20203.12
238.466	20164.75
238.538	20142.35
238.609	20113.72
238.681	20070.93
238.753	20030.35
238.825	19994.11
238.897	19963.02
238.968	19948.09
239.04	19915.7
239.112	19911.17
239.184	19879.51
239.255	19838.55
239.327	19802.84
239.399	19769.44
239.471	19737.78
239.542	19717.59
239.614	19702.6
239.686	19654.22
239.758	19630.89
239.829	19583.86
239.901	19564.15
239.973	19524.59
240.044	19491.53
240.116	19463
240.188	19431.92
240.259	19397.61
240.331	19358.19
240.403	19329.71
240.474	19287.35
240.546	19240.31
240.618	19187.88
240.689	19141.43
240.761	19110.83
240.833	19083.79
240.904	19051.94
240.976	19022.26
241.048	18980.67
241.119	18950.12
241.191	18927.13
241.262	18903.08
241.334	18864.96
241.405	18822.99
241.477	18792.34
241.549	18753.98
241.62	18719.96
241.692	18689.84
241.763	18668.54
241.835	18633.07
241.906	18601.85
241.978	18552.55
242.049	18526.04
242.121	18497.18
242.192	18469.18
242.264	18422.44
242.335	18383.11
242.407	18352.08
242.478	18310.1
242.55	18286.73
242.621	18246.3
242.693	18205.53
242.764	18169.15
242.836	18132.04
242.907	18108.67
242.979	18073.34
243.05	18046.31
243.122	18016.96
243.193	17971.66
243.264	17914.84
243.336	17885.49
243.407	17853.01
243.479	17834.94
243.55	17808.73
243.622	17785.74
243.693	17756.87
243.764	17741.02
243.836	17697.4
243.907	17657.16
243.978	17616.25
244.05	17587.14
244.121	17537.98
244.192	17510.46
244.264	17460.49
244.335	17421.31
244.407	17361.74
244.478	17333.35
244.549	17291.72
244.62	17244.73
244.692	17208.34
244.763	17174.36
244.834	17129.16
244.906	17088.82
244.977	17052.58
245.048	17029.06
245.119	16982.31
245.191	16940.09
245.262	16887.66
245.333	16871.95
245.405	16843.27
245.476	16819.7
245.547	16785.24
245.618	16767.94
245.689	16741.44
245.761	16709.1
245.832	16682.83
245.903	16671.84
245.974	16641.53
246.045	16616.51
246.117	16605.72
246.188	16563.4
246.259	16525.8
246.33	16491.73
246.401	16450.14
246.473	16406.18
246.544	16361.36
246.615	16342.08
246.686	16306.99
246.757	16288.24
246.828	16241.15
246.899	16224.33
246.97	16173.1
247.042	16136.75
247.113	16109.09
247.184	16096.51
247.255	16058.48
247.326	16022.67
247.397	15983.24
247.468	15953.89
247.539	15918.37
247.61	15871.08
247.681	15849.15
247.752	15834.26
247.823	15801.68
247.894	15782.68
247.965	15746.29
248.037	15712.41
248.108	15666.23
248.179	15636.3
248.25	15605.11
248.321	15590.8
248.392	15546.7
248.463	15542.98
248.534	15519.17
248.605	15493.39
248.675	15453.33
248.746	15437.96
248.817	15413.04
248.888	15388.98
248.959	15337.89
249.03	15319.19
249.101	15291.42
249.172	15262.5
249.243	15210.1
249.314	15189.86
249.385	15157.56
249.456	15139.68
249.527	15109.36
249.598	15091.81
249.669	15064.87
249.739	15038.89
249.81	15009.05
249.881	14967.45
249.952	14945.37
250.023	14904.3
250.094	14858.8
250.165	14817.35
250.235	14784.04
250.306	14757.04
250.377	14719.49
250.448	14705.37
250.519	14653.45
250.59	14630.94
250.66	14605.73
250.731	14594.26
250.802	14569.09
250.873	14549.04
250.944	14527.44
251.014	14495.24
251.085	14490.18
251.156	14473.17
251.227	14456.92
251.297	14448.24
251.368	14433.44
251.439	14415.32
251.51	14397.58
251.58	14359.16
251.651	14333.95
251.722	14317.8
251.792	14280.25
251.863	14250.94
251.934	14238.21
252.005	14238.84
252.075	14220.95
252.146	14204.03
252.217	14190.01
252.287	14175.93
252.358	14144.31
252.429	14130.47
252.499	14102.7
252.57	14070.36
252.641	14045.48
252.711	14018.1
252.782	13970.19
252.852	13965.12
252.923	13935.43
252.994	13917.5
253.064	13921.26
253.135	13886.26
253.205	13854.15
253.276	13851.07
253.347	13843.11
253.417	13818
253.488	13789.7
253.558	13765.12
253.629	13741.93
253.699	13720.09
253.77	13703.22
253.841	13676.66
253.911	13653.71
253.982	13635.78
254.052	13624.02
254.123	13597.89
254.193	13573.5
254.264	13595.09
254.334	13554.89
254.405	13523.26
254.475	13492.51
254.546	13454.62
254.616	13439
254.687	13425.6
254.757	13400.19
254.827	13376.62
254.898	13353.09
254.968	13323.21
255.039	13291.49
255.109	13268.01
255.18	13236.58
255.25	13189.19
255.321	13174.63
255.391	13136.26
255.461	13135.35
255.532	13086.18
255.602	13062.55
255.673	13019.36
255.743	12974
255.813	12930.08
255.884	12917.55
255.954	12904.92
256.024	12904.78
256.095	12890.31
256.165	12857.63
256.235	12844.33
256.306	12825.14
256.376	12808.65
256.446	12807.74
256.517	12793.13
256.587	12781.9
256.657	12768.6
256.728	12753.89
256.798	12737.65
256.868	12721.74
256.938	12685.25
257.009	12672.23
257.079	12662.83
257.149	12673.73
257.219	12640.61
257.29	12633.28
257.36	12594.29
257.43	12578.23
257.5	12539.67
257.571	12507.28
257.641	12490.65
257.711	12459.65
257.781	12444.23
257.852	12431.21
257.922	12385.85
257.992	12366.42
258.062	12351.82
258.132	12341.55
258.202	12319.86
258.273	12302.65
258.343	12299.37
258.413	12273.58
258.483	12259.99
258.553	12222.39
258.623	12196.6
258.693	12177.8
258.764	12176.36
258.834	12171.39
258.904	12146.23
258.974	12118.23
259.044	12103.53
259.114	12090.51
259.184	12073.74
259.254	12041.54
259.324	12000.86
259.394	11988.13
259.464	11983.99
259.535	11956.13
259.605	11924.02
259.675	11896.21
259.745	11880.74
259.815	11850.47
259.885	11823.62
259.955	11831.77
260.025	11808.44
260.095	11783.91
260.165	11769.74
260.235	11764.15
260.305	11742.94
260.375	11719.99
260.445	11722.5
260.515	11723.42
260.585	11718.07
260.655	11700.86
260.725	11704.96
260.795	11696.33
260.865	11699.7
260.934	11672.37
261.004	11661.19
261.074	11642.83
261.144	11640.08
261.214	11626.06
261.284	11604.37
261.354	11608.17
261.424	11571.06
261.494	11576.36
261.564	11553.08
261.634	11548.7
261.703	11503.73
261.773	11490.81
261.843	11476.5
261.913	11453.8
261.983	11414.62
262.053	11394.08
262.123	11369.75
262.192	11334.27
262.262	11328.97
262.332	11295.48
262.402	11281.6
262.472	11263.43
262.541	11229.74
262.611	11221.84
262.681	11199.19
262.751	11193.4
262.821	11164.01
262.89	11136.49
262.96	11119.09
263.03	11122.75
263.1	11108.58
263.169	11101.64
263.239	11087.14
263.309	11085.36
263.379	11077.21
263.448	11064.44
263.518	11055.28
263.588	11043.43
263.657	11042.42
263.727	11030.42
263.797	11019.09
263.867	11006.8
263.936	10983.72
264.006	10982.61
264.076	10965.79
264.145	10946.62
264.215	10918.33
264.285	10916.45
264.354	10887.83
264.424	10865.13
264.494	10835.01
264.563	10813.09
264.633	10815.88
264.702	10808.22
264.772	10780.22
264.842	10761.57
264.911	10747.84
264.981	10715.32
265.05	10700.52
265.12	10679.9
265.19	10666.45
265.259	10654.94
265.329	10644.77
265.398	10625.84
265.468	10638.51
265.537	10618.71
265.607	10603.53
265.676	10600.64
265.746	10589.6
265.815	10587.53
265.885	10573.08
265.955	10552.89
266.024	10533.81
266.094	10491.65
266.163	10481.19
266.232	10480.62
266.302	10464.72
266.371	10453.44
266.441	10441.83
266.51	10431.71
266.58	10417.79
266.649	10393.55
266.719	10386.62
266.788	10371.34
266.858	10378.04
266.927	10335.93
266.996	10326.01
267.066	10318.35
267.135	10290.55
267.205	10280.86
267.274	10265.5
267.343	10265.06
267.413	10247.96
267.482	10244.83
267.552	10248.2
267.621	10226.81
267.69	10194.24
267.76	10182.44
267.829	10178.54
267.898	10160.62
267.968	10137.5
268.037	10126.37
268.106	10122.61
268.176	10102.52
268.245	10086.86
268.314	10067.5
268.384	10058.39
268.453	10038.98
268.522	10025.49
268.592	10024.67
268.661	10002.37
268.73	9994.57
268.799	9975.15
268.869	9988.98
268.938	9959.79
269.007	9945.24
269.076	9924.86
269.146	9922.26
269.215	9913.5
269.284	9914.07
269.353	9899.96
269.422	9885.37
269.492	9868.27
269.561	9829.06
269.63	9819.38
269.699	9803.87
269.768	9796.5
269.838	9798.57
269.907	9800.79
269.976	9780.75
270.045	9755.61
270.114	9751.04
270.183	9737.36
270.253	9722.86
270.322	9690.78
270.391	9683.94
270.46	9677.88
270.529	9678.74
270.598	9674.5
270.667	9664.73
270.736	9637.18
270.806	9630.87
270.875	9639.39
270.944	9633.66
271.013	9657.11
271.082	9649.94
271.151	9644.21
271.22	9614.35
271.289	9596
271.358	9572.74
271.427	9565.75
271.496	9553.24
271.565	9535.99
271.634	9526.56
271.703	9531.13
271.772	9535.51
271.841	9522.46
271.91	9502.67
271.979	9491.64
272.048	9470.45
272.117	9464.24
272.186	9450.8
272.255	9449.41
272.324	9437.51
272.393	9429.42
272.462	9404.38
272.531	9391.09
272.6	9379.67
272.669	9377.8
272.738	9365.9
272.807	9363.21
272.876	9345.59
272.945	9368.22
273.013	9369.37
273.082	9370.34
273.151	9345.63
273.22	9340.91
273.289	9328.35
273.358	9333.45
273.427	9321.9
273.496	9319.05
273.564	9312.17
273.633	9316.26
273.702	9294.64
273.771	9282.51
273.84	9272.2
273.909	9274.56
273.977	9268.74
274.046	9255.93
274.115	9259.45
274.184	9247.55
274.253	9240.91
274.322	9248.61
274.39	9214.96
274.459	9204.8
274.528	9174.61
274.597	9168.11
274.665	9157.95
274.734	9172.78
274.803	9163.77
274.872	9158.57
274.94	9140.23
275.009	9185.22
275.078	9168.51
275.147	9167.64
275.215	9167.36
275.284	9176.07
275.353	9163.6
275.421	9149.01
275.49	9164.66
275.559	9152.91
275.627	9144.01
275.696	9134.33
275.765	9134.47
275.833	9132.74
275.902	9123.5
275.971	9131.2
276.039	9139.1
276.108	9138.13
276.177	9124.84
276.245	9114.54
276.314	9105.68
276.383	9115.02
276.451	9063.63
276.52	9060.55
276.588	9075.19
276.657	9076.01
276.725	9066.04
276.794	9065.65
276.863	9069.22
276.931	9043.36
277	9051.79
277.068	9061.85
277.137	9077.01
277.205	9067.82
277.274	9080.77
277.342	9093.72
277.411	9082.07
277.48	9074.85
277.548	9063.29
277.617	9068.73
277.685	9061.56
277.754	9065.8
277.822	9060.55
277.89	9071.34
277.959	9063.97
278.027	9038.6
278.096	9029.36
278.164	9047.41
278.233	9036.29
278.301	9025.9
278.37	9030.52
278.438	9017.23
278.507	9016.41
278.575	8991.28
278.643	8993.74
278.712	8974.87
278.78	8959.94
278.849	8961.29
278.917	8967.5
278.985	8964.08
279.054	8956.96
279.122	8967.69
279.191	8961.43
279.259	8953.68
279.327	8927.06
279.396	8943.04
279.464	8947.32
279.532	8952.47
279.601	8950.21
279.669	8942.75
279.737	8955.41
279.806	8958.49
279.874	8963.21
279.942	8962.58
280.011	8957.29
280.079	8960.13
280.147	8973.46
280.215	8968.46
280.284	8964.61
280.352	8949.88
280.42	8958.49
280.488	8957.34
280.557	8945.74
280.625	8950.6
280.693	8948
280.761	8953.44
280.83	8931.3
280.898	8935.92
280.966	8917.63
281.034	8885.95
281.102	8876.27
281.171	8867.8
281.239	8873.48
281.307	8867.27
281.375	8850.18
281.443	8875.22
281.512	8868.77
281.58	8878.59
281.648	8870.64
281.716	8878.06
281.784	8883.93
281.852	8874.35
281.92	8874.59
281.989	8883.88
282.057	8869.2
282.125	8906.27
282.193	8903.77
282.261	8914.6
282.329	8905.5
282.397	8911.57
282.465	8909.4
282.533	8921.05
282.601	8912.91
282.67	8890.82
282.738	8884.32
282.806	8901.45
282.874	8886.87
282.942	8890
283.01	8880.27
283.078	8884.46
283.146	8876.8
283.214	8882.2
283.282	8878.97
283.35	8886.19
283.418	8880.75
283.486	8882.15
283.554	8842.24
283.622	8838.34
283.69	8831.6
283.758	8827.89
283.826	8828.57
283.894	8839.35
283.962	8855.28
284.03	8865.39
284.098	8867.56
284.165	8860.77
284.233	8855.81
284.301	8852.3
284.369	8843.63
284.437	8836.41
284.505	8833.81
284.573	8854.66
284.641	8839.64
284.709	8851.96
284.777	8834.63
284.845	8840.55
284.912	8846.23
284.98	8849.75
285.048	8842.91
285.116	8850.42
285.184	8871.79
285.252	8873.43
285.319	8857.69
285.387	8853.89
285.455	8839.26
285.523	8848.06
285.591	8845.42
285.659	8840.6
285.726	8850.86
285.794	8837.28
285.862	8834.93
285.93	8830.02
285.997	8814.95
286.065	8810.04
286.133	8801.47
286.201	8793.96
286.269	8783.66
286.336	8778.8
286.404	8777.84
286.472	8783.37
286.539	8761.81
286.607	8740.97
286.675	8738.56
286.743	8748.48
286.81	8738.75
286.878	8748.76
286.946	8735.81
287.013	8733.17
287.081	8734.9
287.149	8718.34
287.216	8736.34
287.284	8725.95
287.352	8730.28
287.419	8724.94
287.487	8738.41
287.555	8740.53
287.622	8742.02
287.69	8737.07
287.758	8740.77
287.825	8739.18
287.893	8733.74
287.96	8740.82
288.028	8739.52
288.096	8739.76
288.163	8738.32
288.231	8725.61
288.298	8726.19
288.366	8737.59
288.433	8739.57
288.501	8733.84
288.569	8737.3
288.636	8739.13
288.704	8753.67
288.771	8759.59
288.839	8756.13
288.906	8751.55
288.974	8761.9
289.041	8756.56
289.109	8751.65
289.176	8755.5
289.244	8750.88
289.311	8762.63
289.379	8768.45
289.446	8780.2
289.514	8783.52
289.581	8783.32
289.649	8788.71
289.716	8785.54
289.783	8777.93
289.851	8791.6
289.918	8788.18
289.986	8801.04
290.053	8799.01
290.121	8797.86
290.188	8799.79
290.255	8825.73
290.323	8816.59
290.39	8808.88
290.458	8816.34
290.525	8831.22
290.592	8830.83
290.66	8835.5
290.727	8828.86
290.794	8840.99
290.862	8837.09
290.929	8828.47
290.996	8833.24
291.064	8844.88
291.131	8861.69
291.198	8872.56
291.266	8883.06
291.333	8894.37
291.4	8893.21
291.468	8910.16
291.535	8904.58
291.602	8909.73
291.669	8900.24
291.737	8908.57
291.804	8907.37
291.871	8920.65
291.938	8924.7
292.006	8951.08
292.073	8965.67
292.14	8974.33
292.207	8971.01
292.275	8975.39
292.342	8995.85
292.409	9023.53
292.476	9047.7
292.543	9043.42
292.611	9051.75
292.678	9057.52
292.745	9073.55
292.812	9081.59
292.879	9077.89
292.946	9084.34
293.014	9092.47
293.081	9102.73
293.148	9113.46
293.215	9131.28
293.282	9132.91
293.349	9149.96
293.416	9137.58
293.484	9146.97
293.551	9156.12
293.618	9172.29
293.685	9191.02
293.752	9180.91
293.819	9167.86
293.886	9155.06
293.953	9161.22
294.02	9172.2
294.087	9184.19
294.154	9182.98
294.221	9196.75
294.288	9192.52
294.356	9209.7
294.423	9213.7
294.49	9207.39
294.557	9224.29
294.624	9212.79
294.691	9227.81
294.758	9223.19
294.825	9220.83
294.892	9221.16
294.959	9221.21
295.026	9221.36
295.093	9218.08
295.16	9222.37
295.226	9228.87
295.293	9253.18
295.36	9253.43
295.427	9259.01
295.494	9263.92
295.561	9266.57
295.628	9286.41
295.695	9301.77
295.762	9301.58
295.829	9316.56
295.896	9330.86
295.963	9335.38
296.03	9347.28
296.096	9355.65
296.163	9364.27
296.23	9387.29
296.297	9392.83
296.364	9399.18
296.431	9412.81
296.498	9411.9
296.564	9435.88
296.631	9432.07
296.698	9419.94
296.765	9440.26
296.832	9426.73
296.899	9412.47
296.965	9435.39
297.032	9416.13
297.099	9430
297.166	9440.11
297.233	9430.82
297.299	9429.85
297.366	9425.71
297.433	9425.91
297.5	9432.21
297.566	9434.86
297.633	9429.61
297.7	9433.08
297.767	9433.42
297.833	9439.77
297.9	9445.46
297.967	9431.54
298.033	9445.17
298.1	9468.77
298.167	9454.71
298.234	9465.49
298.3	9478.97
298.367	9472.76
298.434	9484.56
298.5	9476.28
298.567	9471.85
298.634	9471.65
298.7	9486.87
298.767	9490.96
298.834	9503.63
298.9	9501.75
298.967	9491.3
299.033	9500.21
299.1	9515.48
299.167	9524.72
299.233	9519.38
299.3	9528.14
299.366	9540.76
299.433	9557.13
299.5	9536.28
299.566	9547.36
299.633	9559.97
299.699	9571.24
299.766	9565.32
299.832	9567.58
299.899	9579.24
299.965	9590.17
300.032	9587.76
300.099	9591.61
300.165	9602.26
300.232	9597.59
300.298	9597.83
300.365	9614.97
300.431	9612.71
300.498	9603.22
300.564	9610.11
300.631	9620.9
300.697	9639.1
300.763	9644.35
300.83	9641.27
300.896	9651.72
300.963	9662.84
301.029	9668.91
301.096	9669.2
301.162	9687.26
301.229	9685.05
301.295	9678.01
301.361	9684.66
301.428	9689.28
301.494	9678.21
301.561	9683.51
301.627	9694.58
301.693	9695.21
301.76	9698.15
301.826	9699.98
301.892	9713.27
301.959	9720.2
302.025	9711.44
302.092	9701.04
302.158	9706.86
302.224	9709.95
302.291	9701.52
302.357	9693.96
302.423	9679.8
302.49	9676.95
302.556	9682.64
302.622	9682.69
302.688	9693.81
302.755	9701.42
302.821	9704.36
302.887	9713.32
302.954	9709.13
303.02	9715.82
303.086	9724.64
303.152	9716.69
303.219	9709.8
303.285	9717.32
303.351	9718.38
303.417	9725.55
303.483	9720.78
303.55	9713.61
303.616	9710.72
303.682	9712.36
303.748	9704.36
303.815	9729.79
303.881	9737.6
303.947	9727.82
304.013	9723.63
304.079	9708.6
304.145	9685.96
304.212	9689.1
304.278	9679.08
304.344	9675.23
304.41	9662.85
304.476	9649.51
304.542	9647.19
304.608	9656.44
304.674	9634.96
304.741	9633.56
304.807	9635.15
304.873	9639.44
304.939	9653.07
305.005	9634.82
305.071	9627.3
305.137	9630.72
305.203	9601.05
305.269	9590.94
305.335	9597.88
305.401	9599.08
305.467	9600.38
305.533	9609.63
305.599	9618.34
305.666	9625.23
305.732	9625.47
305.798	9630.14
305.864	9652.35
305.93	9660.24
305.996	9648.54
306.062	9650.8
306.128	9643
306.194	9627.25
306.259	9620.32
306.325	9603.8
306.391	9618.49
306.457	9630.38
306.523	9629.8
306.589	9650.37
306.655	9644.69
306.721	9625.61
306.787	9605.34
306.853	9612.57
306.919	9599.08
306.985	9587.96
307.051	9579.43
307.117	9568.5
307.183	9568.69
307.248	9541.58
307.314	9544.18
307.38	9558.15
307.446	9565.27
307.512	9558.87
307.578	9564.65
307.644	9563.11
307.709	9566.28
307.775	9553.14
307.841	9541.92
307.907	9544.95
307.973	9526.55
308.039	9526.31
308.104	9528.77
308.17	9532.48
308.236	9526.6
308.302	9528.72
308.368	9520.44
308.433	9518.85
308.499	9516.01
308.565	9498.38
308.631	9506.66
308.696	9482.2
308.762	9466.69
308.828	9457.25
308.894	9436.45
308.959	9413.19
309.025	9401.4
309.091	9395.09
309.156	9391.76
309.222	9399.76
309.288	9387.14
309.354	9363.16
309.419	9366.2
309.485	9357
309.551	9362.1
309.616	9341.35
309.682	9343.76
309.748	9333.89
309.813	9333.41
309.879	9322.72
309.945	9315.69
310.01	9305
310.076	9311.74
310.141	9300.85
310.207	9291.32
310.273	9294.64
310.338	9303.6
310.404	9291.13
310.469	9279.52
310.535	9269.56
310.601	9244.18
310.666	9244.52
310.732	9252.89
310.797	9234.4
310.863	9223.23
310.928	9213.26
310.994	9219.86
311.059	9208.83
311.125	9205.85
311.191	9213.31
311.256	9203.78
311.322	9203.25
311.387	9185.87
311.453	9587.68
311.518	9555.95
311.584	9551.24
311.649	9553.64
311.715	9541.89
311.78	9537.9
311.846	9523.7
311.911	9526.44
311.976	9528.95
312.042	9516.14
312.107	9505.26
312.173	9496.11
312.238	9488.6
312.304	9482.15
312.369	9466.07
312.434	9456.92
312.5	9448.88
312.565	9413.25
312.631	9416.43
312.696	9407.14
312.761	9407.09
312.827	8990.26
312.892	9035.56
312.958	9030.27
313.023	9030.27
313.088	9025.94
313.154	9014.09
313.219	9008.41
313.284	8999.12
313.35	8988.97
313.415	8973.75
313.48	8968.03
313.546	8972.12
313.611	8983.19
313.676	8976.45
313.741	8976.5
313.807	8985.31
313.872	8987.09
313.937	8996.14
314.003	8998.55
314.068	8999.61
314.133	9001.05
314.198	8989.93
314.264	8962.25
314.329	8950.98
314.394	8939.28
314.459	8931.34
314.525	8947.66
314.59	8943.18
314.655	8931.1
314.72	8941.79
314.785	8949.49
314.851	8942.94
314.916	8920.65
314.981	8896.34
315.046	8893.26
315.111	8878.15
315.176	8865.2
315.242	8864.53
315.307	8856.78
315.372	8843.3
315.437	8829.91
315.502	8821.15
315.567	8832.13
315.632	8823.99
315.698	8823.27
315.763	8820.09
315.828	8815.67
315.893	8807.96
315.958	8806.18
316.023	8803.68
316.088	8781.73
316.153	8760.41
316.218	8752.76
316.283	8737.21
316.348	8723.6
316.413	8716.04
316.479	8700.5
316.544	8662
316.609	8636.11
316.674	8602.28
316.739	8565.13
316.804	8540.01
316.869	8506.62
316.934	8466.58
316.999	8431.98
317.064	8384.2
317.129	8345.08
317.194	8308.18
317.259	8264.63
317.324	8216.48
317.389	8163.22
317.454	8126.32
317.518	8088.51
317.583	8063.21
317.648	8036.65
317.713	7997.26
317.778	7936.37
317.843	7905.58
317.908	7869.9
317.973	7826.18
318.038	7800.22
318.103	7765.17
318.168	7728.09
318.233	7695.53
318.297	7645.43
318.362	7609.66
318.427	7566.06
318.492	7531.68
318.557	7486.25
318.622	7453.17
318.687	7430.2
318.751	7390.94
318.816	7351.61
318.881	7320.32
318.946	7261.83
319.011	7212.57
319.075	7175.76
319.14	7139.58
319.205	7096.42
319.27	7061.21
319.335	7014.22
319.399	6968.43
319.464	6935.33
319.529	6878.36
319.594	6836.13
319.658	6810.48
319.723	6764.03
319.788	6732.1
319.853	6678.55
319.917	6645.27
319.982	6592.87
320.047	6550.42
320.112	6522.86
320.176	6476
320.241	6437.58
320.306	6406.33
320.37	6370.33
320.435	6333.46
320.5	6306.29
320.564	6262.04
320.629	6218.99
320.694	6188.09
320.758	6146.87
320.823	6099.27
320.888	6075.81
320.952	6023.95
321.017	5973.76
321.082	5939.84
321.146	5908.18
321.211	5874.65
321.275	5833.46
321.34	5788.58
321.405	5742.92
321.469	5698.99
321.534	5650.14
321.598	5596.15
321.663	5563.78
321.727	5529.93
321.792	5481.33
321.857	5435.54
321.921	5398.83
321.986	5356.95
322.05	5301.13
322.115	5261.88
322.179	5221.36
322.244	5164.93
322.308	5133.88
322.373	5093.02
322.437	5046.84
322.502	5019.86
322.566	4975.42
322.631	4936.58
322.695	4899.05
322.76	4853.85
322.824	4816.79
322.889	4778.6
322.953	4736.15
323.018	4670.72
323.082	4605.98
323.146	4558.04
323.211	4504.74
323.275	4460.71
323.34	4417.47
323.404	4380.94
323.468	4336.3
323.533	4293.08
323.597	4248.19
323.662	4197.21
323.726	4159.53
323.79	4114.01
323.855	4048.73
323.919	3997.82
323.983	3953.46
324.048	3887.79
324.112	4009.23
324.177	3875.99
324.241	3673.73
324.305	3475.85
324.37	3282.66
324.434	3096.79
324.498	3053.22
324.562	3004.01
324.627	2941.13
324.691	2882.67
324.755	2819.78
324.82	2743.62
324.884	2668.34
324.948	2596.44
325.012	2501.45
325.077	2373.58
