Data from 20250630_urea_2M_MAYP1162681_01-52-26-914.txt Node
Date: Tue Jul 01 01:52:26 BST 2025
User: adleo
Spectrometer: MAYP116268
Trigger mode: 0
Integration Time (sec): 1.000000E0
Scans to average: 1
Electric dark correction enabled: true
Nonlinearity correction enabled: true
Boxcar width: 10
XAxis mode: Wavelengths
Number of Pixels in Spectrum: 2068
>>>>>Begin Spectral Data<<<<<
179.565	1087.83
179.642	1134.65
179.718	1171.43
179.795	1205.02
179.871	1233.6
179.948	1249.44
180.024	1269.93
180.101	1290.7
180.177	1302.45
180.254	1321.01
180.33	1338.66
180.407	1382.56
180.483	1469.4
180.56	1548.12
180.636	1622.75
180.712	1609.11
180.789	1617.71
180.865	1624.6
180.942	1633.76
181.018	1645.31
181.095	1657.57
181.171	1661.56
181.248	1663.17
181.324	1678.57
181.4	1686.32
181.477	1694.82
181.553	1705.84
181.63	1723.95
181.706	1736.97
181.782	1746.33
181.859	1744.62
181.935	1753.22
182.011	1748.27
182.088	1762.68
182.164	1782.12
182.24	1792.38
182.317	1802.74
182.393	1800.36
182.469	1813.67
182.546	1823.22
182.622	1826.17
182.698	1820.13
182.775	1830.97
182.851	1842.42
182.927	1834.58
183.003	1829.54
183.08	1825.93
183.156	1832.68
183.232	1826.78
183.308	1816.23
183.385	1822.03
183.461	1841.85
183.537	1839.05
183.613	1852.88
183.69	1844.61
183.766	1833.91
183.842	1841.23
183.918	1842.89
183.995	1855.63
184.071	1858.81
184.147	1856.87
184.223	1845.32
184.299	1858.96
184.375	1848.27
184.452	1853.79
184.528	1905.42
184.604	1914.69
184.68	1925.39
184.756	1935.13
184.832	1939.03
184.908	1943.45
184.985	1943.12
185.061	1926.05
185.137	1935.89
185.213	1924.06
185.289	1924.58
185.365	1916.5
185.441	1914.22
185.517	1929.67
185.593	1925.92
185.669	1923.83
185.745	1932.39
185.822	1948.54
185.898	1940.51
185.974	1947.44
186.05	1942.64
186.126	1906.55
186.202	1901.75
186.278	1895.86
186.354	1886.35
186.43	1892.81
186.506	1891.43
186.582	1890.63
186.658	1899.04
186.734	1881.78
186.81	1884.59
186.886	1886.68
186.962	1898.7
187.038	1896.47
187.114	1888.72
187.19	1896.37
187.266	1887.82
187.341	1889.43
187.417	1882.07
187.493	1882.02
187.569	1885.58
187.645	1879.78
187.721	1867.18
187.797	1875.27
187.873	1879.97
187.949	1874.03
188.025	1868.42
188.101	1870.75
188.176	1875.12
188.252	1867.95
188.328	1873.5
188.404	1871.94
188.48	1868.85
188.556	1863.47
188.632	1864.62
188.707	1864.71
188.783	1860.38
188.859	1856.49
188.935	1843.84
189.011	1852.63
189.086	1846.5
189.162	1840.42
189.238	1840.75
189.314	1839.28
189.39	1832.15
189.465	1827.68
189.541	1841.99
189.617	1827.87
189.693	1822.88
189.768	1826.69
189.844	1851.03
189.92	1845.24
189.996	1854.79
190.071	1863.39
190.147	1863.77
190.223	1870.38
190.298	1864.34
190.374	1853.93
190.45	1864.53
190.526	1875.09
190.601	1868.34
190.677	1869.24
190.753	1895.4
190.828	1896.35
190.904	1906.43
190.98	1921.78
191.055	1928.06
191.131	1921.78
191.207	1941.65
191.282	1953.2
191.358	1943.51
191.433	1929.81
191.509	1941.69
191.585	1937.65
191.66	1939.07
191.736	1945.06
191.811	1938.31
191.887	1953.25
191.963	1975.93
192.038	1979.54
192.114	1978.35
192.189	1982.34
192.265	1979.83
192.34	1960.61
192.416	1960.08
192.491	1960.89
192.567	1963.6
192.642	1967.12
192.718	1965.74
192.793	1954.38
192.869	1948.72
192.944	1953.24
193.02	1961.13
193.095	1964.03
193.171	1967.6
193.246	1966.46
193.322	1964.94
193.397	1963.89
193.473	1949
193.548	1931.03
193.624	1938.21
193.699	1935.21
193.775	1950.2
193.85	1951
193.925	1958.47
194.001	1956.66
194.076	1948.39
194.152	1935.64
194.227	1930.65
194.302	1921.53
194.378	1923.57
194.453	1921.29
194.529	1933.65
194.604	1917.44
194.679	1910.88
194.755	1896.05
194.83	1909.13
194.905	1906.9
194.981	1918.26
195.056	1914.27
195.131	1920.31
195.207	1915.84
195.282	1908.42
195.357	1889.59
195.433	1902.85
195.508	1892.2
195.583	1898.81
195.659	1912.6
195.734	1919.63
195.809	1918.45
195.884	1929.28
195.96	1932.61
196.035	1945.02
196.11	1938.26
196.185	1951.81
196.261	1954.86
196.336	1984.91
196.411	1970.83
196.486	1976.1
196.561	1967.4
196.637	1971.59
196.712	1986.76
196.787	1989.71
196.862	2003.97
196.937	2015.91
197.013	2021.95
197.088	2029.51
197.163	2049.34
197.238	2061.91
197.313	2062.86
197.388	2075.98
197.464	2103.44
197.539	2115.23
197.614	2111.71
197.689	2122.04
197.764	2135.4
197.839	2156.05
197.914	2151.15
197.989	2171.7
198.065	2183.83
198.14	2231
198.215	2257.98
198.29	2268.74
198.365	2279.97
198.44	2290.77
198.515	2315.18
198.59	2328.55
198.665	2354.83
198.74	2360.97
198.815	2366.54
198.89	2385.81
198.965	2411.14
199.04	2406.38
199.115	2416.85
199.19	2455.79
199.265	2460.79
199.34	2470.21
199.415	2501.65
199.49	2520.17
199.565	2528.21
199.64	2549.88
199.715	2548.02
199.79	2554.59
199.865	2557.93
199.94	2559.35
200.015	2587.17
200.09	2591.41
200.165	2597.6
200.24	2602.17
200.315	2640.59
200.39	2652.64
200.464	2659.64
200.539	2662.69
200.614	2678.6
200.689	2698.65
200.764	2703.61
200.839	2718.27
200.914	2723.51
200.989	2712.07
201.063	2723.56
201.138	2710.23
201.213	2711.66
201.288	2694.36
201.363	2700.65
201.438	2702.99
201.512	2715.7
201.587	2699.64
201.662	2705.07
201.737	2715.41
201.812	2724.32
201.886	2691.86
201.961	2699.86
202.036	2689.01
202.111	2685.24
202.186	2656.77
202.26	2644.39
202.335	2626.52
202.41	2621.09
202.485	2605.76
202.559	2586.23
202.634	2563.75
202.709	2569.85
202.784	2549.32
202.858	2547.47
202.933	2528.89
203.008	2523.27
203.082	2509.13
203.157	2508.94
203.232	2465.72
203.306	2450.01
203.381	2417.2
203.456	2397.06
203.53	2379.19
203.605	2359.97
203.68	2337.07
203.754	2331.36
203.829	2317.79
203.904	2298.56
203.978	2289.28
204.053	2292.18
204.127	2282.62
204.202	2278.86
204.277	2261.68
204.351	2257.73
204.426	2251.26
204.5	2243.27
204.575	2208.54
204.65	2217.25
204.724	2204.87
204.799	2215.33
204.873	2212.57
204.948	2213.24
205.022	2203.82
205.097	2191.82
205.171	2206.29
205.246	2214.52
205.32	2216.33
205.395	2214.09
205.469	2205.01
205.544	2210.1
205.618	2193.02
205.693	2205.06
205.767	2197.07
205.842	2219.38
205.916	2212.91
205.991	2205.68
206.065	2210.82
206.14	2226.94
206.214	2223.03
206.289	2221.46
206.363	2231.46
206.438	2231.65
206.512	2237.5
206.586	2256.58
206.661	2264.91
206.735	2244.6
206.81	2243.41
206.884	2254.3
206.958	2245.07
207.033	2260.01
207.107	2265.58
207.181	2297.42
207.256	2289.81
207.33	2307.37
207.405	2320.13
207.479	2338.45
207.553	2342.07
207.628	2327.23
207.702	2336.55
207.776	2328.89
207.851	2333.6
207.925	2347.12
207.999	2341.46
208.073	2343.03
208.148	2343.17
208.222	2331.7
208.296	2360.53
208.371	2378.54
208.445	2388.68
208.519	2415.23
208.593	2426.47
208.668	2422.56
208.742	2425.61
208.816	2427.8
208.89	2437.23
208.965	2434.8
209.039	2444.66
209.113	2461.7
209.187	2481.35
209.261	2480.4
209.336	2498.4
209.41	2516.49
209.484	2515.87
209.558	2538.3
209.632	2544.92
209.707	2553.73
209.781	2576.06
209.855	2590.21
209.929	2603.98
210.003	2609.08
210.077	2607.08
210.151	2652.37
210.226	2687.16
210.3	2710.47
210.374	2733.38
210.448	2738.57
210.522	2748.72
210.596	2757.01
210.67	2766.16
210.744	2808.38
210.818	2837.48
210.892	2859.89
210.966	2856.12
211.041	2875.04
211.115	2876.52
211.189	2904.16
211.263	2921.69
211.337	2928.79
211.411	2944.81
211.485	2946.77
211.559	2961.92
211.633	2968.73
211.707	2941.45
211.781	2949.13
211.855	2921.29
211.929	2919.72
212.003	2909.24
212.077	2922.4
212.151	2938.47
212.225	2958.01
212.299	2957.68
212.373	2957.92
212.447	2959.83
212.52	2997.35
212.594	3012.38
212.668	3033.79
212.742	3033.88
212.816	3048.52
212.89	3059.11
212.964	3075.71
213.038	3094.94
213.112	3131.35
213.186	3165.92
213.26	3173.26
213.333	3159.05
213.407	3190.47
213.481	3219.93
213.555	3266.14
213.629	3291.44
213.703	3311.67
213.777	3344.33
213.85	3367.1
213.924	3436.67
213.998	3484.38
214.072	3521.41
214.146	3557.18
214.219	3605.13
214.293	3654.07
214.367	3709.63
214.441	3777.37
214.515	3826.02
214.588	3867.59
214.662	3898.61
214.736	3946.88
214.81	4026.42
214.883	4104.06
214.957	4171.26
215.031	4239.8
215.105	4291.42
215.178	4353.7
215.252	4428.51
215.326	4489.37
215.4	4553.56
215.473	4598.52
215.547	4670.2
215.621	4752.87
215.694	4849.76
215.768	4922.84
215.842	5008.76
215.915	5091.89
215.989	5165.88
216.063	5256.95
216.136	5359.18
216.21	5462.7
216.284	5581.94
216.357	5685.09
216.431	5792.66
216.504	5907.64
216.578	6040.17
216.652	6168.63
216.725	6288.14
216.799	6417.67
216.873	6540.9
216.946	6672.53
217.02	6784.2
217.093	6898.18
217.167	6997.29
217.24	7094.49
217.314	7215.32
217.387	7331.41
217.461	7445.51
217.535	7580.2
217.608	7696.5
217.682	7822.2
217.755	7954.06
217.829	8058.49
217.902	8186.69
217.976	8316.92
218.049	8434.7
218.123	8545.15
218.196	8668.59
218.27	8789.44
218.343	8901.37
218.417	9025.33
218.49	9147.66
218.563	9285.06
218.637	9413.86
218.71	9560.16
218.784	9699.23
218.857	9837.74
218.931	9968.49
219.004	10098.4
219.077	10223.45
219.151	10355.35
219.224	10477.14
219.298	10599.91
219.371	10739.29
219.444	10838.02
219.518	10951.45
219.591	11067.48
219.665	11205.11
219.738	11324.24
219.811	11430.84
219.885	11547.95
219.958	11667.86
220.031	11778.96
220.105	11904.47
220.178	12023.76
220.251	12123.01
220.325	12240.09
220.398	12349.89
220.471	12456.52
220.544	12575.1
220.618	12678.73
220.691	12783.68
220.764	12887.22
220.838	12993.95
220.911	13093.73
220.984	13218.97
221.057	13327.72
221.131	13430.69
221.204	13504.25
221.277	13617.92
221.35	13746.77
221.424	13839.23
221.497	13937.09
221.57	14034.27
221.643	14130.44
221.716	14224.83
221.79	14316.76
221.863	14400.82
221.936	14482.1
222.009	14563.76
222.082	14646.43
222.155	14732.43
222.229	14829.56
222.302	14922.54
222.375	15006.46
222.448	15092.6
222.521	15173.15
222.594	15258.9
222.667	15329.32
222.74	15417.1
222.814	15489.31
222.887	15546.52
222.96	15637.04
223.033	15722.69
223.106	15794.32
223.179	15870.76
223.252	15941.08
223.325	16008.85
223.398	16084.24
223.471	16159.91
223.544	16244.4
223.617	16310.05
223.69	16379.74
223.763	16432.42
223.837	16498.3
223.91	16562.98
223.983	16605.69
224.056	16653.74
224.129	16701.79
224.202	16778.18
224.275	16839
224.348	16885.03
224.42	16940.36
224.493	16968.26
224.566	17010.24
224.639	17071.06
224.712	17105.14
224.785	17154
224.858	17205.23
224.931	17248.22
225.004	17290.87
225.077	17331.16
225.15	17357.52
225.223	17398.92
225.296	17465.23
225.369	17492.08
225.442	17529.09
225.514	17588.03
225.587	17643.64
225.66	17700.46
225.733	17741.95
225.806	17783.35
225.879	17824.99
225.952	17865.71
226.025	17934.91
226.097	17990.28
226.17	18027.1
226.243	18059.63
226.316	18097.99
226.389	18144.4
226.461	18197.02
226.534	18241.6
226.607	18286.37
226.68	18359.33
226.753	18401.88
226.825	18420.15
226.898	18471.08
226.971	18508.05
227.044	18544.72
227.117	18574.69
227.189	18615.17
227.262	18661.43
227.335	18706.78
227.407	18744.75
227.48	18784.41
227.553	18814.68
227.626	18845.28
227.698	18883.11
227.771	18929.8
227.844	18960.84
227.916	18997.8
227.989	19015.73
228.062	19043.77
228.134	19091.34
228.207	19120.39
228.28	19150.27
228.352	19176.25
228.425	19210.65
228.498	19253.16
228.57	19278.07
228.643	19331.66
228.716	19346.36
228.788	19371.61
228.861	19395.85
228.934	19435.27
229.006	19457.77
229.079	19486.93
229.151	19507.45
229.224	19515.7
229.296	19535.07
229.369	19584.41
229.442	19619.45
229.514	19627.21
229.587	19657.28
229.659	19661.86
229.732	19678.05
229.804	19702.34
229.877	19755.68
229.949	19783.01
230.022	19816.6
230.094	19839.97
230.167	19857.41
230.239	19885.32
230.312	19907.48
230.384	19943.68
230.457	19971.39
230.529	19992.98
230.602	20008.25
230.674	20034.37
230.747	20073.84
230.819	20116.97
230.892	20110.95
230.964	20132.73
231.037	20170.42
231.109	20184.54
231.181	20210.7
231.254	20225.31
231.326	20238.51
231.399	20240.58
231.471	20253.11
231.544	20248.73
231.616	20273.83
231.688	20283.71
231.761	20285.88
231.833	20282.03
231.905	20268.63
231.978	20269.55
232.05	20283.91
232.122	20290.17
232.195	20291.09
232.267	20315.57
232.339	20314.56
232.412	20333.98
232.484	20330.41
232.556	20325.01
232.629	20362.22
232.701	20375.67
232.773	20376.29
232.846	20388.63
232.918	20393.64
232.99	20400.77
233.062	20419.86
233.135	20425.59
233.207	20421.64
233.279	20432.77
233.351	20453.54
233.424	20451.57
233.496	20450.8
233.568	20469.98
233.64	20463.91
233.713	20458.8
233.785	20442.46
233.857	20444.15
233.929	20425.21
234.001	20436.87
234.074	20448.97
234.146	20419.38
234.218	20411.86
234.29	20414.65
234.362	20407.28
234.434	20391.09
234.507	20374.99
234.579	20354.75
234.651	20337.5
234.723	20338.03
234.795	20331.42
234.867	20317.88
234.939	20328.1
235.012	20312.15
235.084	20302.17
235.156	20304.05
235.228	20297.64
235.3	20295.81
235.372	20282.17
235.444	20285.98
235.516	20255.33
235.588	20244.1
235.66	20235.47
235.732	20215.81
235.804	20253.64
235.876	20237.5
235.948	20236.34
236.02	20219.43
236.092	20200.58
236.164	20188.83
236.236	20163.14
236.308	20142.18
236.38	20130.42
236.452	20104.92
236.524	20094.95
236.596	20091.48
236.668	20075.96
236.74	20057.07
236.812	20036.2
236.884	20021.84
236.956	20001.8
237.028	19976.4
237.1	19945.75
237.172	19943.39
237.244	19947.44
237.316	19890.13
237.388	19869.7
237.46	19841.37
237.532	19842.33
237.604	19816.74
237.675	19806.48
237.747	19795.59
237.819	19773.08
237.891	19753.23
237.963	19730.82
238.035	19708.51
238.107	19659.74
238.178	19650.87
238.25	19627.69
238.322	19626.15
238.394	19590.39
238.466	19569.76
238.538	19553.91
238.609	19545.86
238.681	19497.43
238.753	19461.77
238.825	19436.37
238.897	19402.98
238.968	19395.22
239.04	19356.48
239.112	19361.63
239.184	19333.49
239.255	19308.14
239.327	19280.87
239.399	19259.57
239.471	19241.4
239.542	19224.44
239.614	19203.09
239.686	19151.33
239.758	19134.66
239.829	19093.46
239.901	19080.16
239.973	19040.3
240.044	19026.71
240.116	18996.21
240.188	18973.13
240.259	18939.01
240.331	18910.24
240.403	18905.61
240.474	18860.65
240.546	18824.89
240.618	18775.35
240.689	18737.43
240.761	18715.74
240.833	18707.89
240.904	18667.17
240.976	18623.7
241.048	18595.12
241.119	18576.28
241.191	18560.91
241.262	18546.55
241.334	18508.96
241.405	18476.58
241.477	18452.15
241.549	18408.58
241.62	18385.31
241.692	18362.08
241.763	18350.99
241.835	18314.85
241.906	18282.23
241.978	18245.6
242.049	18231.1
242.121	18213.84
242.192	18194.42
242.264	18143.2
242.335	18090.09
242.407	18066.33
242.478	18048.6
242.55	18019.06
242.621	17982.96
242.693	17946.38
242.764	17906.67
242.836	17880.6
242.907	17849.57
242.979	17827.54
243.05	17811.4
243.122	17791.45
243.193	17753.86
243.264	17688.37
243.336	17658.73
243.407	17634.83
243.479	17622.63
243.55	17590.3
243.622	17553.24
243.693	17524.27
243.764	17515.69
243.836	17484.32
243.907	17447.5
243.978	17414.25
244.05	17381.96
244.121	17326.78
244.192	17302.73
244.264	17252.03
244.335	17225.57
244.407	17173.09
244.478	17140.22
244.549	17091.78
244.62	17031.35
244.692	16996.36
244.763	16986.29
244.834	16954
244.906	16906.77
244.977	16881.9
245.048	16868.4
245.119	16831.97
245.191	16786.09
245.262	16722.52
245.333	16709.7
245.405	16691.29
245.476	16654.95
245.547	16621.69
245.618	16604.63
245.689	16570.56
245.761	16549.45
245.832	16509.59
245.903	16503.37
245.974	16470.45
246.045	16435.65
246.117	16422.98
246.188	16384.47
246.259	16337.72
246.33	16295.93
246.401	16259.78
246.473	16211.97
246.544	16169.03
246.615	16148.3
246.686	16116.3
246.757	16105.74
246.828	16057.83
246.899	16032.82
246.97	15987.75
247.042	15945.91
247.113	15919.4
247.184	15903.59
247.255	15862.29
247.326	15828.98
247.397	15785.51
247.468	15759.24
247.539	15738.99
247.61	15706.12
247.681	15681.63
247.752	15663.17
247.823	15626.44
247.894	15597.48
247.965	15555.01
248.037	15512.45
248.108	15460.49
248.179	15437.4
248.25	15400.24
248.321	15377.87
248.392	15331.02
248.463	15312.7
248.534	15288.94
248.605	15269.71
248.675	15241.8
248.746	15214.52
248.817	15196.44
248.888	15174.94
248.959	15132.23
249.03	15111.99
249.101	15071.6
249.172	15038.05
249.243	14988.78
249.314	14974.95
249.385	14957.21
249.456	14937.15
249.527	14904.67
249.598	14890.4
249.669	14852.22
249.739	14828.07
249.81	14803.1
249.881	14763.23
249.952	14740.48
250.023	14714.26
250.094	14661.33
250.165	14612.07
250.235	14584.78
250.306	14560.83
250.377	14518.26
250.448	14492.42
250.519	14443.54
250.59	14433.28
250.66	14407.24
250.731	14402.04
250.802	14375.09
250.873	14352.58
250.944	14331.22
251.014	14304.18
251.085	14290.97
251.156	14269.71
251.227	14259.16
251.297	14243.25
251.368	14227.97
251.439	14209.84
251.51	14189.79
251.58	14166.84
251.651	14145.63
251.722	14128.71
251.792	14077.18
251.863	14056.74
251.934	14051.97
252.005	14045.03
252.075	14021.5
252.146	14009.64
252.217	13997.3
252.287	13983.23
252.358	13948.13
252.429	13936.95
252.499	13908.07
252.57	13882.19
252.641	13865.07
252.711	13833.5
252.782	13791.7
252.852	13794.35
252.923	13774.93
252.994	13754.97
253.064	13737.95
253.135	13699.44
253.205	13671.19
253.276	13660.63
253.347	13652.43
253.417	13607.79
253.488	13579.93
253.558	13541.22
253.629	13519.96
253.699	13488.77
253.77	13467.61
253.841	13445.53
253.911	13424.75
253.982	13399.64
254.052	13383.97
254.123	13365.32
254.193	13346.61
254.264	13358.23
254.334	13317.78
254.405	13279.75
254.475	13238.97
254.546	13216.6
254.616	13211.01
254.687	13190.23
254.757	13174.27
254.827	13143.42
254.898	13129.25
254.968	13104.28
255.039	13080.99
255.109	13055.16
255.18	13023.1
255.25	12981.26
255.321	12965.54
255.391	12927.75
255.461	12925.67
255.532	12881.42
255.602	12854.09
255.673	12812.53
255.743	12776.62
255.813	12738.92
255.884	12724.17
255.954	12715.4
256.024	12710.48
256.095	12687.87
256.165	12659.72
256.235	12641.84
256.306	12612.39
256.376	12597.92
256.446	12586.55
256.517	12573.44
256.587	12568.95
256.657	12547.6
256.728	12532.8
256.798	12512.22
256.868	12485.66
256.938	12456.83
257.009	12447.14
257.079	12431.47
257.149	12435.19
257.219	12400.62
257.29	12381.05
257.36	12352.85
257.43	12343.36
257.5	12296.12
257.571	12271.87
257.641	12258.57
257.711	12227.33
257.781	12228.25
257.852	12216.49
257.922	12182.46
257.992	12166.07
258.062	12138.64
258.132	12132.76
258.202	12107.26
258.273	12088.32
258.343	12085.62
258.413	12059.4
258.483	12040.26
258.553	12010.18
258.623	11984.25
258.693	11971.09
258.764	11966.56
258.834	11957.5
258.904	11934.26
258.974	11913.73
259.044	11898.74
259.114	11889.63
259.184	11874.21
259.254	11840.27
259.324	11798.39
259.394	11786.29
259.464	11780.27
259.535	11759.06
259.605	11729.75
259.675	11701.85
259.745	11685.41
259.815	11652.97
259.885	11637.94
259.955	11645.7
260.025	11621.6
260.095	11600.1
260.165	11586.12
260.235	11586.22
260.305	11557.16
260.375	11530.07
260.445	11530.99
260.515	11527.61
260.585	11521.11
260.655	11508.04
260.725	11501.83
260.795	11498.36
260.865	11495.32
260.934	11462.6
261.004	11449.34
261.074	11440.09
261.144	11442.64
261.214	11431.46
261.284	11415.32
261.354	11397.39
261.424	11366.49
261.494	11371.5
261.564	11354.83
261.634	11338.15
261.703	11294.2
261.773	11281.96
261.843	11271.16
261.913	11250.34
261.983	11214.2
262.053	11195.07
262.123	11168.08
262.192	11142.49
262.262	11131.02
262.332	11100.13
262.402	11096.56
262.472	11083.07
262.541	11043.89
262.611	11032.76
262.681	11007.5
262.751	11006.4
262.821	10988.66
262.89	10956.13
262.96	10935.12
263.03	10938.06
263.1	10925.48
263.169	10911.8
263.239	10900.19
263.309	10899.75
263.379	10889.39
263.448	10876.48
263.518	10865.44
263.588	10854.55
263.657	10850.36
263.727	10837.98
263.797	10819.09
263.867	10791.62
263.936	10758.08
264.006	10753.65
264.076	10732.59
264.145	10717.03
264.215	10692.07
264.285	10688.02
264.354	10658.73
264.424	10636.71
264.494	10598.74
264.563	10580.19
264.633	10583.51
264.702	10574.02
264.772	10537.98
264.842	10512.92
264.911	10498.85
264.981	10467.2
265.05	10451.63
265.12	10430.1
265.19	10414.44
265.259	10411.06
265.329	10404.7
265.398	10398.87
265.468	10409.67
265.537	10391.02
265.607	10378.4
265.676	10371.27
265.746	10357.3
265.815	10360.81
265.885	10346.07
265.955	10325.02
266.024	10308.64
266.094	10271.69
266.163	10270.15
266.232	10268.17
266.302	10261.86
266.371	10250.39
266.441	10240.28
266.51	10232.62
266.58	10217.68
266.649	10199.52
266.719	10196.2
266.788	10189.26
266.858	10187.67
266.927	10153.32
266.996	10140.75
267.066	10128.51
267.135	10098.88
267.205	10094.16
267.274	10079.23
267.343	10073.5
267.413	10067.72
267.482	10063.33
267.552	10066.66
267.621	10037.51
267.69	10013.52
267.76	10003.98
267.829	9992.71
267.898	9974.84
267.968	9958.66
268.037	9949.7
268.106	9945.31
268.176	9921.37
268.245	9902.25
268.314	9880.91
268.384	9878.93
268.453	9870.17
268.522	9870.31
268.592	9872.29
268.661	9856.34
268.73	9848.44
268.799	9832.89
268.869	9834.72
268.938	9806.73
269.007	9781.93
269.076	9776.49
269.146	9771.14
269.215	9757.27
269.284	9767.29
269.353	9750.19
269.422	9736.95
269.492	9716.86
269.561	9675.88
269.63	9668.08
269.699	9653.53
269.768	9645.63
269.838	9638.26
269.907	9636.43
269.976	9610.47
270.045	9582.83
270.114	9571.71
270.183	9554.51
270.253	9545.07
270.322	9514.45
270.391	9504.04
270.46	9514.69
270.529	9507.17
270.598	9509.25
270.667	9500.48
270.736	9470.57
270.806	9466.33
270.875	9461.37
270.944	9456.9
271.013	9481.36
271.082	9466.33
271.151	9455.88
271.22	9432.58
271.289	9413.6
271.358	9396.32
271.427	9384.42
271.496	9371.23
271.565	9360.06
271.634	9352.84
271.703	9358.61
271.772	9366.75
271.841	9353.37
271.91	9328.33
271.979	9311.57
272.048	9287.49
272.117	9282.48
272.186	9266.45
272.255	9263.08
272.324	9260.53
272.393	9253.45
272.462	9232.98
272.531	9223.84
272.6	9215.26
272.669	9209.82
272.738	9195.77
272.807	9196.05
272.876	9179.49
272.945	9201.79
273.013	9196.92
273.082	9194.47
273.151	9169.29
273.22	9155.32
273.289	9151.76
273.358	9158.45
273.427	9147.38
273.496	9138.57
273.564	9125.33
273.633	9131.88
273.702	9115.51
273.771	9103.76
273.84	9087.78
273.909	9083.73
273.977	9080.31
274.046	9066.83
274.115	9073.24
274.184	9064.52
274.253	9047.87
274.322	9060
274.39	9036.69
274.459	9022.54
274.528	8995.25
274.597	8984.46
274.665	8983.84
274.734	8992.17
274.803	8980.95
274.872	8975.7
274.94	8964.82
275.009	9015.15
275.078	8996.47
275.147	8990.98
275.215	8986.94
275.284	9002.05
275.353	8991.17
275.421	8970.67
275.49	8986.5
275.559	8975.82
275.627	8967.88
275.696	8963.74
275.765	8954.78
275.833	8945.49
275.902	8940.68
275.971	8952.71
276.039	8970.67
276.108	8974.37
276.177	8969.7
276.245	8959.64
276.314	8956.9
276.383	8966.43
276.451	8913.79
276.52	8915.33
276.588	8925.15
276.657	8928.52
276.725	8915.91
276.794	8915.96
276.863	8926.69
276.931	8905.61
277	8909.99
277.068	8919.76
277.137	8937.09
277.205	8932.71
277.274	8941.23
277.342	8952.74
277.411	8932.23
277.48	8919.38
277.548	8905.03
277.617	8903.2
277.685	8891.36
277.754	8891.75
277.822	8875.33
277.89	8893.77
277.959	8886.7
278.027	8871.34
278.096	8857.72
278.164	8884.35
278.233	8872.22
278.301	8863.02
278.37	8862.93
278.438	8846.46
278.507	8844.2
278.575	8816.19
278.643	8815.51
278.712	8799.05
278.78	8780.81
278.849	8791.2
278.917	8796.69
278.985	8790.43
279.054	8788.07
279.122	8797.22
279.191	8795.2
279.259	8789.57
279.327	8757.84
279.396	8771.17
279.464	8768.86
279.532	8779.5
279.601	8771.6
279.669	8768.72
279.737	8779.74
279.806	8782.39
279.874	8795.67
279.942	8795.09
280.011	8790.86
280.079	8795.29
280.147	8814.16
280.215	8820.46
280.284	8818.82
280.352	8806.84
280.42	8813.58
280.488	8807.08
280.557	8804.62
280.625	8804.48
280.693	8805.06
280.761	8812.08
280.83	8795.53
280.898	8805.78
280.966	8781.71
281.034	8743.21
281.102	8733.92
281.171	8727.03
281.239	8734.16
281.307	8726.6
281.375	8711.59
281.443	8731.99
281.512	8731.27
281.58	8729.3
281.648	8718.23
281.716	8718.13
281.784	8713.9
281.852	8702.73
281.92	8698.98
281.989	8704.27
282.057	8685.98
282.125	8728.01
282.193	8723.2
282.261	8724.21
282.329	8716.75
282.397	8726.18
282.465	8731.13
282.533	8741.58
282.601	8733.59
282.67	8712.12
282.738	8705
282.806	8722.28
282.874	8709.76
282.942	8704.32
283.01	8704.03
283.078	8707.35
283.146	8699.12
283.214	8708.8
283.282	8717.51
283.35	8727.42
283.418	8720.49
283.486	8730.31
283.554	8692.13
283.622	8688.28
283.69	8686.36
283.758	8683.23
283.826	8687.95
283.894	8700.7
283.962	8723.33
284.03	8731.22
284.098	8732.76
284.165	8723.42
284.233	8718.71
284.301	8709.37
284.369	8704.61
284.437	8691.61
284.505	8685.55
284.573	8700.56
284.641	8686.03
284.709	8688.87
284.777	8673.99
284.845	8680.64
284.912	8684.05
284.98	8687.08
285.048	8682.18
285.116	8684.58
285.184	8692.43
285.252	8684.87
285.319	8669.95
285.387	8657.43
285.455	8639.92
285.523	8644.54
285.591	8640.25
285.659	8638.57
285.726	8655.94
285.794	8645.45
285.862	8646.42
285.93	8641.94
285.997	8639.15
286.065	8631.4
286.133	8624.18
286.201	8619.75
286.269	8611.96
286.336	8604.74
286.404	8605.51
286.472	8613.79
286.539	8602.24
286.607	8589.1
286.675	8591.22
286.743	8596.85
286.81	8590.44
286.878	8600.45
286.946	8597.95
287.013	8601.08
287.081	8600.98
287.149	8591.69
287.216	8604.54
287.284	8598.14
287.352	8604.59
287.419	8596.46
287.487	8617.1
287.555	8621.05
287.622	8621.39
287.69	8627.5
287.758	8634.19
287.825	8624.76
287.893	8611.95
287.96	8616.33
288.028	8626.3
288.096	8629.71
288.163	8632.84
288.231	8620.52
288.298	8616.77
288.366	8624.76
288.433	8626.25
288.501	8619.75
288.569	8619.13
288.636	8617.25
288.704	8629.71
288.771	8632.07
288.839	8628.7
288.906	8620.33
288.974	8625.19
289.041	8622.3
289.109	8608.2
289.176	8623.99
289.244	8624.61
289.311	8640.83
289.379	8649.5
289.446	8648.82
289.514	8649.64
289.581	8649.54
289.649	8652.53
289.716	8657.73
289.783	8649.78
289.851	8665.47
289.918	8664.75
289.986	8669.61
290.053	8673.9
290.121	8664.17
290.188	8667.06
290.255	8697.77
290.323	8697.67
290.39	8696.33
290.458	8703.4
290.525	8715.38
290.592	8702.58
290.66	8709.51
290.727	8700.99
290.794	8712.3
290.862	8719.72
290.929	8716.92
290.996	8721.21
291.064	8732.23
291.131	8741.95
291.198	8757.84
291.266	8757.35
291.333	8753.46
291.4	8762.84
291.468	8773
291.535	8779.02
291.602	8783.83
291.669	8770.59
291.737	8775.07
291.804	8778.29
291.871	8794.08
291.938	8801.35
292.006	8831.53
292.073	8842.12
292.14	8852.23
292.207	8840.87
292.275	8837.36
292.342	8845.44
292.409	8863.88
292.476	8891.66
292.543	8887.85
292.611	8889.59
292.678	8904.94
292.745	8936.47
292.812	8941.04
292.879	8939.74
292.946	8941.86
293.014	8956.4
293.081	8961.5
293.148	8973.49
293.215	8985.04
293.282	8981.05
293.349	8986.1
293.416	8967.9
293.484	8980.9
293.551	8993.47
293.618	9016.86
293.685	9035.25
293.752	9033.61
293.819	9031.64
293.886	9012.91
293.953	9019.7
294.02	9023.65
294.087	9027.55
294.154	9022.78
294.221	9035.83
294.288	9042.33
294.356	9061.39
294.423	9064.81
294.49	9061.15
294.557	9067.5
294.624	9059.95
294.691	9077.13
294.758	9079.64
294.825	9087.34
294.892	9083.82
294.959	9086.76
295.026	9088.59
295.093	9084.88
295.16	9086.81
295.226	9086.18
295.293	9109.01
295.36	9108.19
295.427	9123.16
295.494	9133.03
295.561	9136.26
295.628	9158.65
295.695	9173.58
295.762	9174.73
295.829	9185.9
295.896	9206.65
295.963	9216.52
296.03	9220.95
296.096	9227.41
296.163	9241.71
296.23	9252.78
296.297	9259.47
296.364	9255.67
296.431	9260.29
296.498	9261.45
296.564	9287.78
296.631	9294.57
296.698	9284.94
296.765	9315.66
296.832	9303.33
296.899	9290.05
296.965	9308.1
297.032	9283.88
297.099	9300.69
297.166	9312.87
297.233	9309.16
297.299	9300.16
297.366	9301.5
297.433	9307.62
297.5	9319.9
297.566	9318.84
297.633	9324.28
297.7	9324.23
297.767	9323.13
297.833	9332.08
297.9	9328.76
297.967	9311.14
298.033	9321.44
298.1	9345.66
298.167	9332.13
298.234	9341.23
298.3	9355.1
298.367	9351.25
298.434	9364.83
298.5	9351.01
298.567	9346.91
298.634	9346.33
298.7	9362.51
298.767	9368.05
298.834	9385.1
298.9	9375.76
298.967	9373.35
299.033	9378.21
299.1	9399.79
299.167	9415
299.233	9405.61
299.3	9422.03
299.366	9441.29
299.433	9460.02
299.5	9433.25
299.566	9439.75
299.633	9454.05
299.699	9470.19
299.766	9474.62
299.832	9476.06
299.899	9483.43
299.965	9491.47
300.032	9485.45
300.099	9489.79
300.165	9493.98
300.232	9489.35
300.298	9484.39
300.365	9496.05
300.431	9497.59
300.498	9490.65
300.564	9498.31
300.631	9514.92
300.697	9530.14
300.763	9530.24
300.83	9521.14
300.896	9538.33
300.963	9548.44
301.029	9555.04
301.096	9553.93
301.162	9558.26
301.229	9554.6
301.295	9545.5
301.361	9548.05
301.428	9558.26
301.494	9551.95
301.561	9554.17
301.627	9554.17
301.693	9561.39
301.76	9564.33
301.826	9557.54
301.892	9561.2
301.959	9570.45
302.025	9563.03
302.092	9554.46
302.158	9558.36
302.224	9556.86
302.291	9548.44
302.357	9544.49
302.423	9534.33
302.49	9523.39
302.556	9533.36
302.622	9527.15
302.688	9537.75
302.755	9546.56
302.821	9553.78
302.887	9555.85
302.954	9556.43
303.02	9564.67
303.086	9572.85
303.152	9572.18
303.219	9571.41
303.285	9582.1
303.351	9583.59
303.417	9593.52
303.483	9587.64
303.55	9581.43
303.616	9588.36
303.682	9587.4
303.748	9579.02
303.815	9591.69
303.881	9607.58
303.947	9595.78
304.013	9599.06
304.079	9593.47
304.145	9572.14
304.212	9569.87
304.278	9559.33
304.344	9552.25
304.41	9539.44
304.476	9528.6
304.542	9513.63
304.608	9516.66
304.674	9496.05
304.741	9488.97
304.807	9483.81
304.873	9488.1
304.939	9498.84
305.005	9480.39
305.071	9483.14
305.137	9481.5
305.203	9461.23
305.269	9454.24
305.335	9460.79
305.401	9460.46
305.467	9454.15
305.533	9468.4
305.599	9469.36
305.666	9477.41
305.732	9477.65
305.798	9488.43
305.864	9520.22
305.93	9530.09
305.996	9528.55
306.062	9535
306.128	9529.27
306.194	9516.75
306.259	9514.35
306.325	9505.87
306.391	9508.81
306.457	9513.57
306.523	9524.26
306.589	9544.68
306.655	9539.77
306.721	9522.15
306.787	9508.86
306.853	9528.6
306.919	9504.77
306.985	9500.87
307.051	9498.46
307.117	9491.04
307.183	9479.92
307.248	9445.92
307.314	9448.76
307.38	9446.69
307.446	9448.18
307.512	9435.71
307.578	9441.73
307.644	9438.98
307.709	9439.08
307.775	9437.15
307.841	9431.76
307.907	9427.09
307.973	9407
308.039	9400.65
308.104	9409.41
308.17	9415.48
308.236	9395.73
308.302	9404.64
308.368	9395.3
308.433	9394.82
308.499	9390.48
308.565	9384.42
308.631	9385.04
308.696	9360.92
308.762	9353.65
308.828	9349.12
308.894	9333.19
308.959	9314.89
309.025	9302.85
309.091	9300.92
309.156	9295.77
309.222	9298.57
309.288	9286.05
309.354	9265.92
309.419	9258.6
309.485	9241.99
309.551	9244.49
309.616	9230.72
309.682	9228.27
309.748	9219.99
309.813	9212.57
309.879	9201.26
309.945	9186.76
310.01	9179.69
310.076	9185.18
310.141	9174.2
310.207	9157.54
310.273	9163.17
310.338	9164.13
310.404	9148.58
310.469	9130.29
310.535	9120.37
310.601	9098.17
310.666	9105.39
310.732	9116.08
310.797	9108.23
310.863	9098.32
310.928	9087
310.994	9088.11
311.059	9083.68
311.125	9075.45
311.191	9082.33
311.256	9074.39
311.322	9082.05
311.387	9062.16
311.453	9361.93
311.518	9345.03
311.584	9344.21
311.649	9345.8
311.715	9333.72
311.78	9334.2
311.846	9329.77
311.911	9333.19
311.976	9335.02
312.042	9312.78
312.107	9295.49
312.173	9287.69
312.238	9284.13
312.304	9282.16
312.369	9272.96
312.434	9260.01
312.5	9256.21
312.565	9226.12
312.631	9232.76
312.696	9225.69
312.761	9227.13
312.827	8920.48
312.892	8948.5
312.958	8945.18
313.023	8938.97
313.088	8940.27
313.154	8924.77
313.219	8915.58
313.284	8907.87
313.35	8899.11
313.415	8887.18
313.48	8883.81
313.546	8882.99
313.611	8893.43
313.676	8878.13
313.741	8867.63
313.807	8879.81
313.872	8879.28
313.937	8887.56
314.003	8893.05
314.068	8895.55
314.133	8901.28
314.198	8884.68
314.264	8866.28
314.329	8855.31
314.394	8856.42
314.459	8850.98
314.525	8876.49
314.59	8871.24
314.655	8857.62
314.72	8863.54
314.785	8868.11
314.851	8859.4
314.916	8843.81
314.981	8823.54
315.046	8815.07
315.111	8806.31
315.176	8792.16
315.242	8795.57
315.307	8792.54
315.372	8770.88
315.437	8755.62
315.502	8743.59
315.567	8755.29
315.632	8739.64
315.698	8736.9
315.763	8729.05
315.828	8718.42
315.893	8705.18
315.958	8699.74
316.023	8687.66
316.088	8670.86
316.153	8648.05
316.218	8636.31
316.283	8615.28
316.348	8598.11
316.413	8594.79
316.479	8583.62
316.544	8542.96
316.609	8515.58
316.674	8476.8
316.739	8445.62
316.804	8415.06
316.869	8380.95
316.934	8340.05
316.999	8311.28
317.064	8262.73
317.129	8219.53
317.194	8182.1
317.259	8137.84
317.324	8086.9
317.389	8043.47
317.454	8001.47
317.518	7974.58
317.583	7947.5
317.648	7923.55
317.713	7890.27
317.778	7831.74
317.843	7799.46
317.908	7760.47
317.973	7715.99
318.038	7686.42
318.103	7645.55
318.168	7614.63
318.233	7583.24
318.297	7537.95
318.362	7499.82
318.427	7460.27
318.492	7433.97
318.557	7387.11
318.622	7354.47
318.687	7331.21
318.751	7290.65
318.816	7256.14
318.881	7215.19
318.946	7165.98
319.011	7123.21
319.075	7076.94
319.14	7041.68
319.205	6990.65
319.27	6956.5
319.335	6914.75
319.399	6874.73
319.464	6846.2
319.529	6792.69
319.594	6750.03
319.658	6713.34
319.723	6670.11
319.788	6639.34
319.853	6585.59
319.917	6555.3
319.982	6505.6
320.047	6467.42
320.112	6441.07
320.176	6391.28
320.241	6358.25
320.306	6325.8
320.37	6283.7
320.435	6249.96
320.5	6225.29
320.564	6190.16
320.629	6153.03
320.694	6123.03
320.758	6079.61
320.823	6030.77
320.888	6000.74
320.952	5952.92
321.017	5912.57
321.082	5870.85
321.146	5835.11
321.211	5798.66
321.275	5757.76
321.34	5711.83
321.405	5665.51
321.469	5619.33
321.534	5576.38
321.598	5525.37
321.663	5496.5
321.727	5465.87
321.792	5419.66
321.857	5373.35
321.921	5334.68
321.986	5288.01
322.05	5227.26
322.115	5191.66
322.179	5153.34
322.244	5098.16
322.308	5065.69
322.373	5021.63
322.437	4978.96
322.502	4952.32
322.566	4905.39
322.631	4870.2
322.695	4829.42
322.76	4787.1
322.824	4751.96
322.889	4711.24
322.953	4666.31
323.018	4599.58
323.082	4533.31
323.146	4485.05
323.211	4430.65
323.275	4382.04
323.34	4338.24
323.404	4306.06
323.468	4258.27
323.533	4215.19
323.597	4167.02
323.662	4116.34
323.726	4079.62
323.79	4039.61
323.855	3974.34
323.919	3929.42
323.983	3884.97
324.048	3817.88
324.112	3945.94
324.177	3814.1
324.241	3614.13
324.305	3418.07
324.37	3226.03
324.434	3043.07
324.498	2999.51
324.562	2951.48
324.627	2894.43
324.691	2843.01
324.755	2776.5
324.82	2702.53
324.884	2625.74
324.948	2560.73
325.012	2469.52
325.077	2349.32
