Data from 20250630_urea_2M_MAYP1162681_12-12-26-916.txt Node
Date: Tue Jul 01 12:12:26 BST 2025
User: adleo
Spectrometer: MAYP116268
Trigger mode: 0
Integration Time (sec): 1.000000E0
Scans to average: 1
Electric dark correction enabled: true
Nonlinearity correction enabled: true
Boxcar width: 10
XAxis mode: Wavelengths
Number of Pixels in Spectrum: 2068
>>>>>Begin Spectral Data<<<<<
179.565	1124.74
179.642	1175.13
179.718	1214.63
179.795	1253.33
179.871	1283.94
179.948	1301.88
180.024	1320.4
180.101	1340.8
180.177	1352.17
180.254	1371.34
180.33	1392.53
180.407	1439.8
180.483	1529.59
180.56	1614.02
180.636	1693.73
180.712	1680.28
180.789	1690.4
180.865	1699.85
180.942	1707.59
181.018	1718.24
181.095	1732.07
181.171	1737.91
181.248	1739
181.324	1752.22
181.4	1754.69
181.477	1764.29
181.553	1776.6
181.63	1796.18
181.706	1809.96
181.782	1819.79
181.859	1819.75
181.935	1823.74
182.011	1819.56
182.088	1835.44
182.164	1851.6
182.24	1863.1
182.317	1874.27
182.393	1870.52
182.469	1886.3
182.546	1899.65
182.622	1902.22
182.698	1897.61
182.775	1907.02
182.851	1919.67
182.927	1915.44
183.003	1914.91
183.08	1909.11
183.156	1917.01
183.232	1915.25
183.308	1905.07
183.385	1912.06
183.461	1928.13
183.537	1929.41
183.613	1941.92
183.69	1935.35
183.766	1926.08
183.842	1932.36
183.918	1936.06
183.995	1948.9
184.071	1951.18
184.147	1947.76
184.223	1936.97
184.299	1946.39
184.375	1933.88
184.452	1941.3
184.528	1998.11
184.604	2006.57
184.68	2018.12
184.756	2022.69
184.832	2025.63
184.908	2033.81
184.985	2032.91
185.061	2020.78
185.137	2030.91
185.213	2021.88
185.289	2022.16
185.365	2013.75
185.441	2014.61
185.517	2027.64
185.593	2024.31
185.669	2022.17
185.745	2031.4
185.822	2049.98
185.898	2047.22
185.974	2056.87
186.05	2046.79
186.126	2001.92
186.202	1994.37
186.278	1992.42
186.354	1985.95
186.43	1992.94
186.506	1988
186.582	1989.14
186.658	1994.89
186.734	1973.54
186.81	1974.11
186.886	1974.21
186.962	1989.14
187.038	1983.29
187.114	1977.72
187.19	1983.71
187.266	1975.68
187.341	1974.02
187.417	1964.65
187.493	1961.51
187.569	1963.41
187.645	1959.75
187.721	1950.67
187.797	1959.99
187.873	1963.65
187.949	1955
188.025	1951.29
188.101	1954.52
188.176	1957.23
188.252	1954.71
188.328	1961.65
188.404	1961.98
188.48	1957.13
188.556	1948.86
188.632	1949.71
188.707	1947.62
188.783	1947.14
188.859	1939.68
188.935	1931.79
189.011	1939.54
189.086	1935.59
189.162	1929.51
189.238	1927.61
189.314	1925.51
189.39	1918.14
189.465	1912.58
189.541	1930.03
189.617	1910.92
189.693	1908.16
189.768	1912.49
189.844	1934.13
189.92	1928.19
189.996	1936.47
190.071	1948.97
190.147	1948.83
190.223	1956.06
190.298	1948.26
190.374	1934.52
190.45	1949.06
190.526	1958.62
190.601	1954.58
190.677	1955.34
190.753	1981.55
190.828	1985.64
190.904	1999.62
190.98	2013.55
191.055	2020.88
191.131	2013.93
191.207	2034.43
191.282	2042.98
191.358	2033.33
191.433	2019.25
191.509	2032.46
191.585	2029.85
191.66	2029.66
191.736	2037.22
191.811	2028.8
191.887	2046.83
191.963	2070.13
192.038	2075.93
192.114	2076.17
192.189	2078.22
192.265	2075.7
192.34	2055.14
192.416	2053.91
192.491	2047.48
192.567	2051.58
192.642	2054.43
192.718	2055.48
192.793	2042.11
192.869	2037.64
192.944	2040.5
193.02	2045.97
193.095	2049.29
193.171	2055.48
193.246	2054.91
193.322	2053.1
193.397	2054.86
193.473	2040.06
193.548	2023.65
193.624	2029.7
193.699	2027.17
193.775	2042.26
193.85	2043.44
193.925	2049.86
194.001	2047.53
194.076	2040.69
194.152	2033.27
194.227	2025.61
194.302	2016.05
194.378	2023.56
194.453	2021.09
194.529	2031.98
194.604	2017.86
194.679	2011.82
194.755	1993.9
194.83	2006.79
194.905	2002.99
194.981	2013.12
195.056	2007.27
195.131	2013.02
195.207	2010.69
195.282	1999.9
195.357	1980.11
195.433	1993.57
195.508	1981.39
195.583	1989.33
195.659	2004.98
195.734	2011.36
195.809	2011.59
195.884	2020.39
195.96	2018.92
196.035	2033.04
196.11	2030.52
196.185	2043.79
196.261	2048.26
196.336	2077.84
196.411	2062.42
196.486	2069.65
196.561	2060.66
196.637	2068.27
196.712	2083.73
196.787	2083.59
196.862	2100.33
196.937	2114.98
197.013	2122.59
197.088	2136.91
197.163	2156.22
197.238	2173.93
197.313	2173.36
197.388	2186.4
197.464	2214.57
197.539	2226.7
197.614	2220.9
197.689	2229.79
197.764	2246.93
197.839	2266.82
197.914	2261.49
197.989	2281.9
198.065	2292.37
198.14	2342.03
198.215	2367.83
198.29	2379.35
198.365	2393.34
198.44	2401.72
198.515	2423.81
198.59	2436.24
198.665	2459.75
198.74	2467.85
198.815	2466.8
198.89	2484.89
198.965	2511.42
199.04	2505.13
199.115	2518.03
199.19	2558.93
199.265	2563.84
199.34	2570.17
199.415	2599.67
199.49	2618.28
199.565	2628.9
199.64	2655.57
199.715	2652.38
199.79	2658.57
199.865	2665.62
199.94	2661.01
200.015	2693.4
200.09	2699.88
200.165	2709.46
200.24	2716.32
200.315	2755.18
200.39	2769.85
200.464	2778.95
200.539	2784.2
200.614	2802.68
200.689	2824.07
200.764	2828.41
200.839	2848.37
200.914	2854.32
200.989	2844.36
201.063	2860.04
201.138	2842.09
201.213	2837.18
201.288	2818.17
201.363	2826.03
201.438	2822.41
201.512	2839.98
201.587	2820.82
201.662	2825.16
201.737	2834.31
201.812	2840.89
201.886	2810.46
201.961	2819.9
202.036	2805.57
202.111	2799.08
202.186	2769.08
202.26	2753.16
202.335	2733.2
202.41	2722.62
202.485	2708.48
202.559	2689.13
202.634	2659.31
202.709	2668.98
202.784	2654.07
202.858	2653.97
202.933	2632.96
203.008	2628.92
203.082	2611.48
203.157	2610.39
203.232	2567.97
203.306	2548
203.381	2517.42
203.456	2495.18
203.53	2474.4
203.605	2456.03
203.68	2436.84
203.754	2429.46
203.829	2415.89
203.904	2396.57
203.978	2387.19
204.053	2390
204.127	2378.57
204.202	2378.14
204.277	2361.96
204.351	2354.49
204.426	2348.06
204.5	2338.49
204.575	2308.08
204.65	2314.75
204.724	2309.18
204.799	2318.55
204.873	2312.36
204.948	2308.93
205.022	2296.09
205.097	2284.85
205.171	2301.07
205.246	2304.5
205.32	2305.31
205.395	2305.36
205.469	2298.6
205.544	2302.37
205.618	2283.04
205.693	2296.27
205.767	2286.42
205.842	2306.37
205.916	2299.56
205.991	2291.62
206.065	2297.76
206.14	2311.36
206.214	2304.84
206.289	2297.41
206.363	2309.12
206.438	2310.36
206.512	2317.88
206.586	2337.19
206.661	2343.81
206.735	2323.69
206.81	2327.26
206.884	2342.06
206.958	2330.21
207.033	2347.19
207.107	2356.77
207.181	2391.91
207.256	2385.91
207.33	2404.04
207.405	2418.24
207.479	2438.23
207.553	2443.42
207.628	2428.53
207.702	2437.76
207.776	2438.24
207.851	2439.9
207.925	2453.62
207.999	2451.57
208.073	2450.86
208.148	2453.1
208.222	2444.34
208.296	2472.23
208.371	2486.71
208.445	2498.33
208.519	2524.99
208.593	2535.46
208.668	2531.7
208.742	2530.22
208.816	2530.41
208.89	2544.42
208.965	2542.89
209.039	2551.32
209.113	2566.61
209.187	2587.64
209.261	2584.17
209.336	2600.27
209.41	2622.7
209.484	2620.32
209.558	2641.9
209.632	2654.28
209.707	2667.57
209.781	2690.86
209.855	2707.82
209.929	2722.37
210.003	2725.94
210.077	2727.89
210.151	2772.77
210.226	2804.28
210.3	2831.37
210.374	2856.37
210.448	2858.66
210.522	2868.72
210.596	2874.77
210.67	2884.92
210.744	2929.26
210.818	2960.03
210.892	2980.63
210.966	2976.01
211.041	2992.78
211.115	2991.54
211.189	3014.76
211.263	3028.96
211.337	3034.3
211.411	3044.22
211.485	3038.97
211.559	3053.75
211.633	3055.23
211.707	3024.12
211.781	3030.95
211.855	2999.76
211.929	2989.04
212.003	2973.13
212.077	2984.05
212.151	2999.45
212.225	3011.42
212.299	3003.16
212.373	2996.73
212.447	2993.01
212.52	3020.62
212.594	3028.34
212.668	3043.08
212.742	3037.78
212.816	3044.13
212.89	3042.22
212.964	3050.71
213.038	3061.11
213.112	3081.43
213.186	3103.32
213.26	3092.07
213.333	3059.55
213.407	3074.28
213.481	3090.24
213.555	3112.5
213.629	3110.3
213.703	3105.34
213.777	3115.6
213.85	3109.64
213.924	3155.45
213.998	3170.86
214.072	3176.11
214.146	3179.64
214.219	3192.14
214.293	3203.16
214.367	3214.46
214.441	3248.68
214.515	3254.69
214.588	3257.74
214.662	3239.47
214.736	3244.57
214.81	3279.24
214.883	3311.24
214.957	3325.69
215.031	3336.99
215.105	3344.34
215.178	3359.61
215.252	3384.38
215.326	3390.11
215.4	3402.22
215.473	3387.08
215.547	3398.06
215.621	3421.13
215.694	3460.68
215.768	3473.23
215.842	3497.77
215.915	3521.51
215.989	3526.9
216.063	3555.95
216.136	3590.48
216.21	3636.21
216.284	3688.43
216.357	3727.84
216.431	3767.02
216.504	3817.18
216.578	3886.96
216.652	3940.3
216.725	3987.67
216.799	4041.13
216.873	4089.64
216.946	4150.72
217.02	4196.45
217.093	4250.39
217.167	4284.82
217.24	4319.6
217.314	4368.99
217.387	4414.47
217.461	4461.25
217.535	4533.21
217.608	4577.42
217.682	4632.31
217.755	4694.44
217.829	4737.19
217.902	4792.68
217.976	4845.71
218.049	4892.16
218.123	4935.18
218.196	4996.28
218.27	5046.48
218.343	5092.86
218.417	5154.65
218.49	5209.18
218.563	5285.75
218.637	5345.27
218.71	5425.9
218.784	5497.91
218.857	5574.8
218.931	5647.22
219.004	5719.39
219.077	5786.5
219.151	5856.23
219.224	5919.93
219.298	5988.25
219.371	6065.31
219.444	6122.97
219.518	6197.92
219.591	6272.25
219.665	6362.42
219.738	6435.43
219.811	6496.24
219.885	6574.26
219.958	6654.79
220.031	6722.82
220.105	6796.17
220.178	6866.15
220.251	6929.81
220.325	6998.95
220.398	7069.05
220.471	7141.46
220.544	7210.65
220.618	7273.76
220.691	7348.44
220.764	7422.56
220.838	7492.6
220.911	7563.23
220.984	7654.09
221.057	7728.62
221.131	7797.28
221.204	7845.38
221.277	7934.41
221.35	8029.87
221.424	8094.86
221.497	8169.43
221.57	8242.3
221.643	8312.26
221.716	8392.22
221.79	8448.8
221.863	8521.23
221.936	8590.48
222.009	8661.94
222.082	8740.72
222.155	8804.4
222.229	8889.6
222.302	8961.61
222.375	9029.92
222.448	9097.08
222.521	9163.38
222.594	9229.53
222.667	9286.38
222.74	9362.22
222.814	9420.06
222.887	9487.58
222.96	9561.64
223.033	9630.18
223.106	9694.03
223.179	9766.38
223.252	9833.33
223.325	9910.48
223.398	9975.27
223.471	10041.26
223.544	10097.42
223.617	10161.54
223.69	10223.54
223.763	10275.28
223.837	10338.78
223.91	10402.57
223.983	10453.39
224.056	10501
224.129	10563.58
224.202	10638.93
224.275	10689.33
224.348	10742.72
224.42	10783.39
224.493	10827.14
224.566	10872.35
224.639	10946.02
224.712	10996.53
224.785	11045.88
224.858	11102.79
224.931	11154.02
225.004	11202.36
225.077	11268.52
225.15	11302.21
225.223	11366.98
225.296	11443.76
225.369	11487.86
225.442	11543.63
225.514	11606.67
225.587	11675.16
225.66	11730.44
225.733	11789.44
225.806	11852.82
225.879	11903.43
225.952	11959.53
226.025	12031.45
226.097	12104.04
226.17	12151.04
226.243	12186.99
226.316	12250.19
226.389	12312.23
226.461	12374.41
226.534	12438.95
226.607	12492.75
226.68	12573.15
226.753	12628.54
226.825	12667.3
226.898	12741.19
226.971	12792.34
227.044	12851.05
227.117	12907.45
227.189	12971.23
227.262	13036.79
227.335	13095.27
227.407	13150.61
227.48	13214.86
227.553	13278.79
227.626	13332.44
227.698	13396.31
227.771	13462.69
227.844	13504.87
227.916	13550.14
227.989	13595.21
228.062	13645.01
228.134	13717.17
228.207	13766.92
228.28	13818.94
228.352	13865.02
228.425	13912.31
228.498	13970.31
228.57	14012.73
228.643	14072.26
228.716	14117.86
228.788	14170.84
228.861	14211.96
228.934	14277.23
229.006	14323.75
229.079	14366.61
229.151	14410.86
229.224	14440.5
229.296	14498.35
229.369	14582.13
229.442	14652.65
229.514	14694.01
229.587	14756.73
229.659	14785.17
229.732	14838.86
229.804	14887.07
229.877	14960.82
229.949	15018.9
230.022	15095.26
230.094	15146.21
230.167	15197.01
230.239	15233.26
230.312	15270.52
230.384	15342.49
230.457	15389.19
230.529	15441.25
230.602	15488.39
230.674	15540.98
230.747	15606.73
230.819	15664.33
230.892	15670.64
230.964	15719.08
231.037	15770.18
231.109	15809.8
231.181	15869.13
231.254	15904.56
231.326	15947.41
231.399	15980.62
231.471	16021.78
231.544	16038.65
231.616	16091.52
231.688	16130.13
231.761	16180.69
231.833	16224.45
231.905	16248.89
231.978	16286.43
232.05	16327.55
232.122	16366.1
232.195	16399.36
232.267	16446.16
232.339	16475.75
232.412	16529.73
232.484	16553.73
232.556	16589.4
232.629	16650.71
232.701	16687.86
232.773	16719.63
232.846	16756.98
232.918	16792.98
232.99	16828.5
233.062	16868.55
233.135	16901.61
233.207	16926.82
233.279	16957.47
233.351	16986.19
233.424	17009.09
233.496	17033.04
233.568	17070.15
233.64	17086.2
233.713	17114.63
233.785	17134.44
233.857	17154.78
233.929	17171.02
234.001	17207.74
234.074	17251.31
234.146	17247.79
234.218	17271.74
234.29	17296.03
234.362	17310.88
234.434	17318.83
234.507	17331.21
234.579	17337.33
234.651	17356.76
234.723	17382.35
234.795	17409.53
234.867	17425
234.939	17456.8
235.012	17478.39
235.084	17505.86
235.156	17538.1
235.228	17543.41
235.3	17551.31
235.372	17575.12
235.444	17612.75
235.516	17617.09
235.588	17632.08
235.66	17653.77
235.732	17651.4
235.804	17714.97
235.876	17737.81
235.948	17761.81
236.02	17772.37
236.092	17777.09
236.164	17786.44
236.236	17787.4
236.308	17789.86
236.38	17802.05
236.452	17802.58
236.524	17819.88
236.596	17842.29
236.668	17859.35
236.74	17870
236.812	17890.43
236.884	17904.84
236.956	17908.07
237.028	17901.33
237.1	17894.05
237.172	17913.37
237.244	17943.06
237.316	17912.46
237.388	17906.34
237.46	17905.81
237.532	17920.7
237.604	17920.94
237.675	17934.91
237.747	17951.49
237.819	17941.81
237.891	17945.85
237.963	17942.53
238.035	17926.87
238.107	17890.43
238.178	17901.23
238.25	17892.8
238.322	17909.08
238.394	17875.11
238.466	17865.18
238.538	17871.78
238.609	17871.4
238.681	17846
238.753	17824.89
238.825	17822.58
238.897	17820.32
238.968	17831.45
239.04	17815.64
239.112	17828.75
239.184	17816.32
239.255	17799.3
239.327	17801.76
239.399	17798.97
239.471	17798.05
239.542	17796.46
239.614	17795.59
239.686	17754.58
239.758	17758.53
239.829	17727.02
239.901	17746.15
239.973	17732.75
240.044	17720.37
240.116	17702.58
240.188	17695.31
240.259	17686.54
240.331	17663.02
240.403	17663.45
240.474	17628.8
240.546	17604.22
240.618	17582.92
240.689	17559.55
240.761	17547.45
240.833	17548.42
240.904	17528.08
240.976	17507.89
241.048	17498.11
241.119	17492.18
241.191	17478.39
241.262	17475.5
241.334	17460.85
241.405	17426.2
241.477	17398.44
241.549	17382.15
241.62	17371.36
241.692	17353.67
241.763	17343.79
241.835	17331.17
241.906	17307.74
241.978	17277.48
242.049	17274.73
242.121	17264.03
242.192	17250.78
242.264	17215.11
242.335	17180.99
242.407	17161.38
242.478	17137.72
242.55	17115.64
242.621	17087.74
242.693	17064.03
242.764	17037.81
242.836	17016.17
242.907	17006.05
242.979	16996.46
243.05	16973.13
243.122	16959.45
243.193	16937.23
243.264	16894.14
243.336	16874.29
243.407	16865.18
243.479	16857.37
243.55	16838.53
243.622	16816.5
243.693	16795.29
243.764	16787.15
243.836	16748.93
243.907	16724.74
243.978	16704.06
244.05	16680.59
244.121	16636.78
244.192	16627.09
244.264	16583.66
244.335	16555.04
244.407	16518.17
244.478	16489.73
244.549	16460.09
244.62	16422.06
244.692	16386.01
244.763	16368.08
244.834	16329.43
244.906	16284.46
244.977	16275.25
245.048	16258.29
245.119	16222.77
245.191	16180.21
245.262	16133.7
245.333	16129.74
245.405	16106.75
245.476	16083.76
245.547	16064.05
245.618	16050.02
245.689	16020.24
245.761	16005.05
245.832	15979.75
245.903	15956.86
245.974	15941.91
246.045	15918.06
246.117	15906.82
246.188	15873.95
246.259	15839.3
246.33	15810.91
246.401	15789.65
246.473	15739.47
246.544	15698.46
246.615	15685.88
246.686	15665.44
246.757	15655.46
246.828	15616.76
246.899	15601.81
246.97	15553.08
247.042	15516.35
247.113	15498.57
247.184	15488.06
247.255	15448.92
247.326	15416
247.397	15387.8
247.468	15352.81
247.539	15323.74
247.61	15280.7
247.681	15264.93
247.752	15252.69
247.823	15218.9
247.894	15190.12
247.965	15156.38
248.037	15125.68
248.108	15077.23
248.179	15040.21
248.25	15008.35
248.321	14987.72
248.392	14945.01
248.463	14945.49
248.534	14913.49
248.605	14895.8
248.675	14863.16
248.746	14847.98
248.817	14834.82
248.888	14821.85
248.959	14775.43
249.03	14754.13
249.101	14732.53
249.172	14704.09
249.243	14648.75
249.314	14635.93
249.385	14612.74
249.456	14588.78
249.527	14565.02
249.598	14551.23
249.669	14531.32
249.739	14517.73
249.81	14496.37
249.881	14453.47
249.952	14423.78
250.023	14398.18
250.094	14348.38
250.165	14312.71
250.235	14281.38
250.306	14255.69
250.377	14212.78
250.448	14199.62
250.519	14153.88
250.59	14133.77
250.66	14100.51
250.731	14098.54
250.802	14066
250.873	14043.68
250.944	14028.3
251.014	13999.42
251.085	13995.23
251.156	13977.01
251.227	13958.5
251.297	13939.7
251.368	13932.47
251.439	13918
251.51	13914.39
251.58	13890.09
251.651	13863.58
251.722	13848.59
251.792	13799.61
251.863	13770.06
251.934	13760.32
252.005	13770.2
252.075	13744.85
252.146	13731.4
252.217	13721.47
252.287	13708.88
252.358	13677.5
252.429	13666.56
252.499	13635.08
252.57	13610.25
252.641	13590.78
252.711	13568.07
252.782	13528.98
252.852	13523.53
252.923	13494.46
252.994	13462.5
253.064	13453.24
253.135	13420.08
253.205	13390.53
253.276	13391.49
253.347	13386.53
253.417	13354.9
253.488	13320.34
253.558	13296.09
253.629	13270.4
253.699	13245.67
253.77	13237.28
253.841	13212.98
253.911	13198.95
253.982	13176.49
254.052	13158.94
254.123	13143.04
254.193	13120.09
254.264	13138.31
254.334	13106.83
254.405	13073.81
254.475	13040.36
254.546	13017.46
254.616	13011.67
254.687	12992.34
254.757	12970.46
254.827	12952.96
254.898	12936.52
254.968	12917.77
255.039	12892.75
255.109	12879.78
255.18	12856.35
255.25	12808.49
255.321	12796.34
255.391	12752.76
255.461	12758.79
255.532	12713.47
255.602	12680.4
255.673	12637.74
255.743	12609.74
255.813	12565.87
255.884	12555.41
255.954	12540.51
256.024	12530.87
256.095	12506
256.165	12478.38
256.235	12462.9
256.306	12431.62
256.376	12419.81
256.446	12405.06
256.517	12388.81
256.587	12383.32
256.657	12359.36
256.728	12335.07
256.798	12317.18
256.868	12287.73
256.938	12254.09
257.009	12236.64
257.079	12226.71
257.149	12229.41
257.219	12178.89
257.29	12161.01
257.36	12122.35
257.43	12114.83
257.5	12068.65
257.571	12044.17
257.641	12032.5
257.711	11995.92
257.781	11980.35
257.852	11960.54
257.922	11925.06
257.992	11899.76
258.062	11877.82
258.132	11872.09
258.202	11857.68
258.273	11834.39
258.343	11837.62
258.413	11812.7
258.483	11797.23
258.553	11768.41
258.623	11738.38
258.693	11730.57
258.764	11732.07
258.834	11728.89
258.904	11710.76
258.974	11689.65
259.044	11666.71
259.114	11653.41
259.184	11642.61
259.254	11622.18
259.324	11580.92
259.394	11571.86
259.464	11571.23
259.535	11543.37
259.605	11512.62
259.675	11494.55
259.745	11485.25
259.815	11452.91
259.885	11424.37
259.955	11429.63
260.025	11404.95
260.095	11388.76
260.165	11369.1
260.235	11363.31
260.305	11339.46
260.375	11305
260.445	11311.31
260.515	11313.24
260.585	11298.35
260.655	11279.65
260.725	11268.75
260.795	11260.47
260.865	11255.79
260.934	11227.36
261.004	11217.38
261.074	11202.87
261.144	11195.21
261.214	11184.03
261.284	11166.87
261.354	11165.57
261.424	11139.11
261.494	11141.81
261.564	11126.63
261.634	11124.17
261.703	11088.13
261.773	11077.86
261.843	11072.08
261.913	11051.12
261.983	11009.91
262.053	11003.31
262.123	10984.81
262.192	10955.27
262.262	10952.86
262.332	10917.92
262.402	10911.27
262.472	10891.27
262.541	10846.85
262.611	10840.78
262.681	10809.02
262.751	10803.29
262.821	10781.12
262.89	10750.38
262.96	10737.61
263.03	10741.94
263.1	10722.28
263.169	10709.66
263.239	10699.06
263.309	10701.13
263.379	10694
263.448	10688.6
263.518	10674.91
263.588	10661.66
263.657	10665.86
263.727	10651.02
263.797	10642.05
263.867	10621.33
263.936	10594.11
264.006	10603.36
264.076	10580.72
264.145	10565.3
264.215	10540.63
264.285	10535.67
264.354	10510.04
264.424	10484.21
264.494	10447.69
264.563	10427.35
264.633	10429.96
264.702	10421.67
264.772	10388.66
264.842	10365.34
264.911	10352.1
264.981	10322.85
265.05	10308.06
265.12	10287.2
265.19	10281.17
265.259	10272.45
265.329	10268.31
265.398	10260.65
265.468	10264.55
265.537	10248.56
265.607	10240.76
265.676	10233.05
265.746	10219.17
265.815	10215.46
265.885	10201.64
265.955	10179.87
266.024	10157.42
266.094	10121.43
266.163	10121.09
266.232	10123.5
266.302	10108.38
266.371	10095.18
266.441	10082.31
266.51	10079.95
266.58	10064.88
266.649	10041.7
266.719	10047.34
266.788	10040.45
266.858	10046.81
266.927	10010.83
266.996	10003.89
267.066	10001.14
267.135	9978.46
267.205	9976.05
267.274	9964.34
267.343	9964.92
267.413	9949.22
267.482	9954.91
267.552	9954.57
267.621	9921.09
267.69	9886.94
267.76	9875.96
267.829	9872.68
267.898	9865.17
267.968	9838.87
268.037	9837.33
268.106	9830.54
268.176	9795.42
268.245	9775.77
268.314	9751.44
268.384	9748.07
268.453	9735.02
268.522	9724.37
268.592	9726.93
268.661	9705.64
268.73	9697.4
268.799	9679.58
268.869	9689.26
268.938	9663.2
269.007	9644.18
269.076	9634.02
269.146	9633.97
269.215	9628.05
269.284	9634.16
269.353	9612.73
269.422	9601.47
269.492	9581.53
269.561	9545.6
269.63	9541.99
269.699	9522.92
269.768	9514.11
269.838	9508.13
269.907	9499.85
269.976	9473.22
270.045	9445.97
270.114	9445.53
270.183	9435.47
270.253	9421.98
270.322	9389.39
270.391	9375.28
270.46	9380
270.529	9375.95
270.598	9375.33
270.667	9365.07
270.736	9335.84
270.806	9330.88
270.875	9333.86
270.944	9318.26
271.013	9336.46
271.082	9328.47
271.151	9320.43
271.22	9293.37
271.289	9284.27
271.358	9267.9
271.427	9260.34
271.496	9249.99
271.565	9226.92
271.634	9210.99
271.703	9237.33
271.772	9244.74
271.841	9237.71
271.91	9213.93
271.979	9210.22
272.048	9181.72
272.117	9172.95
272.186	9161.59
272.255	9157.93
272.324	9159.28
272.393	9155.81
272.462	9142.57
272.531	9129.33
272.6	9123.79
272.669	9127.6
272.738	9107.76
272.807	9105.59
272.876	9088.07
272.945	9114.79
273.013	9122.69
273.082	9126.01
273.151	9081.9
273.22	9076.56
273.289	9066.31
273.358	9073.14
273.427	9054.9
273.496	9052.3
273.564	9049.84
273.633	9051.81
273.702	9033.91
273.771	9013.11
273.84	9006.32
273.909	8995.83
273.977	8995.44
274.046	8980.13
274.115	8980.04
274.184	8973.68
274.253	8967.09
274.322	8974.93
274.39	8947.54
274.459	8929.39
274.528	8906.57
274.597	8899.35
274.665	8894.1
274.734	8900.46
274.803	8888.52
274.872	8884.23
274.94	8868.93
275.009	8892.09
275.078	8879.04
275.147	8876.73
275.215	8873.89
275.284	8885.01
275.353	8877.99
275.421	8854.69
275.49	8869.76
275.559	8864.6
275.627	8853.39
275.696	8843.86
275.765	8838.81
275.833	8822.68
275.902	8821.62
275.971	8826.15
276.039	8843.86
276.108	8846.13
276.177	8839.58
276.245	8832.94
276.314	8831.83
276.383	8836.64
276.451	8805.44
276.52	8804.91
276.588	8815.98
276.657	8818.44
276.725	8808.81
276.794	8806.5
276.863	8812.28
276.931	8792.97
277	8795.96
277.068	8802.84
277.137	8816.8
277.205	8815.98
277.274	8834.61
277.342	8840.19
277.411	8823.35
277.48	8805.63
277.548	8792.88
277.617	8799.81
277.685	8790.09
277.754	8785.51
277.822	8780.03
277.89	8790.33
277.959	8784.22
278.027	8766.31
278.096	8759.72
278.164	8783.5
278.233	8783.02
278.301	8778.88
278.37	8780.71
278.438	8767.86
278.507	8769.11
278.575	8745.96
278.643	8739.8
278.712	8720.45
278.78	8706.59
278.849	8723.09
278.917	8728.63
278.985	8724.39
279.054	8726.41
279.122	8737.24
279.191	8741.38
279.259	8741
279.327	8717.41
279.396	8726.99
279.464	8718.28
279.532	8725.79
279.601	8717.36
279.669	8708.89
279.737	8717.94
279.806	8718.71
279.874	8728.38
279.942	8728.96
280.011	8730.12
280.079	8738.64
280.147	8756.25
280.215	8760.39
280.284	8753.22
280.352	8737.87
280.42	8749.51
280.488	8736.37
280.557	8730.5
280.625	8729.83
280.693	8724.87
280.761	8729.97
280.83	8710.24
280.898	8725.69
280.966	8705.33
281.034	8673.9
281.102	8662.39
281.171	8655.46
281.239	8668.08
281.307	8654.79
281.375	8644.3
281.443	8663.41
281.512	8658.79
281.58	8664.56
281.648	8651.81
281.716	8652.2
281.784	8656.72
281.852	8643.15
281.92	8640.26
281.989	8644.59
282.057	8631.69
282.125	8676.61
282.193	8674.01
282.261	8679.49
282.329	8674.87
282.397	8679.3
282.465	8680.84
282.533	8691.62
282.601	8685.6
282.67	8662.74
282.738	8655.91
282.806	8666.88
282.874	8652.92
282.942	8651.38
283.01	8636.36
283.078	8639.83
283.146	8636.07
283.214	8646.37
283.282	8652.58
283.35	8663.65
283.418	8659.27
283.486	8660.28
283.554	8617.1
283.622	8613.01
283.69	8612.82
283.758	8605.17
283.826	8607.38
283.894	8613.93
283.962	8635.59
284.03	8649.3
284.098	8653.25
284.165	8647.57
284.233	8644.88
284.301	8638.09
284.369	8634.53
284.437	8632.94
284.505	8627.12
284.573	8635.64
284.641	8621
284.709	8623.7
284.777	8603.73
284.845	8609.98
284.912	8608.16
284.98	8614.8
285.048	8611.52
285.116	8616.96
285.184	8631.98
285.252	8628.03
285.319	8613.6
285.387	8603.82
285.455	8578.56
285.523	8579.23
285.591	8581.78
285.659	8579.42
285.726	8588.33
285.794	8572.3
285.862	8571.05
285.93	8571.97
285.997	8568.98
286.065	8565.71
286.133	8562.44
286.201	8566.09
286.269	8554.21
286.336	8550.02
286.404	8543.04
286.472	8554.74
286.539	8534.48
286.607	8518.74
286.675	8519.51
286.743	8528.27
286.81	8517.73
286.878	8539
286.946	8530.82
287.013	8531.92
287.081	8531.78
287.149	8515.9
287.216	8540.39
287.284	8532.98
287.352	8535.2
287.419	8528.65
287.487	8537.41
287.555	8531.63
287.622	8528.99
287.69	8532.4
287.758	8544.1
287.825	8537.79
287.893	8522.15
287.96	8528.46
288.028	8536.88
288.096	8533.65
288.163	8532.98
288.231	8522.11
288.298	8515.08
288.366	8531.83
288.433	8527.3
288.501	8523.84
288.569	8532.16
288.636	8524.41
288.704	8538.32
288.771	8545.01
288.839	8541.07
288.906	8537.99
288.974	8551.66
289.041	8546.6
289.109	8533.18
289.176	8539.05
289.244	8546.03
289.311	8560.95
289.379	8567.44
289.446	8570.14
289.514	8570.91
289.581	8574.18
289.649	8579.81
289.716	8581.73
289.783	8572.97
289.851	8587.36
289.918	8585.82
289.986	8595.98
290.053	8599.2
290.121	8596.65
290.188	8596.22
290.255	8621.15
290.323	8619.8
290.39	8612.73
290.458	8623.36
290.525	8640.2
290.592	8639.96
290.66	8635.58
290.727	8626.29
290.794	8638.81
290.862	8640.93
290.929	8647.76
290.996	8651.27
291.064	8663.5
291.131	8677.17
291.198	8683.86
291.266	8685.64
291.333	8689.44
291.4	8691.08
291.468	8703.25
291.535	8701.95
291.602	8703.45
291.669	8697.91
291.737	8700.46
291.804	8709.08
291.871	8720.77
291.938	8730.16
292.006	8755.82
292.073	8771.75
292.14	8788.11
292.207	8785.56
292.275	8786.24
292.342	8794.8
292.409	8814.73
292.476	8834.47
292.543	8823.16
292.611	8828.12
292.678	8844.67
292.745	8865.71
292.812	8875.62
292.879	8869.56
292.946	8872.5
293.014	8888.91
293.081	8897.33
293.148	8911.58
293.215	8919.33
293.282	8917.31
293.349	8924.77
293.416	8905.75
293.484	8923.47
293.551	8930.98
293.618	8945.13
293.685	8969.3
293.752	8970.69
293.819	8968.05
293.886	8955.05
293.953	8963.86
294.02	8974.74
294.087	8982.29
294.154	8975.89
294.221	8990.48
294.288	8994.76
294.356	9015.03
294.423	9017.34
294.49	9017.97
294.557	9028.32
294.624	9024.85
294.691	9043.14
294.758	9041.6
294.825	9047.19
294.892	9032.89
294.959	9032.22
295.026	9036.26
295.093	9031.21
295.16	9030.34
295.226	9032.26
295.293	9054.46
295.36	9057.35
295.427	9063.9
295.494	9069.77
295.561	9078.53
295.628	9098.18
295.695	9114.11
295.762	9114.02
295.829	9129.71
295.896	9135.83
295.963	9145.17
296.03	9153.35
296.096	9155.62
296.163	9174.06
296.23	9187.59
296.297	9206.36
296.364	9204.44
296.431	9215.61
296.498	9208.29
296.564	9231.83
296.631	9232.65
296.698	9217.34
296.765	9238.96
296.832	9234.29
296.899	9226.92
296.965	9242.52
297.032	9221.76
297.099	9235.1
297.166	9238.76
297.233	9226.34
297.299	9220.76
297.366	9217.34
297.433	9214.26
297.5	9222.97
297.566	9219.6
297.633	9226.53
297.7	9227.16
297.767	9231.97
297.833	9236.02
297.9	9233.76
297.967	9219.7
298.033	9237.03
298.1	9267.18
298.167	9262.07
298.234	9263.42
298.3	9269.68
298.367	9262.94
298.434	9280.13
298.5	9273.92
298.567	9278.11
298.634	9283.55
298.7	9300.64
298.767	9308.68
298.834	9331.94
298.9	9322.93
298.967	9313.64
299.033	9315.61
299.1	9328.28
299.167	9339.26
299.233	9333.62
299.3	9355.63
299.366	9371.52
299.433	9381
299.5	9362.22
299.566	9371.8
299.633	9385.96
299.699	9399.59
299.766	9401.56
299.832	9393.71
299.899	9405.46
299.965	9417.5
300.032	9415.19
300.099	9421.69
300.165	9417.94
300.232	9406.43
300.298	9412.2
300.365	9431.27
300.431	9433.97
300.498	9426.65
300.564	9434.74
300.631	9450.1
300.697	9459.64
300.763	9457.04
300.83	9454.48
300.896	9468.02
300.963	9471.48
301.029	9478.9
301.096	9481.31
301.162	9490.41
301.229	9488.53
301.295	9473.51
301.361	9469.99
301.428	9477.5
301.494	9466.52
301.561	9474.08
301.627	9476.97
301.693	9484.68
301.76	9485.78
301.826	9483.67
301.892	9496.72
301.959	9505
302.025	9497.97
302.092	9487.23
302.158	9495.08
302.224	9499.17
302.291	9487.42
302.357	9482.51
302.423	9472.73
302.49	9463.87
302.556	9477.89
302.622	9479.33
302.688	9494.36
302.755	9506.88
302.821	9514.1
302.887	9526.14
302.954	9525.08
303.02	9534.76
303.086	9538.18
303.152	9532.21
303.219	9520.65
303.285	9527.49
303.351	9532.64
303.417	9532.69
303.483	9533.08
303.55	9527.3
303.616	9524.36
303.682	9522.1
303.748	9509.15
303.815	9525.18
303.881	9537.03
303.947	9527.78
304.013	9526.34
304.079	9514.78
304.145	9494.41
304.212	9490.51
304.278	9479.72
304.344	9474.28
304.41	9458
304.476	9448.47
304.542	9452.85
304.608	9461.76
304.674	9437.01
304.741	9429.83
304.807	9434.36
304.873	9439.32
304.939	9452.8
305.005	9434.74
305.071	9437.15
305.137	9444.37
305.203	9421.16
305.269	9416.44
305.335	9424.77
305.401	9424.44
305.467	9424.77
305.533	9435.27
305.599	9443.41
305.666	9453.38
305.732	9460.02
305.798	9478.52
305.864	9499.32
305.93	9499.18
305.996	9495.95
306.062	9502.26
306.128	9500.43
306.194	9486.46
306.259	9487.47
306.325	9479.77
306.391	9495.27
306.457	9498.07
306.523	9506.73
306.589	9532.64
306.655	9522.19
306.721	9499.99
306.787	9489.11
306.853	9503.9
306.919	9489.35
306.985	9478.18
307.051	9470.62
307.117	9460.12
307.183	9458.73
307.248	9431.18
307.314	9428.05
307.38	9435.13
307.446	9439.03
307.512	9420.88
307.578	9429.45
307.644	9421.69
307.709	9420.06
307.775	9415.91
307.841	9416.25
307.907	9410.14
307.973	9389.14
308.039	9393.95
308.104	9402.24
308.17	9402.53
308.236	9388.13
308.302	9392.6
308.368	9386.34
308.433	9383.79
308.499	9377.58
308.565	9351.82
308.631	9362.75
308.696	9341.37
308.762	9326.73
308.828	9324.42
308.894	9314.65
308.959	9295.2
309.025	9285.81
309.091	9282.48
309.156	9268.09
309.222	9267.36
309.288	9257.01
309.354	9239.1
309.419	9232.6
309.485	9218.25
309.551	9223.35
309.616	9206.02
309.682	9202.27
309.748	9198.08
309.813	9192.68
309.879	9184.55
309.945	9178
310.01	9164.28
310.076	9166.78
310.141	9161.29
310.207	9141.74
310.273	9141.36
310.338	9143.43
310.404	9123.26
310.469	9107.27
310.535	9098.41
310.601	9072.66
310.666	9073.86
310.732	9081.71
310.797	9069.53
310.863	9058.5
310.928	9048.73
310.994	9053.74
311.059	9048.92
311.125	9047.62
311.191	9061.58
311.256	9052.87
311.322	9063.8
311.387	9042.28
311.453	9342.76
311.518	9315.18
311.584	9318.84
311.649	9324.43
311.715	9309.74
311.78	9316.53
311.846	9307.43
311.911	9313.07
311.976	9318.12
312.042	9302.76
312.107	9281.15
312.173	9279.13
312.238	9273.59
312.304	9266.75
312.369	9253.61
312.434	9240.71
312.5	9223.57
312.565	9187.47
312.631	9193.82
312.696	9182.65
312.761	9188.04
312.827	8878.85
312.892	8916.63
312.958	8912.49
313.023	8907.78
313.088	8906.81
313.154	8894.54
313.219	8885.35
313.284	8874.18
313.35	8871.39
313.415	8866.14
313.48	8862.29
313.546	8855.65
313.611	8867.2
313.676	8863.2
313.741	8853.29
313.807	8858.29
313.872	8860.12
313.937	8866.48
314.003	8873.26
314.068	8871.19
314.133	8877.02
314.198	8865.9
314.264	8844.38
314.329	8836.2
314.394	8831
314.459	8831
314.525	8844.04
314.59	8843.42
314.655	8829.94
314.72	8836
314.785	8834.9
314.851	8827.87
314.916	8811.22
314.981	8792.73
315.046	8782.29
315.111	8777.09
315.176	8767.75
315.242	8769.25
315.307	8766.41
315.372	8742.87
315.437	8731.85
315.502	8724.05
315.567	8740.12
315.632	8727.37
315.698	8721.79
315.763	8713.55
315.828	8696.9
315.893	8692.81
315.958	8686.84
316.023	8684.05
316.088	8662.92
316.153	8639.54
316.218	8634.48
316.283	8617.64
316.348	8599.55
316.413	8596.42
316.479	8582.56
316.544	8547.24
316.609	8516.54
316.674	8479.69
316.739	8448.32
316.804	8419.93
316.869	8385.76
316.934	8346.93
316.999	8316.57
317.064	8263.89
317.129	8221.46
317.194	8190.72
317.259	8143.18
317.324	8090.99
317.389	8049.43
317.454	8009.17
317.518	7978.72
317.583	7954.81
317.648	7932.35
317.713	7897.34
317.778	7838.85
317.843	7800.52
317.908	7762.78
317.973	7726.23
318.038	7699.69
318.103	7660.84
318.168	7631.85
318.233	7593.62
318.297	7546.12
318.362	7509.77
318.427	7477.14
318.492	7454.01
318.557	7405.95
318.622	7378.5
318.687	7357.64
318.751	7313.91
318.816	7278.1
318.881	7243.83
318.946	7192.36
319.011	7146.65
319.075	7105.62
319.14	7069.82
319.205	7034.94
319.27	7004
319.335	6962.06
319.399	6920.02
319.464	6896.68
319.529	6835.96
319.594	6799.31
319.658	6764.87
319.723	6723.52
319.788	6694.9
319.853	6636.73
319.917	6609.51
319.982	6555.39
320.047	6516.45
320.112	6487.69
320.176	6436.23
320.241	6399.78
320.306	6365.65
320.37	6326.29
320.435	6290.87
320.5	6262.17
320.564	6215.13
320.629	6172.42
320.694	6137.82
320.758	6093.39
320.823	6045.7
320.888	6022.91
320.952	5974.17
321.017	5928.21
321.082	5886.72
321.146	5851.03
321.211	5819.66
321.275	5773.77
321.34	5731
321.405	5685.3
321.469	5638.93
321.534	5600.35
321.598	5550.44
321.663	5522.05
321.727	5491.6
321.792	5446.64
321.857	5401.15
321.921	5366.45
321.986	5327.35
322.05	5274.6
322.115	5239.43
322.179	5194.64
322.244	5137.92
322.308	5104.01
322.373	5063.58
322.437	5020.34
322.502	4990.82
322.566	4943.12
322.631	4908.36
322.695	4869.39
322.76	4829.18
322.824	4796.76
322.889	4756.75
322.953	4711.72
323.018	4642.27
323.082	4578.81
323.146	4524.66
323.211	4471.84
323.275	4421.71
323.34	4371.1
323.404	4333.42
323.468	4285.3
323.533	4240.55
323.597	4195.95
323.662	4145.7
323.726	4111.27
323.79	4067.38
323.855	4002.02
323.919	3955.7
323.983	3912.11
324.048	3845.11
324.112	3968.38
324.177	3836.52
324.241	3634.44
324.305	3438.33
324.37	3246.63
324.434	3059.22
324.498	3019.79
324.562	2970.77
324.627	2915.96
324.691	2863.09
324.755	2798.65
324.82	2726.43
324.884	2654.49
324.948	2584.21
325.012	2492.03
325.077	2363.66
