Data from 20250630_urea_2M_MAYP1162681_10-02-27-554.txt Node
Date: Tue Jul 01 10:02:27 BST 2025
User: adleo
Spectrometer: MAYP116268
Trigger mode: 0
Integration Time (sec): 1.000000E0
Scans to average: 1
Electric dark correction enabled: true
Nonlinearity correction enabled: true
Boxcar width: 10
XAxis mode: Wavelengths
Number of Pixels in Spectrum: 2068
>>>>>Begin Spectral Data<<<<<
179.565	1102.53
179.642	1150.11
179.718	1189.21
179.795	1225.23
179.871	1256.51
179.948	1271.47
180.024	1288.6
180.101	1307.65
180.177	1318.35
180.254	1338.45
180.33	1355.97
180.407	1402.01
180.483	1490.18
180.56	1570.05
180.636	1646.24
180.712	1635.69
180.789	1645.81
180.865	1655.59
180.942	1661.67
181.018	1671.08
181.095	1683.25
181.171	1689.81
181.248	1692.8
181.324	1708.01
181.4	1711.29
181.477	1719.89
181.553	1732.67
181.63	1752.96
181.706	1768.74
181.782	1776.34
181.859	1775.86
181.935	1781.33
182.011	1776.91
182.088	1792.78
182.164	1812.8
182.24	1825.2
182.317	1833.04
182.393	1829.24
182.469	1845.3
182.546	1860.37
182.622	1864.41
182.698	1858.51
182.775	1868.35
182.851	1880.19
182.927	1870.68
183.003	1867.59
183.08	1862.41
183.156	1867.64
183.232	1865.74
183.308	1854.47
183.385	1865.26
183.461	1881.14
183.537	1882.8
183.613	1894.54
183.69	1886.27
183.766	1875.43
183.842	1881.94
183.918	1885.65
183.995	1896.49
184.071	1896.3
184.147	1890.83
184.223	1879.95
184.299	1891.88
184.375	1881.85
184.452	1886.04
184.528	1941.73
184.604	1952.37
184.68	1963.83
184.756	1971.87
184.832	1974.72
184.908	1979.38
184.985	1977.33
185.061	1964.64
185.137	1973.2
185.213	1963.55
185.289	1963.88
185.365	1958.56
185.441	1955.75
185.517	1970.64
185.593	1970.26
185.669	1967.36
185.745	1976.34
185.822	1993.93
185.898	1985.13
185.974	1992.88
186.05	1988.93
186.126	1946.12
186.202	1941.89
186.278	1937.85
186.354	1929.72
186.43	1935.1
186.506	1933.29
186.582	1932.24
186.658	1937
186.734	1920.55
186.81	1929.77
186.886	1933.43
186.962	1942.94
187.038	1939.71
187.114	1929.81
187.19	1936.42
187.266	1929.39
187.341	1929.53
187.417	1922.35
187.493	1921.78
187.569	1925.82
187.645	1919.55
187.721	1908.52
187.797	1914.65
187.873	1919.36
187.949	1915.6
188.025	1909.99
188.101	1911.75
188.176	1917.93
188.252	1914.08
188.328	1919.64
188.404	1912.03
188.48	1906.57
188.556	1902
188.632	1902.9
188.707	1905.33
188.783	1901.1
188.859	1896.54
188.935	1888.26
189.011	1895.73
189.086	1890.69
189.162	1882.8
189.238	1880.37
189.314	1881.7
189.39	1876.14
189.465	1868.58
189.541	1884.03
189.617	1868.35
189.693	1864.88
189.768	1867.11
189.844	1889.18
189.92	1884.48
189.996	1891.99
190.071	1902.07
190.147	1899.83
190.223	1905.63
190.298	1896.69
190.374	1885.38
190.45	1895.5
190.526	1902.78
190.601	1895.65
190.677	1896.74
190.753	1922.95
190.828	1926.09
190.904	1941.26
190.98	1953.62
191.055	1962.84
191.131	1956.42
191.207	1979.34
191.282	1989.7
191.358	1981
191.433	1970.01
191.509	1980.99
191.585	1979.47
191.66	1979.47
191.736	1987.07
191.811	1982.41
191.887	1997.44
191.963	2019.22
192.038	2024.93
192.114	2023.88
192.189	2029.16
192.265	2026.64
192.34	2007.23
192.416	2005.75
192.491	2000.09
192.567	2004.23
192.642	2005.47
192.718	2003.23
192.793	1989.16
192.869	1984.12
192.944	1988.02
193.02	1992.82
193.095	1999.05
193.171	2004.38
193.246	2002.33
193.322	2003.14
193.397	2004.28
193.473	1993.44
193.548	1975.08
193.624	1978.93
193.699	1978.84
193.775	1993.15
193.85	1996.15
193.925	2002.28
194.001	2002
194.076	1992.77
194.152	1981.79
194.227	1974.7
194.302	1965.29
194.378	1972.28
194.453	1969.76
194.529	1977.84
194.604	1965.2
194.679	1957.87
194.755	1939.52
194.83	1951.84
194.905	1945.23
194.981	1952.46
195.056	1944.81
195.131	1952.37
195.207	1950.28
195.282	1942.15
195.357	1923.74
195.433	1937.91
195.508	1927.16
195.583	1933.82
195.659	1948.8
195.734	1956.74
195.809	1959.54
195.884	1968.91
195.96	1965.01
196.035	1979.46
196.11	1976.75
196.185	1987.69
196.261	1988.26
196.336	2017.6
196.411	2004.52
196.486	2010.75
196.561	2001.57
196.637	2008.46
196.712	2023.3
196.787	2028.16
196.862	2040.99
196.937	2048.74
197.013	2053.26
197.088	2061.63
197.163	2082.19
197.238	2098.8
197.313	2098.7
197.388	2110.74
197.464	2140.57
197.539	2152.27
197.614	2146.85
197.689	2156.6
197.764	2171.4
197.839	2191.57
197.914	2184.77
197.989	2204.56
198.065	2217.54
198.14	2266.39
198.215	2294.99
198.29	2304.79
198.365	2318.26
198.44	2327.54
198.515	2355.81
198.59	2367.33
198.665	2392.46
198.74	2398.51
198.815	2398.36
198.89	2417.5
198.965	2445.12
199.04	2440.35
199.115	2454.92
199.19	2491.43
199.265	2496.85
199.34	2504.95
199.415	2537.58
199.49	2560.62
199.565	2571.39
199.64	2594.53
199.715	2590.19
199.79	2594.96
199.865	2601.96
199.94	2598.05
200.015	2630.16
200.09	2634.49
200.165	2641.45
200.24	2645.4
200.315	2685.49
200.39	2703.45
200.464	2710.69
200.539	2712.46
200.614	2727.32
200.689	2749.66
200.764	2757.67
200.839	2774.29
200.914	2779.96
200.989	2766.52
201.063	2780.62
201.138	2763.44
201.213	2759.91
201.288	2744.05
201.363	2746.71
201.438	2745.57
201.512	2762.29
201.587	2748.61
201.662	2755.66
201.737	2765.24
201.812	2775.96
201.886	2744.73
201.961	2750.21
202.036	2737.49
202.111	2735.16
202.186	2708.64
202.26	2694.62
202.335	2676.14
202.41	2668.47
202.485	2652.18
202.559	2635.08
202.634	2605.74
202.709	2613.98
202.784	2599.83
202.858	2599.74
202.933	2583.35
203.008	2575.83
203.082	2556.78
203.157	2552.59
203.232	2510.51
203.306	2495.69
203.381	2465.21
203.456	2445.64
203.53	2424.29
203.605	2405.35
203.68	2383.59
203.754	2377.17
203.829	2359.79
203.904	2340.46
203.978	2331.08
204.053	2334.99
204.127	2324.37
204.202	2324.04
204.277	2312.43
204.351	2305.15
204.426	2294.34
204.5	2286.16
204.575	2258.47
204.65	2271.99
204.724	2263.99
204.799	2273.07
204.873	2265.84
204.948	2264.98
205.022	2250.71
205.097	2243.47
205.171	2256.36
205.246	2258.89
205.32	2257.7
205.395	2257.55
205.469	2249.09
205.544	2251.9
205.618	2236.29
205.693	2249.23
205.767	2237.96
205.842	2254.24
205.916	2247.96
205.991	2242.01
206.065	2246.53
206.14	2262.08
206.214	2254.03
206.289	2247.94
206.363	2258.22
206.438	2261.08
206.512	2265.98
206.586	2284.96
206.661	2291.87
206.735	2273.22
206.81	2276.6
206.884	2291.07
206.958	2281.79
207.033	2297.77
207.107	2303.77
207.181	2332.57
207.256	2322.53
207.33	2341.14
207.405	2352.19
207.479	2369.27
207.553	2374.93
207.628	2362.37
207.702	2370.7
207.776	2364.32
207.851	2366.66
207.925	2378.56
207.999	2375.37
208.073	2375.75
208.148	2376.51
208.222	2366.47
208.296	2397.73
208.371	2416.21
208.445	2429.02
208.519	2455.92
208.593	2466.58
208.668	2468.29
208.742	2471.82
208.816	2476.34
208.89	2485.1
208.965	2485.68
209.039	2495.3
209.113	2515.44
209.187	2532.8
209.261	2529.23
209.336	2548.28
209.41	2565.23
209.484	2566.43
209.558	2587.19
209.632	2599.19
209.707	2611.62
209.781	2630.67
209.855	2642.77
209.929	2656.64
210.003	2657.64
210.077	2651.78
210.151	2693.31
210.226	2721.19
210.3	2747.04
210.374	2767.56
210.448	2773.23
210.522	2781
210.596	2792.39
210.67	2799.92
210.744	2845.34
210.818	2878.45
210.892	2897.71
210.966	2895.75
211.041	2913.1
211.115	2910.34
211.189	2933.93
211.263	2946.18
211.337	2952.37
211.411	2968.92
211.485	2965.86
211.559	2979.64
211.633	2989.26
211.707	2965.22
211.781	2976.91
211.855	2943.44
211.929	2937.34
212.003	2922.53
212.077	2936.07
212.151	2947.28
212.225	2958.15
212.299	2951.42
212.373	2940.74
212.447	2941.22
212.52	2971.35
212.594	2977.17
212.668	2999.15
212.742	2988.8
212.816	2992.33
212.89	2993.23
212.964	2997
213.038	3004.82
213.112	3023.19
213.186	3046.88
213.26	3037.73
213.333	3004.78
213.407	3023.61
213.481	3040.29
213.555	3067.11
213.629	3068.4
213.703	3068.74
213.777	3085.43
213.85	3084
213.924	3135.2
213.998	3155.96
214.072	3169.8
214.146	3177.72
214.219	3191.37
214.293	3212.02
214.367	3238.4
214.441	3274.09
214.515	3289.03
214.588	3295.23
214.662	3294.13
214.736	3301.34
214.81	3337.39
214.883	3374.68
214.957	3395.44
215.031	3414.61
215.105	3426.68
215.178	3451.17
215.252	3481.05
215.326	3495.42
215.4	3514.61
215.473	3506.06
215.547	3523.3
215.621	3547.95
215.694	3594.43
215.768	3616.16
215.842	3650.6
215.915	3680.17
215.989	3699.95
216.063	3739.33
216.136	3786.2
216.21	3832.3
216.284	3891.04
216.357	3940.4
216.431	3991.54
216.504	4049.76
216.578	4129.56
216.652	4187.81
216.725	4240.37
216.799	4302.75
216.873	4361.57
216.946	4427.81
217.02	4486.82
217.093	4545.81
217.167	4587.44
217.24	4631.48
217.314	4692.68
217.387	4745.85
217.461	4800.47
217.535	4878.36
217.608	4928.74
217.682	4992.44
217.755	5066.19
217.829	5122.92
217.902	5194.31
217.976	5258.65
218.049	5314.76
218.123	5361.22
218.196	5439.9
218.27	5500.68
218.343	5555.15
218.417	5623.82
218.49	5694.26
218.563	5774.2
218.637	5846.63
218.71	5938.01
218.784	6023.95
218.857	6103.69
218.931	6181.84
219.004	6259.77
219.077	6338.27
219.151	6418.85
219.224	6489.47
219.298	6558.03
219.371	6643.32
219.444	6700.66
219.518	6777.79
219.591	6856.59
219.665	6964.04
219.738	7047.64
219.811	7119.88
219.885	7207.68
219.958	7290.19
220.031	7362.04
220.105	7442.17
220.178	7516.53
220.251	7584.81
220.325	7661.89
220.398	7743.4
220.471	7829.13
220.544	7917.96
220.618	7981.35
220.691	8067.21
220.764	8149.22
220.838	8236.53
220.911	8302.69
220.984	8402.42
221.057	8486.28
221.131	8568.75
221.204	8615.25
221.277	8704.3
221.35	8806.57
221.424	8872.75
221.497	8951.17
221.57	9025.53
221.643	9105.3
221.716	9190.52
221.79	9267.45
221.863	9336.02
221.936	9408.63
222.009	9471.71
222.082	9545.63
222.155	9628.18
222.229	9711.5
222.302	9784.13
222.375	9854.5
222.448	9935.75
222.521	10002.52
222.594	10063.88
222.667	10118.36
222.74	10197.31
222.814	10259.27
222.887	10326.1
222.96	10407.08
223.033	10475.98
223.106	10547.33
223.179	10623.89
223.252	10687.06
223.325	10759.49
223.398	10826.08
223.471	10897.73
223.544	10972.81
223.617	11036.9
223.69	11093.86
223.763	11136.8
223.837	11203.06
223.91	11269.71
223.983	11319.06
224.056	11367.74
224.129	11439.74
224.202	11521.33
224.275	11577.57
224.348	11625.29
224.42	11677.34
224.493	11724.1
224.566	11774.46
224.639	11846.47
224.712	11895.16
224.785	11957.58
224.858	12008.04
224.931	12059.76
225.004	12102.47
225.077	12157.37
225.15	12192.32
225.223	12253.92
225.296	12342.95
225.369	12389.33
225.442	12438.49
225.514	12497.64
225.587	12564.45
225.66	12617.33
225.733	12676.14
225.806	12736.64
225.879	12795.93
225.952	12843.46
226.025	12916.11
226.097	12997.72
226.17	13044.19
226.243	13082.51
226.316	13135.98
226.389	13193.34
226.461	13253.79
226.534	13316.22
226.607	13377.63
226.68	13455.82
226.753	13503.31
226.825	13533.34
226.898	13605.84
226.971	13662.24
227.044	13727.27
227.117	13777.36
227.189	13838.44
227.262	13900.19
227.335	13957.94
227.407	14006.53
227.48	14066.65
227.553	14112.06
227.626	14155.44
227.698	14211.6
227.771	14274.75
227.844	14323.39
227.916	14373.67
227.989	14428.57
228.062	14482.61
228.134	14558.53
228.207	14606.26
228.28	14657.06
228.352	14711.34
228.425	14755.11
228.498	14814.11
228.57	14856.24
228.643	14932.74
228.716	14974.97
228.788	15018.21
228.861	15060.24
228.934	15124.45
229.006	15174.58
229.079	15228.03
229.151	15265.87
229.224	15298.55
229.296	15350.71
229.369	15419.49
229.442	15480.37
229.514	15516.18
229.587	15571.04
229.659	15585.88
229.732	15638.23
229.804	15696.26
229.877	15762.01
229.949	15822.01
230.022	15884.91
230.094	15930.27
230.167	15967.09
230.239	16003.19
230.312	16041.32
230.384	16113.28
230.457	16155.65
230.529	16198.45
230.602	16238.06
230.674	16277.73
230.747	16338.37
230.819	16384.97
230.892	16403.82
230.964	16447.24
231.037	16501.22
231.109	16532.5
231.181	16582.53
231.254	16603.4
231.326	16636.22
231.399	16670.59
231.471	16696.32
231.544	16715.5
231.616	16768.23
231.688	16805.15
231.761	16845.68
231.833	16877.92
231.905	16888.24
231.978	16919.61
232.05	16948.14
232.122	16984.43
232.195	17024.72
232.267	17067.23
232.339	17097.3
232.412	17142.22
232.484	17168.44
232.556	17184.25
232.629	17235.96
232.701	17274.42
232.773	17313.45
232.846	17342.71
232.918	17367.14
232.99	17400.2
233.062	17436.78
233.135	17460.44
233.207	17470.18
233.279	17502.42
233.351	17535.53
233.424	17561.07
233.496	17579.14
233.568	17625.02
233.64	17635.91
233.713	17660.49
233.785	17684.01
233.857	17713.88
233.929	17714.56
234.001	17747.14
234.074	17789.64
234.146	17791.91
234.218	17805.59
234.29	17820.63
234.362	17831.04
234.434	17832.87
234.507	17838.17
234.579	17837.35
234.651	17846.94
234.723	17879.09
234.795	17898.36
234.867	17912.87
234.939	17943.71
235.012	17962.36
235.084	17988.14
235.156	18016.09
235.228	18016.43
235.3	18012.29
235.372	18016.77
235.444	18043.75
235.516	18036.72
235.588	18037.83
235.66	18054.89
235.732	18058.69
235.804	18117.92
235.876	18145.39
235.948	18174.11
236.02	18188.13
236.092	18194.78
236.164	18199.94
236.236	18199.89
236.308	18207.17
236.38	18214.01
236.452	18195.99
236.524	18204.28
236.596	18217.72
236.668	18231.12
236.74	18240.28
236.812	18251.99
236.884	18259.65
236.956	18261.29
237.028	18257.87
237.1	18258.88
237.172	18276.47
237.244	18290.25
237.316	18258.78
237.388	18246.06
237.46	18237.58
237.532	18244.85
237.604	18233.58
237.675	18245.63
237.747	18257.77
237.819	18246.06
237.891	18241.67
237.963	18241.77
238.035	18229.77
238.107	18178.98
238.178	18178.06
238.25	18166.4
238.322	18186.4
238.394	18164.04
238.466	18155.75
238.538	18152.42
238.609	18145.29
238.681	18114.64
238.753	18088.81
238.825	18086.31
238.897	18077.68
238.968	18086.11
239.04	18060.43
239.112	18080.04
239.184	18053.73
239.255	18033.44
239.327	18025.73
239.399	18015.76
239.471	18011.13
239.542	18009.3
239.614	18018.12
239.686	17982.46
239.758	17990.7
239.829	17961.3
239.901	17961.64
239.973	17947.13
240.044	17942.22
240.116	17931.37
240.188	17912.39
240.259	17908.43
240.331	17877.59
240.403	17872.72
240.474	17838.65
240.546	17823.14
240.618	17779.81
240.689	17759.09
240.761	17734.8
240.833	17729.35
240.904	17704.87
240.976	17682.27
241.048	17660.39
241.119	17639.48
241.191	17621.4
241.262	17610.9
241.334	17587.48
241.405	17561.41
241.477	17534.66
241.549	17508.49
241.62	17485.31
241.692	17470.08
241.763	17459.96
241.835	17440.97
241.906	17416.88
241.978	17377.84
242.049	17371.43
242.121	17367.19
242.192	17365.12
242.264	17336.68
242.335	17293.12
242.407	17278.56
242.478	17252.63
242.55	17229.16
242.621	17197.6
242.693	17177.88
242.764	17146.66
242.836	17119.19
242.907	17103.57
242.979	17090.56
243.05	17074.99
243.122	17053.16
243.193	17032.53
243.264	16991.37
243.336	16971.13
243.407	16960.48
243.479	16953.2
243.55	16923.9
243.622	16896.77
243.693	16865.15
243.764	16857.2
243.836	16824.72
243.907	16801.39
243.978	16768.95
244.05	16749.05
244.121	16716.95
244.192	16695.89
244.264	16659.55
244.335	16632.61
244.407	16595.3
244.478	16564.84
244.549	16532.7
244.62	16497.51
244.692	16465.37
244.763	16442.96
244.834	16404.73
244.906	16360.2
244.977	16338.22
245.048	16327.72
245.119	16295.52
245.191	16264.92
245.262	16212.04
245.333	16203.9
245.405	16172.04
245.476	16168.76
245.547	16140.66
245.618	16126.2
245.689	16097.48
245.761	16069.95
245.832	16037.28
245.903	16015.01
245.974	15997.61
246.045	15976.98
246.117	15969.85
246.188	15938.42
246.259	15901.69
246.33	15874.22
246.401	15845.97
246.473	15795.22
246.544	15752.61
246.615	15734.68
246.686	15699.06
246.757	15688.89
246.828	15651.05
246.899	15637.6
246.97	15580.2
247.042	15549.44
247.113	15521.58
247.184	15517.78
247.255	15483.94
247.326	15455.02
247.397	15425.23
247.468	15398.77
247.539	15357.89
247.61	15306.12
247.681	15288.39
247.752	15271.51
247.823	15231.84
247.894	15198.53
247.965	15173.37
248.037	15148.79
248.108	15109.46
248.179	15077.26
248.25	15044.62
248.321	15026.11
248.392	14990.64
248.463	14988.32
248.534	14955.69
248.605	14936.84
248.675	14897.61
248.746	14881.94
248.817	14863.62
248.888	14842.12
248.959	14792.14
249.03	14773.87
249.101	14749.62
249.172	14712.07
249.243	14664.92
249.314	14661.21
249.385	14641.64
249.456	14619.8
249.527	14587.6
249.598	14558.68
249.669	14532.75
249.739	14512.45
249.81	14490.37
249.881	14451.33
249.952	14419.08
250.023	14391.36
250.094	14351.83
250.165	14324.16
250.235	14289.89
250.306	14262.56
250.377	14219.89
250.448	14203.89
250.519	14155.2
250.59	14149.13
250.66	14121.6
250.731	14118.28
250.802	14090.99
250.873	14068.58
250.944	14043.75
251.014	14012.42
251.085	14010.15
251.156	13994.58
251.227	13979.01
251.297	13967.58
251.368	13949.8
251.439	13934.51
251.51	13924.58
251.58	13889.2
251.651	13854.73
251.722	13847.26
251.792	13812.74
251.863	13793.61
251.934	13777.79
252.005	13785.6
252.075	13760.01
252.146	13747.18
252.217	13730.5
252.287	13714.93
252.358	13686.49
252.429	13682.15
252.499	13650.92
252.57	13630.28
252.641	13614.47
252.711	13586.8
252.782	13545.49
252.852	13538.21
252.923	13512.47
252.994	13488.03
253.064	13477.13
253.135	13449.03
253.205	13409.98
253.276	13401.54
253.347	13390.17
253.417	13361.15
253.488	13325.38
253.558	13291.92
253.629	13269.07
253.699	13249.35
253.77	13226.12
253.841	13207.56
253.911	13189.96
253.982	13173.77
254.052	13152.7
254.123	13132.21
254.193	13111.58
254.264	13125.95
254.334	13097.31
254.405	13064.24
254.475	13030.64
254.546	13008.66
254.616	12995.64
254.687	12980.12
254.757	12962.67
254.827	12944.79
254.898	12927.72
254.968	12907.09
255.039	12880.19
255.109	12861.73
255.18	12822.97
255.25	12780.7
255.321	12760.69
255.391	12721.5
255.461	12719.86
255.532	12673.82
255.602	12644.03
255.673	12605.66
255.743	12562.86
255.813	12520.77
255.884	12516.92
255.954	12507.71
256.024	12499.8
256.095	12484.67
256.165	12458.69
256.235	12441.77
256.306	12412.22
256.376	12398.86
256.446	12384.93
256.517	12369.94
256.587	12359.39
256.657	12343
256.728	12327.33
256.798	12305.49
256.868	12282.84
256.938	12256.28
257.009	12248.71
257.079	12241.14
257.149	12241.91
257.219	12203.4
257.29	12189.9
257.36	12151.82
257.43	12134.52
257.5	12095.38
257.571	12060.82
257.641	12036.96
257.711	12009.53
257.781	11998.4
257.852	11979.55
257.922	11945.57
257.992	11931.06
258.062	11904.12
258.132	11890.47
258.202	11873.07
258.273	11853.41
258.343	11852.78
258.413	11821.21
258.483	11797.69
258.553	11764.14
258.623	11734.74
258.693	11732.19
258.764	11728.43
258.834	11719.85
258.904	11700.86
258.974	11671.26
259.044	11657.82
259.114	11649.43
259.184	11629.14
259.254	11605.67
259.324	11567.01
259.394	11556.75
259.464	11556.6
259.535	11538.82
259.605	11512.26
259.675	11485.9
259.745	11469.9
259.815	11439.48
259.885	11422.13
259.955	11437.27
260.025	11411.82
260.095	11395.1
260.165	11374.13
260.235	11372.49
260.305	11346.86
260.375	11313.6
260.445	11318.66
260.515	11311.19
260.585	11299.96
260.655	11284.3
260.725	11271.14
260.795	11265.55
260.865	11261.98
260.934	11222.51
261.004	11209.26
261.074	11198.46
261.144	11197.69
261.214	11205.31
261.284	11181.36
261.354	11175.38
261.424	11141.4
261.494	11146.94
261.564	11128.15
261.634	11125.98
261.703	11086.13
261.773	11066.27
261.843	11058.42
261.913	11037.79
261.983	11003.67
262.053	10992.59
262.123	10968.16
262.192	10940.5
262.262	10929.9
262.332	10902
262.402	10901.61
262.472	10880.74
262.541	10843.5
262.611	10834.73
262.681	10792.32
262.751	10790.01
262.821	10767.31
262.89	10736.18
262.96	10720.62
263.03	10725.82
263.1	10699.85
263.169	10678.65
263.239	10676.24
263.309	10684.09
263.379	10676.96
263.448	10665.11
263.518	10651.86
263.588	10636.68
263.657	10640.78
263.727	10640.25
263.797	10622.76
263.867	10603.29
263.936	10572.26
264.006	10566.72
264.076	10547.21
264.145	10540.12
264.215	10515.89
264.285	10507.26
264.354	10476.19
264.424	10455.14
264.494	10424.35
264.563	10409.55
264.633	10420.15
264.702	10407.48
264.772	10370.67
264.842	10346.73
264.911	10339.45
264.981	10315.84
265.05	10307.56
265.12	10286.74
265.19	10275.42
265.259	10277.01
265.329	10268.1
265.398	10266.31
265.468	10278.31
265.537	10257.98
265.607	10244.2
265.676	10244.15
265.746	10239.24
265.815	10246.9
265.885	10235.96
265.955	10216.16
266.024	10195.69
266.094	10159.65
266.163	10160.18
266.232	10160.04
266.302	10144.05
266.371	10127.72
266.441	10113.07
266.51	10108.35
266.58	10089.66
266.649	10057.67
266.719	10051.56
266.788	10039.66
266.858	10040.67
266.927	10006.23
266.996	9997.03
267.066	9988.11
267.135	9955.41
267.205	9949.48
267.274	9932
267.343	9922.36
267.413	9907.53
267.482	9909.26
267.552	9912.1
267.621	9879.83
267.69	9850.59
267.76	9846.6
267.829	9840.72
267.898	9828.49
267.968	9800.26
268.037	9796.17
268.106	9796.41
268.176	9766.74
268.245	9750.07
268.314	9734.75
268.384	9737.35
268.453	9722.09
268.522	9708.65
268.592	9711.78
268.661	9690.3
268.73	9685.43
268.799	9666.6
268.869	9668.14
268.938	9640.83
269.007	9618.87
269.076	9611.21
269.146	9609.82
269.215	9601.34
269.284	9606.98
269.353	9586.75
269.422	9575.24
269.492	9560.02
269.561	9519
269.63	9513.46
269.699	9496.89
269.768	9484.51
269.838	9478.2
269.907	9478.06
269.976	9458.27
270.045	9425.86
270.114	9417.34
270.183	9399.38
270.253	9388.35
270.322	9358.79
270.391	9349.49
270.46	9353.63
270.529	9345.64
270.598	9345.4
270.667	9334.57
270.736	9310.49
270.806	9308.94
270.875	9311.45
270.944	9292.29
271.013	9308.95
271.082	9296.52
271.151	9292.77
271.22	9261.28
271.289	9241.29
271.358	9226.22
271.427	9221.79
271.496	9216.98
271.565	9199.55
271.634	9191.51
271.703	9196.08
271.772	9204.65
271.841	9191.46
271.91	9172.2
271.979	9168.78
272.048	9143.22
272.117	9137.29
272.186	9123.43
272.255	9117.99
272.324	9113.22
272.393	9114.57
272.462	9101.04
272.531	9098.82
272.6	9086.26
272.669	9096.94
272.738	9083.17
272.807	9079.66
272.876	9064.11
272.945	9090.45
273.013	9097.96
273.082	9104.99
273.151	9082.89
273.22	9073.02
273.289	9070.28
273.358	9070.85
273.427	9055.35
273.496	9051.74
273.564	9052.9
273.633	9057.18
273.702	9041.87
273.771	9030.94
273.84	9024.45
273.909	9021.56
273.977	9017.46
274.046	9004.03
274.115	9002.69
274.184	8988.87
274.253	8979.77
274.322	8986.46
274.39	8951.51
274.459	8934.52
274.528	8902.46
274.597	8901.35
274.665	8898.18
274.734	8903.47
274.803	8892.11
274.872	8887.92
274.94	8878.49
275.009	8920.39
275.078	8899.06
275.147	8893.29
275.215	8891.12
275.284	8898.82
275.353	8888.91
275.421	8862.77
275.49	8879.33
275.559	8869.89
275.627	8863.3
275.696	8857.33
275.765	8851.41
275.833	8843.57
275.902	8837.74
275.971	8846.12
276.039	8858.05
276.108	8864.46
276.177	8859.4
276.245	8854.88
276.314	8848.24
276.383	8848.86
276.451	8789.73
276.52	8792.52
276.588	8801.23
276.657	8800.61
276.725	8786.93
276.794	8783.42
276.863	8799.02
276.931	8773.5
277	8780.92
277.068	8793.67
277.137	8804.36
277.205	8801.32
277.274	8818.36
277.342	8826.98
277.411	8813.89
277.48	8790.49
277.548	8772.11
277.617	8768.3
277.685	8761.42
277.754	8769.75
277.822	8764.41
277.89	8780.24
277.959	8771.92
278.027	8756.71
278.096	8742.37
278.164	8763.74
278.233	8757
278.301	8741.5
278.37	8749.54
278.438	8728.94
278.507	8732.74
278.575	8708.24
278.643	8702.9
278.712	8685.19
278.78	8672.92
278.849	8683.41
278.917	8696.4
278.985	8696.26
279.054	8698.18
279.122	8707.52
279.191	8695.78
279.259	8690.77
279.327	8668.96
279.396	8684.41
279.464	8679.46
279.532	8691.97
279.601	8687.4
279.669	8685.86
279.737	8699.82
279.806	8695.2
279.874	8707.76
279.942	8697.84
280.011	8694.81
280.079	8700.06
280.147	8714.11
280.215	8718.11
280.284	8715.46
280.352	8701.07
280.42	8703.19
280.488	8698.56
280.557	8690.67
280.625	8698.76
280.693	8699
280.761	8698.13
280.83	8680.76
280.898	8689.51
280.966	8669.35
281.034	8639.41
281.102	8621.94
281.171	8612.46
281.239	8621.56
281.307	8612.03
281.375	8605.68
281.443	8633.79
281.512	8629.31
281.58	8635.66
281.648	8621.61
281.716	8619.06
281.784	8624.45
281.852	8620.36
281.92	8610.88
281.989	8612.08
282.057	8589.94
282.125	8622.63
282.193	8616.52
282.261	8616.61
282.329	8618.34
282.397	8622.15
282.465	8623.3
282.533	8644.38
282.601	8629.08
282.67	8611.46
282.738	8600.97
282.806	8609.54
282.874	8587.25
282.942	8591.49
283.01	8579.21
283.078	8583.93
283.146	8574.3
283.214	8580.7
283.282	8580.03
283.35	8590.86
283.418	8592.93
283.486	8598.7
283.554	8563.37
283.622	8568.52
283.69	8566.6
283.758	8557.41
283.826	8560.58
283.894	8569.44
283.962	8579.5
284.03	8597.25
284.098	8602.26
284.165	8602.74
284.233	8601.49
284.301	8597.88
284.369	8589.31
284.437	8580.84
284.505	8572.32
284.573	8590.32
284.641	8576.89
284.709	8583.05
284.777	8565.3
284.845	8569.97
284.912	8576.51
284.98	8585.89
285.048	8575.02
285.116	8581.08
285.184	8595.14
285.252	8596.68
285.319	8586.33
285.387	8578.48
285.455	8569
285.523	8569
285.591	8567.08
285.659	8567.46
285.726	8581.76
285.794	8566.65
285.862	8565.3
285.93	8562.7
285.997	8558.42
286.065	8550
286.133	8541.96
286.201	8545.14
286.269	8530.55
286.336	8523.82
286.404	8511.06
286.472	8522.08
286.539	8502.6
286.607	8485.75
286.675	8486.47
286.743	8490.9
286.81	8486.62
286.878	8489.5
286.946	8478.63
287.013	8472.81
287.081	8471.41
287.149	8454.23
287.216	8468.67
287.284	8467.7
287.352	8465.35
287.419	8460.68
287.487	8478.29
287.555	8484.45
287.622	8483.73
287.69	8486.47
287.758	8493.93
287.825	8498.7
287.893	8488.59
287.96	8499.42
288.028	8508.46
288.096	8509.28
288.163	8512.84
288.231	8497.68
288.298	8498.02
288.366	8516.74
288.433	8521.74
288.501	8513.18
288.569	8517.99
288.636	8518.76
288.704	8528.87
288.771	8549.99
288.839	8536.76
288.906	8530.55
288.974	8537.72
289.041	8533.44
289.109	8527.81
289.176	8535.22
289.244	8537.29
289.311	8551.25
289.379	8556.88
289.446	8555.44
289.514	8558.76
289.581	8551.92
289.649	8560.29
289.716	8562.41
289.783	8557.65
289.851	8569
289.918	8570.21
289.986	8573.91
290.053	8576.22
290.121	8574.2
290.188	8571.02
290.255	8601.34
290.323	8597.49
290.39	8592.54
290.458	8599.32
290.525	8607.41
290.592	8598.36
290.66	8596.19
290.727	8591.14
290.794	8596.82
290.862	8602.98
290.929	8598.65
290.996	8604.18
291.064	8613.85
291.131	8629.98
291.198	8639.12
291.266	8635.03
291.333	8635.18
291.4	8643.26
291.468	8661.94
291.535	8658.09
291.602	8659.63
291.669	8653.23
291.737	8655.87
291.804	8657.41
291.871	8675.03
291.938	8688.6
292.006	8717.1
292.073	8727.93
292.14	8737.99
292.207	8739.24
292.275	8737.7
292.342	8749.01
292.409	8773.36
292.476	8793.24
292.543	8777.36
292.611	8777.17
292.678	8799.98
292.745	8824.58
292.812	8836.08
292.879	8832.23
292.946	8838.1
293.014	8847.87
293.081	8855.77
293.148	8870.45
293.215	8884.6
293.282	8878.68
293.349	8879.4
293.416	8863.61
293.484	8881.13
293.551	8889.6
293.618	8907.46
293.685	8931.92
293.752	8926.86
293.819	8924.41
293.886	8917.04
293.953	8932.93
294.02	8942.41
294.087	8950.59
294.154	8947.32
294.221	8957.91
294.288	8955.94
294.356	8973.65
294.423	8982.22
294.49	8982.9
294.557	8994.06
294.624	8987.95
294.691	9001.33
294.758	9005.52
294.825	9015.53
294.892	9006.68
294.959	9006.63
295.026	9008.12
295.093	9002.15
295.16	9004.89
295.226	9008.02
295.293	9030.41
295.36	9030.51
295.427	9036.77
295.494	9048.18
295.561	9054.63
295.628	9076.68
295.695	9092.23
295.762	9098.35
295.829	9109.13
295.896	9119.73
295.963	9125.7
296.03	9137.15
296.096	9151.84
296.163	9165.27
296.23	9179.57
296.297	9193.44
296.364	9192.42
296.431	9200.8
296.498	9195.84
296.564	9220.11
296.631	9220.2
296.698	9203.98
296.765	9221.79
296.832	9219.24
296.899	9204.41
296.965	9226.9
297.032	9210.86
297.099	9225.93
297.166	9231.47
297.233	9231.47
297.299	9219.91
297.366	9223.48
297.433	9222.27
297.5	9225.69
297.566	9234.46
297.633	9226.61
297.7	9229.83
297.767	9232.91
297.833	9238.79
297.9	9245.63
297.967	9231.13
298.033	9243.22
298.1	9271.53
298.167	9264.5
298.234	9271.1
298.3	9286.56
298.367	9276.3
298.434	9285.88
298.5	9279.67
298.567	9272.78
298.634	9268.31
298.7	9293.54
298.767	9297.97
298.834	9315.2
298.9	9311.59
298.967	9292.91
299.033	9309.19
299.1	9322.33
299.167	9334.99
299.233	9328.11
299.3	9340.96
299.366	9357.58
299.433	9372.99
299.5	9350.93
299.566	9359.93
299.633	9371.54
299.699	9373.9
299.766	9374.77
299.832	9378.38
299.899	9385.46
299.965	9400.53
300.032	9395.47
300.099	9400.19
300.165	9403.03
300.232	9398.65
300.298	9402.17
300.365	9416.85
300.431	9413.91
300.498	9408.95
300.564	9411.99
300.631	9427.54
300.697	9439.05
300.763	9441.7
300.83	9433.9
300.896	9443.43
300.963	9447.86
301.029	9451.04
301.096	9459.52
301.162	9468.38
301.229	9461.63
301.295	9450.7
301.361	9453.64
301.428	9460.53
301.494	9447.67
301.561	9452.19
301.627	9451.04
301.693	9455.42
301.76	9456.53
301.826	9454.36
301.892	9465.05
301.959	9479.21
302.025	9476.8
302.092	9469.92
302.158	9473.43
302.224	9480.27
302.291	9474.16
302.357	9468.86
302.423	9461.73
302.49	9448.01
302.556	9455.33
302.622	9454.03
302.688	9468.09
302.755	9476.42
302.821	9483.93
302.887	9490.05
302.954	9487.3
303.02	9495.83
303.086	9503.96
303.152	9505.6
303.219	9501.08
303.285	9500.3
303.351	9505.51
303.417	9504.59
303.483	9493.56
303.55	9490.87
303.616	9484.41
303.682	9483.5
303.748	9480.23
303.815	9499.06
303.881	9510.32
303.947	9500.89
304.013	9502.04
304.079	9497.85
304.145	9483.79
304.212	9478.4
304.278	9469.83
304.344	9458.75
304.41	9445.7
304.476	9433.32
304.542	9433.66
304.608	9438.67
304.674	9423.21
304.741	9412.81
304.807	9418.54
304.873	9428.46
304.939	9433.23
305.005	9417.19
305.071	9415.7
305.137	9415.79
305.203	9389.31
305.269	9381.41
305.335	9390.32
305.401	9385.12
305.467	9374.33
305.533	9378.91
305.599	9391.09
305.666	9396.63
305.732	9403.13
305.798	9419.5
305.864	9441.32
305.93	9441.41
305.996	9435.44
306.062	9434.43
306.128	9430.82
306.194	9412.71
306.259	9411.56
306.325	9402.07
306.391	9418.88
306.457	9426.82
306.523	9434.72
306.589	9456.1
306.655	9454.61
306.721	9433.08
306.787	9423.64
306.853	9439.05
306.919	9428.32
306.985	9418.68
307.051	9417.67
307.117	9410.21
307.183	9401.59
307.248	9367.01
307.314	9372.74
307.38	9381.41
307.446	9392.92
307.512	9380.79
307.578	9383.68
307.644	9374.19
307.709	9377.99
307.775	9369.85
307.841	9367.01
307.907	9363.02
307.973	9342.79
308.039	9339.08
308.104	9350.11
308.17	9351.17
308.236	9332.24
308.302	9329.98
308.368	9317.27
308.433	9318.04
308.499	9316.74
308.565	9301.24
308.631	9308.41
308.696	9282.17
308.762	9268.35
308.828	9261.75
308.894	9242.97
308.959	9224.54
309.025	9217.22
309.091	9214.14
309.156	9200.46
309.222	9199.16
309.288	9188.28
309.354	9168.06
309.419	9165.51
309.485	9151.35
309.551	9155.44
309.616	9146.59
309.682	9138.02
309.748	9129.45
309.813	9119.24
309.879	9107.2
309.945	9095.84
310.01	9084.82
310.076	9083.28
310.141	9078.8
310.207	9060.45
310.273	9066.9
310.338	9074.13
310.404	9056.17
310.469	9038.55
310.535	9033.73
310.601	9016.16
310.666	9023.67
310.732	9032.43
310.797	9023.77
310.863	9016.88
310.928	9005.14
310.994	9003.59
311.059	9007.01
311.125	9005.86
311.191	9014.86
311.256	9008.6
311.322	9017.61
311.387	9003.12
311.453	9318.54
311.518	9294.42
311.584	9289.61
311.649	9292.83
311.715	9277.53
311.78	9284.07
311.846	9281.33
311.911	9285.9
311.976	9289.37
312.042	9267.51
312.107	9255.57
312.173	9244.98
312.238	9238.34
312.304	9239.45
312.369	9232.95
312.434	9220.43
312.5	9207
312.565	9177.2
312.631	9172.29
312.696	9163.63
312.761	9164.78
312.827	8841.9
312.892	8878.44
312.958	8888.12
313.023	8883.4
313.088	8888.5
313.154	8873.19
313.219	8862.85
313.284	8852.98
313.35	8844.79
313.415	8837.67
313.48	8830.02
313.546	8833.82
313.611	8840.41
313.676	8829.54
313.741	8824.91
313.807	8830.16
313.872	8843.49
313.937	8845.95
314.003	8862.94
314.068	8863.04
314.133	8865.64
314.198	8863.18
314.264	8844.55
314.329	8830.2
314.394	8830.59
314.459	8825.05
314.525	8846.66
314.59	8840.99
314.655	8828.71
314.72	8833.24
314.785	8830.64
314.851	8827.7
314.916	8807.15
314.981	8790.93
315.046	8783.32
315.111	8769.8
315.176	8751.85
315.242	8753
315.307	8752.62
315.372	8733.65
315.437	8722.2
315.502	8710.36
315.567	8715.55
315.632	8694.95
315.698	8691.54
315.763	8681.81
315.828	8676.62
315.893	8668.1
315.958	8662.99
316.023	8650.87
316.088	8634.02
316.153	8610.44
316.218	8601.88
316.283	8584.8
316.348	8571.23
316.413	8560.69
316.479	8544.09
316.544	8514.84
316.609	8484.28
316.674	8450.4
316.739	8413.16
316.804	8382.13
316.869	8350.33
316.934	8314.58
316.999	8284.94
317.064	8238.71
317.129	8195.88
317.194	8159.27
317.259	8113.9
317.324	8063.45
317.389	8025.55
317.454	7980.91
317.518	7955.9
317.583	7928.48
317.648	7902.89
317.713	7863.02
317.778	7810.46
317.843	7780.35
317.908	7745.45
317.973	7701.49
318.038	7673.12
318.103	7636.34
318.168	7604.18
318.233	7572.93
318.297	7518.17
318.362	7479.23
318.427	7439.67
318.492	7410.87
318.557	7354.98
318.622	7318.2
318.687	7293.26
318.751	7252.75
318.816	7219.4
318.881	7184.6
318.946	7130.49
319.011	7088.58
319.075	7046.3
319.14	7007.1
319.205	6963.76
319.27	6927.74
319.335	6885.13
319.399	6842.66
319.464	6810.76
319.529	6759.71
319.594	6723.01
319.658	6690.69
319.723	6651.64
319.788	6617.89
319.853	6567.99
319.917	6542.21
319.982	6492.61
320.047	6455.64
320.112	6425.73
320.176	6373.6
320.241	6337.68
320.306	6311.04
320.37	6272.12
320.435	6238.18
320.5	6210.88
320.564	6170.57
320.629	6127.63
320.694	6096.05
320.758	6052.77
320.823	6008.49
320.888	5981.48
320.952	5932.69
321.017	5890.67
321.082	5850.96
321.146	5818.29
321.211	5782.95
321.275	5739.6
321.34	5698.8
321.405	5656.07
321.469	5610.57
321.534	5572.18
321.598	5520.17
321.663	5486.98
321.727	5448.63
321.792	5405.4
321.857	5358.43
321.921	5319.85
321.986	5280.61
322.05	5222.93
322.115	5185.42
322.179	5145.37
322.244	5089.86
322.308	5051.97
322.373	5008.91
322.437	4970.89
322.502	4939.41
322.566	4895.25
322.631	4860.06
322.695	4820.95
322.76	4779.64
322.824	4745.03
322.889	4702.92
322.953	4657.99
323.018	4591.5
323.082	4530.65
323.146	4477.22
323.211	4428.81
323.275	4384.51
323.34	4342.47
323.404	4309.67
323.468	4266.71
323.533	4224.92
323.597	4181.28
323.662	4133.76
323.726	4097.23
323.79	4051.48
323.855	3989.32
323.919	3942.43
323.983	3898.41
324.048	3831.32
324.112	3953.38
324.177	3824.73
324.241	3626.38
324.305	3432.24
324.37	3240.73
324.434	3058.43
324.498	3019.22
324.562	2970.65
324.627	2913.17
324.691	2856.78
324.755	2791.77
324.82	2715.69
324.884	2637.98
324.948	2564.75
325.012	2473.38
325.077	2355.83
