Data from 20250630_urea_2M_MAYP1162681_18-22-27-086.txt Node
Date: Mon Jun 30 18:22:27 BST 2025
User: adleo
Spectrometer: MAYP116268
Trigger mode: 0
Integration Time (sec): 1.000000E0
Scans to average: 1
Electric dark correction enabled: true
Nonlinearity correction enabled: true
Boxcar width: 10
XAxis mode: Wavelengths
Number of Pixels in Spectrum: 2068
>>>>>Begin Spectral Data<<<<<
179.565	1103.76
179.642	1155.01
179.718	1193.55
179.795	1228.51
179.871	1259.27
179.948	1274.59
180.024	1291.09
180.101	1310.15
180.177	1323.47
180.254	1345.08
180.33	1365.92
180.407	1411.87
180.483	1498.9
180.56	1580.62
180.636	1657.71
180.712	1646.55
180.789	1655.62
180.865	1666.93
180.942	1672.25
181.018	1682.74
181.095	1696.72
181.171	1702.8
181.248	1704.03
181.324	1716.68
181.4	1723.95
181.477	1735.73
181.553	1749.03
181.63	1767.19
181.706	1784.3
181.782	1790.76
181.859	1790.52
181.935	1795.6
182.011	1789.43
182.088	1804.83
182.164	1822.84
182.24	1835.72
182.317	1844.8
182.393	1842.52
182.469	1855.73
182.546	1868.75
182.622	1872.32
182.698	1868.99
182.775	1877.88
182.851	1891.43
182.927	1886.53
183.003	1883.35
183.08	1875.27
183.156	1884.11
183.232	1884.06
183.308	1873.27
183.385	1882.68
183.461	1898.08
183.537	1898.61
183.613	1913.34
183.69	1907.4
183.766	1898.84
183.842	1908.59
183.918	1915.43
183.995	1927.41
184.071	1929.27
184.147	1925.04
184.223	1914.77
184.299	1926.99
184.375	1915.77
184.452	1919.77
184.528	1973.51
184.604	1982.88
184.68	1993.67
184.756	1998.85
184.832	2003.75
184.908	2006.08
184.985	2004.89
185.061	1990.39
185.137	1997.05
185.213	1985.49
185.289	1984.88
185.365	1977.79
185.441	1970.52
185.517	1983.6
185.593	1977.7
185.669	1977.32
185.745	1988.16
185.822	2006.37
185.898	1995.33
185.974	2005.89
186.05	1996.57
186.126	1957.61
186.202	1952.19
186.278	1947.39
186.354	1938.74
186.43	1941.68
186.506	1941.11
186.582	1939.5
186.658	1948.24
186.734	1931.66
186.81	1936.36
186.886	1938.64
186.962	1949.2
187.038	1947.48
187.114	1935.54
187.19	1943.82
187.266	1934.26
187.341	1935.17
187.417	1927.37
187.493	1928.37
187.569	1932.31
187.645	1929.94
187.721	1917.57
187.797	1925.09
187.873	1931.46
187.949	1927.99
188.025	1923.56
188.101	1927.65
188.176	1932.12
188.252	1923.42
188.328	1931.74
188.404	1928.93
188.48	1924.94
188.556	1918
188.632	1920.04
188.707	1921.42
188.783	1919.95
188.859	1917.52
188.935	1904.31
189.011	1910.2
189.086	1904.45
189.162	1895.84
189.238	1896.27
189.314	1895.51
189.39	1887.76
189.465	1880.39
189.541	1892.56
189.617	1879.73
189.693	1871.6
189.768	1875.45
189.844	1900.85
189.92	1891.34
189.996	1900.62
190.071	1911.65
190.147	1910.27
190.223	1919.02
190.298	1914.36
190.374	1906.18
190.45	1914.21
190.526	1922.06
190.601	1917.25
190.677	1917.92
190.753	1945.51
190.828	1945.51
190.904	1956.5
190.98	1970.24
191.055	1980.98
191.131	1973.57
191.207	1993.63
191.282	2005.27
191.358	1998.95
191.433	1984.35
191.509	1997.84
191.585	1994.42
191.66	1994.75
191.736	2004.02
191.811	1994.99
191.887	2007.4
191.963	2023.14
192.038	2027.52
192.114	2028.37
192.189	2032.56
192.265	2031.7
192.34	2010.24
192.416	2010.53
192.491	2009.82
192.567	2011.2
192.642	2015.71
192.718	2018.57
192.793	2006.35
192.869	2000.26
192.944	2000.55
193.02	2008.2
193.095	2013.1
193.171	2018.76
193.246	2019.85
193.322	2017.95
193.397	2016.62
193.473	2004.82
193.548	1989.75
193.624	1994.6
193.699	1993.79
193.775	2010.35
193.85	2011.63
193.925	2018.91
194.001	2014.91
194.076	2006.54
194.152	1996.94
194.227	1987.04
194.302	1978.34
194.378	1982.01
194.453	1980.34
194.529	1992.66
194.604	1978.01
194.679	1969.93
194.755	1952.25
194.83	1962.52
194.905	1960.29
194.981	1969.51
195.056	1964.71
195.131	1970.32
195.207	1969.94
195.282	1961.15
195.357	1940.98
195.433	1955.53
195.508	1942.64
195.583	1952.67
195.659	1967.03
195.734	1975.93
195.809	1977.31
195.884	1982.63
195.96	1982.35
196.035	1999.89
196.11	1994.85
196.185	2006.64
196.261	2009.21
196.336	2037.45
196.411	2022.75
196.486	2027.61
196.561	2022.52
196.637	2026.84
196.712	2043.07
196.787	2046.78
196.862	2060.18
196.937	2069.65
197.013	2075.02
197.088	2084.91
197.163	2104.85
197.238	2121.51
197.313	2120.42
197.388	2131.98
197.464	2160.38
197.539	2172.08
197.614	2165.61
197.689	2177.17
197.764	2193.35
197.839	2213.19
197.914	2210.72
197.989	2233.79
198.065	2248.26
198.14	2293.77
198.215	2320.47
198.29	2331.32
198.365	2344.22
198.44	2354.31
198.515	2382.73
198.59	2396.34
198.665	2420.28
198.74	2425.66
198.815	2426.52
198.89	2448.94
198.965	2474.08
199.04	2471.22
199.115	2485.17
199.19	2525.74
199.265	2531.3
199.34	2540.16
199.415	2570.99
199.49	2590.41
199.565	2600.79
199.64	2620.99
199.715	2621.32
199.79	2625.84
199.865	2633.08
199.94	2629.47
200.015	2662.1
200.09	2666.15
200.165	2670.82
200.24	2680.11
200.315	2719.1
200.39	2733.01
200.464	2736.92
200.539	2740.45
200.614	2757.74
200.689	2779.18
200.764	2782.52
200.839	2795.04
200.914	2800.09
200.989	2791.03
201.063	2801.04
201.138	2784.13
201.213	2782.99
201.288	2762.17
201.363	2767.31
201.438	2763.17
201.512	2777.79
201.587	2761.3
201.662	2765.11
201.737	2780.46
201.812	2787.99
201.886	2756.37
201.961	2765
202.036	2757
202.111	2754.33
202.186	2723.62
202.26	2707.56
202.335	2684.98
202.41	2684.12
202.485	2666.02
202.559	2649.83
202.634	2625.3
202.709	2630.58
202.784	2612.77
202.858	2614.24
202.933	2600.2
203.008	2594.91
203.082	2578.67
203.157	2576.86
203.232	2539.34
203.306	2516.52
203.381	2486.42
203.456	2465.95
203.53	2445.41
203.605	2426.37
203.68	2403.6
203.754	2398.75
203.829	2384.04
203.904	2367.67
203.978	2353.33
204.053	2358.62
204.127	2340.96
204.202	2341.01
204.277	2326.4
204.351	2321.12
204.426	2312.64
204.5	2303.84
204.575	2272.1
204.65	2280.44
204.724	2273.39
204.799	2279.29
204.873	2276.62
204.948	2273.62
205.022	2262.82
205.097	2254.54
205.171	2266.96
205.246	2274.67
205.32	2274.43
205.395	2274.19
205.469	2265.2
205.544	2269.34
205.618	2255.45
205.693	2270.15
205.767	2259.45
205.842	2278.15
205.916	2271.06
205.991	2259.02
206.065	2265.4
206.14	2281.09
206.214	2279.28
206.289	2272.19
206.363	2283.04
206.438	2285.28
206.512	2292.56
206.586	2309.4
206.661	2316.88
206.735	2295.9
206.81	2295.62
206.884	2310.08
206.958	2297.95
207.033	2315.88
207.107	2326.26
207.181	2355.45
207.256	2350.26
207.33	2367.49
207.405	2379.02
207.479	2396.58
207.553	2404.48
207.628	2388.59
207.702	2398.29
207.776	2391.01
207.851	2394.34
207.925	2408.49
207.999	2408.25
208.073	2407.34
208.148	2411.44
208.222	2397.97
208.296	2428.85
208.371	2446.05
208.445	2456.09
208.519	2483.79
208.593	2494.84
208.668	2491.55
208.742	2494.89
208.816	2498.65
208.89	2510.32
208.965	2510.46
209.039	2519.46
209.113	2538.41
209.187	2557.97
209.261	2555.07
209.336	2574.83
209.41	2592.83
209.484	2589.97
209.558	2604.74
209.632	2617.12
209.707	2624.26
209.781	2645.12
209.855	2661.56
209.929	2676.82
210.003	2683.63
210.077	2683.58
210.151	2731.51
210.226	2762.06
210.3	2785.38
210.374	2810.1
210.448	2819.45
210.522	2830.65
210.596	2840.94
210.67	2848.23
210.744	2893.09
210.818	2926
210.892	2944.07
210.966	2937.16
211.041	2956.7
211.115	2958.94
211.189	2987.31
211.263	3008.99
211.337	3020.58
211.411	3035.98
211.485	3035.26
211.559	3050.42
211.633	3058.85
211.707	3029.89
211.781	3042.64
211.855	3019.27
211.929	3016.55
212.003	3005.59
212.077	3022.72
212.151	3047.18
212.225	3067.83
212.299	3071.98
212.373	3073.94
212.447	3086.77
212.52	3136.04
212.594	3159.76
212.668	3194.15
212.742	3201.07
212.816	3221.63
212.89	3247.06
212.964	3275.28
213.038	3309.75
213.112	3355.24
213.186	3409.88
213.26	3431.11
213.333	3430.25
213.407	3480.27
213.481	3528.99
213.555	3590.54
213.629	3632.97
213.703	3671.14
213.777	3732.63
213.85	3775.69
213.924	3874.54
213.998	3943.85
214.072	4008.95
214.146	4069.91
214.219	4142.65
214.293	4221.06
214.367	4302.7
214.441	4395.75
214.515	4474.48
214.588	4544.35
214.662	4609.68
214.736	4686.84
214.81	4797.23
214.883	4914.1
214.957	5013.17
215.031	5116.51
215.105	5209.79
215.178	5319.78
215.252	5437.78
215.326	5542.83
215.4	5654.33
215.473	5739.44
215.547	5854.44
215.621	5978.66
215.694	6125.67
215.768	6245.04
215.842	6375.84
215.915	6514.18
215.989	6636.17
216.063	6780.72
216.136	6941.75
216.21	7094.51
216.284	7262.91
216.357	7425.89
216.431	7584.19
216.504	7751.85
216.578	7940.75
216.652	8126.84
216.725	8288.29
216.799	8465.6
216.873	8632.18
216.946	8815.95
217.02	8986.4
217.093	9156.76
217.167	9306.63
217.24	9460.04
217.314	9629.71
217.387	9799.26
217.461	9965.76
217.535	10155.62
217.608	10317.04
217.682	10490.53
217.755	10680.16
217.829	10847.11
217.902	11028.53
217.976	11207.64
218.049	11378.62
218.123	11534.05
218.196	11705.29
218.27	11873.63
218.343	12030.67
218.417	12202.73
218.49	12367.34
218.563	12553.64
218.637	12728.22
218.71	12921.52
218.784	13096.69
218.857	13280.29
218.931	13452
219.004	13617.43
219.077	13785.67
219.151	13949.95
219.224	14098.47
219.298	14254.32
219.371	14418.16
219.444	14556.41
219.518	14707.39
219.591	14857.11
219.665	15036.66
219.738	15183.01
219.811	15322.22
219.885	15472.46
219.958	15629.11
220.031	15772.8
220.105	15913.2
220.178	16054.28
220.251	16181.38
220.325	16321.39
220.398	16452.64
220.471	16585.95
220.544	16721.29
220.618	16842.98
220.691	16984.87
220.764	17126.37
220.838	17252.54
220.911	17373.41
220.984	17510.33
221.057	17638.95
221.131	17758.13
221.204	17844.93
221.277	17973.79
221.35	18116.78
221.424	18231.47
221.497	18338.31
221.57	18440.57
221.643	18554.21
221.716	18663.26
221.79	18760.41
221.863	18856.12
221.936	18951.2
222.009	19043.92
222.082	19155
222.155	19246.22
222.229	19345.44
222.302	19433.15
222.375	19508.66
222.448	19595.94
222.521	19671.74
222.594	19744.56
222.667	19811.93
222.74	19895.54
222.814	19961.56
222.887	20027.77
222.96	20105.56
223.033	20184.49
223.106	20254.13
223.179	20325.51
223.252	20393.41
223.325	20459.14
223.398	20519.24
223.471	20582.08
223.544	20640.2
223.617	20684.3
223.69	20738.86
223.763	20779.53
223.837	20823.87
223.91	20886.86
223.983	20921.51
224.056	20963.44
224.129	21016.22
224.202	21073.47
224.275	21113.38
224.348	21149.19
224.42	21176.81
224.493	21195.36
224.566	21225.68
224.639	21274.17
224.712	21292.43
224.785	21316.63
224.858	21355.33
224.931	21390.37
225.004	21420.98
225.077	21461.47
225.15	21478.09
225.223	21511.93
225.296	21563.65
225.369	21573.29
225.442	21593.97
225.514	21621.93
225.587	21657.64
225.66	21680.39
225.733	21709.89
225.806	21735.39
225.879	21754.62
225.952	21771.49
226.025	21814.06
226.097	21851.03
226.17	21868.48
226.243	21873.64
226.316	21895.33
226.389	21908.29
226.461	21927.87
226.534	21941.65
226.607	21948.98
226.68	21980.12
226.753	21991.73
226.825	21983.92
226.898	22025.38
226.971	22038.3
227.044	22054.3
227.117	22063.7
227.189	22086.36
227.262	22105.45
227.335	22125.31
227.407	22134.9
227.48	22148.74
227.553	22159.68
227.626	22152.64
227.698	22157.65
227.771	22177.27
227.844	22173.75
227.916	22178.43
227.989	22183.83
228.062	22188.17
228.134	22220.47
228.207	22230.06
228.28	22231.17
228.352	22227.84
228.425	22230.59
228.498	22242.11
228.57	22238.79
228.643	22249.29
228.716	22242.5
228.788	22232.04
228.861	22234.16
228.934	22249.05
229.006	22254.79
229.079	22247.85
229.151	22244.67
229.224	22237.82
229.296	22242.83
229.369	22268.09
229.442	22284.53
229.514	22265.35
229.587	22278.22
229.659	22258.36
229.732	22254.31
229.804	22262.99
229.877	22287.09
229.949	22300.83
230.022	22313.65
230.094	22312.3
230.167	22311.24
230.239	22297.17
230.312	22295.48
230.384	22306.28
230.457	22305.84
230.529	22301.02
230.602	22306.38
230.674	22314.14
230.747	22323.97
230.819	22318.43
230.892	22285.5
230.964	22281.21
231.037	22280.87
231.109	22265.06
231.181	22270.03
231.254	22253.2
231.326	22235.66
231.399	22218.59
231.471	22187.74
231.544	22157.08
231.616	22161.37
231.688	22152.55
231.761	22137.07
231.833	22127.62
231.905	22089.3
231.978	22071.42
232.05	22058.59
232.122	22043.65
232.195	22022.87
232.267	22011.83
232.339	22002.67
232.412	22008.8
232.484	21985.95
232.556	21970.71
232.629	21984.07
232.701	21970.67
232.773	21956.16
232.846	21942.66
232.918	21932.01
232.99	21932.73
233.062	21933.6
233.135	21920.97
233.207	21895.23
233.279	21887.85
233.351	21880.96
233.424	21860.81
233.496	21831.7
233.568	21838.74
233.64	21807.65
233.713	21784.8
233.785	21769.28
233.857	21752.41
233.929	21713.94
234.001	21715.53
234.074	21706.76
234.146	21663.62
234.218	21644.53
234.29	21627.08
234.362	21604.04
234.434	21564.57
234.507	21523.45
234.579	21480.02
234.651	21447.3
234.723	21434.86
234.795	21417.41
234.867	21389.36
234.939	21383.34
235.012	21370.13
235.084	21339.33
235.156	21323.04
235.228	21298.8
235.3	21272.72
235.372	21246.89
235.444	21243.51
235.516	21202.54
235.588	21192.95
235.66	21170.97
235.732	21132.8
235.804	21166.45
235.876	21145.09
235.948	21130.25
236.02	21110.68
236.092	21093.14
236.164	21070.97
236.236	21038.97
236.308	21009.38
236.38	20987.11
236.452	20956.75
236.524	20945.32
236.596	20936.89
236.668	20910.19
236.74	20888.41
236.812	20862.96
236.884	20838.86
236.956	20808.84
237.028	20768.59
237.1	20729.51
237.172	20716.69
237.244	20709.94
237.316	20639.19
237.388	20596.97
237.46	20561.84
237.532	20546.66
237.604	20500.82
237.675	20489.64
237.747	20471.72
237.819	20436.01
237.891	20403.14
237.963	20366.61
238.035	20327.04
238.107	20261.5
238.178	20250.61
238.25	20207.48
238.322	20200.3
238.394	20157.7
238.466	20121.02
238.538	20092.11
238.609	20064.69
238.681	20016.49
238.753	19971.34
238.825	19947.92
238.897	19932.98
238.968	19924.16
239.04	19884.64
239.112	19882.23
239.184	19837.27
239.255	19796.16
239.327	19773.08
239.399	19746.05
239.471	19721.32
239.542	19686.53
239.614	19672.84
239.686	19621.96
239.758	19604.66
239.829	19555.55
239.901	19530.59
239.973	19502.93
240.044	19489.91
240.116	19455.6
240.188	19422.79
240.259	19394.88
240.331	19351.56
240.403	19329.68
240.474	19276.48
240.546	19231.47
240.618	19183.47
240.689	19142.08
240.761	19116.06
240.833	19097.26
240.904	19051.63
240.976	19005.51
241.048	18975.39
241.119	18949.71
241.191	18921.51
241.262	18910.09
241.334	18869.57
241.405	18834.39
241.477	18789.67
241.549	18740.75
241.62	18709.96
241.692	18674.2
241.763	18650.21
241.835	18619.8
241.906	18583.75
241.978	18539.66
242.049	18523.95
242.121	18494.55
242.192	18477.49
242.264	18426.22
242.335	18372.92
242.407	18353.88
242.478	18329.45
242.55	18301.16
242.621	18254.23
242.693	18214.71
242.764	18165.6
242.836	18129.94
242.907	18110.09
242.979	18077.66
243.05	18049.66
243.122	18018.57
243.193	17993.85
243.264	17926.43
243.336	17874.05
243.407	17840.7
243.479	17828.36
243.55	17794.97
243.622	17764.27
243.693	17726
243.764	17714.68
243.836	17675.6
243.907	17640.99
243.978	17600.46
244.05	17566.01
244.121	17520.75
244.192	17499.79
244.264	17453.62
244.335	17420.22
244.407	17364.61
244.478	17338.78
244.549	17301.52
244.62	17253.67
244.692	17215.88
244.763	17200.56
244.834	17167.5
244.906	17129.23
244.977	17093.52
245.048	17070.1
245.119	17032.41
245.191	16992.84
245.262	16934.14
245.333	16913.27
245.405	16868.93
245.476	16839.44
245.547	16806.09
245.618	16777.85
245.689	16747.1
245.761	16712.88
245.832	16676.3
245.903	16649.02
245.974	16622.22
246.045	16583.57
246.117	16564.92
246.188	16514.36
246.259	16469.49
246.33	16439.6
246.401	16397.53
246.473	16349.14
246.544	16304.8
246.615	16285.71
246.686	16253.85
246.757	16235.83
246.828	16195.34
246.899	16177.8
246.97	16137.7
247.042	16100.97
247.113	16076.15
247.184	16053.4
247.255	16024.04
247.326	15997.01
247.397	15969.58
247.468	15937.67
247.539	15918.83
247.61	15876.75
247.681	15858.96
247.752	15838.91
247.823	15803.58
247.894	15782.76
247.965	15744.29
248.037	15712.48
248.108	15668.86
248.179	15635.27
248.25	15603.89
248.321	15579.54
248.392	15534.04
248.463	15523.34
248.534	15493.55
248.605	15472.83
248.675	15442.99
248.746	15416.14
248.817	15393.2
248.888	15374.35
248.959	15329.24
249.03	15303.88
249.101	15278.72
249.172	15244.79
249.243	15200.83
249.314	15185.45
249.385	15150.89
249.456	15131.22
249.527	15098.39
249.598	15066.72
249.669	15031.58
249.739	15005.7
249.81	14979.86
249.881	14949.83
249.952	14919.17
250.023	14892.85
250.094	14857.09
250.165	14808.16
250.235	14779.96
250.306	14750.66
250.377	14704.28
250.448	14682.35
250.519	14626.58
250.59	14612.89
250.66	14585.7
250.731	14579.29
250.802	14553.4
250.873	14532.19
250.944	14510.26
251.014	14481.96
251.085	14481.96
251.156	14465.28
251.227	14449.23
251.297	14439.88
251.368	14427.73
251.439	14412.64
251.51	14394.86
251.58	14352.19
251.651	14322.93
251.722	14308.62
251.792	14268.7
251.863	14242.57
251.934	14223.2
252.005	14227.87
252.075	14203.62
252.146	14193.55
252.217	14176.53
252.287	14160.58
252.358	14139.56
252.429	14125.92
252.499	14097.52
252.57	14074.67
252.641	14060.74
252.711	14034.9
252.782	13985.4
252.852	13970.36
252.923	13935.21
252.994	13915.88
253.064	13911.01
253.135	13881.8
253.205	13846.03
253.276	13837.16
253.347	13830.89
253.417	13802.93
253.488	13776.47
253.558	13747.93
253.629	13720.12
253.699	13692.78
253.77	13668.63
253.841	13642.17
253.911	13630.02
253.982	13607.7
254.052	13593.57
254.123	13567.88
254.193	13545.75
254.264	13566.53
254.334	13534.33
254.405	13505.11
254.475	13463.56
254.546	13440.18
254.616	13438.44
254.687	13425.57
254.757	13409.86
254.827	13384.07
254.898	13359.72
254.968	13331.57
255.039	13298.16
255.109	13283.36
255.18	13248.08
255.25	13199.58
255.321	13183.14
255.391	13146.75
255.461	13141.11
255.532	13091.74
255.602	13066.53
255.673	13024.11
255.743	12992.78
255.813	12949.58
255.884	12937.48
255.954	12924.85
256.024	12913.91
256.095	12885.28
256.165	12850.04
256.235	12829.31
256.306	12800.97
256.376	12794.36
256.446	12785.11
256.517	12775.18
256.587	12765.63
256.657	12748.42
256.728	12738.15
256.798	12713.67
256.868	12683.54
256.938	12655.67
257.009	12641.41
257.079	12627.04
257.149	12633.89
257.219	12589.92
257.29	12574.79
257.36	12539.07
257.43	12527.88
257.5	12486.72
257.571	12461.75
257.641	12453.31
257.711	12417.98
257.781	12399.18
257.852	12384.96
257.922	12343.12
257.992	12319.55
258.062	12288.74
258.132	12282.43
258.202	12259.63
258.273	12236.2
258.343	12239.53
258.413	12211.62
258.483	12188.48
258.553	12158.74
258.623	12125.05
258.693	12113.33
258.764	12116.95
258.834	12112.03
258.904	12089.57
258.974	12063.73
259.044	12041.47
259.114	12023.2
259.184	12013.7
259.254	11997.99
259.324	11952.1
259.394	11946.89
259.464	11934.75
259.535	11909.06
259.605	11881.15
259.675	11852.62
259.745	11842.83
259.815	11811.07
259.885	11787.06
259.955	11806.05
260.025	11782.2
260.095	11761.9
260.165	11751.4
260.235	11740.65
260.305	11713.61
260.375	11692.06
260.445	11698.72
260.515	11700.79
260.585	11690.57
260.655	11668.11
260.725	11663.19
260.795	11657.31
260.865	11652.16
260.934	11623.53
261.004	11619.38
261.074	11604.58
261.144	11613.07
261.214	11599.81
261.284	11578.56
261.354	11574.7
261.424	11538.89
261.494	11537.92
261.564	11524.62
261.634	11509.58
261.703	11473.2
261.773	11461.39
261.843	11449.05
261.913	11428.13
261.983	11391.79
262.053	11379.7
262.123	11363.02
262.192	11334.25
262.262	11327.16
262.332	11295.69
262.402	11295.45
262.472	11278.73
262.541	11245.14
262.611	11230.34
262.681	11205.96
262.751	11201.96
262.821	11179.93
262.89	11143.98
262.96	11130.34
263.03	11129.86
263.1	11115.88
263.169	11101.38
263.239	11087.31
263.309	11091.45
263.379	11081.24
263.448	11063.94
263.518	11049.77
263.588	11030.97
263.657	11025.24
263.727	11021.77
263.797	11002.54
263.867	10977.34
263.936	10949.15
264.006	10951.8
264.076	10934.35
264.145	10912.28
264.215	10887.85
264.285	10882.55
264.354	10854.56
264.424	10838.27
264.494	10811.81
264.563	10785.55
264.633	10791.91
264.702	10784.2
264.772	10741.99
264.842	10720.45
264.911	10714.62
264.981	10686.91
265.05	10675.73
265.12	10658.05
265.19	10644.02
265.259	10643.59
265.329	10642.82
265.398	10631.26
265.468	10633.95
265.537	10612.85
265.607	10611.02
265.676	10606.59
265.746	10589.48
265.815	10587.46
265.885	10564.43
265.955	10535.86
266.024	10519.04
266.094	10477.75
266.163	10470.81
266.232	10468.26
266.302	10452.26
266.371	10442.53
266.441	10430.24
266.51	10427.31
266.58	10406.64
266.649	10382.35
266.719	10373.97
266.788	10358.98
266.858	10357.78
266.927	10320.2
266.996	10310.18
267.066	10301.7
267.135	10275.3
267.205	10272.21
267.274	10258.49
267.343	10258.2
267.413	10248.42
267.482	10247.89
267.552	10255.07
267.621	10226.64
267.69	10203.42
267.76	10194.7
267.829	10177.6
267.898	10162.71
267.968	10134.87
268.037	10135.21
268.106	10129.14
268.176	10102.06
268.245	10086.98
268.314	10065.06
268.384	10066.22
268.453	10055.14
268.522	10035.82
268.592	10031.15
268.661	10009.38
268.73	10005.62
268.799	9975.66
268.869	9982.02
268.938	9952.01
269.007	9926.86
269.076	9916.17
269.146	9910.05
269.215	9898.88
269.284	9902.01
269.353	9888.43
269.422	9879.08
269.492	9852.01
269.561	9809.15
269.63	9804.28
269.699	9792.19
269.768	9786.99
269.838	9771.77
269.907	9768.11
269.976	9746.58
270.045	9712.24
270.114	9705.31
270.183	9685.9
270.253	9685.75
270.322	9657.09
270.391	9649.92
270.46	9654.16
270.529	9650.64
270.598	9648.28
270.667	9632.1
270.736	9610.09
270.806	9603.78
270.875	9597.76
270.944	9588.22
271.013	9609.99
271.082	9600.17
271.151	9588.9
271.22	9561.59
271.289	9553.31
271.358	9535.15
271.427	9535.2
271.496	9536.98
271.565	9519.11
271.634	9514.49
271.703	9519.31
271.772	9519.35
271.841	9504.19
271.91	9483.72
271.979	9475.39
272.048	9455.69
272.117	9457.23
272.186	9441.34
272.255	9441
272.324	9442.4
272.393	9439.22
272.462	9423.38
272.531	9412.83
272.6	9400.12
272.669	9402.04
272.738	9387.07
272.807	9381.58
272.876	9355.19
272.945	9375.9
273.013	9379.08
273.082	9380.14
273.151	9358.56
273.22	9349.85
273.289	9342.48
273.358	9357.99
273.427	9345.32
273.496	9341.86
273.564	9329.87
273.633	9338.05
273.702	9315.47
273.771	9297.08
273.84	9287.49
273.909	9279.45
273.977	9276.32
274.046	9262.36
274.115	9263.71
274.184	9246.33
274.253	9236.03
274.322	9247.39
274.39	9216.28
274.459	9202.08
274.528	9175.74
274.597	9166.3
274.665	9163.17
274.734	9172.51
274.803	9147.71
274.872	9137.12
274.94	9123.98
275.009	9154.27
275.078	9135.49
275.147	9132.17
275.215	9132.22
275.284	9143.34
275.353	9134.19
275.421	9111.28
275.49	9128.85
275.559	9122.88
275.627	9120.48
275.696	9108.92
275.765	9107.09
275.833	9100.3
275.902	9097.13
275.971	9105.65
276.039	9109.26
276.108	9110.03
276.177	9105.94
276.245	9101.6
276.314	9096.89
276.383	9096.36
276.451	9059.08
276.52	9058.89
276.588	9067.89
276.657	9063.03
276.725	9049.41
276.794	9049.26
276.863	9060.04
276.931	9037.13
277	9036.69
277.068	9043.53
277.137	9060.57
277.205	9056.19
277.274	9068.03
277.342	9079.78
277.411	9059.85
277.48	9051.67
277.548	9041.99
277.617	9040.3
277.685	9026.01
277.754	9031.5
277.822	9024.42
277.89	9037.37
277.959	9027.65
278.027	9012.48
278.096	9003.19
278.164	9026.59
278.233	9018.7
278.301	9005.27
278.37	9006.76
278.438	9000.74
278.507	9004.93
278.575	8984.85
278.643	8984.76
278.712	8963.72
278.78	8947.59
278.849	8952.98
278.917	8961.89
278.985	8955.68
279.054	8951.93
279.122	8963.86
279.191	8963
279.259	8962.47
279.327	8941.09
279.396	8960.35
279.464	8954.72
279.532	8966.56
279.601	8955.15
279.669	8949.75
279.737	8962.75
279.806	8962.51
279.874	8962.94
279.942	8957.12
280.011	8952.07
280.079	8953.51
280.147	8973.49
280.215	8980.37
280.284	8977.87
280.352	8965.59
280.42	8975.03
280.488	8969.44
280.557	8961.16
280.625	8958.61
280.693	8957.94
280.761	8955.77
280.83	8939.74
280.898	8952.21
280.966	8933.92
281.034	8908.83
281.102	8899.16
281.171	8885.87
281.239	8898.78
281.307	8889.82
281.375	8880.2
281.443	8904.89
281.512	8897.38
281.58	8902.29
281.648	8883.81
281.716	8887.95
281.784	8880.97
281.852	8871.29
281.92	8865.8
281.989	8874.04
282.057	8860.66
282.125	8894.74
282.193	8890.99
282.261	8889.21
282.329	8879.68
282.397	8880.35
282.465	8878.71
282.533	8889.45
282.601	8890.7
282.67	8865.14
282.738	8861.48
282.806	8867.16
282.874	8850.26
282.942	8855.89
283.01	8847.51
283.078	8859.02
283.146	8851.7
283.214	8861.23
283.282	8859.55
283.35	8870.72
283.418	8866.38
283.486	8866.58
283.554	8829.5
283.622	8829.89
283.69	8824.98
283.758	8815.11
283.826	8821.71
283.894	8835.76
283.962	8855.74
284.03	8861.37
284.098	8867.15
284.165	8857.04
284.233	8857.86
284.301	8851.65
284.369	8845.34
284.437	8838.65
284.505	8826.52
284.573	8843.42
284.641	8830.52
284.709	8836.73
284.777	8825.46
284.845	8828.02
284.912	8835.48
284.98	8839.42
285.048	8830.61
285.116	8832.88
285.184	8850.16
285.252	8847.46
285.319	8831.62
285.387	8821.66
285.455	8809.39
285.523	8811.79
285.591	8806.74
285.659	8807.41
285.726	8817.23
285.794	8801.35
285.862	8797.07
285.93	8797.93
285.997	8785.8
286.065	8782.29
286.133	8776.17
286.201	8770.25
286.269	8759.71
286.336	8749.65
286.404	8736.47
286.472	8753.17
286.539	8735.84
286.607	8715.96
286.675	8720.15
286.743	8726.17
286.81	8717.12
286.878	8727.66
286.946	8722.7
287.013	8729.39
287.081	8727.71
287.149	8714.71
287.216	8732.13
287.284	8726.5
287.352	8720
287.419	8720.73
287.487	8734.2
287.555	8741.47
287.622	8740.27
287.69	8743.98
287.758	8756.44
287.825	8757.07
287.893	8741.09
287.96	8741.37
288.028	8758.37
288.096	8755.19
288.163	8757.45
288.231	8750.23
288.298	8751.39
288.366	8758.22
288.433	8751.15
288.501	8739.21
288.569	8742.77
288.636	8738.78
288.704	8748.12
288.771	8756.59
288.839	8747.39
288.906	8746.86
288.974	8751.34
289.041	8748.31
289.109	8735.46
289.176	8740.46
289.244	8746.48
289.311	8754.52
289.379	8771.56
289.446	8768.86
289.514	8770.98
289.581	8769.87
289.649	8768.96
289.716	8760.34
289.783	8753.94
289.851	8778.34
289.918	8782.67
289.986	8788.26
290.053	8788.4
290.121	8786.76
290.188	8791.34
290.255	8818.34
290.323	8810.93
290.39	8806.69
290.458	8818.96
290.525	8834.65
290.592	8830.03
290.66	8833.11
290.727	8829.99
290.794	8844.19
290.862	8843.03
290.929	8844.09
290.996	8842.45
291.064	8854.39
291.131	8866.52
291.198	8880.38
291.266	8875.71
291.333	8880.58
291.4	8885.1
291.468	8900.07
291.535	8897.91
291.602	8906.52
291.669	8899.73
291.737	8906.62
291.804	8907.92
291.871	8915.28
291.938	8920.29
292.006	8952.55
292.073	8967.37
292.14	8983.93
292.207	8969.88
292.275	8971.03
292.342	8978.11
292.409	8998.86
292.476	9023.46
292.543	9023.75
292.611	9023.36
292.678	9034.73
292.745	9057.79
292.812	9068.62
292.879	9064.38
292.946	9072.04
293.014	9086.24
293.081	9097.31
293.148	9108.53
293.215	9120.61
293.282	9114.5
293.349	9123.17
293.416	9097.89
293.484	9107.95
293.551	9113.39
293.618	9132.55
293.685	9161.1
293.752	9148.3
293.819	9151.76
293.886	9134.86
293.953	9141.94
294.02	9152.39
294.087	9163.9
294.154	9154.36
294.221	9172.37
294.288	9175.26
294.356	9190.09
294.423	9191.77
294.49	9179.06
294.557	9189.46
294.624	9178.49
294.691	9200.01
294.758	9201.36
294.825	9211.95
294.892	9201.74
294.959	9199.96
295.026	9209.73
295.093	9199.62
295.16	9210.55
295.226	9209.3
295.293	9234.48
295.36	9240.21
295.427	9249.07
295.494	9259.09
295.561	9270.4
295.628	9287.35
295.695	9303.87
295.762	9305.46
295.829	9308.49
295.896	9327.03
295.963	9338.1
296.03	9350.77
296.096	9353.22
296.163	9372.29
296.23	9385.34
296.297	9397.72
296.364	9401.47
296.431	9402.96
296.498	9402.34
296.564	9423.33
296.631	9433.39
296.698	9415.1
296.765	9438.45
296.832	9432.96
296.899	9419.43
296.965	9431.13
297.032	9409.6
297.099	9429.16
297.166	9439.41
297.233	9439.22
297.299	9433.4
297.366	9425.83
297.433	9420.59
297.5	9436.05
297.566	9426.65
297.633	9421.12
297.7	9425.98
297.767	9418.23
297.833	9426.37
297.9	9428
297.967	9414.23
298.033	9420.16
298.1	9454.45
298.167	9445.78
298.234	9448.42
298.3	9460.61
298.367	9463.5
298.434	9473.8
298.5	9465.13
298.567	9462.15
298.634	9463.88
298.7	9484.01
298.767	9492.2
298.834	9513.14
298.9	9506.21
298.967	9499.56
299.033	9515.41
299.1	9531.78
299.167	9553.98
299.233	9553.84
299.3	9564
299.366	9584.13
299.433	9593.18
299.5	9570.11
299.566	9565.97
299.633	9582.73
299.699	9589.28
299.766	9582.1
299.832	9579.16
299.899	9582.54
299.965	9595.49
300.032	9596.6
300.099	9601.37
300.165	9607.15
300.232	9601.99
300.298	9602.52
300.365	9619.57
300.431	9623.66
300.498	9614.75
300.564	9617.16
300.631	9621.11
300.697	9630.6
300.763	9628.29
300.83	9622.89
300.896	9635.22
300.963	9647.5
301.029	9646.78
301.096	9651.26
301.162	9661.81
301.229	9660.65
301.295	9649.77
301.361	9656.75
301.428	9657.38
301.494	9641.63
301.561	9644.95
301.627	9646.92
301.693	9642.78
301.76	9645.77
301.826	9639.7
301.892	9650.87
301.959	9661.04
302.025	9658.87
302.092	9662.1
302.158	9669.85
302.224	9679.77
302.291	9668.02
302.357	9667.15
302.423	9660.94
302.49	9650.01
302.556	9656.08
302.622	9660.27
302.688	9673.18
302.755	9672.65
302.821	9680.35
302.887	9685.26
302.954	9683.29
303.02	9689.79
303.086	9701.64
303.152	9700.19
303.219	9688.39
303.285	9689.26
303.351	9693.4
303.417	9694.99
303.483	9685.12
303.55	9676.26
303.616	9671.06
303.682	9673.41
303.748	9659.5
303.815	9672.12
303.881	9682.13
303.947	9672.69
304.013	9673.99
304.079	9665.28
304.145	9647.55
304.212	9638.55
304.278	9635.47
304.344	9629.64
304.41	9616.88
304.476	9607.87
304.542	9600.98
304.608	9611.05
304.674	9595.35
304.741	9584.51
304.807	9587.3
304.873	9589.76
304.939	9606.95
305.005	9593.85
305.071	9593.08
305.137	9595.54
305.203	9576.32
305.269	9572.76
305.335	9577.96
305.401	9573.72
305.467	9565.73
305.533	9572.9
305.599	9581.62
305.666	9587.16
305.732	9592.07
305.798	9609.17
305.864	9634.5
305.93	9639.46
305.996	9633.68
306.062	9639.51
306.128	9639.32
306.194	9628.29
306.259	9624.58
306.325	9609.26
306.391	9615.48
306.457	9621.11
306.523	9629.25
306.589	9642.54
306.655	9643.46
306.721	9634.12
306.787	9621.88
306.853	9640.43
306.919	9625.88
306.985	9613.6
307.051	9610.71
307.117	9594.92
307.183	9589.57
307.248	9556.43
307.314	9557.78
307.38	9562.36
307.446	9569.92
307.512	9563.71
307.578	9570.16
307.644	9571.36
307.709	9577.48
307.775	9577.09
307.841	9565.68
307.907	9557.64
307.973	9540.83
308.039	9526.67
308.104	9529.76
308.17	9529.51
308.236	9512.66
308.302	9511.6
308.368	9507.79
308.433	9500.38
308.499	9500.47
308.565	9486.03
308.631	9493.78
308.696	9473.75
308.762	9464.21
308.828	9451.31
308.894	9429.64
308.959	9401.56
309.025	9387.02
309.091	9382.21
309.156	9368.48
309.222	9372.43
309.288	9360.78
309.354	9341.08
309.419	9346.09
309.485	9327.89
309.551	9333.38
309.616	9317.78
309.682	9316.96
309.748	9313.06
309.813	9312.68
309.879	9303.29
309.945	9292.36
310.01	9286.48
310.076	9281.28
310.141	9276.08
310.207	9260.77
310.273	9261.59
310.338	9273.48
310.404	9255.62
310.469	9234.96
310.535	9230.43
310.601	9204.53
310.666	9211.71
310.732	9222.97
310.797	9203.85
310.863	9198.27
310.928	9190.61
310.994	9187.87
311.059	9184.55
311.125	9178.38
311.191	9183.01
311.256	9172.42
311.322	9169.77
311.387	9142.37
311.453	9466.96
311.518	9438.36
311.584	9435.67
311.649	9439.52
311.715	9423.92
311.78	9427.77
311.846	9419.88
311.911	9422.96
311.976	9431.72
312.042	9415.88
312.107	9400.91
312.173	9398.88
312.238	9387.67
312.304	9377.56
312.369	9375.92
312.434	9364.27
312.5	9355.84
312.565	9328.5
312.631	9331.72
312.696	9326.52
312.761	9336.01
312.827	8996.83
312.892	9030.34
312.958	9028.13
313.023	9026.01
313.088	9023.55
313.154	9009.98
313.219	9004.63
313.284	8991.78
313.35	8987.54
313.415	8975.89
313.48	8975.56
313.546	8968.38
313.611	8977.39
313.676	8967.13
313.741	8954.57
313.807	8963.62
313.872	8965.11
313.937	8967.13
314.003	8977.24
314.068	8982.2
314.133	8983.02
314.198	8982.92
314.264	8961.55
314.329	8951.1
314.394	8944.6
314.459	8946.62
314.525	8966.98
314.59	8958.27
314.655	8945.32
314.72	8948.89
314.785	8951
314.851	8942.77
314.916	8928.91
314.981	8918.08
315.046	8912.3
315.111	8907.25
315.176	8888.91
315.242	8891.36
315.307	8891.12
315.372	8870.28
315.437	8851.12
315.502	8842.79
315.567	8852.8
315.632	8840.34
315.698	8841.88
315.763	8836.15
315.828	8823.63
315.893	8820.89
315.958	8821.85
316.023	8813.09
316.088	8790.04
316.153	8762.41
316.218	8753.22
316.283	8736.62
316.348	8716.7
316.413	8714.14
316.479	8697.54
316.544	8665.25
316.609	8632.96
316.674	8595.67
316.739	8562.08
316.804	8529.94
316.869	8490.77
316.934	8450.82
316.999	8416.28
317.064	8367.05
317.129	8327.07
317.194	8286.7
317.259	8231.51
317.324	8175.99
317.389	8131.59
317.454	8090.75
317.518	8064.34
317.583	8028.55
317.648	8006.28
317.713	7965.45
317.778	7902.53
317.843	7865.5
317.908	7830.01
317.973	7789.71
318.038	7758.83
318.103	7723.15
318.168	7695.98
318.233	7667.28
318.297	7616.26
318.362	7580.73
318.427	7539.82
318.492	7507.99
318.557	7458.34
318.622	7427.38
318.687	7402.96
318.751	7358.42
318.816	7326.26
318.881	7288.82
318.946	7242.2
319.011	7194.66
319.075	7158.1
319.14	7125.47
319.205	7085.11
319.27	7047.3
319.335	7004.01
319.399	6962.35
319.464	6927.57
319.529	6869.54
319.594	6825.34
319.658	6795.42
319.723	6754.69
319.788	6724.58
319.853	6670.2
319.917	6642.64
319.982	6589.29
320.047	6552.5
320.112	6528.26
320.176	6475.83
320.241	6441.69
320.306	6408.28
320.37	6366.61
320.435	6331.14
320.5	6298.45
320.564	6258.42
320.629	6215.47
320.694	6183.07
320.758	6139.84
320.823	6092.96
320.888	6063.27
320.952	6014.67
321.017	5974.17
321.082	5929.75
321.146	5888.11
321.211	5851.61
321.275	5810.51
321.34	5765.34
321.405	5720.12
321.469	5675.76
321.534	5638.17
321.598	5585.67
321.663	5555.17
321.727	5521.99
321.792	5475.78
321.857	5431.2
321.921	5387.87
321.986	5348.87
322.05	5287.97
322.115	5249.4
322.179	5208.48
322.244	5156.95
322.308	5121.83
322.373	5070.05
322.437	5028.63
322.502	5003.18
322.566	4960.13
322.631	4923.4
322.695	4888.31
322.76	4844.74
322.824	4807.82
322.889	4763.74
322.953	4717.46
323.018	4648.63
323.082	4588.62
323.146	4535.57
323.211	4482.07
323.275	4436.81
323.34	4392.81
323.404	4359.81
323.468	4312.79
323.533	4269.51
323.597	4223.63
323.662	4171.27
323.726	4139.38
323.79	4098.55
323.855	4033.8
323.919	3985.52
323.983	3938.15
324.048	3868.57
324.112	4011.06
324.177	3877.82
324.241	3675.37
324.305	3479.6
324.37	3288.13
324.434	3098.57
324.498	3057.28
324.562	3009.31
324.627	2953.62
324.691	2896.21
324.755	2833.07
324.82	2761.71
324.884	2684.97
324.948	2618.4
325.012	2531.88
325.077	2409.56
