Data from 20250630_urea_2M_MAYP1162681_03-12-27-535.txt Node
Date: Tue Jul 01 03:12:27 BST 2025
User: adleo
Spectrometer: MAYP116268
Trigger mode: 0
Integration Time (sec): 1.000000E0
Scans to average: 1
Electric dark correction enabled: true
Nonlinearity correction enabled: true
Boxcar width: 10
XAxis mode: Wavelengths
Number of Pixels in Spectrum: 2068
>>>>>Begin Spectral Data<<<<<
179.565	1064.45
179.642	1113.45
179.718	1150.24
179.795	1182.48
179.871	1210.42
179.948	1226.52
180.024	1244.77
180.101	1266.09
180.177	1279.61
180.254	1300.45
180.33	1319.58
180.407	1362.11
180.483	1445.87
180.56	1524.26
180.636	1596.65
180.712	1588.29
180.789	1597.41
180.865	1608.61
180.942	1617.68
181.018	1624.9
181.095	1633.36
181.171	1639.35
181.248	1637.59
181.324	1651.42
181.4	1658.12
181.477	1668.81
181.553	1681.06
181.63	1700.21
181.706	1712.95
181.782	1718.55
181.859	1717.17
181.935	1721.59
182.011	1717.32
182.088	1732.66
182.164	1751.16
182.24	1765.84
182.317	1771.82
182.393	1768.54
182.469	1780.95
182.546	1795.58
182.622	1800.29
182.698	1799.01
182.775	1810.27
182.851	1824.81
182.927	1818.63
183.003	1814.55
183.08	1806.9
183.156	1817.02
183.232	1814.26
183.308	1803.24
183.385	1811.17
183.461	1828.62
183.537	1830.04
183.613	1840.45
183.69	1832.04
183.766	1820.82
183.842	1828.04
183.918	1831.65
183.995	1846.53
184.071	1847.15
184.147	1842.87
184.223	1830.99
184.299	1840.83
184.375	1832.18
184.452	1839.84
184.528	1889.28
184.604	1899.36
184.68	1912.52
184.756	1916.8
184.832	1923.03
184.908	1930.25
184.985	1931.77
185.061	1916.7
185.137	1924.17
185.213	1916.13
185.289	1918.84
185.365	1913.09
185.441	1911.33
185.517	1924.65
185.593	1920.51
185.669	1918.56
185.745	1926.07
185.822	1943.8
185.898	1937.71
185.974	1945.32
186.05	1936.33
186.126	1902.34
186.202	1895.64
186.278	1892.31
186.354	1883.94
186.43	1887.41
186.506	1884.51
186.582	1882.38
186.658	1889.55
186.734	1871.26
186.81	1872.73
186.886	1873.92
186.962	1885.85
187.038	1882.85
187.114	1876.38
187.19	1882.8
187.266	1874.77
187.341	1875.82
187.417	1868.26
187.493	1867.17
187.569	1870.3
187.645	1867.45
187.721	1854.66
187.797	1862.74
187.873	1866.64
187.949	1861.7
188.025	1855.18
188.101	1858.41
188.176	1863.12
188.252	1854.57
188.328	1864.07
188.404	1864.69
188.48	1859.89
188.556	1852.99
188.632	1852.33
188.707	1852.47
188.783	1850.62
188.859	1847.91
188.935	1837.4
189.011	1846.29
189.086	1837.88
189.162	1830.8
189.238	1828.66
189.314	1828.04
189.39	1823.86
189.465	1817.15
189.541	1831.03
189.617	1818.11
189.693	1812.78
189.768	1816.3
189.844	1842.31
189.92	1832.67
189.996	1842.08
190.071	1853.63
190.147	1852.53
190.223	1858.95
190.298	1851.68
190.374	1841.55
190.45	1851.49
190.526	1858.81
190.601	1852.29
190.677	1857.14
190.753	1880.64
190.828	1881.49
190.904	1894.52
190.98	1906.5
191.055	1916.2
191.131	1909.11
191.207	1927.89
191.282	1936.54
191.358	1927.13
191.433	1914.71
191.509	1928.87
191.585	1924.83
191.66	1924.74
191.736	1932.68
191.811	1926.54
191.887	1942.85
191.963	1962.82
192.038	1968.05
192.114	1970.95
192.189	1973
192.265	1970.62
192.34	1953.02
192.416	1953.54
192.491	1950.88
192.567	1953.16
192.642	1955.59
192.718	1956.49
192.793	1942.66
192.869	1939.61
192.944	1942.04
193.02	1946.41
193.095	1949.88
193.171	1954.64
193.246	1951.69
193.322	1948.08
193.397	1946.56
193.473	1932.1
193.548	1913.41
193.624	1918.79
193.699	1915.51
193.775	1929.68
193.85	1929.49
193.925	1934.43
194.001	1933.82
194.076	1923.4
194.152	1915.18
194.227	1907.47
194.302	1896.78
194.378	1903.05
194.453	1900.44
194.529	1913.04
194.604	1899.35
194.679	1890.93
194.755	1873.92
194.83	1888.38
194.905	1885.62
194.981	1894.75
195.056	1889.33
195.131	1895.56
195.207	1893.46
195.282	1883.91
195.357	1867.22
195.433	1880.24
195.508	1868.64
195.583	1874.21
195.659	1890.37
195.734	1895.56
195.809	1895.98
195.884	1901.07
195.96	1901.73
196.035	1916.76
196.11	1911.24
196.185	1923.74
196.261	1928.21
196.336	1957.02
196.411	1942.33
196.486	1948.55
196.561	1942.85
196.637	1952.55
196.712	1969.91
196.787	1973.38
196.862	1986.64
196.937	1997.24
197.013	2002.43
197.088	2013.22
197.163	2031.96
197.238	2047.81
197.313	2048.38
197.388	2060.6
197.464	2090.33
197.539	2101.36
197.614	2091.71
197.689	2102.46
197.764	2117.92
197.839	2136.9
197.914	2131.86
197.989	2153.79
198.065	2167.63
198.14	2216.33
198.215	2240.31
198.29	2247.73
198.365	2257.73
198.44	2268
198.515	2291.99
198.59	2308.36
198.665	2333.3
198.74	2342.96
198.815	2343.96
198.89	2361.42
198.965	2388.99
199.04	2388.75
199.115	2401.13
199.19	2441.53
199.265	2444.53
199.34	2453.77
199.415	2485.01
199.49	2504.67
199.565	2511.86
199.64	2534.52
199.715	2530.71
199.79	2533.23
199.865	2539.28
199.94	2538.9
200.015	2567.24
200.09	2573.57
200.165	2576.19
200.24	2579.52
200.315	2617.95
200.39	2629.95
200.464	2638.62
200.539	2637.52
200.614	2652.67
200.689	2673.43
200.764	2680.06
200.839	2697.96
200.914	2698.1
200.989	2689
201.063	2700.53
201.138	2685.72
201.213	2686.77
201.288	2667.48
201.363	2672.43
201.438	2672.48
201.512	2688.62
201.587	2673.28
201.662	2675.76
201.737	2687.34
201.812	2697.44
201.886	2661.73
201.961	2673.45
202.036	2661.98
202.111	2660.69
202.186	2630.89
202.26	2615.5
202.335	2594.07
202.41	2587.21
202.485	2576.69
202.559	2558.64
202.634	2532.83
202.709	2542.87
202.784	2521.77
202.858	2520.73
202.933	2506.06
203.008	2502.59
203.082	2485.4
203.157	2487.49
203.232	2448.37
203.306	2430.56
203.381	2399.56
203.456	2382.33
203.53	2358.93
203.605	2342.8
203.68	2320.52
203.754	2315.38
203.829	2303.58
203.904	2286.73
203.978	2277.54
204.053	2277.26
204.127	2263.7
204.202	2261.65
204.277	2244.05
204.351	2237.67
204.426	2231.15
204.5	2224.34
204.575	2192.19
204.65	2199.09
204.724	2190.47
204.799	2198.03
204.873	2196.89
204.948	2197.89
205.022	2187.09
205.097	2180.24
205.171	2195.41
205.246	2202.03
205.32	2201.31
205.395	2200.46
205.469	2191.85
205.544	2198.71
205.618	2186
205.693	2197.04
205.767	2188.05
205.842	2210.94
205.916	2209.32
205.991	2201.62
206.065	2206.09
206.14	2219.59
206.214	2217.12
206.289	2209.22
206.363	2221.4
206.438	2219.92
206.512	2223.63
206.586	2242.33
206.661	2248.8
206.735	2226.3
206.81	2229.02
206.884	2243.1
206.958	2234.87
207.033	2250.56
207.107	2253.32
207.181	2280.65
207.256	2276.32
207.33	2295.11
207.405	2304.25
207.479	2320.39
207.553	2327.38
207.628	2312.21
207.702	2321.44
207.776	2313.87
207.851	2317.92
207.925	2331.44
207.999	2331.49
208.073	2330.91
208.148	2329.96
208.222	2319.44
208.296	2347.99
208.371	2363.23
208.445	2372.51
208.519	2396.64
208.593	2408.11
208.668	2406.59
208.742	2409.92
208.816	2411.92
208.89	2423.92
208.965	2421.83
209.039	2426.4
209.113	2442.54
209.187	2459
209.261	2459.42
209.336	2476.28
209.41	2494.47
209.484	2494.75
209.558	2513.71
209.632	2528.04
209.707	2538.75
209.781	2558.32
209.855	2571.51
209.929	2586.19
210.003	2593.24
210.077	2592.1
210.151	2636
210.226	2665.64
210.3	2692.05
210.374	2710.53
210.448	2715.1
210.522	2722.87
210.596	2735.21
210.67	2745.21
210.744	2790.05
210.818	2818.68
210.892	2840.12
210.966	2835.5
211.041	2852.23
211.115	2850.04
211.189	2874.2
211.263	2894.59
211.337	2903.55
211.411	2920.81
211.485	2918.38
211.559	2931.15
211.633	2935.63
211.707	2911.83
211.781	2921.08
211.855	2895
211.929	2895.29
212.003	2884.33
212.077	2901.69
212.151	2920.04
212.225	2934.44
212.299	2933.63
212.373	2931.15
212.447	2936.64
212.52	2974.01
212.594	2984.46
212.668	3007.1
212.742	3007.58
212.816	3013.44
212.89	3023.84
212.964	3036.15
213.038	3057.95
213.112	3088.72
213.186	3122.19
213.26	3121.62
213.333	3106.12
213.407	3131.81
213.481	3159.08
213.555	3195.02
213.629	3210.29
213.703	3224.23
213.777	3255.73
213.85	3269.76
213.924	3335.17
213.998	3375.18
214.072	3406.22
214.146	3438.4
214.219	3478.84
214.293	3520.33
214.367	3570.95
214.441	3632.56
214.515	3673.88
214.588	3703.02
214.662	3725.52
214.736	3763.35
214.81	3834.16
214.883	3902.89
214.957	3956.73
215.031	4011.47
215.105	4060.2
215.178	4120.44
215.252	4186.47
215.326	4236.39
215.4	4291.84
215.473	4325.24
215.547	4381.95
215.621	4450.11
215.694	4533.06
215.768	4597.24
215.842	4668.66
215.915	4745.14
215.989	4801.69
216.063	4878.37
216.136	4969.66
216.21	5064.43
216.284	5169.79
216.357	5260.98
216.431	5353.95
216.504	5460.22
216.578	5580.46
216.652	5690.03
216.725	5790.51
216.799	5903.3
216.873	6008.64
216.946	6125.24
217.02	6228.67
217.093	6336.57
217.167	6424.36
217.24	6517.9
217.314	6620.1
217.387	6725.3
217.461	6830.02
217.535	6956.69
217.608	7067.38
217.682	7177.99
217.755	7296.5
217.829	7397.05
217.902	7509.78
217.976	7627.85
218.049	7729.54
218.123	7831.7
218.196	7947.88
218.27	8056.77
218.343	8154.97
218.417	8269.46
218.49	8374.63
218.563	8498.71
218.637	8614.36
218.71	8747.91
218.784	8867.9
218.857	8993.76
218.931	9110.01
219.004	9217.51
219.077	9334.38
219.151	9447.97
219.224	9551.54
219.298	9659.7
219.371	9787.29
219.444	9890.69
219.518	9997
219.591	10109.27
219.665	10238.92
219.738	10348.17
219.811	10447.99
219.885	10564.78
219.958	10678.39
220.031	10792.68
220.105	10906.06
220.178	11014.24
220.251	11106.57
220.325	11219.54
220.398	11324.79
220.471	11434.04
220.544	11549.71
220.618	11642.15
220.691	11741.34
220.764	11851.32
220.838	11954.76
220.911	12043.16
220.984	12156.96
221.057	12258.86
221.131	12362.2
221.204	12437.78
221.277	12550.77
221.35	12675.52
221.424	12760.32
221.497	12853.3
221.57	12948.31
221.643	13041.93
221.716	13137.62
221.79	13230.89
221.863	13313.91
221.936	13402.32
222.009	13477.81
222.082	13562.12
222.155	13639.83
222.229	13745.16
222.302	13831.64
222.375	13914.46
222.448	13997.9
222.521	14076.86
222.594	14148.69
222.667	14217
222.74	14299.04
222.814	14375.01
222.887	14439.95
222.96	14529.17
223.033	14608.23
223.106	14675.62
223.179	14747.01
223.252	14816.18
223.325	14889.31
223.398	14960.94
223.471	15034.54
223.544	15117.21
223.617	15180.02
223.69	15253.96
223.763	15299.9
223.837	15365.84
223.91	15431.25
223.983	15482.3
224.056	15527.94
224.129	15595.81
224.202	15661.56
224.275	15719.21
224.348	15768.27
224.42	15816.33
224.493	15850.98
224.566	15905.06
224.639	15973.27
224.712	16022.81
224.785	16077.08
224.858	16133.24
224.931	16189.63
225.004	16229.78
225.077	16277.06
225.15	16309.69
225.223	16363.19
225.296	16432.69
225.369	16474.33
225.442	16517.51
225.514	16579.73
225.587	16641.47
225.66	16697.09
225.733	16756.57
225.806	16800.13
225.879	16848.71
225.952	16892.24
226.025	16955.52
226.097	17021.69
226.17	17059.13
226.243	17091.28
226.316	17136.1
226.389	17185.93
226.461	17225.59
226.534	17276.58
226.607	17328.1
226.68	17398.46
226.753	17445.64
226.825	17468.15
226.898	17523.48
226.971	17565.74
227.044	17601.21
227.117	17645.11
227.189	17688
227.262	17729.35
227.335	17776.58
227.407	17806.41
227.48	17864.63
227.553	17907.32
227.626	17926.79
227.698	17973.2
227.771	18023.76
227.844	18055.18
227.916	18087.66
227.989	18116.23
228.062	18151.94
228.134	18204.28
228.207	18237.72
228.28	18266.68
228.352	18307.5
228.425	18339.64
228.498	18393.38
228.57	18416.65
228.643	18465.18
228.716	18493.85
228.788	18523.44
228.861	18560.84
228.934	18613.36
229.006	18626.81
229.079	18654.13
229.151	18682.85
229.224	18699.43
229.296	18724.49
229.369	18780.39
229.442	18829.45
229.514	18853.74
229.587	18894.22
229.659	18894.5
229.732	18929.49
229.804	18961.83
229.877	19015.27
229.949	19059.65
230.022	19097.67
230.094	19130.78
230.167	19151.21
230.239	19172.66
230.312	19196.99
230.384	19239.16
230.457	19267.98
230.529	19304.17
230.602	19332.6
230.674	19364.69
230.747	19405.17
230.819	19455.96
230.892	19445.75
230.964	19465.7
231.037	19491.72
231.109	19509.36
231.181	19550.03
231.254	19555.24
231.326	19574.27
231.399	19585.21
231.471	19595.81
231.544	19590.08
231.616	19627.18
231.688	19637.69
231.761	19649.93
231.833	19669.25
231.905	19660.24
231.978	19666.31
232.05	19677.35
232.122	19692.34
232.195	19704.19
232.267	19734.45
232.339	19735.13
232.412	19767.71
232.484	19771.27
232.556	19784.96
232.629	19822.74
232.701	19841.39
232.773	19859.61
232.846	19868.38
232.918	19879.03
232.99	19889.15
233.062	19913.48
233.135	19917.72
233.207	19926.01
233.279	19935.8
233.351	19947.17
233.424	19951.26
233.496	19950.16
233.568	19975.99
233.64	19972.18
233.713	19970.83
233.785	19967.17
233.857	19970.88
233.929	19959.65
234.001	19978.4
234.074	19989.58
234.146	19963.17
234.218	19967.22
234.29	19961.77
234.362	19952.95
234.434	19938.83
234.507	19925.39
234.579	19912.13
234.651	19906.01
234.723	19909.82
234.795	19916.33
234.867	19906.4
234.939	19917.92
235.012	19919.36
235.084	19918.74
235.156	19917.77
235.228	19910.93
235.3	19890.5
235.372	19884.95
235.444	19894.79
235.516	19865.34
235.588	19859.46
235.66	19850.55
235.732	19821.97
235.804	19870.5
235.876	19865.2
235.948	19876.81
236.02	19869.44
236.092	19854.74
236.164	19838.55
236.236	19820.09
236.308	19802.02
236.38	19793.44
236.452	19769.59
236.524	19750.89
236.596	19753.88
236.668	19749.88
236.74	19737.3
236.812	19735.66
236.884	19719.33
236.956	19691.86
237.028	19672.77
237.1	19650.46
237.172	19651.52
237.244	19651.76
237.316	19600.63
237.388	19588.97
237.46	19562.51
237.532	19563.86
237.604	19538.51
237.675	19543.86
237.747	19535.24
237.819	19513.26
237.891	19495.09
237.963	19471.05
238.035	19454.81
238.107	19395
238.178	19382.09
238.25	19364.4
238.322	19376.45
238.394	19350.86
238.466	19341.71
238.538	19323.59
238.609	19312.26
238.681	19277.32
238.753	19253.13
238.825	19232.46
238.897	19209.18
238.968	19197.62
239.04	19157.04
239.112	19155.55
239.184	19120.95
239.255	19098.2
239.327	19085
239.399	19063.65
239.471	19052.28
239.542	19030.4
239.614	19018.54
239.686	18979.17
239.758	18968.72
239.829	18918.41
239.901	18902.94
239.973	18875.13
240.044	18857.3
240.116	18829.83
240.188	18795.81
240.259	18767.81
240.331	18732.54
240.403	18715.19
240.474	18670.28
240.546	18636.69
240.618	18590.86
240.689	18560.36
240.761	18541.95
240.833	18530.29
240.904	18502.09
240.976	18475.64
241.048	18451.35
241.119	18431.11
241.191	18412.12
241.262	18398.15
241.334	18362.92
241.405	18338.25
241.477	18299.98
241.549	18271.02
241.62	18247.36
241.692	18239.26
241.763	18217.68
241.835	18195.51
241.906	18175.8
241.978	18139.61
242.049	18114.31
242.121	18109.05
242.192	18094.35
242.264	18049.2
242.335	18007.76
242.407	17977.06
242.478	17942.89
242.55	17922.7
242.621	17890.99
242.693	17853.45
242.764	17809.79
242.836	17777.11
242.907	17749.26
242.979	17726.85
243.05	17701.45
243.122	17669.69
243.193	17628.15
243.264	17577.26
243.336	17534.27
243.407	17501.31
243.479	17491.24
243.55	17478.22
243.622	17444.49
243.693	17408.39
243.764	17391.67
243.836	17348.54
243.907	17320.06
243.978	17294.71
244.05	17268.34
244.121	17221.89
244.192	17205.36
244.264	17161.21
244.335	17133.11
244.407	17083.76
244.478	17054.22
244.549	17020.63
244.62	16979.28
244.692	16948.53
244.763	16925.64
244.834	16890.69
244.906	16861.49
244.977	16837.97
245.048	16813.34
245.119	16766.45
245.191	16724.23
245.262	16673.09
245.333	16659.84
245.405	16630.68
245.476	16597.42
245.547	16562.77
245.618	16538.05
245.689	16500.79
245.761	16475.15
245.832	16435.73
245.903	16415.53
245.974	16389.46
246.045	16356.44
246.117	16342.56
246.188	16304.58
246.259	16269.54
246.33	16242.36
246.401	16196.47
246.473	16140.56
246.544	16105.81
246.615	16088.66
246.686	16055.16
246.757	16030.82
246.828	15985.61
246.899	15967.96
246.97	15920.63
247.042	15875.37
247.113	15848.09
247.184	15838.12
247.255	15806.54
247.326	15785
247.397	15749.77
247.468	15725.23
247.539	15697.81
247.61	15658.19
247.681	15638.62
247.752	15614.9
247.823	15575.18
247.894	15552.53
247.965	15512.71
248.037	15468.47
248.108	15426.05
248.179	15392.16
248.25	15365.17
248.321	15338.42
248.392	15289.44
248.463	15279.56
248.534	15251.12
248.605	15232.04
248.675	15190.25
248.746	15166.53
248.817	15142.04
248.888	15120.64
248.959	15068.63
249.03	15036.24
249.101	15005.82
249.172	14969.14
249.243	14917.46
249.314	14904.5
249.385	14874.47
249.456	14853.93
249.527	14830.36
249.598	14807.85
249.669	14778.11
249.739	14752.9
249.81	14728.94
249.881	14693.41
249.952	14667.43
250.023	14642.27
250.094	14593.44
250.165	14557.14
250.235	14521.18
250.306	14499.44
250.377	14461.98
250.448	14440.14
250.519	14395.31
250.59	14381.72
250.66	14352.99
250.731	14343.59
250.802	14313.03
250.873	14292.54
250.944	14274.27
251.014	14238.74
251.085	14234.11
251.156	14218.54
251.227	14203.07
251.297	14189.72
251.368	14176.41
251.439	14159.54
251.51	14141.9
251.58	14114.76
251.651	14082.8
251.722	14070.31
251.792	14017.19
251.863	13990.43
251.934	13978.29
252.005	13984.89
252.075	13959.29
252.146	13939.53
252.217	13926.17
252.287	13910.17
252.358	13884.28
252.429	13872.23
252.499	13844.9
252.57	13824.89
252.641	13812.94
252.711	13786.23
252.782	13753.45
252.852	13747.71
252.923	13715.8
252.994	13696.81
253.064	13687.65
253.135	13656.65
253.205	13626.19
253.276	13626.28
253.347	13613.12
253.417	13582.56
253.488	13541
253.558	13509.33
253.629	13493.67
253.699	13472.12
253.77	13459.87
253.841	13433.74
253.911	13412.15
253.982	13391.8
254.052	13366.01
254.123	13338.54
254.193	13315.4
254.264	13325.76
254.334	13288.59
254.405	13255.14
254.475	13218.17
254.546	13196.66
254.616	13194.16
254.687	13172.08
254.757	13150.87
254.827	13127.83
254.898	13113.17
254.968	13102.28
255.039	13078.22
255.109	13054.94
255.18	13023.46
255.25	12979.3
255.321	12959.73
255.391	12920.93
255.461	12920.78
255.532	12878.55
255.602	12851.41
255.673	12808.56
255.743	12767.82
255.813	12719.38
255.884	12709.79
255.954	12694.79
256.024	12682.26
256.095	12660.09
256.165	12624.61
256.235	12607.88
256.306	12583.83
256.376	12571.63
256.446	12557.46
256.517	12538.85
256.587	12530.7
256.657	12511.76
256.728	12484.09
256.798	12463.94
256.868	12439.6
256.938	12408.94
257.009	12403.59
257.079	12391.39
257.149	12403.01
257.219	12363.44
257.29	12361.8
257.36	12321.74
257.43	12304.48
257.5	12255.75
257.571	12223.26
257.641	12211.65
257.711	12178.77
257.781	12161.27
257.852	12136.3
257.922	12091.96
257.992	12065.74
258.062	12034.69
258.132	12026.11
258.202	12012.95
258.273	11992.71
258.343	11993.24
258.413	11966.2
258.483	11936.75
258.553	11910.19
258.623	11873.56
258.693	11857.17
258.764	11849.89
258.834	11854.9
258.904	11844.2
258.974	11821.74
259.044	11807.86
259.114	11793.59
259.184	11782.56
259.254	11761.59
259.324	11724.96
259.394	11721.49
259.464	11716.81
259.535	11698.69
259.605	11674.59
259.675	11646.64
259.745	11632.08
259.815	11597.04
259.885	11571.3
259.955	11581.04
260.025	11555.64
260.095	11538.58
260.165	11531.16
260.235	11527.01
260.305	11496.16
260.375	11461.32
260.445	11471.92
260.515	11464.02
260.585	11459.15
260.655	11434.13
260.725	11422.95
260.795	11421.51
260.865	11413.56
260.934	11387.24
261.004	11375
261.074	11360.44
261.144	11358.08
261.214	11348.2
261.284	11334.8
261.354	11329.65
261.424	11302.95
261.494	11299.86
261.564	11284.54
261.634	11261.64
261.703	11227.33
261.773	11214.9
261.843	11210.46
261.913	11186.46
261.983	11149.69
262.053	11135.57
262.123	11119.23
262.192	11089.02
262.262	11072.54
262.332	11046.56
262.402	11039.72
262.472	11018.76
262.541	10973.89
262.611	10964.64
262.681	10942.76
262.751	10943.68
262.821	10924.93
262.89	10892.65
262.96	10881.75
263.03	10879.54
263.1	10870.82
263.169	10851.11
263.239	10835.11
263.309	10825.52
263.379	10815.79
263.448	10808.94
263.518	10796.7
263.588	10782.68
263.657	10785.09
263.727	10779.21
263.797	10758.44
263.867	10737.05
263.936	10716.19
264.006	10722.3
264.076	10705.01
264.145	10685.11
264.215	10655.76
264.285	10643.96
264.354	10608.88
264.424	10581.56
264.494	10555.73
264.563	10544.17
264.633	10546.87
264.702	10538.34
264.772	10508.13
264.842	10488.08
264.911	10479.07
264.981	10448.77
265.05	10438.89
265.12	10418.27
265.19	10397.36
265.259	10394.13
265.329	10392.88
265.398	10383.34
265.468	10392.2
265.537	10366.43
265.607	10353.03
265.676	10334.1
265.746	10330.25
265.815	10333.52
265.885	10321
265.955	10290.21
266.024	10269.69
266.094	10231.53
266.163	10227.58
266.232	10230.18
266.302	10218.14
266.371	10202.97
266.441	10193.23
266.51	10182.88
266.58	10169.15
266.649	10154.26
266.719	10146.84
266.788	10135.13
266.858	10130.03
266.927	10092.69
266.996	10089.17
267.066	10086.48
267.135	10066.87
267.205	10056.47
267.274	10038.45
267.343	10032.38
267.413	10020.63
267.482	10021.5
267.552	10026.46
267.621	9997.65
267.69	9965.86
267.76	9951.07
267.829	9940.67
267.898	9925.59
267.968	9900.11
268.037	9891.15
268.106	9884.84
268.176	9860.18
268.245	9842.11
268.314	9828.53
268.384	9825.5
268.453	9811.24
268.522	9795.01
268.592	9791.88
268.661	9771.45
268.73	9767.94
268.799	9751.51
268.869	9763.12
268.938	9726.18
269.007	9704.02
269.076	9697.67
269.146	9700.31
269.215	9697.81
269.284	9703.16
269.353	9679.7
269.422	9665.06
269.492	9647.34
269.561	9605.3
269.63	9598.75
269.699	9584.54
269.768	9571.01
269.838	9560.99
269.907	9560.22
269.976	9533.73
270.045	9510.14
270.114	9502.53
270.183	9486.59
270.253	9476.91
270.322	9452.88
270.391	9447.82
270.46	9457.55
270.529	9452.06
270.598	9448.11
270.667	9431.69
270.736	9409.87
270.806	9408.19
270.875	9409.63
270.944	9399.57
271.013	9417.82
271.082	9416.61
271.151	9409.68
271.22	9381.85
271.289	9371.4
271.358	9357.58
271.427	9359.45
271.496	9348.72
271.565	9337.79
271.634	9326.57
271.703	9330.04
271.772	9321.42
271.841	9310.06
271.91	9283.96
271.979	9273.22
272.048	9241.82
272.117	9238.6
272.186	9220.01
272.255	9218.42
272.324	9214.96
272.393	9211.39
272.462	9198.59
272.531	9180.24
272.6	9162.71
272.669	9164.3
272.738	9146.34
272.807	9136.42
272.876	9116.01
272.945	9135.85
273.013	9133.97
273.082	9139.84
273.151	9118.08
273.22	9119.86
273.289	9110.91
273.358	9113.6
273.427	9098.73
273.496	9107.59
273.564	9102.72
273.633	9103.4
273.702	9088.86
273.771	9077.06
273.84	9066.76
273.909	9064.79
273.977	9056.02
274.046	9049.67
274.115	9060.98
274.184	9047.07
274.253	9044.76
274.322	9051.93
274.39	9028.01
274.459	9014.33
274.528	8986.94
274.597	8974.72
274.665	8965.91
274.734	8971.68
274.803	8964.27
274.872	8965.71
274.94	8943.95
275.009	8997.32
275.078	8981.58
275.147	8974.45
275.215	8968.15
275.284	8974.55
275.353	8962.13
275.421	8947.74
275.49	8955.49
275.559	8936.23
275.627	8931.23
275.696	8908.41
275.765	8906.77
275.833	8899.84
275.902	8903.79
275.971	8913.37
276.039	8931.52
276.108	8928
276.177	8920.78
276.245	8908.22
276.314	8897.1
276.383	8904.7
276.451	8843.3
276.52	8844.31
276.588	8851.29
276.657	8856.01
276.725	8845.95
276.794	8847.15
276.863	8856.29
276.931	8837.76
277	8849.32
277.068	8860.58
277.137	8885.37
277.205	8877.71
277.274	8890.37
277.342	8891.62
277.411	8874.35
277.48	8858.89
277.548	8852.01
277.617	8857.59
277.685	8850.23
277.754	8852.64
277.822	8845.37
277.89	8857.12
277.959	8850.33
278.027	8839.45
278.096	8828.72
278.164	8853.13
278.233	8847.69
278.301	8835.46
278.37	8843.35
278.438	8821.12
278.507	8818.76
278.575	8792.81
278.643	8788.63
278.712	8775
278.78	8757.87
278.849	8764.41
278.917	8770.19
278.985	8768.5
279.054	8765.04
279.122	8776.88
279.191	8772.93
279.259	8768.74
279.327	8742.56
279.396	8757.48
279.464	8749.06
279.532	8755.02
279.601	8748.52
279.669	8744.77
279.737	8759.64
279.806	8759.26
279.874	8774.66
279.942	8772.59
280.011	8767.59
280.079	8776.44
280.147	8787.51
280.215	8794.54
280.284	8786.79
280.352	8775.62
280.42	8776.39
280.488	8764.94
280.557	8756.56
280.625	8757.38
280.693	8754.25
280.761	8756.13
280.83	8741.79
280.898	8750.69
280.966	8731.58
281.034	8700.58
281.102	8689.37
281.171	8678.11
281.239	8684.9
281.307	8672.48
281.375	8663.19
281.443	8687.73
281.512	8682.68
281.58	8686.05
281.648	8674.79
281.716	8679.02
281.784	8676.62
281.852	8668.58
281.92	8671.8
281.989	8678.3
282.057	8664.78
282.125	8707
282.193	8701.36
282.261	8703.92
282.329	8701.22
282.397	8707.86
282.465	8712.1
282.533	8716.33
282.601	8712.43
282.67	8693.28
282.738	8681.73
282.806	8690.39
282.874	8675.76
282.942	8682.3
283.01	8678.98
283.078	8682.59
283.146	8682.25
283.214	8691.25
283.282	8695.06
283.35	8706.56
283.418	8702.9
283.486	8711.42
283.554	8671.8
283.622	8674.3
283.69	8661.93
283.758	8659.62
283.826	8663.81
283.894	8666.07
283.962	8685.95
284.03	8693.85
284.098	8692.4
284.165	8694.23
284.233	8689.23
284.301	8684.41
284.369	8672.57
284.437	8664.87
284.505	8657.17
284.573	8669.06
284.641	8660.25
284.709	8668.14
284.777	8646.39
284.845	8651.2
284.912	8649.33
284.98	8654.91
285.048	8652.7
285.116	8660.83
285.184	8668.19
285.252	8665.88
285.319	8657.07
285.387	8650.48
285.455	8642.54
285.523	8650.77
285.591	8651.59
285.659	8654.14
285.726	8668.38
285.794	8662.51
285.862	8657.65
285.93	8658.18
285.997	8654.72
286.065	8647.98
286.133	8636.91
286.201	8632.48
286.269	8620.98
286.336	8616.07
286.404	8610.77
286.472	8615.44
286.539	8600.43
286.607	8584.36
286.675	8582.43
286.743	8585.66
286.81	8580.55
286.878	8580.7
286.946	8570.49
287.013	8570.45
287.081	8571.5
287.149	8554.66
287.216	8562.31
287.284	8555.82
287.352	8553.12
287.419	8547.34
287.487	8560.96
287.555	8565.87
287.622	8573.86
287.69	8573.19
287.758	8578.91
287.825	8572.71
287.893	8563.9
287.96	8575.59
288.028	8592.2
288.096	8589.45
288.163	8595.42
288.231	8581.18
288.298	8581.61
288.366	8595.23
288.433	8582.43
288.501	8571.27
288.569	8575.31
288.636	8564.09
288.704	8582.77
288.771	8587.48
288.839	8574.68
288.906	8567.51
288.974	8578.2
289.041	8571.61
289.109	8568.72
289.176	8578.63
289.244	8586.43
289.311	8598.8
289.379	8598.51
289.446	8593.79
289.514	8596.15
289.581	8593.7
289.649	8598.85
289.716	8600.87
289.783	8589.22
289.851	8613.33
289.918	8615.11
289.986	8621.32
290.053	8632.05
290.121	8623.19
290.188	8625.41
290.255	8658.37
290.323	8651.83
290.39	8641.72
290.458	8644.71
290.525	8653.18
290.592	8647.35
290.66	8648.6
290.727	8639.36
290.794	8656.54
290.862	8654.81
290.929	8659.29
290.996	8654.33
291.064	8663.19
291.131	8677.77
291.198	8693.37
291.266	8693.94
291.333	8696.73
291.4	8696.4
291.468	8710.5
291.535	8710.36
291.602	8716.81
291.669	8706.74
291.737	8717.33
291.804	8717.33
291.871	8737.02
291.938	8748.95
292.006	8775.29
292.073	8783.61
292.14	8794.39
292.207	8780.34
292.275	8784.58
292.342	8794.35
292.409	8820.77
292.476	8842.1
292.543	8829.92
292.611	8830.88
292.678	8842.44
292.745	8865.68
292.812	8884.07
292.879	8884.6
292.946	8889.22
293.014	8901.3
293.081	8913.87
293.148	8920.51
293.215	8935.53
293.282	8931.53
293.349	8939.14
293.416	8925.04
293.484	8938.23
293.551	8948.14
293.618	8971.82
293.685	8994.45
293.752	8986.32
293.819	8987.23
293.886	8973.41
293.953	8981.64
294.02	8989.59
294.087	8997.72
294.154	8991.37
294.221	9003.74
294.288	9002.06
294.356	9022.61
294.423	9027.57
294.49	9016.84
294.557	9033.49
294.624	9028.25
294.691	9045.82
294.758	9046.97
294.825	9052.51
294.892	9049.38
294.959	9049.67
295.026	9053.62
295.093	9051.35
295.16	9055.54
295.226	9056.65
295.293	9083.8
295.36	9094.88
295.427	9107.78
295.494	9116.3
295.561	9127.04
295.628	9147.55
295.695	9164.02
295.762	9160.22
295.829	9173.55
295.896	9185.01
295.963	9194.4
296.03	9200.76
296.096	9201.62
296.163	9214.24
296.23	9227.09
296.297	9237.35
296.364	9238.31
296.431	9248.81
296.498	9247.6
296.564	9267.34
296.631	9270.52
296.698	9252.85
296.765	9267.82
296.832	9263.54
296.899	9252.95
296.965	9272.25
297.032	9252.7
297.099	9263.25
297.166	9272.64
297.233	9264.06
297.299	9262.48
297.366	9257.32
297.433	9265.08
297.5	9279.23
297.566	9277.64
297.633	9276.05
297.7	9273.69
297.767	9274.08
297.833	9279.23
297.9	9282.02
297.967	9279.71
298.033	9291.85
298.1	9321.66
298.167	9314.53
298.234	9316.7
298.3	9328.4
298.367	9321.27
298.434	9329.55
298.5	9321.75
298.567	9319.1
298.634	9322.91
298.7	9343.03
298.767	9345.01
298.834	9357.33
298.9	9349.77
298.967	9342.79
299.033	9351.56
299.1	9369.47
299.167	9384.93
299.233	9380.78
299.3	9389.55
299.366	9397.78
299.433	9406.06
299.5	9386.61
299.566	9391.13
299.633	9404.04
299.699	9416.66
299.766	9423.21
299.832	9428.94
299.899	9441.84
299.965	9463.8
300.032	9460.48
300.099	9464.77
300.165	9470.02
300.232	9465.92
300.298	9466.79
300.365	9483.64
300.431	9487.54
300.498	9483.5
300.564	9486.53
300.631	9494.04
300.697	9509.21
300.763	9511.38
300.83	9513.02
300.896	9525.59
300.963	9535.27
301.029	9541.29
301.096	9539.12
301.162	9544.71
301.229	9536.76
301.295	9523.23
301.361	9518.46
301.428	9523.85
301.494	9507.24
301.561	9514.37
301.627	9519.52
301.693	9522.79
301.76	9522.99
301.826	9515.52
301.892	9528.09
301.959	9534.79
302.025	9530.74
302.092	9521.11
302.158	9530.5
302.224	9533
302.291	9518.7
302.357	9515.14
302.423	9511.43
302.49	9505.6
302.556	9507.72
302.622	9508.01
302.688	9520.44
302.755	9530.89
302.821	9537.15
302.887	9546.63
302.954	9540.32
303.02	9546.34
303.086	9554.29
303.152	9545.72
303.219	9544.85
303.285	9546.1
303.351	9559.11
303.417	9557.04
303.483	9550.3
303.55	9539.75
303.616	9538.11
303.682	9539.17
303.748	9531.32
303.815	9539.65
303.881	9550.73
303.947	9543.99
304.013	9542.5
304.079	9535.37
304.145	9516.01
304.212	9508.11
304.278	9506.28
304.344	9511.38
304.41	9493.9
304.476	9477.68
304.542	9479.02
304.608	9483.6
304.674	9467.37
304.741	9456.48
304.807	9461.83
304.873	9467.7
304.939	9485.14
305.005	9464.86
305.071	9465.97
305.137	9468.57
305.203	9442.13
305.269	9432.55
305.335	9437.17
305.401	9437.41
305.467	9433.8
305.533	9444.16
305.599	9458.27
305.666	9465.87
305.732	9463.32
305.798	9478.15
305.864	9507.77
305.93	9512.44
305.996	9510.52
306.062	9504.4
306.128	9498.19
306.194	9490.58
306.259	9492.12
306.325	9480.51
306.391	9496.12
306.457	9501.94
306.523	9507.05
306.589	9527.03
306.655	9519.42
306.721	9504.16
306.787	9490.92
306.853	9502.14
306.919	9482.06
306.985	9476.04
307.051	9465.59
307.117	9453.64
307.183	9451.33
307.248	9423.16
307.314	9427.69
307.38	9428.55
307.446	9436.93
307.512	9426.05
307.578	9429.42
307.644	9422.2
307.709	9419.64
307.775	9407.12
307.841	9400.58
307.907	9392.92
307.973	9378.86
308.039	9379.53
308.104	9383.09
308.17	9384.06
308.236	9375.82
308.302	9382.76
308.368	9371.44
308.433	9369.51
308.499	9361.09
308.565	9347.99
308.631	9350.3
308.696	9323.63
308.762	9311.44
308.828	9307.16
308.894	9297.09
308.959	9268.4
309.025	9260.74
309.091	9257.32
309.156	9251.3
309.222	9253.04
309.288	9241.96
309.354	9220.88
309.419	9217.36
309.485	9204.75
309.551	9211.1
309.616	9190.64
309.682	9181.64
309.748	9171.62
309.813	9161.65
309.879	9156.12
309.945	9142.44
310.01	9134.84
310.076	9137.44
310.141	9135.22
310.207	9118.61
310.273	9118.27
310.338	9129.54
310.404	9109.8
310.469	9094.97
310.535	9086.69
310.601	9062.04
310.666	9063.82
310.732	9072.68
310.797	9063.24
310.863	9056.02
310.928	9044.18
310.994	9049.62
311.059	9046.58
311.125	9047.21
311.191	9062.28
311.256	9060.64
311.322	9060.4
311.387	9041.58
311.453	9418.65
311.518	9387.41
311.584	9388.14
311.649	9390.4
311.715	9377.88
311.78	9381.93
311.846	9372.97
311.911	9379.33
311.976	9379.71
312.042	9370.42
312.107	9355.98
312.173	9349.77
312.238	9346.88
312.304	9339.66
312.369	9327.82
312.434	9317.18
312.5	9302.78
312.565	9271.25
312.631	9273.61
312.696	9273.8
312.761	9279.53
312.827	8892.44
312.892	8931.63
312.958	8927.2
313.023	8919.98
313.088	8919.78
313.154	8909.1
313.219	8896.15
313.284	8885.46
313.35	8885.03
313.415	8873.33
313.48	8866.64
313.546	8865.68
313.611	8868.18
313.676	8862.46
313.741	8860.34
313.807	8866.74
313.872	8867.66
313.937	8870.5
314.003	8875.02
314.068	8869.58
314.133	8868.43
314.198	8861.93
314.264	8839.59
314.329	8830.06
314.394	8828.66
314.459	8818.65
314.525	8834.29
314.59	8835.11
314.655	8822.89
314.72	8824.86
314.785	8826.16
314.851	8826.11
314.916	8809.7
314.981	8794.87
315.046	8778.56
315.111	8764.36
315.176	8749.58
315.242	8755.79
315.307	8754.35
315.372	8729.7
315.437	8723.93
315.502	8711.41
315.567	8719.16
315.632	8706.17
315.698	8709.25
315.763	8702.51
315.828	8698.66
315.893	8691.73
315.958	8681.67
316.023	8673.97
316.088	8658.95
316.153	8633.11
316.218	8618.77
316.283	8601.64
316.348	8587.4
316.413	8592.26
316.479	8576.24
316.544	8542.41
316.609	8511.18
316.674	8473.5
316.739	8444.49
316.804	8404.75
316.869	8374.97
316.934	8333.49
316.999	8299.62
317.064	8244.53
317.129	8203.73
317.194	8164.04
317.259	8114.39
317.324	8067.3
317.389	8019.69
317.454	7974.52
317.518	7948.59
317.583	7919.68
317.648	7894.58
317.713	7852.4
317.778	7795.11
317.843	7763.04
317.908	7724.28
317.973	7684.03
318.038	7651.77
318.103	7615.52
318.168	7588.31
318.233	7553.83
318.297	7503.02
318.362	7463.55
318.427	7422.46
318.492	7389.67
318.557	7343.73
318.622	7310.46
318.687	7284.95
318.751	7249.63
318.816	7218.44
318.881	7182.15
318.946	7131.26
319.011	7083.92
319.075	7041.69
319.14	6999.99
319.205	6951.46
319.27	6923.12
319.335	6876.24
319.399	6839.2
319.464	6810.62
319.529	6753.08
319.594	6715.23
319.658	6688.86
319.723	6646.03
319.788	6619.96
319.853	6566.22
319.917	6538.09
319.982	6488
320.047	6447.15
320.112	6420.02
320.176	6366.83
320.241	6328.14
320.306	6296.7
320.37	6254.99
320.435	6224.18
320.5	6195.05
320.564	6157.23
320.629	6111.55
320.694	6078.45
320.758	6033.25
320.823	5985.32
320.888	5963.64
320.952	5909.05
321.017	5865.01
321.082	5830.38
321.146	5795.8
321.211	5761.27
321.275	5720.89
321.34	5676.55
321.405	5634.26
321.469	5585.26
321.534	5546.24
321.598	5492.79
321.663	5457.79
321.727	5419.02
321.792	5370.28
321.857	5327.9
321.921	5288.66
321.986	5247.7
322.05	5193.61
322.115	5158.3
322.179	5117.58
322.244	5060.78
322.308	5031.09
322.373	4985.87
322.437	4945.21
322.502	4918.57
322.566	4872.41
322.631	4835.11
322.695	4797.2
322.76	4753.22
322.824	4715.16
322.889	4674.91
322.953	4631.95
323.018	4569.45
323.082	4512.82
323.146	4465.51
323.211	4415.08
323.275	4371.46
323.34	4326.88
323.404	4293.75
323.468	4247.31
323.533	4201.79
323.597	4156.62
323.662	4109.05
323.726	4070.75
323.79	4025.53
323.855	3960.16
323.919	3910.75
323.983	3863.58
324.048	3798.64
324.112	3943.49
324.177	3815.29
324.241	3615.99
324.305	3424.04
324.37	3234.1
324.434	3052.62
324.498	3010.46
324.562	2960.63
324.627	2904.94
324.691	2850.6
324.755	2787.03
324.82	2715.84
324.884	2641.59
324.948	2574.5
325.012	2480.85
325.077	2364.16
