Data from 20250630_urea_2M_MAYP1162681_01-02-27-136.txt Node
Date: Tue Jul 01 01:02:27 BST 2025
User: adleo
Spectrometer: MAYP116268
Trigger mode: 0
Integration Time (sec): 1.000000E0
Scans to average: 1
Electric dark correction enabled: true
Nonlinearity correction enabled: true
Boxcar width: 10
XAxis mode: Wavelengths
Number of Pixels in Spectrum: 2068
>>>>>Begin Spectral Data<<<<<
179.565	1080.97
179.642	1127.59
179.718	1165.11
179.795	1199.06
179.871	1231.94
179.948	1247.68
180.024	1264.79
180.101	1282.33
180.177	1294.3
180.254	1315.29
180.33	1335.62
180.407	1380.38
180.483	1467.41
180.56	1548.12
180.636	1623.56
180.712	1613.2
180.789	1625.27
180.865	1633.96
180.942	1643.6
181.018	1655.29
181.095	1666.88
181.171	1671.01
181.248	1674.01
181.324	1689.64
181.4	1697.24
181.477	1703.85
181.553	1714.82
181.63	1736.54
181.706	1755.5
181.782	1763.81
181.859	1763.19
181.935	1768.18
182.011	1763.05
182.088	1777.26
182.164	1794.52
182.24	1806.49
182.317	1812.43
182.393	1809.68
182.469	1824.31
182.546	1838.15
182.622	1840.57
182.698	1839.1
182.775	1849.93
182.851	1861.53
182.927	1853.5
183.003	1849.88
183.08	1843.28
183.156	1854.21
183.232	1848.7
183.308	1835.1
183.385	1842.52
183.461	1857.77
183.537	1859.34
183.613	1872.18
183.69	1865.85
183.766	1855.01
183.842	1863.76
183.918	1871.56
183.995	1881.3
184.071	1882.68
184.147	1878.07
184.223	1870.94
184.299	1881.88
184.375	1871.56
184.452	1875.51
184.528	1929.91
184.604	1938.85
184.68	1951.92
184.756	1958.57
184.832	1963.42
184.908	1969.32
184.985	1971.55
185.061	1959.1
185.137	1968.37
185.213	1958.96
185.289	1957.86
185.365	1954.44
185.441	1950.26
185.517	1962.29
185.593	1959.91
185.669	1958.34
185.745	1963.57
185.822	1976.64
185.898	1966.8
185.974	1976.4
186.05	1973.17
186.126	1932.27
186.202	1927.46
186.278	1922.85
186.354	1912.77
186.43	1917.86
186.506	1916.2
186.582	1911.83
186.658	1917.58
186.734	1899.08
186.81	1899.7
186.886	1904.41
186.962	1914.96
187.038	1912.73
187.114	1905.64
187.19	1914.77
187.266	1907.35
187.341	1910.06
187.417	1902.46
187.493	1905.07
187.569	1906.93
187.645	1902.89
187.721	1893.57
187.797	1898.37
187.873	1904.64
187.949	1898.99
188.025	1893.42
188.101	1897.84
188.176	1903.31
188.252	1899.37
188.328	1907.16
188.404	1908.06
188.48	1901.31
188.556	1892.99
188.632	1892.71
188.707	1890.81
188.783	1884.81
188.859	1880.02
188.935	1870.74
189.011	1877.68
189.086	1871.5
189.162	1865.89
189.238	1861.9
189.314	1862.85
189.39	1858.72
189.465	1854.15
189.541	1869.13
189.617	1856.01
189.693	1849.69
189.768	1852.07
189.844	1872.42
189.92	1863.72
189.996	1873.9
190.071	1885.59
190.147	1884.78
190.223	1895.43
190.298	1887.83
190.374	1877.46
190.45	1887.25
190.526	1894.77
190.601	1890.3
190.677	1890.82
190.753	1913.75
190.828	1916.22
190.904	1924.06
190.98	1940.56
191.055	1945.22
191.131	1938.04
191.207	1958.72
191.282	1965.76
191.358	1958.29
191.433	1945.93
191.509	1958.85
191.585	1955.67
191.66	1953.48
191.736	1961.8
191.811	1949.87
191.887	1967.7
191.963	1987.29
192.038	1992.95
192.114	1994.99
192.189	1998.89
192.265	1995.99
192.34	1976.11
192.416	1977.25
192.491	1977.68
192.567	1979.34
192.642	1983.15
192.718	1981.67
192.793	1969.93
192.869	1968.45
192.944	1969.83
193.02	1976.25
193.095	1978.49
193.171	1984.1
193.246	1985.86
193.322	1984.95
193.397	1985.62
193.473	1970.21
193.548	1955.61
193.624	1961.56
193.699	1958.7
193.775	1974.44
193.85	1975.06
193.925	1983.34
194.001	1981.1
194.076	1971.83
194.152	1959.61
194.227	1953.95
194.302	1945.44
194.378	1949.44
194.453	1946.25
194.529	1958.14
194.604	1945.92
194.679	1940.5
194.755	1920.87
194.83	1932.8
194.905	1928.57
194.981	1936.75
195.056	1930.29
195.131	1935.9
195.207	1933.85
195.282	1923.77
195.357	1905.42
195.433	1920.2
195.508	1908.74
195.583	1915.25
195.659	1928.09
195.734	1935.23
195.809	1933.04
195.884	1941.69
195.96	1938.31
196.035	1952.63
196.11	1949.72
196.185	1959.33
196.261	1964.27
196.336	1991.99
196.411	1977.48
196.486	1981.62
196.561	1977.15
196.637	1986.23
196.712	1999.93
196.787	2002.45
196.862	2015.91
196.937	2028.46
197.013	2034.4
197.088	2044.63
197.163	2065.61
197.238	2081.84
197.313	2081.88
197.388	2097.39
197.464	2126.27
197.539	2138.59
197.614	2132.26
197.689	2142.3
197.764	2157.48
197.839	2176.98
197.914	2170.7
197.989	2193.82
198.065	2210.19
198.14	2257.61
198.215	2281.49
198.29	2294.11
198.365	2308.34
198.44	2318.66
198.515	2341.37
198.59	2354.74
198.665	2379.2
198.74	2386.01
198.815	2389.25
198.89	2409.43
198.965	2435.24
199.04	2431.95
199.115	2448.8
199.19	2486.36
199.265	2490.55
199.34	2501.31
199.415	2530.51
199.49	2553.79
199.565	2561.83
199.64	2582.98
199.715	2577.07
199.79	2586.21
199.865	2593.98
199.94	2593.5
200.015	2625.7
200.09	2632.32
200.165	2638.04
200.24	2644.56
200.315	2682.6
200.39	2695.75
200.464	2704.37
200.539	2707.57
200.614	2721.33
200.689	2744.82
200.764	2752.97
200.839	2769.11
200.914	2773.92
200.989	2763.15
201.063	2774.87
201.138	2756.59
201.213	2758.31
201.288	2743.25
201.363	2746.83
201.438	2743.64
201.512	2755.21
201.587	2738.39
201.662	2739.2
201.737	2749.58
201.812	2757.54
201.886	2724.6
201.961	2733.27
202.036	2722.17
202.111	2715.55
202.186	2686.37
202.26	2669.02
202.335	2648.34
202.41	2643.96
202.485	2628.44
202.559	2613.34
202.634	2589.38
202.709	2598.71
202.784	2577.8
202.858	2578.47
202.933	2558.37
203.008	2554.71
203.082	2537.23
203.157	2534.37
203.232	2496.82
203.306	2477.43
203.381	2445.52
203.456	2426.48
203.53	2403.94
203.605	2383.43
203.68	2363.62
203.754	2360.15
203.829	2343.72
203.904	2325.92
203.978	2315.16
204.053	2317.16
204.127	2301.32
204.202	2298.75
204.277	2286.14
204.351	2282.9
204.426	2277.42
204.5	2275.47
204.575	2242.12
204.65	2250.69
204.724	2242.36
204.799	2249.49
204.873	2248.11
204.948	2246.54
205.022	2234.79
205.097	2228.41
205.171	2242.16
205.246	2249.11
205.32	2250.39
205.395	2249.63
205.469	2241.26
205.544	2247.12
205.618	2231.99
205.693	2245.45
205.767	2233.75
205.842	2252.12
205.916	2244.03
205.991	2232.76
206.065	2235.09
206.14	2250.45
206.214	2246.5
206.289	2242.5
206.363	2254.96
206.438	2254.25
206.512	2262.01
206.586	2279.85
206.661	2286.42
206.735	2263.83
206.81	2264.87
206.884	2276.62
206.958	2263.4
207.033	2276.96
207.107	2280.1
207.181	2308.8
207.256	2302.38
207.33	2322.22
207.405	2333.75
207.479	2351.74
207.553	2360.45
207.628	2344.61
207.702	2356.79
207.776	2350.36
207.851	2354.12
207.925	2367.22
207.999	2365.22
208.073	2365.22
208.148	2368.74
208.222	2358.55
208.296	2390.95
208.371	2408.1
208.445	2418.48
208.519	2446.8
208.593	2460.84
208.668	2458.74
208.742	2460.84
208.816	2462.13
208.89	2476.75
208.965	2474.99
209.039	2480.84
209.113	2495.03
209.187	2511.54
209.261	2506.92
209.336	2524.92
209.41	2540.64
209.484	2539.35
209.558	2561.83
209.632	2572.88
209.707	2579.21
209.781	2600.35
209.855	2615.79
209.929	2629.47
210.003	2635.95
210.077	2634.71
210.151	2679.96
210.226	2709.26
210.3	2732.91
210.374	2754.91
210.448	2758.11
210.522	2768.11
210.596	2777.98
210.67	2787.17
210.744	2835.59
210.818	2865.22
210.892	2889.25
210.966	2891.15
211.041	2909.74
211.115	2906.93
211.189	2931.85
211.263	2955.11
211.337	2963.45
211.411	2977.9
211.485	2977.71
211.559	2992.43
211.633	3000.29
211.707	2973.25
211.781	2988.66
211.855	2963.91
211.929	2963.53
212.003	2951.24
212.077	2969.17
212.151	2990.96
212.225	3009.04
212.299	3009.23
212.373	3009.66
212.447	3014.76
212.52	3051.25
212.594	3066.7
212.668	3093.97
212.742	3095.02
212.816	3105.95
212.89	3118.73
212.964	3137.77
213.038	3161.87
213.112	3196.08
213.186	3234.72
213.26	3241.44
213.333	3228.17
213.407	3262.41
213.481	3294.51
213.555	3343.44
213.629	3364.88
213.703	3386.5
213.777	3425.42
213.85	3448.96
213.924	3528.16
213.998	3576.4
214.072	3619.46
214.146	3657.91
214.219	3707.93
214.293	3762.28
214.367	3822.1
214.441	3893.54
214.515	3946.99
214.588	3989.01
214.662	4024.9
214.736	4074.09
214.81	4154.98
214.883	4240.1
214.957	4311.77
215.031	4385.4
215.105	4441.39
215.178	4515.12
215.252	4596.57
215.326	4661.66
215.4	4738.19
215.473	4783.36
215.547	4859.08
215.621	4942.26
215.694	5050.55
215.768	5129.5
215.842	5222.26
215.915	5313.86
215.989	5400.45
216.063	5499.85
216.136	5612.48
216.21	5724.14
216.284	5850.71
216.357	5965.55
216.431	6076.48
216.504	6197.07
216.578	6338.35
216.652	6469.82
216.725	6591.93
216.799	6724.54
216.873	6848.82
216.946	6976.82
217.02	7098.86
217.093	7221.25
217.167	7328.9
217.24	7442.89
217.314	7571.17
217.387	7700.39
217.461	7826.14
217.535	7963.73
217.608	8080.6
217.682	8214.68
217.755	8355.78
217.829	8475.21
217.902	8616.64
217.976	8749.37
218.049	8879.13
218.123	8990.87
218.196	9134.37
218.27	9267.3
218.343	9387.93
218.417	9526.03
218.49	9660.48
218.563	9811.26
218.637	9953.69
218.71	10105.46
218.784	10241.74
218.857	10383.46
218.931	10518.93
219.004	10650.51
219.077	10788.85
219.151	10927.76
219.224	11051.7
219.298	11176.6
219.371	11319.39
219.444	11430.18
219.518	11560.4
219.591	11685.42
219.665	11839.89
219.738	11961.02
219.811	12073.66
219.885	12200.04
219.958	12326.71
220.031	12442.97
220.105	12561.46
220.178	12677.58
220.251	12788.54
220.325	12906.5
220.398	13021.04
220.471	13137.93
220.544	13258.35
220.618	13356.26
220.691	13472.82
220.764	13585.86
220.838	13706.23
220.911	13808.38
220.984	13931.54
221.057	14040.05
221.131	14146.88
221.204	14218.37
221.277	14330.35
221.35	14459.78
221.424	14556.91
221.497	14653.37
221.57	14753.58
221.643	14851.82
221.716	14953.73
221.79	15043.09
221.863	15124.99
221.936	15212.29
222.009	15297.08
222.082	15380.27
222.155	15464.1
222.229	15559.87
222.302	15646.92
222.375	15719.22
222.448	15807.62
222.521	15880.69
222.594	15952.75
222.667	16021.19
222.74	16115.37
222.814	16193.5
222.887	16254.38
222.96	16339.11
223.033	16423.31
223.106	16499.41
223.179	16584.52
223.252	16653.2
223.325	16722.51
223.398	16801.65
223.471	16871.34
223.544	16939.58
223.617	17009.51
223.69	17082.09
223.763	17129.08
223.837	17199.01
223.91	17268.65
223.983	17310.15
224.056	17367.31
224.129	17435.64
224.202	17509.67
224.275	17559.26
224.348	17600.8
224.42	17653.76
224.493	17691.64
224.566	17743.74
224.639	17798.15
224.712	17832.75
224.785	17878.82
224.858	17933.03
224.931	17974.38
225.004	18015.34
225.077	18063.58
225.15	18083.58
225.223	18121.85
225.296	18196.06
225.369	18219.72
225.442	18255.43
225.514	18311.24
225.587	18353.26
225.66	18394.27
225.733	18436.24
225.806	18475.47
225.879	18518.98
225.952	18558.55
226.025	18615.94
226.097	18666.69
226.17	18701.72
226.243	18718.06
226.316	18757.81
226.389	18792.9
226.461	18841.9
226.534	18888.6
226.607	18926.14
226.68	18988.11
226.753	19027.19
226.825	19032.45
226.898	19081.65
226.971	19113.6
227.044	19148.73
227.117	19191.43
227.189	19240.05
227.262	19275.08
227.335	19320.24
227.407	19353.15
227.48	19380.19
227.553	19408.04
227.626	19430.59
227.698	19463.79
227.771	19508.32
227.844	19519.36
227.916	19557.33
227.989	19570.49
228.062	19593.28
228.134	19644.12
228.207	19672.65
228.28	19705.04
228.352	19738.33
228.425	19766.48
228.498	19810.19
228.57	19825.37
228.643	19857.32
228.716	19864.02
228.788	19890.47
228.861	19907.29
228.934	19941.41
229.006	19970.71
229.079	19986.23
229.151	20001.46
229.224	20002.95
229.296	20030.18
229.369	20085.26
229.442	20120.2
229.514	20137.31
229.587	20166.13
229.659	20158.61
229.732	20187.04
229.804	20206.51
229.877	20244.82
229.949	20269.84
230.022	20307.28
230.094	20332.44
230.167	20356.63
230.239	20382.61
230.312	20393.98
230.384	20435.76
230.457	20451.72
230.529	20468.92
230.602	20497.79
230.674	20521.6
230.747	20565.45
230.819	20590.46
230.892	20574.99
230.964	20575.52
231.037	20599.96
231.109	20619.52
231.181	20646.99
231.254	20644.34
231.326	20649.26
231.399	20648.39
231.471	20649.4
231.544	20633.35
231.616	20653.64
231.688	20661.45
231.761	20655.96
231.833	20660.44
231.905	20634.85
231.978	20656.63
232.05	20662.17
232.122	20666.9
232.195	20663.09
232.267	20679.09
232.339	20683.91
232.412	20705.26
232.484	20707.72
232.556	20707.38
232.629	20730.61
232.701	20732.97
232.773	20744.2
232.846	20749.89
232.918	20759.04
232.99	20770.52
233.062	20784.64
233.135	20788.93
233.207	20768.59
233.279	20775.14
233.351	20787.43
233.424	20793.94
233.496	20768.59
233.568	20784.3
233.64	20765.55
233.713	20762.8
233.785	20756.1
233.857	20756.06
233.929	20744.83
234.001	20758.13
234.074	20773.07
234.146	20745.79
234.218	20749.55
234.29	20742.22
234.362	20737.02
234.434	20717.45
234.507	20697.31
234.579	20664.83
234.651	20647.72
234.723	20657.55
234.795	20653.79
234.867	20640.49
234.939	20646.9
235.012	20640.97
235.084	20644.39
235.156	20645.6
235.228	20632.15
235.3	20612.29
235.372	20592.87
235.444	20599.33
235.516	20570.56
235.588	20547.76
235.66	20535.86
235.732	20501.3
235.804	20536.44
235.876	20526.32
235.948	20530.99
236.02	20517.21
236.092	20509.31
236.164	20497.89
236.236	20469.07
236.308	20442.13
236.38	20434.03
236.452	20401.36
236.524	20392.92
236.596	20374.95
236.668	20369.45
236.74	20351.81
236.812	20340.1
236.884	20324.73
236.956	20302.08
237.028	20266.18
237.1	20240.1
237.172	20222.95
237.244	20222.23
237.316	20161.79
237.388	20133.65
237.46	20096.44
237.532	20088.01
237.604	20060.2
237.675	20045.21
237.747	20043.77
237.819	20019.05
237.891	19983.96
237.963	19956.01
238.035	19916.26
238.107	19849.7
238.178	19833.56
238.25	19801.46
238.322	19799.54
238.394	19761.51
238.466	19729.32
238.538	19717.08
238.609	19694.19
238.681	19663.21
238.753	19627.88
238.825	19605.09
238.897	19587.02
238.968	19573.76
239.04	19538.25
239.112	19543.07
239.184	19506.4
239.255	19472.04
239.327	19447.46
239.399	19428.81
239.471	19409.92
239.542	19388.96
239.614	19386.16
239.686	19324.86
239.758	19313.78
239.829	19262.46
239.901	19253.69
239.973	19219.76
240.044	19197.45
240.116	19168.63
240.188	19138.42
240.259	19112.88
240.331	19080.06
240.403	19052.3
240.474	19007.92
240.546	18969.08
240.618	18915.35
240.689	18877.42
240.761	18844.75
240.833	18831.26
240.904	18797.04
240.976	18765.52
241.048	18742.92
241.119	18710.54
241.191	18692.56
241.262	18677.53
241.334	18644.95
241.405	18604.76
241.477	18578.74
241.549	18544.96
241.62	18531.18
241.692	18518.5
241.763	18502.75
241.835	18472.48
241.906	18435.09
241.978	18399.04
242.049	18378.7
242.121	18353.35
242.192	18342.27
242.264	18301.02
242.335	18264.68
242.407	18234.37
242.478	18190.86
242.55	18156.45
242.621	18125.56
242.693	18088.79
242.764	18045.46
242.836	18009.08
242.907	17979.35
242.979	17948.07
243.05	17918.58
243.122	17875.3
243.193	17826.87
243.264	17758.49
243.336	17727.98
243.407	17710.63
243.479	17697.76
243.55	17673.33
243.622	17646.68
243.693	17610.92
243.764	17595.89
243.836	17548.56
243.907	17513.57
243.978	17488.8
244.05	17464.37
244.121	17417.67
244.192	17391.45
244.264	17346.68
244.335	17319.74
244.407	17276.56
244.478	17241.52
244.549	17206
244.62	17160.85
244.692	17126.15
244.763	17111.64
244.834	17062.19
244.906	17019.88
244.977	16979.01
245.048	16956.79
245.119	16909.03
245.191	16864.6
245.262	16807.78
245.333	16787.15
245.405	16756.35
245.476	16729.02
245.547	16704.98
245.618	16673.02
245.689	16651.38
245.761	16621.16
245.832	16585.06
245.903	16565.06
245.974	16539.57
246.045	16509.2
246.117	16496.72
246.188	16452.86
246.259	16412.66
246.33	16381.72
246.401	16346.1
246.473	16303.88
246.544	16266.1
246.615	16248.84
246.686	16215.54
246.757	16200.64
246.828	16164.25
246.899	16139.14
246.97	16088.68
247.042	16038.45
247.113	16016.72
247.184	15995.9
247.255	15955.5
247.326	15928.56
247.397	15892.07
247.468	15860.94
247.539	15827.73
247.61	15776.78
247.681	15754.08
247.752	15732.97
247.823	15698.41
247.894	15676.04
247.965	15637.1
248.037	15595.74
248.108	15545.42
248.179	15511.34
248.25	15474.27
248.321	15445.06
248.392	15408.43
248.463	15411.47
248.534	15383.75
248.605	15360.47
248.675	15319.5
248.746	15304.65
248.817	15281.57
248.888	15256.45
248.959	15210.18
249.03	15188.1
249.101	15165.2
249.172	15134.98
249.243	15084.22
249.314	15069.67
249.385	15032.84
249.456	15014.42
249.527	14989.65
249.598	14967.38
249.669	14937.4
249.739	14910.59
249.81	14885.14
249.881	14843.69
249.952	14807.1
250.023	14775.67
250.094	14736.92
250.165	14704.57
250.235	14671.26
250.306	14645.14
250.377	14606.04
250.448	14581.55
250.519	14532.05
250.59	14524.05
250.66	14498.74
250.731	14491.51
250.802	14459.31
250.873	14441.18
250.944	14412.74
251.014	14378.66
251.085	14378.03
251.156	14357.64
251.227	14347.57
251.297	14327.9
251.368	14316.71
251.439	14294.83
251.51	14283.65
251.58	14249.61
251.651	14216.83
251.722	14205.55
251.792	14151.51
251.863	14119.36
251.934	14107.16
252.005	14112.47
252.075	14077.95
252.146	14053.94
252.217	14036.25
252.287	14024.25
252.358	13995.37
252.429	13990.22
252.499	13963.8
252.57	13933.86
252.641	13916.27
252.711	13889.85
252.782	13851.53
252.852	13840.1
252.923	13816.19
252.994	13788.38
253.064	13777.67
253.135	13745.23
253.205	13714.76
253.276	13713.03
253.347	13708.79
253.417	13677.45
253.488	13642.99
253.558	13611.7
253.629	13592.46
253.699	13575.64
253.77	13551.1
253.841	13520.01
253.911	13496.77
253.982	13473.73
254.052	13463.8
254.123	13445.72
254.193	13415.93
254.264	13435.26
254.334	13390.38
254.405	13358.13
254.475	13320.34
254.546	13295.66
254.616	13284.71
254.687	13256.13
254.757	13236.65
254.827	13212.5
254.898	13193.89
254.968	13170.03
255.039	13142.26
255.109	13129.63
255.18	13089.91
255.25	13047.92
255.321	13036.36
255.391	12995.24
255.461	12996.59
255.532	12946.98
255.602	12914.59
255.673	12878.24
255.743	12840.69
255.813	12809.59
255.884	12792.1
255.954	12786.36
256.024	12777.97
256.095	12760.23
256.165	12728.08
256.235	12712.6
256.306	12685.03
256.376	12673.7
256.446	12662.33
256.517	12653.22
256.587	12633.31
256.657	12620.73
256.728	12604.53
256.798	12579.17
256.868	12559.02
256.938	12518.87
257.009	12508.7
257.079	12498.67
257.149	12501.61
257.219	12461.7
257.29	12447.96
257.36	12412.34
257.43	12394.5
257.5	12348.23
257.571	12325.04
257.641	12318.87
257.711	12285.03
257.781	12274.33
257.852	12258.52
257.922	12221.16
257.992	12200.15
258.062	12176.38
258.132	12166.36
258.202	12146.64
258.273	12129.82
258.343	12129.58
258.413	12107.16
258.483	12094.34
258.553	12066.63
258.623	12042.24
258.693	12025.08
258.764	12021.07
258.834	12016.06
258.904	12002.52
258.974	11977.5
259.044	11955.62
259.114	11939.09
259.184	11926.36
259.254	11895.75
259.324	11860.66
259.394	11846.3
259.464	11844.85
259.535	11824.32
259.605	11794.44
259.675	11767.78
259.745	11757.42
259.815	11726.81
259.885	11705.08
259.955	11701.32
260.025	11667.82
260.095	11647.91
260.165	11644.44
260.235	11642.9
260.305	11619.29
260.375	11585.35
260.445	11590.56
260.515	11578.27
260.585	11565.06
260.655	11549.78
260.725	11546.6
260.795	11539.08
260.865	11536.14
260.934	11501.25
261.004	11489.15
261.074	11470.64
261.144	11475.8
261.214	11461.97
261.284	11447.89
261.354	11439.07
261.424	11407.02
261.494	11411.55
261.564	11395.07
261.634	11382.92
261.703	11339.64
261.773	11329.14
261.843	11321.48
261.913	11309.38
261.983	11286.78
262.053	11279.45
262.123	11253.91
262.192	11226.97
262.262	11219.31
262.332	11192.75
262.402	11185.81
262.472	11172.56
262.541	11138.01
262.611	11124.75
262.681	11099.5
262.751	11090.97
262.821	11074.15
262.89	11047.79
262.96	11034.73
263.03	11030.06
263.1	11013.09
263.169	10999.6
263.239	10985.19
263.309	10983.7
263.379	10968.81
263.448	10952.67
263.518	10931.17
263.588	10918.69
263.657	10915.75
263.727	10898.5
263.797	10877.35
263.867	10850.79
263.936	10820.29
264.006	10819.04
264.076	10795.72
264.145	10777.94
264.215	10745.22
264.285	10728.55
264.354	10696.02
264.424	10671.84
264.494	10644.32
264.563	10616.9
264.633	10622.25
264.702	10614.59
264.772	10574.69
264.842	10553.35
264.911	10537.74
264.981	10512
265.05	10491.91
265.12	10474.23
265.19	10458.62
265.259	10455.15
265.329	10450.96
265.398	10444.45
265.468	10449.61
265.537	10435.83
265.607	10428.65
265.676	10428.26
265.746	10423.11
265.815	10427.49
265.885	10414.92
265.955	10392.23
266.024	10380.91
266.094	10345.2
266.163	10335.13
266.232	10332.2
266.302	10314.47
266.371	10305.94
266.441	10297.75
266.51	10296.35
266.58	10272.6
266.649	10253.28
266.719	10245.38
266.788	10230.54
266.858	10229.53
266.927	10195.18
266.996	10185.11
267.066	10174.32
267.135	10151.05
267.205	10142.29
267.274	10125.47
267.343	10125.09
267.413	10107.99
267.482	10100.62
267.552	10101.53
267.621	10074.65
267.69	10055.09
267.76	10044.4
267.829	10034.77
267.898	10015.74
267.968	9992.57
268.037	9990.5
268.106	9986.93
268.176	9965.74
268.245	9951.53
268.314	9930.96
268.384	9931.68
268.453	9918.67
268.522	9907.06
268.592	9904.7
268.661	9884.86
268.73	9886.26
268.799	9863.52
268.869	9876.19
268.938	9846.76
269.007	9826.38
269.076	9820.56
269.146	9817.96
269.215	9806.83
269.284	9812.71
269.353	9796.14
269.422	9777.16
269.492	9757.32
269.561	9717.44
269.63	9709.88
269.699	9697.94
269.768	9689.41
269.838	9679.35
269.907	9673.66
269.976	9650.45
270.045	9619.15
270.114	9611.06
270.183	9590.73
270.253	9585.91
270.322	9553.84
270.391	9548.69
270.46	9550.9
270.529	9540.93
270.598	9528.8
270.667	9519.5
270.736	9498.74
270.806	9493.35
270.875	9500.72
270.944	9495.47
271.013	9514.49
271.082	9508.57
271.151	9499.32
271.22	9471.44
271.289	9463.92
271.358	9448.51
271.427	9445.62
271.496	9436.33
271.565	9423.38
271.634	9417.12
271.703	9414.71
271.772	9414.81
271.841	9406.24
271.91	9385.96
271.979	9383.12
272.048	9365.93
272.117	9363.19
272.186	9341.33
272.255	9342.29
272.324	9335.79
272.393	9318.02
272.462	9300.68
272.531	9283.64
272.6	9267.75
272.669	9272.76
272.738	9250.42
272.807	9240.88
272.876	9220.76
272.945	9243.82
273.013	9250.22
273.082	9251.43
273.151	9226.97
273.22	9225.76
273.289	9214.26
273.358	9218.11
273.427	9198.95
273.496	9193.22
273.564	9195.19
273.633	9195.09
273.702	9175.98
273.771	9165.1
273.84	9163.46
273.909	9162.5
273.977	9160.81
274.046	9152.82
274.115	9152.2
274.184	9145.07
274.253	9140.98
274.322	9141.08
274.39	9112.52
274.459	9091.77
274.528	9058.36
274.597	9050.08
274.665	9036.46
274.734	9043.53
274.803	9032.17
274.872	9022.88
274.94	9011.71
275.009	9044.85
275.078	9031.85
275.147	9027.23
275.215	9024.1
275.284	9028.1
275.353	9018.61
275.421	8997.72
275.49	9010.81
275.559	8997.04
275.627	8988.81
275.696	8982.56
275.765	8988.38
275.833	8977.89
275.902	8981.06
275.971	8996.52
276.039	9014.09
276.108	9018.13
276.177	9016.5
276.245	9006.72
276.314	9008.84
276.383	9012.11
276.451	8962.37
276.52	8963.23
276.588	8971.9
276.657	8963.09
276.725	8954.66
276.794	8951.63
276.863	8957.17
276.931	8936.95
277	8941.86
277.068	8947.54
277.137	8961.55
277.205	8950.43
277.274	8969.63
277.342	8971.65
277.411	8950.09
277.48	8934.49
277.548	8923.47
277.617	8918.8
277.685	8906.53
277.754	8908.11
277.822	8899.79
277.89	8908.31
277.959	8898.49
278.027	8886.65
278.096	8885.01
278.164	8905.71
278.233	8893.15
278.301	8885.11
278.37	8881.79
278.438	8868.41
278.507	8864.8
278.575	8838.8
278.643	8836.15
278.712	8816.23
278.78	8803.57
278.849	8811.36
278.917	8821.62
278.985	8817.24
279.054	8817.43
279.122	8830.57
279.191	8825.37
279.259	8822
279.327	8801.25
279.396	8816.27
279.464	8802.99
279.532	8813.24
279.601	8812.57
279.669	8812.71
279.737	8821.52
279.806	8829.22
279.874	8836.44
279.942	8837.74
280.011	8834.71
280.079	8840.97
280.147	8857.81
280.215	8861.37
280.284	8857.77
280.352	8843.95
280.42	8850.06
280.488	8841.83
280.557	8839.76
280.625	8844.72
280.693	8842.46
280.761	8849.2
280.83	8831.43
280.898	8851.41
280.966	8827.68
281.034	8796.39
281.102	8779.59
281.171	8772.42
281.239	8782.1
281.307	8776.27
281.375	8767.03
281.443	8783.98
281.512	8783.93
281.58	8788.45
281.648	8769.39
281.716	8773.77
281.784	8774.4
281.852	8763.67
281.92	8763.47
281.989	8769.49
282.057	8752.31
282.125	8796.36
282.193	8793.61
282.261	8794.1
282.329	8783.99
282.397	8785.43
282.465	8790.97
282.533	8807.33
282.601	8800.69
282.67	8777.39
282.738	8774.07
282.806	8784.51
282.874	8772.53
282.942	8775.32
283.01	8763.19
283.078	8777.53
283.146	8765.55
283.214	8772.81
283.282	8776.47
283.35	8785.38
283.418	8771.85
283.486	8773.54
283.554	8733.09
283.622	8728.91
283.69	8735.5
283.758	8729.39
283.826	8738.87
283.894	8746.38
283.962	8763.9
284.03	8777.18
284.098	8776.08
284.165	8762.94
284.233	8755.58
284.301	8748.84
284.369	8736.56
284.437	8730.5
284.505	8721.64
284.573	8734.73
284.641	8722.75
284.709	8731.75
284.777	8710.62
284.845	8725.83
284.912	8729.49
284.98	8731.7
285.048	8725.78
285.116	8726.5
285.184	8740.56
285.252	8739.11
285.319	8721.5
285.387	8718.42
285.455	8707.4
285.523	8713.99
285.591	8716.83
285.659	8720.73
285.726	8735.21
285.794	8720.97
285.862	8724.77
285.93	8725.78
285.997	8723.18
286.065	8716.78
286.133	8702.97
286.201	8705.04
286.269	8688.62
286.336	8686.46
286.404	8680.44
286.472	8688.82
286.539	8666.82
286.607	8652.34
286.675	8652.14
286.743	8656.19
286.81	8647.23
286.878	8658.45
286.946	8650.65
287.013	8644.06
287.081	8641.17
287.149	8626.39
287.216	8641.55
287.284	8633.71
287.352	8632.51
287.419	8629.71
287.487	8645.26
287.555	8652.43
287.622	8647.96
287.69	8650.89
287.758	8655.66
287.825	8648.39
287.893	8634.87
287.96	8638.62
288.028	8646.7
288.096	8643.34
288.163	8641.03
288.231	8620.62
288.298	8618.12
288.366	8630.87
288.433	8635.49
288.501	8631.74
288.569	8631.64
288.636	8625.82
288.704	8636.65
288.771	8637.51
288.839	8626.88
288.906	8617.35
288.974	8623.6
289.041	8624.42
289.109	8617.68
289.176	8628.03
289.244	8638.43
289.311	8655.27
289.379	8662.64
289.446	8663.26
289.514	8669.47
289.581	8673.47
289.649	8681.79
289.716	8677.8
289.783	8674.96
289.851	8693.73
289.918	8691.7
289.986	8703.16
290.053	8711.92
290.121	8717.17
290.188	8723.71
290.255	8752.35
290.323	8744.46
290.39	8743.01
290.458	8751.19
290.525	8764.24
290.592	8748.31
290.66	8740.22
290.727	8734.97
290.794	8748.31
290.862	8744.98
290.929	8749.32
290.996	8754.61
291.064	8763.8
291.131	8776.51
291.198	8783.25
291.266	8780.89
291.333	8781.13
291.4	8788.79
291.468	8805.73
291.535	8796.78
291.602	8801.35
291.669	8797.21
291.737	8812.47
291.804	8807.32
291.871	8820.12
291.938	8822
292.006	8857.91
292.073	8874.95
292.14	8879.57
292.207	8881.64
292.275	8886.98
292.342	8895.74
292.409	8923.91
292.476	8949.18
292.543	8943.07
292.611	8951.4
292.678	8967.76
292.745	8993.13
292.812	9002.9
292.879	8994.96
292.946	8994.43
293.014	9007.86
293.081	9011.33
293.148	9017.73
293.215	9035.69
293.282	9031.21
293.349	9039.68
293.416	9016.77
293.484	9030
293.551	9040.64
293.618	9050.75
293.685	9079.93
293.752	9071.55
293.819	9066.16
293.886	9058.51
293.953	9065.87
294.02	9075.84
294.087	9080.56
294.154	9069.72
294.221	9078.54
294.288	9083.35
294.356	9107.23
294.423	9111.37
294.49	9106.55
294.557	9120.52
294.624	9112.28
294.691	9132.26
294.758	9138.81
294.825	9154.55
294.892	9153.35
294.959	9155.03
295.026	9167.55
295.093	9159.56
295.16	9157.92
295.226	9152.58
295.293	9166.45
295.36	9169.38
295.427	9172.99
295.494	9182.48
295.561	9199.28
295.628	9220.42
295.695	9235.35
295.762	9230.68
295.829	9238.53
295.896	9249.36
295.963	9260.24
296.03	9270.31
296.096	9271.7
296.163	9281.67
296.23	9292.46
296.297	9303.91
296.364	9301.41
296.431	9303.19
296.498	9301.27
296.564	9326.35
296.631	9335.21
296.698	9322.16
296.765	9345.51
296.832	9338.68
296.899	9328.04
296.965	9345.13
297.032	9329.19
297.099	9341.47
297.166	9359.09
297.233	9362.13
297.299	9364.87
297.366	9363.47
297.433	9363.81
297.5	9376.72
297.566	9375.32
297.633	9374.98
297.7	9371.76
297.767	9371.71
297.833	9376.57
297.9	9377.82
297.967	9361.74
298.033	9375.47
298.1	9406.58
298.167	9394.2
298.234	9404.65
298.3	9417.8
298.367	9410.48
298.434	9415.39
298.5	9406.53
298.567	9391.36
298.634	9386.3
298.7	9400.07
298.767	9394.15
298.834	9411.82
298.9	9408.02
298.967	9403.25
299.033	9410.43
299.1	9428.63
299.167	9448.28
299.233	9446.4
299.3	9453.62
299.366	9471.15
299.433	9479.72
299.5	9454.05
299.566	9464.55
299.633	9477.6
299.699	9491.57
299.766	9491.04
299.832	9493.2
299.899	9510.74
299.965	9529.71
300.032	9529.13
300.099	9534.09
300.165	9547.67
300.232	9544.01
300.298	9539.87
300.365	9550.41
300.431	9549.4
300.498	9543.38
300.564	9542.23
300.631	9552.34
300.697	9567.37
300.763	9563.8
300.83	9561.2
300.896	9577.05
300.963	9583.26
301.029	9585.57
301.096	9581.43
301.162	9590.14
301.229	9583.55
301.295	9567.85
301.361	9570.74
301.428	9570.59
301.494	9560
301.561	9560.09
301.627	9558.6
301.693	9565.39
301.76	9569.19
301.826	9564.28
301.892	9574.83
301.959	9581.72
302.025	9581.57
302.092	9572.52
302.158	9586.53
302.224	9592.46
302.291	9577.67
302.357	9570.21
302.423	9560.33
302.49	9553.06
302.556	9565.2
302.622	9564.81
302.688	9572.18
302.755	9580.85
302.821	9594.38
302.887	9599.63
302.954	9593.85
303.02	9608.35
303.086	9612.54
303.152	9614.08
303.219	9616.1
303.285	9617.45
303.351	9627.18
303.417	9627.9
303.483	9624.15
303.55	9612.45
303.616	9606.23
303.682	9611.19
303.748	9609.22
303.815	9628.53
303.881	9632.82
303.947	9619.28
304.013	9622.9
304.079	9617.5
304.145	9598.43
304.212	9597.42
304.278	9596.26
304.344	9596.5
304.41	9580.9
304.476	9571.03
304.542	9561.97
304.608	9560.82
304.674	9546.75
304.741	9535.15
304.807	9534.09
304.873	9536.11
304.939	9551.28
305.005	9533.22
305.071	9532.79
305.137	9532.98
305.203	9503.51
305.269	9505.29
305.335	9510.78
305.401	9510.25
305.467	9506.4
305.533	9516.99
305.599	9520.41
305.666	9526.53
305.732	9525.27
305.798	9536.21
305.864	9561.92
305.93	9567.22
305.996	9570.88
306.062	9572.71
306.128	9574.73
306.194	9562.6
306.259	9562.7
306.325	9552.68
306.391	9561.68
306.457	9565.29
306.523	9566.84
306.589	9592.99
306.655	9582.82
306.721	9566.88
306.787	9549.79
306.853	9567.47
306.919	9547.87
306.985	9540.55
307.051	9531.16
307.117	9522.29
307.183	9510.54
307.248	9481.02
307.314	9483.62
307.38	9481.02
307.446	9484.25
307.512	9473.22
307.578	9475.82
307.644	9473.46
307.709	9471.39
307.775	9469.46
307.841	9467.59
307.907	9461.95
307.973	9434.36
308.039	9434.93
308.104	9440.18
308.17	9446.15
308.236	9429.44
308.302	9431.75
308.368	9415.67
308.433	9416.82
308.499	9410.85
308.565	9402.67
308.631	9409.65
308.696	9389.09
308.762	9378.74
308.828	9376.04
308.894	9359.57
308.959	9339.93
309.025	9329.86
309.091	9327.17
309.156	9317.58
309.222	9317.25
309.288	9308
309.354	9293.03
309.419	9284.79
309.485	9270.3
309.551	9270.93
309.616	9251.76
309.682	9253.02
309.748	9247.96
309.813	9239.58
309.879	9233.27
309.945	9218.54
310.01	9201.5
310.076	9200.49
310.141	9194.18
310.207	9176.27
310.273	9174.92
310.338	9183.1
310.404	9166.35
310.469	9151.81
310.535	9148.58
310.601	9127.35
310.666	9131.3
310.732	9144.78
310.797	9136.88
310.863	9129.13
310.928	9120.75
310.994	9119.16
311.059	9113.24
311.125	9108.52
311.191	9117.72
311.256	9112.71
311.322	9123.02
311.387	9107.42
311.453	9360.14
311.518	9341.6
311.584	9335.05
311.649	9337.7
311.715	9325.57
311.78	9328.7
311.846	9320.47
311.911	9316.28
311.976	9317.53
312.042	9303.09
312.107	9286.19
312.173	9277.62
312.238	9273.33
312.304	9264.57
312.369	9259.28
312.434	9245.46
312.5	9235.74
312.565	9203.72
312.631	9207.57
312.696	9195.68
312.761	9199.48
312.827	8938.2
312.892	8971.32
312.958	8968.77
313.023	8967.76
313.088	8963.47
313.154	8950.81
313.219	8945.9
313.284	8937.67
313.35	8930.64
313.415	8917.26
313.48	8908.98
313.546	8911.2
313.611	8916.15
313.676	8910.14
313.741	8906.62
313.807	8917.98
313.872	8922.61
313.937	8933.05
314.003	8932.33
314.068	8932.14
314.133	8935.51
314.198	8925.4
314.264	8902.48
314.329	8895.16
314.394	8889.19
314.459	8888.13
314.525	8902.33
314.59	8892.27
314.655	8881.73
314.72	8887.46
314.785	8895.02
314.851	8892.18
314.916	8873.07
314.981	8857.91
315.046	8850.35
315.111	8836.1
315.176	8817.23
315.242	8822.91
315.307	8813.82
315.372	8796.82
315.437	8786.04
315.502	8770.16
315.567	8774.83
315.632	8758.17
315.698	8758.85
315.763	8757.55
315.828	8742.19
315.893	8738.92
315.958	8738.2
316.023	8732.61
316.088	8709.8
316.153	8688.58
316.218	8680.83
316.283	8660.76
316.348	8643.63
316.413	8639.83
316.479	8622.99
316.544	8589.79
316.609	8557.21
316.674	8521.6
316.739	8491.05
316.804	8461.31
316.869	8433.79
316.934	8401.07
316.999	8367.05
317.064	8317.3
317.129	8267.26
317.194	8233.58
317.259	8181.62
317.324	8125.82
317.389	8077.24
317.454	8040.44
317.518	8000.9
317.583	7971.84
317.648	7947.94
317.713	7916.19
317.778	7855.83
317.843	7824.91
317.908	7793.27
317.973	7750.56
318.038	7722.96
318.103	7681.76
318.168	7649.88
318.233	7615.3
318.297	7562.37
318.362	7523.91
318.427	7482.76
318.492	7459.83
318.557	7407.88
318.622	7378.55
318.687	7354.91
318.751	7318.72
318.816	7284.4
318.881	7248.74
318.946	7192.6
319.011	7145.89
319.075	7100.05
319.14	7064.02
319.205	7017.75
319.27	6978.74
319.335	6932.19
319.399	6890.91
319.464	6867.09
319.529	6810.36
319.594	6768.95
319.658	6742.68
319.723	6698.55
319.788	6669.88
319.853	6615.36
319.917	6586.18
319.982	6530.18
320.047	6492.35
320.112	6459.46
320.176	6409.43
320.241	6377.84
320.306	6348.99
320.37	6310.02
320.435	6277.42
320.5	6249.06
320.564	6213.59
320.629	6170.89
320.694	6140.32
320.758	6098.28
320.823	6049.86
320.888	6025.93
320.952	5979.87
321.017	5931.27
321.082	5893.19
321.146	5857.12
321.211	5820.43
321.275	5783.07
321.34	5737.96
321.405	5690.3
321.469	5644.31
321.534	5604.09
321.598	5550.5
321.663	5514.82
321.727	5481.88
321.792	5429.64
321.857	5384.19
321.921	5344.27
321.986	5300.91
322.05	5244.23
322.115	5207.14
322.179	5158.14
322.244	5104.06
322.308	5068.85
322.373	5022.01
322.437	4986.57
322.502	4958.01
322.566	4909.89
322.631	4871.77
322.695	4839.6
322.76	4802.02
322.824	4766.36
322.889	4722.09
322.953	4678.26
323.018	4612.88
323.082	4550.11
323.146	4502.37
323.211	4453.18
323.275	4409.07
323.34	4364.55
323.404	4331.6
323.468	4283.28
323.533	4246.51
323.597	4200.91
323.662	4151.47
323.726	4119.49
323.79	4068.86
323.855	4004.63
323.919	3957.71
323.983	3908.43
324.048	3840.8
324.112	3947.31
324.177	3815.8
324.241	3616.5
324.305	3421.78
324.37	3230.56
324.434	3046.26
324.498	3003.78
324.562	2951.35
324.627	2890.13
324.691	2835.22
324.755	2768.19
324.82	2691.61
324.884	2610.69
324.948	2534.61
325.012	2437.98
325.077	2310.66
