Data from 20250630_urea_2M_MAYP1162681_08-42-26-937.txt Node
Date: Tue Jul 01 08:42:26 BST 2025
User: adleo
Spectrometer: MAYP116268
Trigger mode: 0
Integration Time (sec): 1.000000E0
Scans to average: 1
Electric dark correction enabled: true
Nonlinearity correction enabled: true
Boxcar width: 10
XAxis mode: Wavelengths
Number of Pixels in Spectrum: 2068
>>>>>Begin Spectral Data<<<<<
179.565	1083.16
179.642	1138.81
179.718	1177.07
179.795	1213
179.871	1244.68
179.948	1260.29
180.024	1279.18
180.101	1298.96
180.177	1312.04
180.254	1332.63
180.33	1350.89
180.407	1398.83
180.483	1484.77
180.56	1564.92
180.636	1639.64
180.712	1625.91
180.789	1634.6
180.865	1647.76
180.942	1655.36
181.018	1664.33
181.095	1678.54
181.171	1683.39
181.248	1681.35
181.324	1696.55
181.4	1700.88
181.477	1709.39
181.553	1720.93
181.63	1739.13
181.706	1751.91
181.782	1757.8
181.859	1756.52
181.935	1761.08
182.011	1755.9
182.088	1772.39
182.164	1789.6
182.24	1802.33
182.317	1812.22
182.393	1812.88
182.469	1825.57
182.546	1840.69
182.622	1845.25
182.698	1840.16
182.775	1852.33
182.851	1865.88
182.927	1857.08
183.003	1854.23
183.08	1850.48
183.156	1857.89
183.232	1855.8
183.308	1849.15
183.385	1857.89
183.461	1874.19
183.537	1878.28
183.613	1889.12
183.69	1879.71
183.766	1872.24
183.842	1879.75
183.918	1884.89
183.995	1894.96
184.071	1898.25
184.147	1892.16
184.223	1883.18
184.299	1896.16
184.375	1885.37
184.452	1891.03
184.528	1944.29
184.604	1953.89
184.68	1961.83
184.756	1971.24
184.832	1972.43
184.908	1972.29
184.985	1971.38
185.061	1956.6
185.137	1963.45
185.213	1952.85
185.289	1953.8
185.365	1945.81
185.441	1943.1
185.517	1954.18
185.593	1954.09
185.669	1952.57
185.745	1963.31
185.822	1974.57
185.898	1966.44
185.974	1973.95
186.05	1965.63
186.126	1925.45
186.202	1920.31
186.278	1917.84
186.354	1909.04
186.43	1916.37
186.506	1917.84
186.582	1915.56
186.658	1922.35
186.734	1904.67
186.81	1905.95
186.886	1908
186.962	1919.31
187.038	1916.94
187.114	1908.09
187.19	1912.75
187.266	1902.2
187.341	1898.82
187.417	1894.54
187.493	1893.54
187.569	1896.35
187.645	1890.07
187.721	1883.08
187.797	1888.74
187.873	1891.69
187.949	1886.65
188.025	1880.28
188.101	1883.6
188.176	1888.12
188.252	1884.51
188.328	1891.78
188.404	1892.16
188.48	1887.31
188.556	1879.75
188.632	1878.99
188.707	1880.75
188.783	1879.23
188.859	1875.86
188.935	1867.39
189.011	1875.81
189.086	1870.25
189.162	1861.88
189.238	1860.12
189.314	1856.41
189.39	1851.37
189.465	1846.67
189.541	1862.98
189.617	1852.52
189.693	1847.72
189.768	1854.47
189.844	1878.92
189.92	1872.74
189.996	1879.63
190.071	1891.23
190.147	1890.33
190.223	1899.17
190.298	1891.14
190.374	1876.87
190.45	1887.09
190.526	1895.46
190.601	1889.14
190.677	1891.56
190.753	1919.58
190.828	1925.76
190.904	1939.54
190.98	1956.28
191.055	1962.65
191.131	1952.52
191.207	1970.11
191.282	1977.96
191.358	1966.74
191.433	1951.04
191.509	1963.16
191.585	1959.83
191.66	1963.73
191.736	1971.24
191.811	1961.92
191.887	1977.14
191.963	2000.01
192.038	2004.1
192.114	2003.77
192.189	2007.43
192.265	2001.87
192.34	1980.41
192.416	1977.32
192.491	1973.28
192.567	1973.94
192.642	1981.03
192.718	1979.32
192.793	1969.05
192.869	1964.34
192.944	1966.96
193.02	1975.71
193.095	1979.32
193.171	1987.12
193.246	1984.98
193.322	1982.51
193.397	1985.12
193.473	1971.09
193.548	1954.73
193.624	1963.48
193.699	1963.01
193.775	1979.42
193.85	1981.98
193.925	1989.21
194.001	1991.45
194.076	1984.31
194.152	1972.33
194.227	1961.44
194.302	1953.36
194.378	1956.78
194.453	1954.03
194.529	1967.53
194.604	1951.93
194.679	1944.94
194.755	1925.84
194.83	1933.68
194.905	1934.25
194.981	1944
195.056	1940.3
195.131	1943.53
195.207	1938.06
195.282	1929.36
195.357	1911.24
195.433	1925.88
195.508	1915.23
195.583	1918.46
195.659	1932.97
195.734	1939.86
195.809	1939.43
195.884	1949.56
195.96	1948.13
196.035	1966.06
196.11	1960.73
196.185	1973.33
196.261	1975.28
196.336	2004.24
196.411	1994.72
196.486	1998.57
196.561	1989.54
196.637	1995.1
196.712	2011.37
196.787	2016.08
196.862	2030.34
196.937	2038.04
197.013	2043.18
197.088	2054.45
197.163	2076.05
197.238	2092.47
197.313	2094.18
197.388	2108.78
197.464	2135.76
197.539	2146.61
197.614	2137.43
197.689	2148.61
197.764	2162.69
197.839	2182.91
197.914	2178.77
197.989	2196.66
198.065	2210.02
198.14	2255.2
198.215	2282.84
198.29	2294.41
198.365	2304.55
198.44	2314.73
198.515	2343.29
198.59	2356.28
198.665	2379.89
198.74	2387.46
198.815	2384.84
198.89	2404.07
198.965	2431.97
199.04	2427.83
199.115	2442.06
199.19	2482.14
199.265	2485.62
199.34	2494.76
199.415	2526.63
199.49	2546.05
199.565	2555.34
199.64	2576.72
199.715	2576.29
199.79	2579.1
199.865	2586.86
199.94	2587.24
200.015	2617.11
200.09	2618.2
200.165	2623.49
200.24	2627.3
200.315	2665.44
200.39	2679.78
200.464	2685.44
200.539	2685.11
200.614	2702.35
200.689	2722.65
200.764	2728.46
200.839	2747.41
200.914	2752.37
200.989	2742.55
201.063	2755.32
201.138	2741.46
201.213	2743.85
201.288	2726.74
201.363	2734.27
201.438	2731.51
201.512	2747.13
201.587	2729.31
201.662	2734.55
201.737	2746.89
201.812	2754.84
201.886	2721.85
201.961	2730.14
202.036	2722.14
202.111	2718.81
202.186	2689.29
202.26	2677.47
202.335	2657.32
202.41	2649.22
202.485	2631.74
202.559	2615.69
202.634	2591.73
202.709	2602.11
202.784	2584.3
202.858	2581.87
202.933	2563.63
203.008	2558.1
203.082	2537.34
203.157	2536.11
203.232	2498.36
203.306	2478.83
203.381	2448.11
203.456	2428.21
203.53	2407.82
203.605	2389.83
203.68	2367.16
203.754	2361.65
203.829	2344.98
203.904	2328.56
203.978	2317.61
204.053	2323.9
204.127	2305.57
204.202	2303.19
204.277	2285.01
204.351	2277.64
204.426	2270.73
204.5	2262.93
204.575	2233.29
204.65	2245.95
204.724	2239
204.799	2243.14
204.873	2237.71
204.948	2235.76
205.022	2222.87
205.097	2217.54
205.171	2229.39
205.246	2239.48
205.32	2237.57
205.395	2239.53
205.469	2230.49
205.544	2236.11
205.618	2219.69
205.693	2233.92
205.767	2221.64
205.842	2240.73
205.916	2233.64
205.991	2226.64
206.065	2233.73
206.14	2243.24
206.214	2237.48
206.289	2233.2
206.363	2247.76
206.438	2252.14
206.512	2261.42
206.586	2281.49
206.661	2289.11
206.735	2268.8
206.81	2268.13
206.884	2283.07
206.958	2270.27
207.033	2286.97
207.107	2291.78
207.181	2319.01
207.256	2313.25
207.33	2332.43
207.405	2341.28
207.479	2361.32
207.553	2366.27
207.628	2350.29
207.702	2363.42
207.776	2358.13
207.851	2358.33
207.925	2371.47
207.999	2366.57
208.073	2367.47
208.148	2367.99
208.222	2356.66
208.296	2383.64
208.371	2398.31
208.445	2410.54
208.519	2435.2
208.593	2442.82
208.668	2439.91
208.742	2446.34
208.816	2448.25
208.89	2461.63
208.965	2464.35
209.039	2467.87
209.113	2485.06
209.187	2506.37
209.261	2503.04
209.336	2518.75
209.41	2540.56
209.484	2540.42
209.558	2560.14
209.632	2570.85
209.707	2580.28
209.781	2600.52
209.855	2618.38
209.929	2635.16
210.003	2638.16
210.077	2639.16
210.151	2685.69
210.226	2718.05
210.3	2739.7
210.374	2759.99
210.448	2765.08
210.522	2775.81
210.596	2787.53
210.67	2797.01
210.744	2840.86
210.818	2872.11
210.892	2895.42
210.966	2888.84
211.041	2906.24
211.115	2908.81
211.189	2931.26
211.263	2949.65
211.337	2956.42
211.411	2971.11
211.485	2968.72
211.559	2979.92
211.633	2983.4
211.707	2953.92
211.781	2964.8
211.855	2935.86
211.929	2929.19
212.003	2914.57
212.077	2921.48
212.151	2933.59
212.225	2946.13
212.299	2937.35
212.373	2930.06
212.447	2928.15
212.52	2960.86
212.594	2967.44
212.668	2983.45
212.742	2977.16
212.816	2980.31
212.89	2984.07
212.964	2989.89
213.038	2997.19
213.112	3018.65
213.186	3043.11
213.26	3036.67
213.333	3004.96
213.407	3021.41
213.481	3039.42
213.555	3063.77
213.629	3069.73
213.703	3071.97
213.777	3088.58
213.85	3091.87
213.924	3140.77
213.998	3164.59
214.072	3181.48
214.146	3192.31
214.219	3211.97
214.293	3233.72
214.367	3260.11
214.441	3295.38
214.515	3314.19
214.588	3326.55
214.662	3327.12
214.736	3338.52
214.81	3379.92
214.883	3422.37
214.957	3447.09
215.031	3475.38
215.105	3493.17
215.178	3522.06
215.252	3562.64
215.326	3578.93
215.4	3602.6
215.473	3602.56
215.547	3626.39
215.621	3657.27
215.694	3711.55
215.768	3739.31
215.842	3775.33
215.915	3814.85
215.989	3841.52
216.063	3884.12
216.136	3937.55
216.21	3993.84
216.284	4063.64
216.357	4120.11
216.431	4173.13
216.504	4238.2
216.578	4325.32
216.652	4393.87
216.725	4457.27
216.799	4523.27
216.873	4592.5
216.946	4662.2
217.02	4723.48
217.093	4788.59
217.167	4835.36
217.24	4881.05
217.314	4946.82
217.387	5010.3
217.461	5074.3
217.535	5156.02
217.608	5216.01
217.682	5285.3
217.755	5367.63
217.829	5430.1
217.902	5501.47
217.976	5576.63
218.049	5651.2
218.123	5700.36
218.196	5781.93
218.27	5845.62
218.343	5910.4
218.417	5989.23
218.49	6068.63
218.563	6165.7
218.637	6247.58
218.71	6346.51
218.784	6438.82
218.857	6533.3
218.931	6617.45
219.004	6697.55
219.077	6784.06
219.151	6865.32
219.224	6943.57
219.298	7025.11
219.371	7117.95
219.444	7189.92
219.518	7268.87
219.591	7350.24
219.665	7464.23
219.738	7553.5
219.811	7632.47
219.885	7720.41
219.958	7802.59
220.031	7879.13
220.105	7964.99
220.178	8044.88
220.251	8116.99
220.325	8202.63
220.398	8280.76
220.471	8362.3
220.544	8451.31
220.618	8522.2
220.691	8613.53
220.764	8697.6
220.838	8779.96
220.911	8849.37
220.984	8951.07
221.057	9037.38
221.131	9118.64
221.204	9168.04
221.277	9258.57
221.35	9372.06
221.424	9453.73
221.497	9536.08
221.57	9620.15
221.643	9701.79
221.716	9786.75
221.79	9863.57
221.863	9935.58
221.936	10011.92
222.009	10095.15
222.082	10173.34
222.155	10238.7
222.229	10326.97
222.302	10401.2
222.375	10475.64
222.448	10551.72
222.521	10620.23
222.594	10688.65
222.667	10749.65
222.74	10831.56
222.814	10895.12
222.887	10950.45
222.96	11021.53
223.033	11097.96
223.106	11169.57
223.179	11234.92
223.252	11305.62
223.325	11378.39
223.398	11452.23
223.471	11520.96
223.544	11584.04
223.617	11653.3
223.69	11738.95
223.763	11786.67
223.837	11863.74
223.91	11929.34
223.983	11982.94
224.056	12034.17
224.129	12104.79
224.202	12173.57
224.275	12226.25
224.348	12271.51
224.42	12323.28
224.493	12371.97
224.566	12429.43
224.639	12496.24
224.712	12555.1
224.785	12612.08
224.858	12666.55
224.931	12713.21
225.004	12760.4
225.077	12826.54
225.15	12858.07
225.223	12916.64
225.296	12996.13
225.369	13030.4
225.442	13077.31
225.514	13142.77
225.587	13208.91
225.66	13270.76
225.733	13339.26
225.806	13403.76
225.879	13466.72
225.952	13511.12
226.025	13573.25
226.097	13638.24
226.17	13690.35
226.243	13721.73
226.316	13775.38
226.389	13835.98
226.461	13899.37
226.534	13964.21
226.607	14014.97
226.68	14091.33
226.753	14140.01
226.825	14170.29
226.898	14252.04
226.971	14310.57
227.044	14368.22
227.117	14428.09
227.189	14481.12
227.262	14540.41
227.335	14596.47
227.407	14651.23
227.48	14718.57
227.553	14774.2
227.626	14819.37
227.698	14868.92
227.771	14932.07
227.844	14973.28
227.916	15026.21
227.989	15067.42
228.062	15110.42
228.134	15178.34
228.207	15225.53
228.28	15273.73
228.352	15328.2
228.425	15366.86
228.498	15417.13
228.57	15453.43
228.643	15504.66
228.716	15546.26
228.788	15578.65
228.861	15612.78
228.934	15667.87
229.006	15710.1
229.079	15755.79
229.151	15798.64
229.224	15827.32
229.296	15876.39
229.369	15952.88
229.442	16013.27
229.514	16049.37
229.587	16107.74
229.659	16136.95
229.732	16180.08
229.804	16225.1
229.877	16286.79
229.949	16338.17
230.022	16398.75
230.094	16433.07
230.167	16476.64
230.239	16509.56
230.312	16553.56
230.384	16618.92
230.457	16659.93
230.529	16703.69
230.602	16743.94
230.674	16789.05
230.747	16854.55
230.819	16903.71
230.892	16911.27
230.964	16947.03
231.037	16991.28
231.109	17023.52
231.181	17066.8
231.254	17097.06
231.326	17123.96
231.399	17151.71
231.471	17181.88
231.544	17198.17
231.616	17259.72
231.688	17292.63
231.761	17323.14
231.833	17352.06
231.905	17363.72
231.978	17398.32
232.05	17435.24
232.122	17465.45
232.195	17485.07
232.267	17517.21
232.339	17550.46
232.412	17597.69
232.484	17622.22
232.556	17647.62
232.629	17695.67
232.701	17735.47
232.773	17766.65
232.846	17799.14
232.918	17833.54
232.99	17857.16
233.062	17890.31
233.135	17924.63
233.207	17938.17
233.279	17976.05
233.351	18002.7
233.424	18023.66
233.496	18035.42
233.568	18063.95
233.64	18079.66
233.713	18100.04
233.785	18120.43
233.857	18142.35
233.929	18132.81
234.001	18169.05
234.074	18201.63
234.146	18194.83
234.218	18204.52
234.29	18215.51
234.362	18228.86
234.434	18224.95
234.507	18235.07
234.579	18227.94
234.651	18223.7
234.723	18238.83
234.795	18254.06
234.867	18273.09
234.939	18300.37
235.012	18304.66
235.084	18314.49
235.156	18330.49
235.228	18332.46
235.3	18332.8
235.372	18330.15
235.444	18362.54
235.516	18339.02
235.588	18352.75
235.66	18371.07
235.732	18369.81
235.804	18434.24
235.876	18450.63
235.948	18474.05
236.02	18471.78
236.092	18479.88
236.164	18487.06
236.236	18488.55
236.308	18484.02
236.38	18482.24
236.452	18468.99
236.524	18484.7
236.596	18504.21
236.668	18513.18
236.74	18526
236.812	18530.09
236.884	18537.95
236.956	18531.88
237.028	18519.97
237.1	18498
237.172	18504.65
237.244	18514.38
237.316	18473.61
237.388	18458.29
237.46	18441.76
237.532	18460.65
237.604	18448.75
237.675	18457.37
237.747	18467.11
237.819	18457.95
237.891	18449.86
237.963	18439.54
238.035	18421.71
238.107	18377.96
238.178	18375.31
238.25	18353.38
238.322	18360.32
238.394	18335.6
238.466	18327.26
238.538	18327.12
238.609	18326.15
238.681	18293.86
238.753	18274.54
238.825	18271.55
238.897	18263.21
238.968	18264.03
239.04	18237.29
239.112	18257.96
239.184	18232.66
239.255	18209.68
239.327	18193.15
239.399	18184.33
239.471	18182.59
239.542	18175.27
239.614	18176.47
239.686	18133.34
239.758	18129.39
239.829	18101.29
239.901	18102.26
239.973	18081.87
240.044	18071.27
240.116	18052.62
240.188	18042.55
240.259	18015.32
240.331	17979.08
240.403	17971.56
240.474	17943.13
240.546	17922.41
240.618	17881.21
240.689	17847.95
240.761	17827.52
240.833	17830.85
240.904	17804.34
240.976	17775.18
241.048	17761.31
241.119	17752.34
241.191	17750.85
241.262	17742.66
241.334	17723.52
241.405	17701.84
241.477	17675.67
241.549	17648.54
241.62	17631.19
241.692	17605.74
241.763	17607.14
241.835	17585.21
241.906	17562.85
241.978	17527.43
242.049	17512.25
242.121	17501.94
242.192	17501.31
242.264	17465.74
242.335	17420.68
242.407	17409.21
242.478	17392.63
242.55	17362.95
242.621	17326.08
242.693	17298.27
242.764	17272.1
242.836	17237.02
242.907	17209.98
242.979	17192.39
243.05	17171.96
243.122	17149.79
243.193	17137.79
243.264	17088.1
243.336	17066.61
243.407	17044.97
243.479	17037.98
243.55	17021.54
243.622	16993.01
243.693	16964.87
243.764	16963.28
243.836	16940.77
243.907	16908.77
243.978	16877.06
244.05	16859.71
244.121	16815.46
244.192	16797.87
244.264	16760.04
244.335	16737
244.407	16692.23
244.478	16671.79
244.549	16643.64
244.62	16602.24
244.692	16563.59
244.763	16545.81
244.834	16515.64
244.906	16475.44
244.977	16446.96
245.048	16425.27
245.119	16388.4
245.191	16338.32
245.262	16287.52
245.333	16270.89
245.405	16248.96
245.476	16222.89
245.547	16196.38
245.618	16186.06
245.689	16148.13
245.761	16126.97
245.832	16099.69
245.903	16091.64
245.974	16059.78
246.045	16031.25
246.117	16024.89
246.188	15984.11
246.259	15939.62
246.33	15896.87
246.401	15862.65
246.473	15824.62
246.544	15785.1
246.615	15780.66
246.686	15751.6
246.757	15738.97
246.828	15699.01
246.899	15680.55
246.97	15642.71
247.042	15600.34
247.113	15577.45
247.184	15571.76
247.255	15527.66
247.326	15501.15
247.397	15462.01
247.468	15442.77
247.539	15410.43
247.61	15363.82
247.681	15347.58
247.752	15330.32
247.823	15303.09
247.894	15282.89
247.965	15243.7
248.037	15214.25
248.108	15157.18
248.179	15134.52
248.25	15095.91
248.321	15068.05
248.392	15020.38
248.463	15009.68
248.534	14988.95
248.605	14963.31
248.675	14933.47
248.746	14917.51
248.817	14899.97
248.888	14870.76
248.959	14823.71
249.03	14811.03
249.101	14787.41
249.172	14754.2
249.243	14709.46
249.314	14688.54
249.385	14666.08
249.456	14648.15
249.527	14621.01
249.598	14607.51
249.669	14577.38
249.739	14561.23
249.81	14549.33
249.881	14515.05
249.952	14486.76
250.023	14449.5
250.094	14408.67
250.165	14370.15
250.235	14338.14
250.306	14305.65
250.377	14280.05
250.448	14256.43
250.519	14200.32
250.59	14189.14
250.66	14156.31
250.731	14152.69
250.802	14130.23
250.873	14101.36
250.944	14077.59
251.014	14039.75
251.085	14032.37
251.156	14017.91
251.227	13991.35
251.297	13977.08
251.368	13962.57
251.439	13949.75
251.51	13946.08
251.58	13912.44
251.651	13883.17
251.722	13875.41
251.792	13831.98
251.863	13796.74
251.934	13783.34
252.005	13789.99
252.075	13758.32
252.146	13743.86
252.217	13721.59
252.287	13705.87
252.358	13682.78
252.429	13671.74
252.499	13642.05
252.57	13619.24
252.641	13602.47
252.711	13587.62
252.782	13542.35
252.852	13534.26
252.923	13508.9
252.994	13481.42
253.064	13473.76
253.135	13440.2
253.205	13402.89
253.276	13409.59
253.347	13405.06
253.417	13376.52
253.488	13344.61
253.558	13316.51
253.629	13298.86
253.699	13277.6
253.77	13261.45
253.841	13230.8
253.911	13213.1
253.982	13188.47
254.052	13167.98
254.123	13145.08
254.193	13116.4
254.264	13129.22
254.334	13095.48
254.405	13058.26
254.475	13019.36
254.546	12994.54
254.616	12993.62
254.687	12982.24
254.757	12955.25
254.827	12932.54
254.898	12916.88
254.968	12896.15
255.039	12869.68
255.109	12852.14
255.18	12826.78
255.25	12782.96
255.321	12764.5
255.391	12727.19
255.461	12741.99
255.532	12696
255.602	12677.05
255.673	12640.18
255.743	12606.58
255.813	12559.96
255.884	12552.06
255.954	12542.13
256.024	12537.89
256.095	12509.64
256.165	12466.16
256.235	12449
256.306	12423.02
256.376	12411.54
256.446	12402
256.517	12393.56
256.587	12389.13
256.657	12368.98
256.728	12355
256.798	12346.57
256.868	12320.92
256.938	12280.43
257.009	12274.02
257.079	12253.63
257.149	12257.68
257.219	12218.05
257.29	12213.09
257.36	12176.75
257.43	12171.49
257.5	12128.01
257.571	12102.08
257.641	12094.8
257.711	12057.54
257.781	12044.14
257.852	12021.1
257.922	11974.97
257.992	11954.05
258.062	11926.96
258.132	11921.37
258.202	11904.65
258.273	11882.96
258.343	11888.4
258.413	11863.92
258.483	11839.19
258.553	11810.9
258.623	11778.89
258.693	11767.9
258.764	11762.31
258.834	11755.08
258.904	11730.93
258.974	11701.97
259.044	11679.89
259.114	11666.98
259.184	11657.19
259.254	11636.51
259.324	11600.22
259.394	11595.21
259.464	11585.47
259.535	11563.64
259.605	11534.33
259.675	11507.06
259.745	11491.25
259.815	11453.7
259.885	11428.21
259.955	11435.77
260.025	11405.46
260.095	11391.29
260.165	11377.12
260.235	11373.7
260.305	11346.32
260.375	11312.93
260.445	11319
260.515	11321.26
260.585	11314.9
260.655	11299.19
260.725	11290.66
260.795	11279.48
260.865	11277.94
260.934	11248.15
261.004	11239.33
261.074	11222.75
261.144	11215.04
261.214	11204.54
261.284	11190.37
261.354	11190.8
261.424	11164
261.494	11166.03
261.564	11148.63
261.634	11135.91
261.703	11095.33
261.773	11089.16
261.843	11083.81
261.913	11066.22
261.983	11027.05
262.053	11010.18
262.123	10987.72
262.192	10954.81
262.262	10951
262.332	10921.61
262.402	10917.12
262.472	10900.31
262.541	10865.81
262.611	10861.13
262.681	10833.71
262.751	10822.58
262.821	10799.6
262.89	10771.31
262.96	10763.74
263.03	10763.02
263.1	10750.15
263.169	10746.11
263.239	10730.78
263.309	10731.31
263.379	10726.64
263.448	10716.09
263.518	10704.43
263.588	10698.31
263.657	10701.1
263.727	10693.54
263.797	10682.69
263.867	10663.9
263.936	10631.96
264.006	10629.69
264.076	10610.85
264.145	10593.65
264.215	10572.31
264.285	10570
264.354	10534.68
264.424	10508.52
264.494	10484.62
264.563	10467.9
264.633	10464.77
264.702	10451.32
264.772	10411.62
264.842	10387.29
264.911	10375.39
264.981	10345.76
265.05	10320.23
265.12	10306.69
265.19	10292.96
265.259	10282.5
265.329	10273.44
265.398	10260.77
265.468	10270.36
265.537	10251.72
265.607	10242.61
265.676	10233.51
265.746	10222.91
265.815	10224.11
265.885	10210.14
265.955	10184.18
266.024	10156.28
266.094	10118.27
266.163	10119.24
266.232	10123.19
266.302	10104.93
266.371	10101.75
266.441	10092.36
266.51	10088.02
266.58	10063.98
266.649	10044.57
266.719	10041.49
266.788	10026.7
266.858	10029.73
266.927	9994.18
266.996	9981.22
267.066	9973.52
267.135	9950.16
267.205	9933.54
267.274	9926.17
267.343	9923.85
267.413	9906.42
267.482	9906.85
267.552	9907.09
267.621	9874.24
267.69	9842.93
267.76	9833.83
267.829	9818.27
267.898	9807.77
267.968	9788.84
268.037	9789.86
268.106	9785.23
268.176	9759.27
268.245	9746.22
268.314	9722.57
268.384	9721.07
268.453	9715.15
268.522	9707.01
268.592	9707.88
268.661	9690.83
268.73	9673.58
268.799	9649.65
268.869	9660.92
268.938	9637.46
269.007	9620.17
269.076	9616.18
269.146	9623.16
269.215	9615.12
269.284	9616.66
269.353	9595.57
269.422	9581.84
269.492	9563.4
269.561	9524.05
269.63	9517.93
269.699	9500.07
269.768	9493.04
269.838	9483.16
269.907	9481.91
269.976	9456.73
270.045	9431.16
270.114	9433.61
270.183	9427.59
270.253	9426.2
270.322	9398.46
270.391	9387.77
270.46	9386.71
270.529	9378.43
270.598	9363.36
270.667	9349.15
270.736	9325.75
270.806	9324.25
270.875	9322.86
270.944	9305.67
271.013	9324.06
271.082	9312.07
271.151	9308.27
271.22	9282.27
271.289	9263.3
271.358	9243.75
271.427	9238.11
271.496	9230.46
271.565	9209.61
271.634	9197.86
271.703	9199.11
271.772	9206.38
271.841	9198.25
271.91	9182.89
271.979	9174.27
272.048	9162.23
272.117	9163.05
272.186	9147.69
272.255	9141
272.324	9133.87
272.393	9128.24
272.462	9108.11
272.531	9100.6
272.6	9094.68
272.669	9102.05
272.738	9094.58
272.807	9085.92
272.876	9067.67
272.945	9086.21
273.013	9082.26
273.082	9087.27
273.151	9068.64
273.22	9059.34
273.289	9043.32
273.358	9048.56
273.427	9040.04
273.496	9030.22
273.564	9021.84
273.633	9026.18
273.702	9012.75
273.771	9001.05
273.84	8993.2
273.909	8995.08
273.977	8994.55
274.046	8979.53
274.115	8980.88
274.184	8970.09
274.253	8969.61
274.322	8971.3
274.39	8939.57
274.459	8930.28
274.528	8902.27
274.597	8887.25
274.665	8877.72
274.734	8885.03
274.803	8870.93
274.872	8860.72
274.94	8850.33
275.009	8897.38
275.078	8880.77
275.147	8874.22
275.215	8873.12
275.284	8879.18
275.353	8862.43
275.421	8838.79
275.49	8855.98
275.559	8846.55
275.627	8839.52
275.696	8825.66
275.765	8828.5
275.833	8822.72
275.902	8818.34
275.971	8823.83
276.039	8839.18
276.108	8843.95
276.177	8842.17
276.245	8833.65
276.314	8829.31
276.383	8834.85
276.451	8776.1
276.52	8779.66
276.588	8794.15
276.657	8800.46
276.725	8787.17
276.794	8784.91
276.863	8794.39
276.931	8770.13
277	8775.38
277.068	8787.8
277.137	8805.56
277.205	8799.11
277.274	8813.98
277.342	8820.72
277.411	8802.43
277.48	8786.5
277.548	8770.91
277.617	8771.39
277.685	8763.64
277.754	8765.76
277.822	8755.17
277.89	8772.69
277.959	8759.65
278.027	8738.13
278.096	8724.03
278.164	8746.32
278.233	8746.03
278.301	8730.96
278.37	8730.29
278.438	8716.43
278.507	8711.95
278.575	8683.65
278.643	8686.39
278.712	8664.78
278.78	8650.25
278.849	8663.58
278.917	8672.96
278.985	8670.36
279.054	8671.76
279.122	8683.31
279.191	8684.13
279.259	8680.47
279.327	8652.84
279.396	8671.9
279.464	8668.53
279.532	8677.92
279.601	8676.86
279.669	8668.58
279.737	8686.2
279.806	8696.98
279.874	8706.51
279.942	8703.52
280.011	8699.48
280.079	8700.44
280.147	8721.57
280.215	8728.31
280.284	8723.88
280.352	8713.97
280.42	8723.69
280.488	8715.51
280.557	8706.94
280.625	8705.69
280.693	8705.74
280.761	8711.08
280.83	8692.55
280.898	8701.55
280.966	8680.61
281.034	8651.93
281.102	8637.97
281.171	8633.35
281.239	8634.31
281.307	8622.43
281.375	8607.8
281.443	8630.95
281.512	8627
281.58	8629.94
281.648	8613.52
281.716	8605.83
281.784	8603.08
281.852	8588.84
281.92	8588.02
281.989	8595.91
282.057	8577.72
282.125	8615.6
282.193	8613.68
282.261	8616.23
282.329	8611.71
282.397	8621.28
282.465	8624.6
282.533	8641.83
282.601	8627.63
282.67	8603.81
282.738	8597.84
282.806	8609.01
282.874	8596.88
282.942	8599.62
283.01	8597.41
283.078	8599.91
283.146	8596.64
283.214	8608.76
283.282	8615.55
283.35	8624.55
283.418	8617.96
283.486	8627.68
283.554	8594.46
283.622	8594.56
283.69	8592.25
283.758	8585.22
283.826	8576.56
283.894	8579.54
283.962	8599.9
284.03	8609.58
284.098	8615.69
284.165	8606.83
284.233	8610.88
284.301	8604.28
284.369	8598.22
284.437	8587.58
284.505	8584.99
284.573	8603.08
284.641	8589.27
284.709	8598.07
284.777	8580.51
284.845	8589.03
284.912	8591.77
284.98	8588.93
285.048	8582.29
285.116	8587.97
285.184	8601.59
285.252	8607.46
285.319	8595.33
285.387	8585.17
285.455	8575.26
285.523	8575.45
285.591	8572.71
285.659	8570.26
285.726	8579.93
285.794	8564.96
285.862	8562.94
285.93	8566.17
285.997	8556.78
286.065	8549.76
286.133	8534.6
286.201	8531.13
286.269	8514.29
286.336	8509.09
286.404	8504.09
286.472	8507.84
286.539	8484.12
286.607	8466.94
286.675	8465.73
286.743	8475.5
286.81	8466.02
286.878	8475.69
286.946	8474.35
287.013	8476.27
287.081	8474.35
287.149	8465.06
287.216	8479.16
287.284	8474.1
287.352	8476.46
287.419	8478.63
287.487	8494.07
287.555	8498.65
287.622	8497.73
287.69	8500.81
287.758	8507.98
287.825	8501.87
287.893	8496.43
287.96	8507.07
288.028	8522.03
288.096	8523.14
288.163	8524.63
288.231	8513.23
288.298	8510.24
288.366	8525.64
288.433	8523.38
288.501	8516.36
288.569	8515.2
288.636	8516.5
288.704	8526.75
288.771	8533.25
288.839	8524.83
288.906	8523
288.974	8533.97
289.041	8533.59
289.109	8534.94
289.176	8539.22
289.244	8546.48
289.311	8562.51
289.379	8568.33
289.446	8569.15
289.514	8562.46
289.581	8563.38
289.649	8568.33
289.716	8570.16
289.783	8555.67
289.851	8577.62
289.918	8574.83
289.986	8582.05
290.053	8577.38
290.121	8579.69
290.188	8577.52
290.255	8603.51
290.323	8591.96
290.39	8583.2
290.458	8589.5
290.525	8600.48
290.592	8594.37
290.66	8598.6
290.727	8588.88
290.794	8604.76
290.862	8604.04
290.929	8616.12
290.996	8615.3
291.064	8626.27
291.131	8641.29
291.198	8657.56
291.266	8654.67
291.333	8662.56
291.4	8674.31
291.468	8688.84
291.535	8681.81
291.602	8687.83
291.669	8676.95
291.737	8685.71
291.804	8684.6
291.871	8701.45
291.938	8698.56
292.006	8730.81
292.073	8746.31
292.14	8754.44
292.207	8745.54
292.275	8748.67
292.342	8758.97
292.409	8780.68
292.476	8799.4
292.543	8788.48
292.611	8784.14
292.678	8799.6
292.745	8820.49
292.812	8825.73
292.879	8825.06
292.946	8832.42
293.014	8839.02
293.081	8854.42
293.148	8866.84
293.215	8888.07
293.282	8880.89
293.349	8893.26
293.416	8873.62
293.484	8880.07
293.551	8895.09
293.618	8914.97
293.685	8939.04
293.752	8925.71
293.819	8927.44
293.886	8911.51
293.953	8922.39
294.02	8938.13
294.087	8941.45
294.154	8934.85
294.221	8953.68
294.288	8956.81
294.356	8977.75
294.423	8986.46
294.49	8975.97
294.557	8989.64
294.624	8978.47
294.691	9000.52
294.758	9003.07
294.825	9010
294.892	9002.35
294.959	9000.09
295.026	9003.99
295.093	8994.21
295.16	9006.25
295.226	9001
295.293	9027.19
295.36	9030.85
295.427	9038.98
295.494	9054.58
295.561	9064.02
295.628	9077.7
295.695	9095.36
295.762	9096.42
295.829	9105.28
295.896	9121.7
295.963	9132.58
296.03	9144.81
296.096	9147.89
296.163	9157.81
296.23	9173.12
296.297	9194.16
296.364	9186.74
296.431	9192.23
296.498	9192.95
296.564	9210.04
296.631	9214.14
296.698	9204.94
296.765	9222.18
296.832	9213.37
296.899	9198.15
296.965	9215.1
297.032	9195.31
297.099	9210.23
297.166	9210.72
297.233	9207.54
297.299	9199.98
297.366	9193.62
297.433	9199.11
297.5	9208.79
297.566	9212.88
297.633	9209.32
297.7	9205.9
297.767	9214.81
297.833	9216.98
297.9	9219
297.967	9208.36
298.033	9222.42
298.1	9248.95
298.167	9242.79
298.234	9247.94
298.3	9259.78
298.367	9256.17
298.434	9264.89
298.5	9253.52
298.567	9252.37
298.634	9252.37
298.7	9272.83
298.767	9275.48
298.834	9284.67
298.9	9275.62
298.967	9271.77
299.033	9282.51
299.1	9300.03
299.167	9311.54
299.233	9315.68
299.3	9329.17
299.366	9345.1
299.433	9361.04
299.5	9335.71
299.566	9341.11
299.633	9357.24
299.699	9367.98
299.766	9362.44
299.832	9367.01
299.899	9375.49
299.965	9382.9
300.032	9382.37
300.099	9390.27
300.165	9395.04
300.232	9392.58
300.298	9397.73
300.365	9403.66
300.431	9405.34
300.498	9397.35
300.564	9402.12
300.631	9415.84
300.697	9426.77
300.763	9423.59
300.83	9416.23
300.896	9426.67
300.963	9432.84
301.029	9439.53
301.096	9440.35
301.162	9458.65
301.229	9454.07
301.295	9445.26
301.361	9456.63
301.428	9463.13
301.494	9451.86
301.561	9457.11
301.627	9458.99
301.693	9459.13
301.76	9466.06
301.826	9460.96
301.892	9468.71
301.959	9477.96
302.025	9473.38
302.092	9468.38
302.158	9472.76
302.224	9477.77
302.291	9475.65
302.357	9470.06
302.423	9460.29
302.49	9458.79
302.556	9465.05
302.622	9467.75
302.688	9483.98
302.755	9490.29
302.821	9496.93
302.887	9501.89
302.954	9495.2
303.02	9503.77
303.086	9510.47
303.152	9507.77
303.219	9502.23
303.285	9503.34
303.351	9507.14
303.417	9503.63
303.483	9497.13
303.55	9495.2
303.616	9494.57
303.682	9493.85
303.748	9489.57
303.815	9503.49
303.881	9507.92
303.947	9492.31
304.013	9491.49
304.079	9479.79
304.145	9462.98
304.212	9456.92
304.278	9452.68
304.344	9449.93
304.41	9434.48
304.476	9421.57
304.542	9415.79
304.608	9424.22
304.674	9412.28
304.741	9402.79
304.807	9399.61
304.873	9408.23
304.939	9423.59
305.005	9406.93
305.071	9406.26
305.137	9408.33
305.203	9389.06
305.269	9384.73
305.335	9396.58
305.401	9397.44
305.467	9394.99
305.533	9406.02
305.599	9416.8
305.666	9424.46
305.732	9429.52
305.798	9439.87
305.864	9472.23
305.93	9472.18
305.996	9473.92
306.062	9468.91
306.128	9471.32
306.194	9462.89
306.259	9451.14
306.325	9438.14
306.391	9452.68
306.457	9458.6
306.523	9463.27
306.589	9487.31
306.655	9478.49
306.721	9464.62
306.787	9444.88
306.853	9457.64
306.919	9436.17
306.985	9426.63
307.051	9420.08
307.117	9410.89
307.183	9404
307.248	9371.35
307.314	9374.67
307.38	9366.73
307.446	9375.59
307.512	9364.22
307.578	9375.01
307.644	9376.26
307.709	9376.89
307.775	9370
307.841	9368.03
307.907	9370.34
307.973	9347.03
308.039	9348.42
308.104	9352.85
308.17	9357.52
308.236	9342.84
308.302	9347.03
308.368	9336.58
308.433	9335.66
308.499	9332.29
308.565	9327.62
308.631	9327.77
308.696	9311.44
308.762	9308.84
308.828	9309.04
308.894	9290.64
308.959	9266.57
309.025	9258.1
309.091	9254.39
309.156	9236.14
309.222	9231.61
309.288	9212.45
309.354	9191.02
309.419	9184.86
309.485	9168.35
309.551	9171.19
309.616	9155.54
309.682	9149.38
309.748	9146.1
309.813	9139.36
309.879	9127.18
309.945	9110.86
310.01	9105.28
310.076	9106.38
310.141	9096.08
310.207	9077.59
310.273	9075.62
310.338	9081.35
310.404	9063.1
310.469	9047.65
310.535	9044.42
310.601	9023.24
310.666	9026.17
310.732	9033.25
310.797	9022.32
310.863	9011.63
310.928	9001.91
310.994	9013.08
311.059	9012.16
311.125	9002.39
311.191	9008.56
311.256	9000.66
311.322	9010.48
311.387	8992
311.453	9221.81
311.518	9197.36
311.584	9200.49
311.649	9207.09
311.715	9190.86
311.78	9198.42
311.846	9194.28
311.911	9200.01
311.976	9199.24
312.042	9186.1
312.107	9166.79
312.173	9161.59
312.238	9163.71
312.304	9164.15
312.369	9142.1
312.434	9127.66
312.5	9127.99
312.565	9095.69
312.631	9100.65
312.696	9088.47
312.761	9091.12
312.827	8846.19
312.892	8882.72
312.958	8871.02
313.023	8871.36
313.088	8869.15
313.154	8854.66
313.219	8846.81
313.284	8838.15
313.35	8833.43
313.415	8823.8
313.48	8823.08
313.546	8821.3
313.611	8820.48
313.676	8809.6
313.741	8805.9
313.807	8822.51
313.872	8820.82
313.937	8830.83
314.003	8835.98
314.068	8832.81
314.133	8837.52
314.198	8833.82
314.264	8812.97
314.329	8806.67
314.394	8806.04
314.459	8804.5
314.525	8823.75
314.59	8823.61
314.655	8813.21
314.72	8822.02
314.785	8822.65
314.851	8815.14
314.916	8805.13
314.981	8791.46
315.046	8779.67
315.111	8773.55
315.176	8749.82
315.242	8751.8
315.307	8745.2
315.372	8727.92
315.437	8719.31
315.502	8714.88
315.567	8714.25
315.632	8702.56
315.698	8706.22
315.763	8695.14
315.828	8688.65
315.893	8682.53
315.958	8672.76
316.023	8657.75
316.088	8639.41
316.153	8618.19
316.218	8608.66
316.283	8582.44
316.348	8562.37
316.413	8562.18
316.479	8544.57
316.544	8510.36
316.609	8479.66
316.674	8442.13
316.739	8407.69
316.804	8379.01
316.869	8337.63
316.934	8310.35
316.999	8273.26
317.064	8217.74
317.129	8175.73
317.194	8139.46
317.259	8084.37
317.324	8033.44
317.389	7994.43
317.454	7954.98
317.518	7922.85
317.583	7898.56
317.648	7877.5
317.713	7841
317.778	7782.66
317.843	7748.08
317.908	7714.24
317.973	7669.32
318.038	7640.33
318.103	7603.79
318.168	7569.75
318.233	7536.96
318.297	7486.87
318.362	7451.73
318.427	7415.63
318.492	7388.08
318.557	7338.44
318.622	7311.85
318.687	7288.88
318.751	7247.84
318.816	7209.97
318.881	7174.17
318.946	7124.81
319.011	7082.91
319.075	7046.92
319.14	7008.06
319.205	6969.43
319.27	6933.45
319.335	6894.83
319.399	6858.89
319.464	6830.22
319.529	6779.02
319.594	6738.19
319.658	6707.74
319.723	6665.86
319.788	6631.58
319.853	6571.6
319.917	6539.53
319.982	6489.69
320.047	6447.29
320.112	6415.42
320.176	6371.2
320.241	6338.03
320.306	6304.18
320.37	6260.79
320.435	6227.48
320.5	6201.9
320.564	6159.09
320.629	6122.63
320.694	6089.81
320.758	6045.61
320.823	5998.36
320.888	5972.26
320.952	5925.5
321.017	5879.78
321.082	5842.66
321.146	5813.06
321.211	5778.82
321.275	5745.16
321.34	5697.26
321.405	5652.48
321.469	5610.24
321.534	5561.93
321.598	5511.06
321.663	5475.77
321.727	5441.07
321.792	5391.56
321.857	5343.91
321.921	5306.39
321.986	5260.68
322.05	5201.9
322.115	5165.92
322.179	5126.54
322.244	5068.25
322.308	5039.9
322.373	4995.93
322.437	4952.26
322.502	4924.08
322.566	4882.28
322.631	4838.42
322.695	4800.7
322.76	4759.21
322.824	4725.02
322.889	4687.13
322.953	4640.52
323.018	4580.27
323.082	4518.75
323.146	4468.9
323.211	4415.38
323.275	4371.22
323.34	4330.14
323.404	4296.19
323.468	4248.26
323.533	4206.52
323.597	4162.89
323.662	4110.43
323.726	4077.3
323.79	4031.51
323.855	3964.03
323.919	3918.63
323.983	3876.72
324.048	3807.82
324.112	3927.85
324.177	3796.77
324.241	3597.9
324.305	3405.33
324.37	3213.34
324.434	3030.62
324.498	2988.32
324.562	2943
324.627	2883.11
324.691	2826.04
324.755	2762.64
324.82	2688.52
324.884	2608.97
324.948	2539.47
325.012	2443.85
325.077	2317.53
