Data from 20250630_urea_2M_MAYP1162681_01-42-26-960.txt Node
Date: Tue Jul 01 01:42:26 BST 2025
User: adleo
Spectrometer: MAYP116268
Trigger mode: 0
Integration Time (sec): 1.000000E0
Scans to average: 1
Electric dark correction enabled: true
Nonlinearity correction enabled: true
Boxcar width: 10
XAxis mode: Wavelengths
Number of Pixels in Spectrum: 2068
>>>>>Begin Spectral Data<<<<<
179.565	1074.55
179.642	1125.18
179.718	1163.11
179.795	1197.75
179.871	1230.51
179.948	1246.08
180.024	1262.93
180.101	1283.22
180.177	1296.86
180.254	1318.17
180.33	1337.4
180.407	1380.45
180.483	1466.67
180.56	1548.25
180.636	1624.39
180.712	1613.32
180.789	1621.96
180.865	1633.17
180.942	1640.11
181.018	1648.89
181.095	1659.25
181.171	1665.29
181.248	1666.09
181.324	1681.25
181.4	1685.86
181.477	1692.18
181.553	1701.59
181.63	1721.97
181.706	1736.75
181.782	1742.07
181.859	1741.17
181.935	1748.53
182.011	1745.21
182.088	1759.18
182.164	1774.01
182.24	1787.98
182.317	1794.73
182.393	1792.88
182.469	1806.47
182.546	1820.2
182.622	1825.62
182.698	1824.05
182.775	1835.7
182.851	1848.1
182.927	1842.92
183.003	1841.45
183.08	1836.7
183.156	1848.81
183.232	1844.3
183.308	1833.13
183.385	1843.68
183.461	1858.37
183.537	1858.51
183.613	1871.82
183.69	1865.59
183.766	1856.7
183.842	1860.07
183.918	1865.11
183.995	1878.23
184.071	1879.7
184.147	1873.76
184.223	1863.83
184.299	1873.39
184.375	1862.31
184.452	1866.78
184.528	1915.24
184.604	1924.84
184.68	1938.76
184.756	1943.66
184.832	1950.27
184.908	1956.97
184.985	1955.69
185.061	1940.62
185.137	1948.61
185.213	1936.91
185.289	1938.34
185.365	1934.39
185.441	1932.73
185.517	1943.52
185.593	1940.15
185.669	1938.48
185.745	1948.47
185.822	1961.2
185.898	1952.65
185.974	1961.44
186.05	1955.5
186.126	1921.02
186.202	1915.13
186.278	1908.61
186.354	1900.77
186.43	1905.1
186.506	1900.63
186.582	1899.77
186.658	1908.9
186.734	1891.22
186.81	1894.69
186.886	1896.68
186.962	1903.72
187.038	1901.39
187.114	1897.63
187.19	1904.38
187.266	1895.87
187.341	1895.4
187.417	1892.07
187.493	1892.36
187.569	1896.16
187.645	1888.93
187.721	1876.9
187.797	1881.9
187.873	1886.46
187.949	1880.28
188.025	1875.62
188.101	1877
188.176	1881.23
188.252	1873.72
188.328	1878.8
188.404	1879.66
188.48	1873.81
188.556	1869.06
188.632	1868.96
188.707	1868.3
188.783	1865.92
188.859	1861.55
188.935	1852.28
189.011	1857.56
189.086	1853.52
189.162	1847.1
189.238	1847.38
189.314	1843.82
189.39	1837.54
189.465	1829.61
189.541	1844.34
189.617	1831.27
189.693	1827.42
189.768	1829.09
189.844	1852.29
189.92	1844.64
189.996	1852.39
190.071	1863.51
190.147	1862.23
190.223	1870.45
190.298	1862.51
190.374	1849.92
190.45	1860.8
190.526	1867.46
190.601	1863.23
190.677	1864.79
190.753	1887.15
190.828	1889.1
190.904	1903.79
190.98	1920.05
191.055	1933.89
191.131	1926.18
191.207	1946.39
191.282	1959.74
191.358	1949.67
191.433	1937.11
191.509	1951.99
191.585	1946.99
191.66	1948.18
191.736	1956.5
191.811	1950.23
191.887	1968.25
191.963	1992.07
192.038	1996.87
192.114	1998.82
192.189	2002.72
192.265	2000.68
192.34	1981.13
192.416	1981.79
192.491	1974.18
192.567	1976.89
192.642	1974.75
192.718	1976.56
192.793	1961.96
192.869	1956.64
192.944	1962.01
193.02	1968.33
193.095	1970.23
193.171	1976.23
193.246	1975.75
193.322	1974.61
193.397	1974.61
193.473	1960.29
193.548	1941.51
193.624	1947.17
193.699	1944.31
193.775	1958.35
193.85	1958.63
193.925	1966.33
194.001	1965.95
194.076	1962.25
194.152	1951.26
194.227	1945.32
194.302	1933.24
194.378	1938.33
194.453	1934.01
194.529	1946.75
194.604	1933.58
194.679	1927.78
194.755	1910.24
194.83	1919.85
194.905	1916.09
194.981	1923.51
195.056	1915.76
195.131	1923.04
195.207	1921.56
195.282	1913.34
195.357	1896.31
195.433	1912.57
195.508	1899.26
195.583	1903.49
195.659	1918.28
195.734	1927.03
195.809	1926.94
195.884	1939.44
195.96	1937.3
196.035	1952.84
196.11	1947.37
196.185	1961.92
196.261	1966.34
196.336	1992.78
196.411	1980.22
196.486	1987.26
196.561	1980.93
196.637	1991.11
196.712	2004.38
196.787	2006.04
196.862	2018.97
196.937	2027.82
197.013	2030.29
197.088	2042.08
197.163	2063.96
197.238	2075.86
197.313	2073.34
197.388	2086.23
197.464	2113.78
197.539	2123.62
197.614	2119.01
197.689	2128.57
197.764	2138.56
197.839	2155.59
197.914	2150.69
197.989	2173.39
198.065	2184.14
198.14	2228.69
198.215	2251.44
198.29	2263
198.365	2275.47
198.44	2284.41
198.515	2310.64
198.59	2323.82
198.665	2345.09
198.74	2354.09
198.815	2356.76
198.89	2378.17
198.965	2406.03
199.04	2401.93
199.115	2417.26
199.19	2454.58
199.265	2458.72
199.34	2467.91
199.415	2498.15
199.49	2520.76
199.565	2529.14
199.64	2551.33
199.715	2546.04
199.79	2549.61
199.865	2553.28
199.94	2552.9
200.015	2585.48
200.09	2589.81
200.165	2597.43
200.24	2607.43
200.315	2643.66
200.39	2658.38
200.464	2664.96
200.539	2664.91
200.614	2678.48
200.689	2698.15
200.764	2703.54
200.839	2720.2
200.914	2727.25
200.989	2719.58
201.063	2731.73
201.138	2714.07
201.213	2712.69
201.288	2696.11
201.363	2704.21
201.438	2705.4
201.512	2718.92
201.587	2701.34
201.662	2705.87
201.737	2716.06
201.812	2722.12
201.886	2690.6
201.961	2700.04
202.036	2686.37
202.111	2682.89
202.186	2656.42
202.26	2642.84
202.335	2623.12
202.41	2617.02
202.485	2602.41
202.559	2582.31
202.634	2559.54
202.709	2566.25
202.784	2550.58
202.858	2552.44
202.933	2534.2
203.008	2532.15
203.082	2514.87
203.157	2515.06
203.232	2474.98
203.306	2457.83
203.381	2428.64
203.456	2405.22
203.53	2381.92
203.605	2366.89
203.68	2346.93
203.754	2340.7
203.829	2328.8
203.904	2310.86
203.978	2300.05
204.053	2303.24
204.127	2291.54
204.202	2287.4
204.277	2274.83
204.351	2268.17
204.426	2261.56
204.5	2255.04
204.575	2221.45
204.65	2232.16
204.724	2223.4
204.799	2231.39
204.873	2225.72
204.948	2224.01
205.022	2212.97
205.097	2205.21
205.171	2215.97
205.246	2221.39
205.32	2219.54
205.395	2217.02
205.469	2206.84
205.544	2213.22
205.618	2198.23
205.693	2209.17
205.767	2198.99
205.842	2217.93
205.916	2214.27
205.991	2206.61
206.065	2212.27
206.14	2224.4
206.214	2219.78
206.289	2214.45
206.363	2226.01
206.438	2230.48
206.512	2241
206.586	2259.46
206.661	2270.55
206.735	2250.96
206.81	2255.24
206.884	2270.94
206.958	2262.57
207.033	2279.17
207.107	2284.21
207.181	2313.11
207.256	2310.97
207.33	2326.72
207.405	2339.77
207.479	2354.81
207.553	2361.85
207.628	2346.15
207.702	2358.43
207.776	2349.53
207.851	2353.29
207.925	2365
207.999	2361.53
208.073	2355.86
208.148	2360.38
208.222	2347.63
208.296	2373.98
208.371	2385.51
208.445	2396.79
208.519	2421.21
208.593	2432.01
208.668	2429.06
208.742	2429.73
208.816	2429.77
208.89	2443.2
208.965	2437.39
209.039	2445.3
209.113	2462.2
209.187	2483.42
209.261	2480.32
209.336	2498.89
209.41	2515.08
209.484	2518.27
209.558	2534.46
209.632	2546.7
209.707	2556.08
209.781	2575.84
209.855	2593.18
209.929	2609.77
210.003	2615.01
210.077	2615.82
210.151	2659.29
210.226	2690.6
210.3	2716.01
210.374	2737.01
210.448	2741.49
210.522	2757.69
210.596	2768.37
210.67	2775.18
210.744	2819.08
210.818	2850.42
210.892	2871.63
210.966	2869.49
211.041	2885.07
211.115	2888.69
211.189	2914.85
211.263	2934.54
211.337	2940.54
211.411	2960.33
211.485	2958.66
211.559	2972.76
211.633	2978.48
211.707	2955.83
211.781	2966.99
211.855	2939.81
211.929	2936.43
212.003	2926.76
212.077	2935.11
212.151	2953.13
212.225	2969.63
212.299	2970.58
212.373	2969.34
212.447	2974.87
212.52	3013.4
212.594	3031.19
212.668	3053.75
212.742	3052.51
212.816	3062.57
212.89	3073.96
212.964	3089.28
213.038	3114.48
213.112	3145.82
213.186	3182.26
213.26	3186.12
213.333	3171.05
213.407	3204.52
213.481	3238.04
213.555	3282.2
213.629	3307.59
213.703	3327.78
213.777	3363.87
213.85	3379.72
213.924	3454.7
213.998	3502.22
214.072	3540.54
214.146	3574.64
214.219	3620.44
214.293	3674.07
214.367	3730.35
214.441	3797.42
214.515	3846.69
214.588	3884.97
214.662	3919.1
214.736	3965.12
214.81	4042.7
214.883	4120.33
214.957	4183.38
215.031	4248.91
215.105	4306.08
215.178	4370.17
215.252	4445.57
215.326	4510.02
215.4	4581.58
215.473	4625.16
215.547	4696.17
215.621	4778.08
215.694	4875.22
215.768	4954.05
215.842	5039.46
215.915	5129.45
215.989	5210.2
216.063	5303.63
216.136	5407.3
216.21	5511.74
216.284	5627.67
216.357	5737.63
216.431	5847.56
216.504	5962.2
216.578	6103.43
216.652	6221.76
216.725	6344.49
216.799	6472.73
216.873	6593.33
216.946	6724.21
217.02	6841.76
217.093	6958.25
217.167	7062.12
217.24	7169.92
217.314	7288.69
217.387	7408.16
217.461	7523.34
217.535	7664.3
217.608	7775.66
217.682	7901.17
217.755	8031.64
217.829	8150.12
217.902	8278.81
217.976	8402.93
218.049	8522.83
218.123	8629.93
218.196	8771.51
218.27	8887.46
218.343	8999.82
218.417	9126.72
218.49	9247.04
218.563	9386.23
218.637	9519.48
218.71	9669.35
218.784	9801.02
218.857	9941.22
218.931	10064.61
219.004	10192.55
219.077	10320.42
219.151	10452.51
219.224	10570.64
219.298	10695.57
219.371	10832.66
219.444	10942.13
219.518	11066.79
219.591	11194.05
219.665	11342.4
219.738	11454.73
219.811	11565.43
219.885	11693.15
219.958	11819.09
220.031	11933.22
220.105	12046.39
220.178	12154.89
220.251	12250.52
220.325	12365.82
220.398	12475.34
220.471	12588.91
220.544	12706.38
220.618	12801.87
220.691	12904.21
220.764	13010.26
220.838	13123.45
220.911	13222.22
220.984	13349.29
221.057	13456.16
221.131	13559.52
221.204	13625.41
221.277	13740.82
221.35	13867.84
221.424	13956.63
221.497	14051.46
221.57	14154.37
221.643	14256.96
221.716	14359.68
221.79	14446.31
221.863	14543.15
221.936	14628.52
222.009	14718.66
222.082	14804.37
222.155	14886.12
222.229	14991.3
222.302	15086.79
222.375	15164.59
222.448	15246.15
222.521	15320.58
222.594	15396.78
222.667	15458.48
222.74	15547.08
222.814	15621.83
222.887	15694.95
222.96	15786.73
223.033	15875.41
223.106	15953.11
223.179	16033.17
223.252	16102.62
223.325	16184.22
223.398	16257.05
223.471	16328.62
223.544	16397.16
223.617	16463.34
223.69	16537.46
223.763	16592.45
223.837	16648.7
223.91	16722.44
223.983	16771.17
224.056	16814.4
224.129	16882.26
224.202	16954.12
224.275	17008.34
224.348	17052.77
224.42	17093.74
224.493	17129.16
224.566	17163.86
224.639	17214.41
224.712	17258.46
224.785	17307.09
224.858	17350.95
224.931	17384.97
225.004	17425.11
225.077	17470.37
225.15	17494.37
225.223	17537.36
225.296	17611.33
225.369	17657.84
225.442	17683.18
225.514	17727.91
225.587	17778.6
225.66	17831.95
225.733	17884.43
225.806	17934.41
225.879	17974.31
225.952	18005.15
226.025	18056.19
226.097	18113.53
226.17	18154.4
226.243	18171.55
226.316	18219.26
226.389	18261.86
226.461	18309.33
226.534	18360.41
226.607	18400.8
226.68	18468.94
226.753	18501.9
226.825	18506.72
226.898	18562.28
226.971	18606.81
227.044	18665.51
227.117	18711.43
227.189	18745.36
227.262	18793.93
227.335	18831.71
227.407	18865.4
227.48	18920.14
227.553	18957.3
227.626	18981.2
227.698	19011.7
227.771	19054.54
227.844	19076.9
227.916	19112.71
227.989	19131.69
228.062	19152.95
228.134	19210.97
228.207	19228.7
228.28	19260.02
228.352	19291.93
228.425	19312.65
228.498	19347.01
228.57	19352.11
228.643	19388.59
228.716	19403.73
228.788	19411.77
228.861	19430.23
228.934	19472.97
229.006	19498.37
229.079	19515.77
229.151	19544.87
229.224	19564.15
229.296	19596.34
229.369	19640.24
229.442	19674.41
229.514	19700.1
229.587	19742.45
229.659	19744.82
229.732	19786.07
229.804	19823.46
229.877	19867.17
229.949	19898.4
230.022	19936.33
230.094	19963.36
230.167	19985.29
230.239	20005.14
230.312	20035.36
230.384	20074.59
230.457	20088.37
230.529	20109.48
230.602	20134.25
230.674	20149.33
230.747	20184.8
230.819	20211.55
230.892	20203.55
230.964	20229.62
231.037	20251.11
231.109	20251.88
231.181	20278.05
231.254	20270.87
231.326	20271.59
231.399	20279.11
231.471	20274.39
231.544	20262.58
231.616	20289.91
231.688	20294.49
231.761	20305.57
231.833	20309.62
231.905	20302.05
231.978	20314.97
232.05	20315.45
232.122	20330.39
232.195	20334.1
232.267	20343.06
232.339	20342.82
232.412	20373.81
232.484	20370.68
232.556	20371.88
232.629	20399.79
232.701	20407.88
232.773	20420.03
232.846	20434
232.918	20437.09
232.99	20463.01
233.062	20482.15
233.135	20487.06
233.207	20485.33
233.279	20488.85
233.351	20499.16
233.424	20496.75
233.496	20491.74
233.568	20511.69
233.64	20499.01
233.713	20499.54
233.785	20500.12
233.857	20508.27
233.929	20480.12
234.001	20493.52
234.074	20504.27
234.146	20487.55
234.218	20486.2
234.29	20488.08
234.362	20476.7
234.434	20463.26
234.507	20433.42
234.579	20415.88
234.651	20404.12
234.723	20401.23
234.795	20398.58
234.867	20377.67
234.939	20384.65
235.012	20381.14
235.084	20381.42
235.156	20379.06
235.228	20371.64
235.3	20350.1
235.372	20328.7
235.444	20331.02
235.516	20293.71
235.588	20284.41
235.66	20276.03
235.732	20251.64
235.804	20284.85
235.876	20277.67
235.948	20276.8
236.02	20263.69
236.092	20246.05
236.164	20230.49
236.236	20220.9
236.308	20201.72
236.38	20197.96
236.452	20174.25
236.524	20154.06
236.596	20153
236.668	20148.95
236.74	20125.43
236.812	20115.41
236.884	20108.03
236.956	20092.28
237.028	20067.07
237.1	20035.55
237.172	20022.49
237.244	20019.7
237.316	19963.94
237.388	19941.68
237.46	19916.66
237.532	19905.48
237.604	19881.53
237.675	19871.99
237.747	19854.06
237.819	19827.22
237.891	19806.65
237.963	19776.86
238.035	19747.23
238.107	19686.17
238.178	19671.95
238.25	19659.09
238.322	19657.11
238.394	19618.12
238.466	19592.73
238.538	19582.17
238.609	19562.85
238.681	19522.51
238.753	19485.31
238.825	19461.46
238.897	19441.75
238.968	19425.65
239.04	19402.52
239.112	19408.59
239.184	19370.96
239.255	19333.85
239.327	19313.47
239.399	19285.9
239.471	19272.36
239.542	19257.13
239.614	19243.98
239.686	19192.41
239.758	19172.61
239.829	19131.98
239.901	19119.74
239.973	19096.37
240.044	19067.55
240.116	19044.09
240.188	19022.59
240.259	19000.81
240.331	18967.46
240.403	18937.97
240.474	18897.93
240.546	18863.37
240.618	18808.68
240.689	18771.28
240.761	18756.44
240.833	18739.28
240.904	18703.09
240.976	18664.98
241.048	18637.6
241.119	18610.62
241.191	18583.87
241.262	18561.18
241.334	18527.92
241.405	18484.65
241.477	18444.36
241.549	18410.1
241.62	18381.96
241.692	18358.25
241.763	18341.48
241.835	18316.56
241.906	18288.61
241.978	18246.06
242.049	18226.3
242.121	18201.63
242.192	18196.13
242.264	18141.05
242.335	18093.78
242.407	18075.85
242.478	18044.04
242.55	18013.39
242.621	17975.23
242.693	17941.25
242.764	17905.45
242.836	17870.51
242.907	17851.66
242.979	17833.45
243.05	17806.22
243.122	17768.1
243.193	17735.38
243.264	17677.84
243.336	17638.66
243.407	17619.48
243.479	17607.04
243.55	17580.68
243.622	17553.74
243.693	17506.61
243.764	17497.02
243.836	17455.33
243.907	17412.15
243.978	17381.98
244.05	17352.05
244.121	17306.9
244.192	17292.3
244.264	17246.32
244.335	17217.21
244.407	17174.27
244.478	17144.05
244.549	17112.77
244.62	17074.22
244.692	17039.33
244.763	17013.69
244.834	16970.41
244.906	16926.55
244.977	16900.62
245.048	16877.97
245.119	16841.01
245.191	16809.44
245.262	16755.03
245.333	16742.69
245.405	16714.88
245.476	16682.39
245.547	16652.8
245.618	16633.52
245.689	16592.8
245.761	16569.95
245.832	16535.73
245.903	16504.5
245.974	16471.63
246.045	16429.89
246.117	16417.46
246.188	16363.62
246.259	16320.77
246.33	16288.38
246.401	16253.83
246.473	16205
246.544	16165.77
246.615	16147.99
246.686	16114.59
246.757	16099.31
246.828	16054.1
246.899	16040.89
246.97	15998.38
247.042	15967.87
247.113	15940.06
247.184	15926.9
247.255	15884.92
247.326	15853.35
247.397	15819.51
247.468	15785.48
247.539	15761.24
247.61	15711.35
247.681	15700.36
247.752	15689.03
247.823	15649.6
247.894	15620.54
247.965	15570.07
248.037	15535.27
248.108	15487.36
248.179	15455.26
248.25	15418
248.321	15395.05
248.392	15350.08
248.463	15342.18
248.534	15309.11
248.605	15276.82
248.675	15243.65
248.746	15226.69
248.817	15203.07
248.888	15186
248.959	15144.12
249.03	15121.08
249.101	15098.56
249.172	15061.54
249.243	15013.53
249.314	15005.97
249.385	14977.19
249.456	14961.52
249.527	14929.42
249.598	14900.88
249.669	14868.87
249.739	14859.23
249.81	14840.29
249.881	14805.82
249.952	14780.81
250.023	14748.27
250.094	14711.05
250.165	14671.91
250.235	14641.54
250.306	14617.68
250.377	14580.33
250.448	14558.2
250.519	14515.06
250.59	14500.21
250.66	14473.7
250.731	14458.56
250.802	14421.39
250.873	14399.75
250.944	14375.31
251.014	14338.48
251.085	14337.71
251.156	14319.1
251.227	14296.83
251.297	14280.34
251.368	14261.59
251.439	14240.96
251.51	14225.82
251.58	14194.68
251.651	14168.31
251.722	14146.24
251.792	14099.67
251.863	14074.75
251.934	14064.86
252.005	14062.16
252.075	14032.95
252.146	14019.12
252.217	14008.27
252.287	13999.74
252.358	13965.65
252.429	13957.32
252.499	13931.33
252.57	13902.02
252.641	13883.08
252.711	13854.39
252.782	13816.36
252.852	13808.31
252.923	13779.43
252.994	13758.8
253.064	13751.14
253.135	13713.82
253.205	13680.71
253.276	13677.28
253.347	13663.11
253.417	13631.25
253.488	13600.64
253.558	13571.86
253.629	13539.37
253.699	13517.96
253.77	13505.67
253.841	13485.08
253.911	13471.25
253.982	13450.38
254.052	13442.08
254.123	13421.21
254.193	13386.02
254.264	13393.49
254.334	13353.29
254.405	13318.43
254.475	13287
254.546	13258.42
254.616	13248.87
254.687	13233.88
254.757	13211.95
254.827	13188.71
254.898	13165.62
254.968	13142.19
255.039	13116.74
255.109	13107.19
255.18	13069.59
255.25	13020.91
255.321	13007.41
255.391	12967.2
255.461	12965.13
255.532	12917.55
255.602	12889.49
255.673	12861.92
255.743	12832.13
255.813	12791.93
255.884	12784.12
255.954	12766.43
256.024	12758.86
256.095	12738.61
256.165	12707.52
256.235	12681.78
256.306	12648.81
256.376	12641.53
256.446	12622.63
256.517	12610.48
256.587	12602.05
256.657	12586.19
256.728	12571
256.798	12545.17
256.868	12521.55
256.938	12487.95
257.009	12476.14
257.079	12463.22
257.149	12467.41
257.219	12433.96
257.29	12424.03
257.36	12380.02
257.43	12367.48
257.5	12326.8
257.571	12301.54
257.641	12284.72
257.711	12260.76
257.781	12255.07
257.852	12232.42
257.922	12202.15
257.992	12175.35
258.062	12141.07
258.132	12127.58
258.202	12108.73
258.273	12092.44
258.343	12090.51
258.413	12068.82
258.483	12044.19
258.553	12009.53
258.623	11976.46
258.693	11957.86
258.764	11953.67
258.834	11951.64
258.904	11927.97
258.974	11897.61
259.044	11880.74
259.114	11867.44
259.184	11844.35
259.254	11820.68
259.324	11790.27
259.394	11778.41
259.464	11776.05
259.535	11756.72
259.605	11730.6
259.675	11701.82
259.745	11688.33
259.815	11653
259.885	11628.99
259.955	11634.63
260.025	11611.16
260.095	11588.94
260.165	11566.72
260.235	11566.63
260.305	11538.1
260.375	11514
260.445	11526.72
260.515	11521.85
260.585	11515.2
260.655	11510.91
260.725	11496.74
260.795	11480.69
260.865	11480.16
260.934	11457.9
261.004	11453.75
261.074	11436.21
261.144	11430.86
261.214	11424.01
261.284	11411.53
261.354	11400.11
261.424	11371.72
261.494	11377.46
261.564	11362.52
261.634	11355.43
261.703	11311.38
261.773	11298.8
261.843	11285.74
261.913	11265.98
261.983	11230.13
262.053	11217.64
262.123	11187.23
262.192	11158.27
262.262	11153.07
262.332	11116.01
262.402	11097.6
262.472	11078.18
262.541	11047.63
262.611	11041.84
262.681	11004.59
262.751	10997.22
262.821	10979.58
262.89	10949.36
262.96	10931.2
263.03	10935.29
263.1	10920.79
263.169	10904.26
263.239	10899.3
263.309	10905.8
263.379	10891.83
263.448	10875.73
263.518	10861.03
263.588	10853.71
263.657	10851.93
263.727	10834.87
263.797	10824.65
263.867	10809.57
263.936	10775.5
264.006	10768.37
264.076	10750.83
264.145	10739.56
264.215	10716.57
264.285	10711.08
264.354	10682.99
264.424	10659.76
264.494	10631.38
264.563	10609.8
264.633	10613.22
264.702	10601.6
264.772	10562.67
264.842	10547.59
264.911	10542.91
264.981	10515.78
265.05	10500.08
265.12	10491.74
265.19	10487.5
265.259	10478.4
265.329	10464.86
265.398	10460.38
265.468	10472.52
265.537	10451.9
265.607	10442.84
265.676	10437.54
265.746	10427.23
265.815	10419.14
265.885	10406.03
265.955	10380.3
266.024	10359.2
266.094	10325.58
266.163	10321.87
266.232	10320.03
266.302	10298.21
266.371	10282.75
266.441	10263.76
266.51	10255.48
266.58	10238.71
266.649	10210.82
266.719	10206.77
266.788	10199.01
266.858	10199.64
266.927	10162.45
266.996	10151.13
267.066	10137.01
267.135	10108.16
267.205	10101.27
267.274	10095.53
267.343	10089.8
267.413	10080.79
267.482	10090.72
267.552	10091.06
267.621	10056.18
267.69	10021.59
267.76	10007.33
267.829	9996.45
267.898	9989.75
267.968	9969.42
268.037	9955.36
268.106	9953.67
268.176	9928.67
268.245	9913.31
268.314	9892.69
268.384	9890.18
268.453	9873.33
268.522	9866.05
268.592	9866.92
268.661	9848.9
268.73	9837.1
268.799	9819.71
268.869	9818.85
268.938	9784.46
269.007	9770.05
269.076	9761.48
269.146	9760.71
269.215	9755.32
269.284	9760.57
269.353	9737.4
269.422	9718.19
269.492	9704.75
269.561	9659.62
269.63	9656.01
269.699	9641.9
269.768	9624.13
269.838	9615.41
269.907	9613.15
269.976	9595.13
270.045	9563.98
270.114	9561.23
270.183	9546.54
270.253	9536.72
270.322	9507.3
270.391	9495.69
270.46	9496.12
270.529	9498.15
270.598	9495.83
270.667	9482.16
270.736	9457.79
270.806	9457.35
270.875	9465.06
270.944	9451.48
271.013	9479.89
271.082	9469.73
271.151	9456.73
271.22	9436.7
271.289	9424.85
271.358	9412.52
271.427	9403.71
271.496	9397.64
271.565	9370.58
271.634	9368.41
271.703	9371.16
271.772	9374.67
271.841	9365.67
271.91	9338.08
271.979	9319.97
272.048	9302.39
272.117	9301.53
272.186	9284.92
272.255	9278.9
272.324	9271.67
272.393	9265.9
272.462	9245.96
272.531	9238.64
272.6	9237.2
272.669	9243.12
272.738	9223.42
272.807	9219.48
272.876	9198
272.945	9222.56
273.013	9227.66
273.082	9229.78
273.151	9209.03
273.22	9205.52
273.289	9201.57
273.358	9209.18
273.427	9205.76
273.496	9199.5
273.564	9194.83
273.633	9195.12
273.702	9179.47
273.771	9164.88
273.84	9159.44
273.909	9158.86
273.977	9148.99
274.046	9134.79
274.115	9134.02
274.184	9128
274.253	9117.89
274.322	9123.86
274.39	9087.41
274.459	9071.38
274.528	9041.29
274.597	9034.31
274.665	9025.12
274.734	9020.4
274.803	9012.79
274.872	9000.52
274.94	8983.14
275.009	9020.22
275.078	9006.74
275.147	9005.63
275.215	9001.01
275.284	9006.31
275.353	8997.11
275.421	8979.01
275.49	8988.31
275.559	8977.33
275.627	8965.54
275.696	8949.6
275.765	8948.5
275.833	8942.24
275.902	8946.52
275.971	8958.32
276.039	8966.89
276.108	8970.93
276.177	8974.49
276.245	8959.81
276.314	8957.79
276.383	8965.44
276.451	8917.91
276.52	8924.02
276.588	8928.94
276.657	8935.87
276.725	8921.76
276.794	8914.78
276.863	8926.77
276.931	8909.34
277	8912.85
277.068	8922.48
277.137	8948.72
277.205	8943.33
277.274	8961.09
277.342	8965.76
277.411	8939.72
277.48	8926
277.548	8916.56
277.617	8913.53
277.685	8911.36
277.754	8909.92
277.822	8901.5
277.89	8913.97
277.959	8902.9
278.027	8886.87
278.096	8869.3
278.164	8890.77
278.233	8883.45
278.301	8868.14
278.37	8868.1
278.438	8861.74
278.507	8864.53
278.575	8837.14
278.643	8835.41
278.712	8812.16
278.78	8795.75
278.849	8809.85
278.917	8822.7
278.985	8815.14
279.054	8818.13
279.122	8828.77
279.191	8828.62
279.259	8826.46
279.327	8799.59
279.396	8812.78
279.464	8812.83
279.532	8821.11
279.601	8811.96
279.669	8802.91
279.737	8819.42
279.806	8824.72
279.874	8831.84
279.942	8825.88
280.011	8822.6
280.079	8827.18
280.147	8844.69
280.215	8848.45
280.284	8842.24
280.352	8825.06
280.42	8830.16
280.488	8816.68
280.557	8807.82
280.625	8808.59
280.693	8805.99
280.761	8812.3
280.83	8793.96
280.898	8796.32
280.966	8775.62
281.034	8750.59
281.102	8742.94
281.171	8729.51
281.239	8737.41
281.307	8722.68
281.375	8713.53
281.443	8738.03
281.512	8735.63
281.58	8741.36
281.648	8719.36
281.716	8722.54
281.784	8725.38
281.852	8720.66
281.92	8724.13
281.989	8726.73
282.057	8709.74
282.125	8747.24
282.193	8745.99
282.261	8748.01
282.329	8743.72
282.397	8753.3
282.465	8754.45
282.533	8766.63
282.601	8759.41
282.67	8734.24
282.738	8733.37
282.806	8742.61
282.874	8725.33
282.942	8728.6
283.01	8724.46
283.078	8742.7
283.146	8732.16
283.214	8741.31
283.282	8743.38
283.35	8748.77
283.418	8741.5
283.486	8746.27
283.554	8713.67
283.622	8706.89
283.69	8706.74
283.758	8703.57
283.826	8706.6
283.894	8716.51
283.962	8734.18
284.03	8742.07
284.098	8745.68
284.165	8740.24
284.233	8740.53
284.301	8735.19
284.369	8721.28
284.437	8708.67
284.505	8691.05
284.573	8710.35
284.641	8695.53
284.709	8697.41
284.777	8682.44
284.845	8689.56
284.912	8698.37
284.98	8695.63
285.048	8694.57
285.116	8698.56
285.184	8708.04
285.252	8708.48
285.319	8691.34
285.387	8684.56
285.455	8672.86
285.523	8678.44
285.591	8672.76
285.659	8672.43
285.726	8683.98
285.794	8670.36
285.862	8667.28
285.93	8672.72
285.997	8663.14
286.065	8658.23
286.133	8647.84
286.201	8643.89
286.269	8636.28
286.336	8629.11
286.404	8628.39
286.472	8636.86
286.539	8614.58
286.607	8603.75
286.675	8600.19
286.743	8609.72
286.81	8601.78
286.878	8612.7
286.946	8605.92
287.013	8605.68
287.081	8601.78
287.149	8585.61
287.216	8607.84
287.284	8607.74
287.352	8605.19
287.419	8603.94
287.487	8613.76
287.555	8617.8
287.622	8619.68
287.69	8623.67
287.758	8623.43
287.825	8613.04
287.893	8597.49
287.96	8604.08
288.028	8607.84
288.096	8612.17
288.163	8617.42
288.231	8605.34
288.298	8602.83
288.366	8614.53
288.433	8612.65
288.501	8608.51
288.569	8610.63
288.636	8602.69
288.704	8612.89
288.771	8623.72
288.839	8618.38
288.906	8617.51
288.974	8629.07
289.041	8623.92
289.109	8617.71
289.176	8638.21
289.244	8645.09
289.311	8658.23
289.379	8666.17
289.446	8672.91
289.514	8668.48
289.581	8661.26
289.649	8665.31
289.716	8672.86
289.783	8665.88
289.851	8686.1
289.918	8689.75
289.986	8699.28
290.053	8703.62
290.121	8701.5
290.188	8699.09
290.255	8724.94
290.323	8717.29
290.39	8711.32
290.458	8718.34
290.525	8725.47
290.592	8712.52
290.66	8714.97
290.727	8709.2
290.794	8731.77
290.862	8732.06
290.929	8739.09
290.996	8738.27
291.064	8751.65
291.131	8757.23
291.198	8763.88
291.266	8757.96
291.333	8754.49
291.4	8767.58
291.468	8783.28
291.535	8784.1
291.602	8789.97
291.669	8780.87
291.737	8784.48
291.804	8787.8
291.871	8804.45
291.938	8816.2
292.006	8839.02
292.073	8849.61
292.14	8861.69
292.207	8848.35
292.275	8846.09
292.342	8852.49
292.409	8880.85
292.476	8899.48
292.543	8901.93
292.611	8906.41
292.678	8924.7
292.745	8950.26
292.812	8951.42
292.879	8945.83
292.946	8949.83
293.014	8966.72
293.081	8980.4
293.148	8997.39
293.215	9012.02
293.282	9006.63
293.349	9009.66
293.416	8992.24
293.484	9008.85
293.551	9017.27
293.618	9032.1
293.685	9058.91
293.752	9054.68
293.819	9052.85
293.886	9043.22
293.953	9041.82
294.02	9056.02
294.087	9064.06
294.154	9056.51
294.221	9067.19
294.288	9071
294.356	9087.85
294.423	9092.37
294.49	9080.92
294.557	9090.59
294.624	9077.74
294.691	9096.51
294.758	9101.14
294.825	9108.36
294.892	9098.34
294.959	9104.99
295.026	9114.23
295.093	9104.41
295.16	9106.19
295.226	9108.4
295.293	9130.17
295.36	9133.73
295.427	9139.32
295.494	9145.91
295.561	9156.22
295.628	9182.9
295.695	9194.5
295.762	9191.9
295.829	9195.27
295.896	9206.82
295.963	9216.36
296.03	9228.01
296.096	9232.25
296.163	9242.93
296.23	9255.84
296.297	9267.97
296.364	9263.25
296.431	9268.84
296.498	9264.41
296.564	9287.66
296.631	9290.46
296.698	9277.07
296.765	9297.44
296.832	9284.44
296.899	9275.82
296.965	9290.07
297.032	9266.62
297.099	9288.82
297.166	9300.66
297.233	9303.69
297.299	9303.69
297.366	9302.3
297.433	9310.82
297.5	9319.87
297.566	9321.41
297.633	9322.47
297.7	9331.09
297.767	9332.73
297.833	9331.48
297.9	9340.48
297.967	9332.1
298.033	9344.72
298.1	9369.76
298.167	9364.22
298.234	9371.64
298.3	9377.22
298.367	9374.38
298.434	9378.23
298.5	9364.22
298.567	9358.39
298.634	9360.37
298.7	9376.55
298.767	9382.13
298.834	9394.7
298.9	9389.5
298.967	9377.37
299.033	9387.57
299.1	9399.81
299.167	9412.04
299.233	9415.17
299.3	9428.22
299.366	9436.93
299.433	9445.22
299.5	9422.24
299.566	9423.83
299.633	9441.99
299.699	9456.58
299.766	9453.02
299.832	9456.39
299.899	9469.29
299.965	9490.1
300.032	9481.96
300.099	9493.76
300.165	9500.93
300.232	9494.63
300.298	9494.72
300.365	9512.11
300.431	9512.35
300.498	9503
300.564	9508.3
300.631	9510.76
300.697	9522.51
300.763	9525.4
300.83	9526.7
300.896	9541.48
300.963	9554.82
301.029	9557.76
301.096	9557.18
301.162	9570.76
301.229	9572.06
301.295	9560.89
301.361	9554.29
301.428	9557.71
301.494	9538.35
301.561	9537.1
301.627	9537
301.693	9541.58
301.76	9548.12
301.826	9547.84
301.892	9559.97
301.959	9568.59
302.025	9573.12
302.092	9570.47
302.158	9578.32
302.224	9581.84
302.291	9573.36
302.357	9571.68
302.423	9565.7
302.49	9562.96
302.556	9571.24
302.622	9565.51
302.688	9577.84
302.755	9588.92
302.821	9600.52
302.887	9607.79
302.954	9610.06
303.02	9616.03
303.086	9624.55
303.152	9619.26
303.219	9615.21
303.285	9614.97
303.351	9615.16
303.417	9615.55
303.483	9604.33
303.55	9598.74
303.616	9596.81
303.682	9597.87
303.748	9588.68
303.815	9604.62
303.881	9615.17
303.947	9600.33
304.013	9613.09
304.079	9601.25
304.145	9583.96
304.212	9579.72
304.278	9571.82
304.344	9561.8
304.41	9553.57
304.476	9540.76
304.542	9532.52
304.608	9537.15
304.674	9523.47
304.741	9523.52
304.807	9519.71
304.873	9523.28
304.939	9528.24
305.005	9504.11
305.071	9505.46
305.137	9505.84
305.203	9476.37
305.269	9462.93
305.335	9478.83
305.401	9471.8
305.467	9470.3
305.533	9473.39
305.599	9480.66
305.666	9492.46
305.732	9495.83
305.798	9502.52
305.864	9523.66
305.93	9528.72
305.996	9525.06
306.062	9522.46
306.128	9520.24
306.194	9516.97
306.259	9514.37
306.325	9504.79
306.391	9519.52
306.457	9523.28
306.523	9523.66
306.589	9553.09
306.655	9551.11
306.721	9531.94
306.787	9519.52
306.853	9527.85
306.919	9514.32
306.985	9504.64
307.051	9496.6
307.117	9490.87
307.183	9487.64
307.248	9466.6
307.314	9475.36
307.38	9474.74
307.446	9477.58
307.512	9459.42
307.578	9456.58
307.644	9450.8
307.709	9457.98
307.775	9452.44
307.841	9446.37
307.907	9445.36
307.973	9421.04
308.039	9418.82
308.104	9420.32
308.17	9425.71
308.236	9414.59
308.302	9422.67
308.368	9412.95
308.433	9408.57
308.499	9403.65
308.565	9390.36
308.631	9386.9
308.696	9354.92
308.762	9347.41
308.828	9349.39
308.894	9336.15
308.959	9321.61
309.025	9313.32
309.091	9301.81
309.156	9295.51
309.222	9298.4
309.288	9286.84
309.354	9263.59
309.419	9262.86
309.485	9246.06
309.551	9244.57
309.616	9229.88
309.682	9219.34
309.748	9214.33
309.813	9205.13
309.879	9192.81
309.945	9180.29
310.01	9177.98
310.076	9187.99
310.141	9180.58
310.207	9159.2
310.273	9159.82
310.338	9165.36
310.404	9151.69
310.469	9147.11
310.535	9131.08
310.601	9108.5
310.666	9111.39
310.732	9125.4
310.797	9115.14
310.863	9105.27
310.928	9100.03
310.994	9103.06
311.059	9102.87
311.125	9095.07
311.191	9109.22
311.256	9101.14
311.322	9113.46
311.387	9091.03
311.453	9380.87
311.518	9352.03
311.584	9355.88
311.649	9361.61
311.715	9348.81
311.78	9348.08
311.846	9336.19
311.911	9343.7
311.976	9345
312.042	9326.61
312.107	9313.81
312.173	9301.05
312.238	9300.18
312.304	9291.81
312.369	9278.9
312.434	9266
312.5	9262.78
312.565	9226.14
312.631	9228.11
312.696	9216.7
312.761	9218.97
312.827	8918.15
312.892	8961.43
312.958	8953
313.023	8947.76
313.088	8947.37
313.154	8938.18
313.219	8930.28
313.284	8922.05
313.35	8917.57
313.415	8914.88
313.48	8906.65
313.546	8915.65
313.611	8919.84
313.676	8914.88
313.741	8910.26
313.807	8915.6
313.872	8914.73
313.937	8925.52
314.003	8937.65
314.068	8934.28
314.133	8938.18
314.198	8921.76
314.264	8893.55
314.329	8891.05
314.394	8890.08
314.459	8878.15
314.525	8899.42
314.59	8894.27
314.655	8883.15
314.72	8883.88
314.785	8879.69
314.851	8875.26
314.916	8851.43
314.981	8835.93
315.046	8818.27
315.111	8810.09
315.176	8795.07
315.242	8794.54
315.307	8786.36
315.372	8761.86
315.437	8751.99
315.502	8737.74
315.567	8751.12
315.632	8739.38
315.698	8739.28
315.763	8733.46
315.828	8730.57
315.893	8713.09
315.958	8702.8
316.023	8690.67
316.088	8673.73
316.153	8654.62
316.218	8642.25
316.283	8626.09
316.348	8612.95
316.413	8606.12
316.479	8587.11
316.544	8556.46
316.609	8526.81
316.674	8493.76
316.739	8459.98
316.804	8426.45
316.869	8396.91
316.934	8356.15
316.999	8324.54
317.064	8270.17
317.129	8222.1
317.194	8183.47
317.259	8142.72
317.324	8091.3
317.389	8051.62
317.454	8011.07
317.518	7979.32
317.583	7951.66
317.648	7921.99
317.713	7883.51
317.778	7832.09
317.843	7800.35
317.908	7763.67
317.973	7725.19
318.038	7697.78
318.103	7659.57
318.168	7627.3
318.233	7596.86
318.297	7550.32
318.362	7513.21
318.427	7475.19
318.492	7449.76
318.557	7403.14
318.622	7369.19
318.687	7353.24
318.751	7313.5
318.816	7278.65
318.881	7238.95
318.946	7184.45
319.011	7139.43
319.075	7098.34
319.14	7057.84
319.205	7011.33
319.27	6978.28
319.335	6930.58
319.399	6882.39
319.464	6854.92
319.529	6804.48
319.594	6763.46
319.658	6732.43
319.723	6684.84
319.788	6651.99
319.853	6595.23
319.917	6564.59
319.982	6511.2
320.047	6466.01
320.112	6434.42
320.176	6381.9
320.241	6348.49
320.306	6318.68
320.37	6280.18
320.435	6245.91
320.5	6219.75
320.564	6182.61
320.629	6138.8
320.694	6107.47
320.758	6069.42
320.823	6024.89
320.888	5992.04
320.952	5938.6
321.017	5891.2
321.082	5854.65
321.146	5819.45
321.211	5785.59
321.275	5742.24
321.34	5698.66
321.405	5656.22
321.469	5610.96
321.534	5572.52
321.598	5519.78
321.663	5490.19
321.727	5457.69
321.792	5410.72
321.857	5362.64
321.921	5322.62
321.986	5277.16
322.05	5221.11
322.115	5185.27
322.179	5140.48
322.244	5087.08
322.308	5054.36
322.373	5010.97
322.437	4972.66
322.502	4945.64
322.566	4900.62
322.631	4862.99
322.695	4826.28
322.76	4787.83
322.824	4753.41
322.889	4709.91
322.953	4664.65
323.018	4599.36
323.082	4534.77
323.146	4484.63
323.211	4438.51
323.275	4389.38
323.34	4343
323.404	4307.95
323.468	4261.7
323.533	4218.81
323.597	4176.61
323.662	4128.17
323.726	4092.94
323.79	4044.66
323.855	3978.43
323.919	3931.4
323.983	3885.33
324.048	3816.62
324.112	3949.02
324.177	3816.32
324.241	3617.35
324.305	3424.49
324.37	3231.74
324.434	3048.49
324.498	3005.08
324.562	2952.61
324.627	2899.45
324.691	2850.23
324.755	2787.66
324.82	2713.93
324.884	2638.56
324.948	2567.95
325.012	2474.28
325.077	2353.01
