Data from 20250630_urea_2M_MAYP1162681_04-42-27-088.txt Node
Date: Tue Jul 01 04:42:27 BST 2025
User: adleo
Spectrometer: MAYP116268
Trigger mode: 0
Integration Time (sec): 1.000000E0
Scans to average: 1
Electric dark correction enabled: true
Nonlinearity correction enabled: true
Boxcar width: 10
XAxis mode: Wavelengths
Number of Pixels in Spectrum: 2068
>>>>>Begin Spectral Data<<<<<
179.565	1044.77
179.642	1092.27
179.718	1129.7
179.795	1163.77
179.871	1194.17
179.948	1210.42
180.024	1229.51
180.101	1249.2
180.177	1259.93
180.254	1277.63
180.33	1297.86
180.407	1339.39
180.483	1424.14
180.56	1502.38
180.636	1577.87
180.712	1564.09
180.789	1570.21
180.865	1582.37
180.942	1592.06
181.018	1600.84
181.095	1617.43
181.171	1623.32
181.248	1626.12
181.324	1639.71
181.4	1647.31
181.477	1656.81
181.553	1669.16
181.63	1689.17
181.706	1704.85
181.782	1715.01
181.859	1717.48
181.935	1722.14
182.011	1719.91
182.088	1733.12
182.164	1751.75
182.24	1760.54
182.317	1769.47
182.393	1771.13
182.469	1781.87
182.546	1794.04
182.622	1800.45
182.698	1793.94
182.775	1807.25
182.851	1816.94
182.927	1809.67
183.003	1804.59
183.08	1798.08
183.156	1806.16
183.232	1801.78
183.308	1789.09
183.385	1793.56
183.461	1808.48
183.537	1809.24
183.613	1818.94
183.69	1811.48
183.766	1800.12
183.842	1808.1
183.918	1815.99
183.995	1824.59
184.071	1829.96
184.147	1824.97
184.223	1813.14
184.299	1824.27
184.375	1811.29
184.452	1819.19
184.528	1871.05
184.604	1879.89
184.68	1892.49
184.756	1899.38
184.832	1901.81
184.908	1907.65
184.985	1909.98
185.061	1896
185.137	1901
185.213	1891.78
185.289	1895.2
185.365	1890.02
185.441	1888.78
185.517	1899.29
185.593	1899.05
185.669	1893.92
185.745	1902.52
185.822	1918.34
185.898	1909.46
185.974	1918.77
186.05	1913.44
186.126	1874.31
186.202	1869.18
186.278	1864.1
186.354	1854.49
186.43	1860.24
186.506	1859.63
186.582	1857.58
186.658	1864.24
186.734	1848.41
186.81	1848.65
186.886	1850.79
186.962	1861.48
187.038	1857.2
187.114	1848.55
187.19	1855.73
187.266	1847.6
187.341	1851.88
187.417	1843.66
187.493	1844.04
187.569	1846.23
187.645	1839.14
187.721	1830.64
187.797	1837.53
187.873	1841.38
187.949	1835.91
188.025	1830.97
188.101	1832.11
188.176	1838.52
188.252	1833.3
188.328	1840.57
188.404	1841.85
188.48	1837.48
188.556	1830.16
188.632	1830.25
188.707	1830.68
188.783	1825.78
188.859	1821.17
188.935	1808.15
189.011	1818.56
189.086	1816.65
189.162	1810.48
189.238	1809.34
189.314	1808.43
189.39	1802.02
189.465	1796.45
189.541	1812
189.617	1800.12
189.693	1793.89
189.768	1795.6
189.844	1819.47
189.92	1812.77
189.996	1819.29
190.071	1827.13
190.147	1827.79
190.223	1839.44
190.298	1831.36
190.374	1819.43
190.45	1831.79
190.526	1839.2
190.601	1831.07
190.677	1830.03
190.753	1854.04
190.828	1854.66
190.904	1865.41
190.98	1878.62
191.055	1887.46
191.131	1879.33
191.207	1894.97
191.282	1906.61
191.358	1898.44
191.433	1885.07
191.509	1897.05
191.585	1896.38
191.66	1897.24
191.736	1905.7
191.811	1891.58
191.887	1907.79
191.963	1930.66
192.038	1935.56
192.114	1935.51
192.189	1942.12
192.265	1938.84
192.34	1917.86
192.416	1918.48
192.491	1915.44
192.567	1919.38
192.642	1920.81
192.718	1920.57
192.793	1909.88
192.869	1904.79
192.944	1906.31
193.02	1912.3
193.095	1915.11
193.171	1919.05
193.246	1919.62
193.322	1913.54
193.397	1916.72
193.473	1906.64
193.548	1888.15
193.624	1894.42
193.699	1895.09
193.775	1907.22
193.85	1909.73
193.925	1918.86
194.001	1918.58
194.076	1911.97
194.152	1901.65
194.227	1895.76
194.302	1886.25
194.378	1891.05
194.453	1889.39
194.529	1900.09
194.604	1887.77
194.679	1884.82
194.755	1868.05
194.83	1878.13
194.905	1877.18
194.981	1886.88
195.056	1878.13
195.131	1885.17
195.207	1882.6
195.282	1873.47
195.357	1855.41
195.433	1869.14
195.508	1858.21
195.583	1863.58
195.659	1876.85
195.734	1883.26
195.809	1884.5
195.884	1893.91
195.96	1892.96
196.035	1906.7
196.11	1902.61
196.185	1911.83
196.261	1913.87
196.336	1944.44
196.411	1931.79
196.486	1938.35
196.561	1931.98
196.637	1941.16
196.712	1955.19
196.787	1956.71
196.862	1968.21
196.937	1981.1
197.013	1985.04
197.088	1993.69
197.163	2016.1
197.238	2031.9
197.313	2031.42
197.388	2041.6
197.464	2071.81
197.539	2082.84
197.614	2074.95
197.689	2087.55
197.764	2102.63
197.839	2121.8
197.914	2115.09
197.989	2133.88
198.065	2145.77
198.14	2188.99
198.215	2211.64
198.29	2222.39
198.365	2234.86
198.44	2246.28
198.515	2270.12
198.59	2286.39
198.665	2311.14
198.74	2318.57
198.815	2318.85
198.89	2340.6
198.965	2368.83
199.04	2363.31
199.115	2378.2
199.19	2417.18
199.265	2420.79
199.34	2430.74
199.415	2458.75
199.49	2478.5
199.565	2490.21
199.64	2510.06
199.715	2510.44
199.79	2517.2
199.865	2521.58
199.94	2519.59
200.015	2549.78
200.09	2553.59
200.165	2558.4
200.24	2565.26
200.315	2599.29
200.39	2614.63
200.464	2620.24
200.539	2620.58
200.614	2634.48
200.689	2654.44
200.764	2659.3
200.839	2675.58
200.914	2679.82
200.989	2670.01
201.063	2682.06
201.138	2666.83
201.213	2668.68
201.288	2650.63
201.363	2654.2
201.438	2656.15
201.512	2670.82
201.587	2655
201.662	2657.62
201.737	2668.53
201.812	2677.54
201.886	2645.74
201.961	2653.94
202.036	2644.18
202.111	2639.7
202.186	2614.33
202.26	2598.37
202.335	2579.79
202.41	2572.36
202.485	2554.32
202.559	2538.18
202.634	2514.7
202.709	2520.94
202.784	2504.32
202.858	2502.98
202.933	2487.56
203.008	2482.7
203.082	2462.37
203.157	2461.23
203.232	2424.54
203.306	2403.2
203.381	2371.01
203.456	2352.97
203.53	2331.58
203.605	2312.98
203.68	2292.17
203.754	2285.94
203.829	2273.47
203.904	2257.68
203.978	2249.15
204.053	2255.67
204.127	2243.02
204.202	2240.21
204.277	2223.85
204.351	2214.9
204.426	2205.67
204.5	2197.86
204.575	2166.28
204.65	2180.08
204.724	2172.65
204.799	2179.07
204.873	2176.83
204.948	2175.26
205.022	2163.37
205.097	2155.62
205.171	2167.79
205.246	2176.64
205.32	2174.98
205.395	2174.6
205.469	2165.14
205.544	2165.52
205.618	2150.82
205.693	2161.76
205.767	2152.29
205.842	2171.9
205.916	2168.8
205.991	2162.19
206.065	2167.47
206.14	2180.31
206.214	2171.84
206.289	2163.27
206.363	2175.45
206.438	2177.78
206.512	2186.82
206.586	2204.33
206.661	2213.04
206.735	2193.4
206.81	2193.21
206.884	2206.53
206.958	2195.92
207.033	2212.61
207.107	2219.75
207.181	2247.26
207.256	2241.7
207.33	2258.21
207.405	2272.11
207.479	2288.15
207.553	2296.14
207.628	2280.02
207.702	2291.1
207.776	2288.25
207.851	2294.62
207.925	2306.48
207.999	2304.29
208.073	2302.67
208.148	2305.53
208.222	2290.1
208.296	2319.55
208.371	2335.03
208.445	2342.88
208.519	2367.15
208.593	2376.19
208.668	2375.53
208.742	2377.05
208.816	2379.62
208.89	2390.91
208.965	2387.95
209.039	2393.86
209.113	2408.38
209.187	2428.45
209.261	2423.45
209.336	2440.69
209.41	2457.45
209.484	2459.45
209.558	2478.25
209.632	2488.87
209.707	2498.63
209.781	2522.48
209.855	2537.01
209.929	2551.69
210.003	2559.5
210.077	2561.55
210.151	2607.35
210.226	2636.42
210.3	2663.64
210.374	2686.45
210.448	2691.35
210.522	2699.41
210.596	2712.89
210.67	2723.08
210.744	2767.4
210.818	2798.54
210.892	2817.27
210.966	2814.27
211.041	2827.66
211.115	2827.85
211.189	2848.86
211.263	2867.45
211.337	2873.88
211.411	2887.27
211.485	2884.27
211.559	2899.42
211.633	2904.23
211.707	2877.67
211.781	2889.11
211.855	2858.65
211.929	2853.99
212.003	2841.89
212.077	2856.05
212.151	2871.07
212.225	2883.55
212.299	2880.26
212.373	2874.64
212.447	2880.6
212.52	2914.73
212.594	2928.42
212.668	2949.87
212.742	2947.68
212.816	2954.83
212.89	2962.31
212.964	2973.28
213.038	2992.84
213.112	3014.06
213.186	3043.19
213.26	3044.19
213.333	3022.21
213.407	3046.85
213.481	3068.35
213.555	3102.23
213.629	3118.12
213.703	3128.14
213.777	3155.38
213.85	3166.59
213.924	3229.11
213.998	3260.47
214.072	3282.58
214.146	3305.15
214.219	3342.15
214.293	3375.36
214.367	3414.02
214.441	3465.25
214.515	3501.01
214.588	3522.26
214.662	3541.12
214.736	3569.86
214.81	3624.32
214.883	3688.14
214.957	3735.37
215.031	3786.17
215.105	3823.17
215.178	3868.81
215.252	3924.76
215.326	3962.52
215.4	4010.54
215.473	4034.88
215.547	4084.76
215.621	4144.51
215.694	4217.79
215.768	4263.33
215.842	4332.05
215.915	4392.15
215.989	4445.94
216.063	4517.02
216.136	4601.31
216.21	4683.95
216.284	4780.04
216.357	4861.05
216.431	4935.84
216.504	5024.54
216.578	5134.99
216.652	5233.54
216.725	5326.66
216.799	5426.27
216.873	5521.5
216.946	5619.32
217.02	5708.62
217.093	5799.69
217.167	5877.92
217.24	5958.52
217.314	6054.16
217.387	6140.99
217.461	6233.46
217.535	6342.07
217.608	6426.56
217.682	6521.34
217.755	6630.15
217.829	6720.83
217.902	6824.33
217.976	6928.75
218.049	7023.25
218.123	7106.54
218.196	7208.69
218.27	7303.28
218.343	7389.33
218.417	7498.84
218.49	7598.54
218.563	7716.92
218.637	7820.74
218.71	7942.37
218.784	8054.87
218.857	8167.86
218.931	8276.37
219.004	8383.84
219.077	8495.44
219.151	8605.58
219.224	8708.67
219.298	8810.13
219.371	8919.01
219.444	9009.55
219.518	9111.56
219.591	9209.95
219.665	9334.62
219.738	9442.76
219.811	9535.79
219.885	9641.01
219.958	9739.26
220.031	9838.61
220.105	9936.39
220.178	10037.69
220.251	10125.08
220.325	10230.77
220.398	10332.81
220.471	10434.02
220.544	10536.16
220.618	10622.32
220.691	10717.24
220.764	10812.21
220.838	10908.2
220.911	10992.72
220.984	11105.86
221.057	11205.13
221.131	11303.73
221.204	11375.25
221.277	11477.81
221.35	11604.23
221.424	11695.76
221.497	11781.84
221.57	11870.86
221.643	11962.49
221.716	12058.16
221.79	12148.97
221.863	12230.15
221.936	12306.64
222.009	12386.61
222.082	12471.93
222.155	12544.91
222.229	12630.09
222.302	12709.09
222.375	12787.96
222.448	12874.48
222.521	12952.77
222.594	13025.56
222.667	13093.43
222.74	13163.04
222.814	13233.76
222.887	13285.63
222.96	13367.44
223.033	13452.96
223.106	13527.05
223.179	13606.73
223.252	13678.13
223.325	13746.15
223.398	13817.97
223.471	13895.97
223.544	13969.92
223.617	14040.15
223.69	14116.27
223.763	14183.62
223.837	14258.38
223.91	14333.1
223.983	14383.76
224.056	14436.12
224.129	14499.7
224.202	14583.29
224.275	14650.77
224.348	14699.07
224.42	14750.32
224.493	14797.65
224.566	14849.47
224.639	14918.69
224.712	14959.86
224.785	15011.05
224.858	15064.36
224.931	15110.4
225.004	15154.12
225.077	15215.96
225.15	15251.44
225.223	15309.71
225.296	15389.58
225.369	15430.55
225.442	15464.82
225.514	15526.28
225.587	15582.96
225.66	15651.26
225.733	15701.49
225.806	15755.62
225.879	15808.54
225.952	15863.68
226.025	15921.38
226.097	15989.05
226.17	16037.2
226.243	16080.24
226.316	16135.47
226.389	16193.51
226.461	16249.66
226.534	16305.28
226.607	16345.04
226.68	16412.9
226.753	16458.93
226.825	16483.17
226.898	16538.65
226.971	16591.18
227.044	16640.78
227.117	16691
227.189	16733.36
227.262	16793.6
227.335	16847.49
227.407	16893.85
227.48	16934.09
227.553	16980.79
227.626	17014.38
227.698	17058.82
227.771	17110.58
227.844	17134.68
227.916	17175.16
227.989	17203.02
228.062	17237.38
228.134	17304.66
228.207	17336.03
228.28	17368.56
228.352	17398.06
228.425	17442.92
228.498	17487.79
228.57	17515.16
228.643	17560.46
228.716	17587.79
228.788	17604.51
228.861	17632.61
228.934	17677.57
229.006	17719.4
229.079	17751.5
229.151	17785.86
229.224	17799.11
229.296	17838.63
229.369	17906.43
229.442	17952.02
229.514	17975.97
229.587	18024.02
229.659	18038.72
229.732	18077.85
229.804	18126.38
229.877	18185.65
229.949	18230.61
230.022	18282.95
230.094	18328.05
230.167	18368.39
230.239	18393.59
230.312	18430.51
230.384	18481.68
230.457	18514.65
230.529	18540.81
230.602	18575.51
230.674	18605.2
230.747	18658.16
230.819	18691.36
230.892	18684.18
230.964	18711.02
231.037	18754.87
231.109	18771.93
231.181	18802.82
231.254	18828.56
231.326	18856.07
231.399	18876.41
231.471	18885.28
231.544	18888.07
231.616	18915.54
231.688	18939.1
231.761	18966.04
231.833	18981.66
231.905	18981.17
231.978	18995.24
232.05	19020.26
232.122	19044.3
232.195	19062.57
232.267	19096.4
232.339	19115.38
232.412	19158.9
232.484	19179.43
232.556	19194.17
232.629	19239.57
232.701	19262.22
232.773	19279.23
232.846	19284.14
232.918	19294.7
232.99	19311.71
233.062	19334.36
233.135	19341.05
233.207	19335.18
233.279	19356.81
233.351	19367.46
233.424	19371.22
233.496	19381.34
233.568	19419.89
233.64	19416.04
233.713	19419.94
233.785	19423.03
233.857	19431.99
233.929	19417.63
234.001	19422.35
234.074	19437.39
234.146	19427.12
234.218	19436.66
234.29	19433.82
234.362	19432.23
234.434	19420.76
234.507	19414.69
234.579	19394.02
234.651	19400.95
234.723	19408.18
234.795	19403.75
234.867	19413.15
234.939	19428.52
235.012	19432.09
235.084	19422.06
235.156	19427.94
235.228	19417.15
235.3	19403.94
235.372	19402.11
235.444	19414.21
235.516	19396.33
235.588	19402.01
235.66	19400.76
235.732	19389.05
235.804	19441.58
235.876	19449.39
235.948	19462.49
236.02	19460.33
236.092	19461.77
236.164	19455.12
236.236	19453.29
236.308	19444.52
236.38	19434.98
236.452	19416.62
236.524	19409.53
236.596	19416.38
236.668	19423.32
236.74	19425.77
236.812	19423.12
236.884	19411.75
236.956	19408.38
237.028	19397.1
237.1	19373.58
237.172	19371.7
237.244	19367.08
237.316	19322.98
237.388	19295.95
237.46	19277.06
237.532	19269.83
237.604	19253.3
237.675	19245.01
237.747	19234.89
237.819	19217.11
237.891	19210.07
237.963	19193.74
238.035	19169.93
238.107	19125.79
238.178	19105.65
238.25	19078.9
238.322	19084.64
238.394	19060.93
238.466	19033.07
238.538	19025.75
238.609	19015.24
238.681	18975.25
238.753	18950.09
238.825	18929.95
238.897	18924.17
238.968	18924.84
239.04	18903.73
239.112	18913.95
239.184	18889.13
239.255	18864.89
239.327	18845.62
239.399	18830.77
239.471	18822.1
239.542	18810
239.614	18802.29
239.686	18766.87
239.758	18767.64
239.829	18728.47
239.901	18718.54
239.973	18699.75
240.044	18676.61
240.116	18655.27
240.188	18633.34
240.259	18613.87
240.331	18580.19
240.403	18552.33
240.474	18507.95
240.546	18482.02
240.618	18434.17
240.689	18403.47
240.761	18382.94
240.833	18373.55
240.904	18338.71
240.976	18308.01
241.048	18283.14
241.119	18261.6
241.191	18244.49
241.262	18227.24
241.334	18193.36
241.405	18157.56
241.477	18120.26
241.549	18093.03
241.62	18066.43
241.692	18058.48
241.763	18040.45
241.835	18011.97
241.906	17994.43
241.978	17952.99
242.049	17927.06
242.121	17916.41
242.192	17904.89
242.264	17856.51
242.335	17814.1
242.407	17789.91
242.478	17758.63
242.55	17736.56
242.621	17701.19
242.693	17661.38
242.764	17632.17
242.836	17602.34
242.907	17574.83
242.979	17557.57
243.05	17525.77
243.122	17501.86
243.193	17461.14
243.264	17407.36
243.336	17383.79
243.407	17360.42
243.479	17349.38
243.55	17324.51
243.622	17291.55
243.693	17252.32
243.764	17248.75
243.836	17210.58
243.907	17172.17
243.978	17139.88
244.05	17109.38
244.121	17064.27
244.192	17044.84
244.264	16995.88
244.335	16972.65
244.407	16930.58
244.478	16904.74
244.549	16872.74
244.62	16827.34
244.692	16789.27
244.763	16776.64
244.834	16738.95
244.906	16696.64
244.977	16669.41
245.048	16654.37
245.119	16609.07
245.191	16568.92
245.262	16519.85
245.333	16501.97
245.405	16479.66
245.476	16454.31
245.547	16426.45
245.618	16404.86
245.689	16374.01
245.761	16344.03
245.832	16308.12
245.903	16287.74
245.974	16263.01
246.045	16233.85
246.117	16225.13
246.188	16192.02
246.259	16147.82
246.33	16110.27
246.401	16075.71
246.473	16029.15
246.544	15994.26
246.615	15981
246.686	15951.7
246.757	15928.66
246.828	15893.47
246.899	15866.58
246.97	15824.35
247.042	15780.59
247.113	15756.97
247.184	15748.1
247.255	15715.95
247.326	15687.18
247.397	15657.97
247.468	15627.55
247.539	15598.78
247.61	15553.08
247.681	15525.56
247.752	15503.15
247.823	15465.98
247.894	15442.8
247.965	15417.35
248.037	15380.28
248.108	15338.06
248.179	15306.77
248.25	15277.18
248.321	15254.38
248.392	15221.41
248.463	15211.09
248.534	15183.33
248.605	15165.35
248.675	15126.5
248.746	15107.7
248.817	15086.83
248.888	15059.06
248.959	15013.22
249.03	14995.63
249.101	14967.04
249.172	14938.17
249.243	14892.13
249.314	14885.34
249.385	14854.63
249.456	14827.11
249.527	14799.73
249.598	14775.53
249.669	14747.38
249.739	14723.18
249.81	14700.67
249.881	14656.27
249.952	14633.23
250.023	14611.29
250.094	14560.2
250.165	14526.79
250.235	14486.93
250.306	14456.46
250.377	14424.16
250.448	14399.92
250.519	14345.78
250.59	14321.39
250.66	14285.48
250.731	14270.05
250.802	14238.86
250.873	14216.69
250.944	14196.01
251.014	14157.49
251.085	14150.84
251.156	14133.92
251.227	14117.19
251.297	14100.46
251.368	14087.69
251.439	14068.21
251.51	14047.44
251.58	14017.36
251.651	13990.6
251.722	13979.37
251.792	13939.84
251.863	13906.19
251.934	13891.78
252.005	13899.25
252.075	13883.01
252.146	13880.16
252.217	13866.86
252.287	13853.74
252.358	13826.84
252.429	13812.58
252.499	13786.26
252.57	13764.08
252.641	13756.75
252.711	13726.53
252.782	13688.2
252.852	13684.39
252.923	13650.02
252.994	13624.72
253.064	13607.99
253.135	13574.39
253.205	13541.75
253.276	13532.45
253.347	13530.52
253.417	13501.31
253.488	13474.31
253.558	13446.35
253.629	13420.22
253.699	13398.24
253.77	13374.67
253.841	13348.44
253.911	13327.91
253.982	13309.93
254.052	13288.38
254.123	13253.52
254.193	13233.66
254.264	13244.65
254.334	13208.45
254.405	13178.08
254.475	13149.59
254.546	13124.91
254.616	13112.52
254.687	13097.67
254.757	13079.55
254.827	13055.44
254.898	13034.57
254.968	13001.94
255.039	12976.63
255.109	12955.85
255.18	12927.46
255.25	12883.4
255.321	12865.71
255.391	12827.33
255.461	12819.72
255.532	12773.92
255.602	12750.06
255.673	12707.78
255.743	12678.86
255.813	12632.15
255.884	12620.77
255.954	12609.74
256.024	12604.82
256.095	12591.8
256.165	12558.83
256.235	12538.25
256.306	12505.61
256.376	12497.47
256.446	12487.1
256.517	12464.49
256.587	12455.58
256.657	12441.94
256.728	12427.19
256.798	12408.1
256.868	12391.32
256.938	12359.07
257.009	12355.6
257.079	12341.09
257.149	12349.53
257.219	12301.71
257.29	12303.25
257.36	12265.46
257.43	12252.21
257.5	12210.17
257.571	12174.7
257.641	12162.6
257.711	12131.31
257.781	12126.64
257.852	12111.55
257.922	12078.97
257.992	12057.81
258.062	12031.63
258.132	12015.05
258.202	11997.75
258.273	11977.89
258.343	11969.98
258.413	11948.73
258.483	11921.49
258.553	11893.92
258.623	11864.42
258.693	11859.79
258.764	11842.59
258.834	11837.62
258.904	11820.32
258.974	11795.93
259.044	11779.3
259.114	11764.51
259.184	11750.58
259.254	11725.03
259.324	11685.07
259.394	11668.78
259.464	11664.15
259.535	11647.04
259.605	11626.9
259.675	11601.11
259.745	11588.68
259.815	11557.3
259.885	11534.21
259.955	11542.79
260.025	11518.99
260.095	11494.69
260.165	11475.99
260.235	11471.85
260.305	11451.27
260.375	11419.99
260.445	11431.7
260.515	11428.66
260.585	11421.96
260.655	11406.01
260.725	11397
260.795	11387.99
260.865	11386.25
260.934	11361.91
261.004	11346.39
261.074	11318.78
261.144	11311.41
261.214	11300.9
261.284	11287.84
261.354	11278.54
261.424	11251.74
261.494	11250.82
261.564	11235.79
261.634	11222.34
261.703	11189.72
261.773	11183.45
261.843	11166.63
261.913	11141.67
261.983	11105.43
262.053	11086.3
262.123	11062.06
262.192	11026.25
262.262	11015.41
262.332	10985.67
262.402	10984.37
262.472	10969.05
262.541	10941.1
262.611	10941.34
262.681	10913.73
262.751	10904.33
262.821	10887.13
262.89	10856
262.96	10843.81
263.03	10842.51
263.1	10829.35
263.169	10811.14
263.239	10795.67
263.309	10799.38
263.379	10787.57
263.448	10777.65
263.518	10765.02
263.588	10752.01
263.657	10760.83
263.727	10759.19
263.797	10746.42
263.867	10719.68
263.936	10693.9
264.006	10694.24
264.076	10668.89
264.145	10653.28
264.215	10628.61
264.285	10620.71
264.354	10584.48
264.424	10561.06
264.494	10534.75
264.563	10519.19
264.633	10522.13
264.702	10511.57
264.772	10482.9
264.842	10464.79
264.911	10454.72
264.981	10429.86
265.05	10414.68
265.12	10390.01
265.19	10366.64
265.259	10356.77
265.329	10341.54
265.398	10326.61
265.468	10333.64
265.537	10316.63
265.607	10308.06
265.676	10303.39
265.746	10292.84
265.815	10298.09
265.885	10279.2
265.955	10251.02
266.024	10224.48
266.094	10189.69
266.163	10184.01
266.232	10184.01
266.302	10170.33
266.371	10154.09
266.441	10141.9
266.51	10140.22
266.58	10126.06
266.649	10101.25
266.719	10098.45
266.788	10095.42
266.858	10098.6
266.927	10066.08
266.996	10055.09
267.066	10043.68
267.135	10019.69
267.205	10015.55
267.274	9999.7
267.343	10003.84
267.413	9994.74
267.482	9996.28
267.552	10002.25
267.621	9973.06
267.69	9940.69
267.76	9929.32
267.829	9914.92
267.898	9898.45
267.968	9879.76
268.037	9871.81
268.106	9871.28
268.176	9845.12
268.245	9824.85
268.314	9803.6
268.384	9793.58
268.453	9778.56
268.522	9765.89
268.592	9763.58
268.661	9738.72
268.73	9727.6
268.799	9703.95
268.869	9707.71
268.938	9685.36
269.007	9664.36
269.076	9647.55
269.146	9646.49
269.215	9634.98
269.284	9647.79
269.353	9628
269.422	9607
269.492	9587.21
269.561	9551.86
269.63	9542.38
269.699	9528.36
269.768	9520.46
269.838	9516.9
269.907	9512.76
269.976	9490.8
270.045	9461.86
270.114	9461.38
270.183	9450.54
270.253	9444.43
270.322	9418.57
270.391	9400.03
270.46	9396.8
270.529	9401.14
270.598	9398.15
270.667	9383.51
270.736	9358.23
270.806	9358.56
270.875	9357.17
270.944	9348.5
271.013	9366.51
271.082	9358.76
271.151	9348.36
271.22	9322.26
271.289	9301.46
271.358	9291.3
271.427	9288.26
271.496	9283.16
271.565	9265.29
271.634	9256.77
271.703	9262.41
271.772	9264.48
271.841	9255.43
271.91	9232.89
271.979	9219.51
272.048	9194.42
272.117	9192.44
272.186	9176.22
272.255	9171.55
272.324	9174.29
272.393	9172.75
272.462	9157.01
272.531	9152.87
272.6	9149.01
272.669	9145.88
272.738	9134.23
272.807	9125.76
272.876	9103.38
272.945	9117.43
273.013	9123.84
273.082	9129.47
273.151	9096.68
273.22	9096.88
273.289	9090.57
273.358	9099.81
273.427	9090.47
273.496	9093.27
273.564	9093.8
273.633	9092.59
273.702	9073.38
273.771	9059.37
273.84	9048.11
273.909	9044.35
273.977	9035.78
274.046	9019.7
274.115	9033.62
274.184	9020.72
274.253	9015.18
274.322	9022.07
274.39	8998.91
274.459	8974.89
274.528	8943.79
274.597	8937.58
274.665	8929.2
274.734	8937.24
274.803	8923.04
274.872	8909.9
274.94	8894.16
275.009	8939.38
275.078	8922.77
275.147	8921.28
275.215	8917.09
275.284	8924.7
275.353	8909.92
275.421	8885.81
275.49	8902.17
275.559	8884.02
275.627	8882.1
275.696	8874.78
275.765	8877.86
275.833	8869.01
275.902	8873.72
275.971	8888.21
276.039	8906.55
276.108	8905.44
276.177	8901.64
276.245	8898.22
276.314	8894.04
276.383	8897.74
276.451	8841.4
276.52	8848.52
276.588	8861.66
276.657	8860.27
276.725	8847.27
276.794	8847.46
276.863	8864.65
276.931	8839.08
277	8844.62
277.068	8848.42
277.137	8860.51
277.205	8847.94
277.274	8864.26
277.342	8870.61
277.411	8852.23
277.48	8836.58
277.548	8827
277.617	8820.51
277.685	8805.35
277.754	8809.29
277.822	8796.63
277.89	8799.33
277.959	8793.22
278.027	8776.18
278.096	8770.16
278.164	8793.46
278.233	8785.47
278.301	8772.86
278.37	8778.15
278.438	8765.74
278.507	8771.9
278.575	8747.2
278.643	8749.13
278.712	8733.49
278.78	8712.84
278.849	8717.46
278.917	8727.08
278.985	8719.67
279.054	8722.08
279.122	8733.82
279.191	8738.25
279.259	8742.77
279.327	8725.73
279.396	8732.47
279.464	8722.8
279.532	8729.15
279.601	8726.79
279.669	8724.72
279.737	8735.6
279.806	8737.04
279.874	8744.51
279.942	8743.49
280.011	8740.8
280.079	8743.93
280.147	8755.48
280.215	8756.78
280.284	8751.87
280.352	8738.92
280.42	8747.97
280.488	8735.55
280.557	8728.82
280.625	8726.26
280.693	8718.23
280.761	8721.31
280.83	8707.45
280.898	8722.03
280.966	8701.57
281.034	8669.13
281.102	8657.2
281.171	8650.46
281.239	8660.57
281.307	8652.24
281.375	8638.04
281.443	8656.67
281.512	8657.29
281.58	8659.56
281.648	8652.77
281.716	8657.54
281.784	8653.44
281.852	8645.21
281.92	8645.94
281.989	8655.9
282.057	8638.67
282.125	8685.13
282.193	8685.75
282.261	8687.72
282.329	8680.46
282.397	8684.93
282.465	8686.62
282.533	8702.35
282.601	8694.56
282.67	8673.62
282.738	8665.24
282.806	8674.53
282.874	8663.03
282.942	8661.15
283.01	8656.87
283.078	8659.03
283.146	8648.3
283.214	8659.18
283.282	8660.48
283.35	8669.48
283.418	8659.47
283.486	8661.92
283.554	8616.86
283.622	8617.39
283.69	8614.17
283.758	8608.54
283.826	8610.8
283.894	8620.66
283.962	8636.89
284.03	8643.19
284.098	8641.7
284.165	8635.15
284.233	8635.15
284.301	8625.82
284.369	8618.74
284.437	8606.81
284.505	8601.8
284.573	8616.53
284.641	8605.36
284.709	8614.41
284.777	8602.43
284.845	8605.07
284.912	8612.15
284.98	8613.59
285.048	8602.86
285.116	8604.11
285.184	8621.39
285.252	8620.33
285.319	8601.13
285.387	8584.14
285.455	8570.13
285.523	8574.27
285.591	8575.67
285.659	8575.33
285.726	8586.54
285.794	8573.84
285.862	8571.63
285.93	8574.56
285.997	8573.6
286.065	8565.03
286.133	8555.12
286.201	8554.35
286.269	8551.75
286.336	8539.24
286.404	8537.17
286.472	8541.74
286.539	8523.7
286.607	8501.51
286.675	8500.65
286.743	8514.84
286.81	8517.15
286.878	8529.81
286.946	8524.85
287.013	8523.12
287.081	8517.49
287.149	8506.66
287.216	8524.9
287.284	8527.59
287.352	8526.92
287.419	8523.98
287.487	8538.9
287.555	8540.44
287.622	8537.41
287.69	8535.77
287.758	8554.3
287.825	8549.15
287.893	8543.76
287.96	8553.34
288.028	8563.78
288.096	8566.57
288.163	8562.14
288.231	8553.63
288.298	8550.02
288.366	8562.72
288.433	8562.19
288.501	8556.13
288.569	8564.41
288.636	8553.58
288.704	8561.81
288.771	8570.42
288.839	8560.61
288.906	8559.35
288.974	8569.9
289.041	8562.53
289.109	8556.61
289.176	8562.73
289.244	8565.23
289.311	8578.51
289.379	8593.09
289.446	8599.98
289.514	8596.56
289.581	8599.54
289.649	8597.67
289.716	8605.03
289.783	8594.78
289.851	8611.57
289.918	8613.4
289.986	8617.44
290.053	8626.3
290.121	8623.65
290.188	8623.99
290.255	8651.62
290.323	8645.74
290.39	8636.17
290.458	8649.06
290.525	8659.6
290.592	8649.88
290.66	8650.31
290.727	8641.12
290.794	8646.7
290.862	8646.56
290.929	8652.96
290.996	8651.71
291.064	8663.06
291.131	8670.53
291.198	8686.89
291.266	8684.82
291.333	8686.26
291.4	8688.43
291.468	8702.1
291.535	8704.12
291.602	8714.13
291.669	8708.45
291.737	8711.2
291.804	8711.29
291.871	8725.3
291.938	8732.71
292.006	8762.22
292.073	8777.28
292.14	8788.84
292.207	8785.85
292.275	8788.93
292.342	8801.5
292.409	8826.62
292.476	8850.5
292.543	8841.45
292.611	8838.95
292.678	8858.59
292.745	8885.01
292.812	8895.46
292.879	8893.92
292.946	8889.15
293.014	8892.23
293.081	8898.06
293.148	8913.36
293.215	8928.04
293.282	8927.37
293.349	8930.69
293.416	8913.26
293.484	8924.34
293.551	8935.31
293.618	8947.78
293.685	8964.29
293.752	8951.54
293.819	8947.73
293.886	8932.18
293.953	8943.06
294.02	8955.67
294.087	8957.69
294.154	8951.48
294.221	8965.45
294.288	8968.86
294.356	8991.2
294.423	8999.48
294.49	8995.44
294.557	9004.58
294.624	8997.07
294.691	9014.65
294.758	9021.63
294.825	9027.93
294.892	9024.95
294.959	9017.77
295.026	9029.76
295.093	9025.67
295.16	9030.96
295.226	9035.54
295.293	9059.52
295.36	9059.56
295.427	9068.86
295.494	9076.94
295.561	9088.26
295.628	9112.58
295.695	9132.51
295.762	9133.04
295.829	9138.1
295.896	9149.51
295.963	9162.41
296.03	9170.21
296.096	9172.18
296.163	9188.07
296.23	9207.04
296.297	9213.59
296.364	9224.08
296.431	9227.07
296.498	9224.71
296.564	9254.85
296.631	9254.9
296.698	9244.83
296.765	9261.93
296.832	9252.39
296.899	9247.91
296.965	9259.42
297.032	9233.22
297.099	9240.93
297.166	9256.96
297.233	9260.38
297.299	9256
297.366	9255.76
297.433	9260.72
297.5	9271.12
297.566	9265.39
297.633	9254.56
297.7	9260.04
297.767	9256.87
297.833	9259.9
297.9	9261.83
297.967	9241.7
298.033	9256.58
298.1	9278.87
298.167	9276.08
298.234	9282.1
298.3	9293.75
298.367	9284.22
298.434	9298.33
298.5	9294.96
298.567	9284.36
298.634	9277.67
298.7	9295.53
298.767	9294.76
298.834	9312.77
298.9	9306.99
298.967	9305.79
299.033	9318.84
299.1	9334.87
299.167	9351.29
299.233	9350.43
299.3	9366.51
299.366	9383.12
299.433	9396.6
299.5	9377.68
299.566	9383.12
299.633	9399.4
299.699	9407.73
299.766	9410.04
299.832	9410.81
299.899	9412.98
299.965	9429.25
300.032	9424.24
300.099	9428.48
300.165	9430.22
300.232	9428.39
300.298	9424.2
300.365	9436.28
300.431	9440.33
300.498	9432.19
300.564	9432.82
300.631	9443.07
300.697	9459.54
300.763	9458.63
300.83	9458.87
300.896	9475.39
300.963	9491.76
301.029	9493.69
301.096	9494.07
301.162	9510.06
301.229	9505.24
301.295	9491.23
301.361	9486.46
301.428	9498.07
301.494	9487.33
301.561	9495.27
301.627	9498.16
301.693	9501.92
301.76	9501.82
301.826	9495.52
301.892	9512.27
301.959	9523.35
302.025	9521.42
302.092	9511.26
302.158	9514.25
302.224	9504.76
302.291	9493.11
302.357	9481.45
302.423	9483.86
302.49	9474.23
302.556	9485.06
302.622	9483.67
302.688	9494.41
302.755	9510.59
302.821	9519.88
302.887	9526.48
302.954	9524.6
303.02	9523.83
303.086	9531.58
303.152	9529.61
303.219	9518.39
303.285	9519.79
303.351	9526.53
303.417	9529.08
303.483	9522.24
303.55	9520.89
303.616	9526.91
303.682	9524.6
303.748	9519.26
303.815	9522.53
303.881	9533.37
303.947	9515.31
304.013	9515.21
304.079	9510.59
304.145	9488.77
304.212	9484.92
304.278	9482.66
304.344	9479.67
304.41	9470.67
304.476	9463.06
304.542	9456.32
304.608	9467.58
304.674	9450.58
304.741	9442.73
304.807	9447.07
304.873	9451.59
304.939	9466.14
305.005	9447.79
305.071	9444.61
305.137	9443.26
305.203	9428.43
305.269	9423.57
305.335	9437.82
305.401	9441.72
305.467	9440.42
305.533	9451.45
305.599	9455.35
305.666	9455.98
305.732	9453.14
305.798	9462.57
305.864	9488.48
305.93	9491.9
305.996	9491.81
306.062	9489.16
306.128	9483.57
306.194	9464.79
306.259	9463.4
306.325	9452.13
306.391	9465.22
306.457	9475.38
306.523	9476.68
306.589	9486.65
306.655	9478.23
306.721	9456.89
306.787	9448.9
306.853	9461.56
306.919	9442.88
306.985	9439.56
307.051	9429.88
307.117	9424.05
307.183	9426.22
307.248	9392.27
307.314	9398.19
307.38	9399.11
307.446	9406.86
307.512	9395.54
307.578	9406.33
307.644	9397.13
307.709	9398.43
307.775	9391.98
307.841	9387.84
307.907	9390.58
307.973	9378.4
308.039	9377.34
308.104	9385.57
308.17	9381.24
308.236	9360.53
308.302	9371.08
308.368	9355.58
308.433	9355.86
308.499	9348.83
308.565	9333.04
308.631	9343.34
308.696	9324.42
308.762	9311.47
308.828	9302.8
308.894	9289.13
308.959	9265.87
309.025	9262.26
309.091	9259.71
309.156	9255.18
309.222	9250.32
309.288	9237.85
309.354	9218.01
309.419	9217.58
309.485	9197.98
309.551	9198.32
309.616	9193.79
309.682	9182.33
309.748	9182.24
309.813	9176.99
309.879	9169.14
309.945	9158.21
310.01	9154.84
310.076	9149.59
310.141	9143.77
310.207	9132.55
310.273	9131.39
310.338	9133.66
310.404	9116.28
310.469	9100.34
310.535	9088.3
310.601	9066.4
310.666	9065.24
310.732	9068.18
310.797	9055.32
310.863	9053.93
310.928	9046.66
310.994	9045.36
311.059	9037.89
311.125	9024.95
311.191	9036.4
311.256	9028.8
311.322	9032.79
311.387	9004.54
311.453	9343.67
311.518	9323.07
311.584	9324.13
311.649	9332.84
311.715	9323.07
311.78	9323.5
311.846	9313.1
311.911	9320.9
311.976	9326.39
312.042	9315.08
312.107	9305.16
312.173	9301.26
312.238	9290.62
312.304	9283.6
312.369	9270.79
312.434	9262.8
312.5	9260.68
312.565	9223.71
312.631	9222.75
312.696	9210.62
312.761	9207.73
312.827	8863.83
312.892	8896.52
312.958	8887.51
313.023	8878.37
313.088	8875.09
313.154	8857.58
313.219	8848.09
313.284	8830.57
313.35	8825.56
313.415	8814.06
313.48	8804.77
313.546	8800.63
313.611	8809.2
313.676	8799.48
313.741	8793.27
313.807	8796.88
313.872	8797.36
313.937	8809.05
314.003	8821.04
314.068	8821.86
314.133	8830.47
314.198	8818.34
314.264	8796.2
314.329	8788.69
314.394	8786.57
314.459	8782.86
314.525	8807.89
314.59	8806.4
314.655	8793.36
314.72	8794.32
314.785	8798.7
314.851	8800.62
314.916	8783.88
314.981	8767.22
315.046	8762.79
315.111	8752.21
315.176	8744.65
315.242	8745.9
315.307	8741.47
315.372	8716.25
315.437	8705.76
315.502	8696.85
315.567	8705.47
315.632	8693.82
315.698	8695.89
315.763	8686.17
315.828	8674.04
315.893	8666
315.958	8659.26
316.023	8653.34
316.088	8634.48
316.153	8610.37
316.218	8595.21
316.283	8580.05
316.348	8563.07
316.413	8556.24
316.479	8540.12
316.544	8505.14
316.609	8470.25
316.674	8435.17
316.739	8406.69
316.804	8372.39
316.869	8340.01
316.934	8302.04
316.999	8269.71
317.064	8213.38
317.129	8176.91
317.194	8143.86
317.259	8093.63
317.324	8044.57
317.389	8001.33
317.454	7962.7
317.518	7928.65
317.583	7905.99
317.648	7880.07
317.713	7847.37
317.778	7788.93
317.843	7762.91
317.908	7723.78
317.973	7685.36
318.038	7659.01
318.103	7620.36
318.168	7591.32
318.233	7553.48
318.297	7498.87
318.362	7457.33
318.427	7420.33
318.492	7385.33
318.557	7340.68
318.622	7308.47
318.687	7284.01
318.751	7245.9
318.816	7211.54
318.881	7176.46
318.946	7120.23
319.011	7073.81
319.075	7025.19
319.14	6983.15
319.205	6930.88
319.27	6899.71
319.335	6856.14
319.399	6814.49
319.464	6784.56
319.529	6732.5
319.594	6691.48
319.658	6664.4
319.723	6625.31
319.788	6594.63
319.853	6544.83
319.917	6511.65
319.982	6458.5
320.047	6418.31
320.112	6387.4
320.176	6335.22
320.241	6297.44
320.306	6264.85
320.37	6219.54
320.435	6192.04
320.5	6169.2
320.564	6134.03
320.629	6088.83
320.694	6060.47
320.758	6015.56
320.823	5969.07
320.888	5940.49
320.952	5899.04
321.017	5857.31
321.082	5815.06
321.146	5779.76
321.211	5744.94
321.275	5702.69
321.34	5662.09
321.405	5620.76
321.469	5573.43
321.534	5534.76
321.598	5488.26
321.663	5452.25
321.727	5420.48
321.792	5370.44
321.857	5322.36
321.921	5285.18
321.986	5243.88
322.05	5185.77
322.115	5152.47
322.179	5109.75
322.244	5049.36
322.308	5011.38
322.373	4966.46
322.437	4925.23
322.502	4895.86
322.566	4852.62
322.631	4816.28
322.695	4776.36
322.76	4729.93
322.824	4693.89
322.889	4650.2
322.953	4604.99
323.018	4544.21
323.082	4485.37
323.146	4433.71
323.211	4385.26
323.275	4339.33
323.34	4296.1
323.404	4261.1
323.468	4213.89
323.533	4170.96
323.597	4131.68
323.662	4083.25
323.726	4046.44
323.79	4001.23
323.855	3938.21
323.919	3886.74
323.983	3842.39
324.048	3775.12
324.112	3896.87
324.177	3765.58
324.241	3569.63
324.305	3377.11
324.37	3188.94
324.434	3006.26
324.498	2965.13
324.562	2915.71
324.627	2857.18
324.691	2801.49
324.755	2737.91
324.82	2660.57
324.884	2585.72
324.948	2514.47
325.012	2420.91
325.077	2302.76
