Data from 20250630_urea_2M_MAYP1162681_08-32-26-984.txt Node
Date: Tue Jul 01 08:32:26 BST 2025
User: adleo
Spectrometer: MAYP116268
Trigger mode: 0
Integration Time (sec): 1.000000E0
Scans to average: 1
Electric dark correction enabled: true
Nonlinearity correction enabled: true
Boxcar width: 10
XAxis mode: Wavelengths
Number of Pixels in Spectrum: 2068
>>>>>Begin Spectral Data<<<<<
179.565	1091.02
179.642	1138.31
179.718	1175.25
179.795	1208.91
179.871	1238.55
179.948	1250.71
180.024	1268.95
180.101	1286.76
180.177	1300.76
180.254	1320.84
180.33	1341.34
180.407	1383.25
180.483	1469.62
180.56	1550.05
180.636	1622.73
180.712	1611.18
180.789	1619.68
180.865	1630.61
180.942	1638.73
181.018	1645.62
181.095	1657.93
181.171	1662.25
181.248	1662.77
181.324	1676.03
181.4	1681.83
181.477	1691.42
181.553	1704.96
181.63	1724.73
181.706	1741.03
181.782	1746.25
181.859	1745.73
181.935	1751.01
182.011	1749.34
182.088	1763.41
182.164	1782.76
182.24	1796.02
182.317	1804.76
182.393	1803.43
182.469	1815.59
182.546	1827.19
182.622	1834.41
182.698	1827.81
182.775	1841.59
182.851	1855.18
182.927	1849.67
183.003	1848.2
183.08	1844.68
183.156	1855.42
183.232	1853.04
183.308	1842.97
183.385	1851.81
183.461	1869.49
183.537	1872.39
183.613	1883.8
183.69	1875.81
183.766	1864.16
183.842	1874
183.918	1876.43
183.995	1888.31
184.071	1891.4
184.147	1887.88
184.223	1876.05
184.299	1888.84
184.375	1876.62
184.452	1884.52
184.528	1937.16
184.604	1943.81
184.68	1952.89
184.756	1958.69
184.832	1962.21
184.908	1967.3
184.985	1966.68
185.061	1951.18
185.137	1958.27
185.213	1946.1
185.289	1945.76
185.365	1939.16
185.441	1937.3
185.517	1951.9
185.593	1947.86
185.669	1945.72
185.745	1955.23
185.822	1969.96
185.898	1962.79
185.974	1971.1
186.05	1962.3
186.126	1922.79
186.202	1918.22
186.278	1913.47
186.354	1902.44
186.43	1907.91
186.506	1906.91
186.582	1906.1
186.658	1912.42
186.734	1893.27
186.81	1898.59
186.886	1904.01
186.962	1917.32
187.038	1914.37
187.114	1906.71
187.19	1916.46
187.266	1911.18
187.341	1909.66
187.417	1903.67
187.493	1901.44
187.569	1904.62
187.645	1897.87
187.721	1888.03
187.797	1893.4
187.873	1897.25
187.949	1891.03
188.025	1883.51
188.101	1885.75
188.176	1890.26
188.252	1887.7
188.328	1895.82
188.404	1897.29
188.48	1893.3
188.556	1884.22
188.632	1884.03
188.707	1884.89
188.783	1879.56
188.859	1872.81
188.935	1864.35
189.011	1870.82
189.086	1866.97
189.162	1858.5
189.238	1860.45
189.314	1857.7
189.39	1853.04
189.465	1847.48
189.541	1862.88
189.617	1848.86
189.693	1843.77
189.768	1847.58
189.844	1868.36
189.92	1860.42
189.996	1866.36
190.071	1877.54
190.147	1878.39
190.223	1884.62
190.298	1875.35
190.374	1864.18
190.45	1872.78
190.526	1880.01
190.601	1877.53
190.677	1880.62
190.753	1906.02
190.828	1905.78
190.904	1921.28
190.98	1937.78
191.055	1946.91
191.131	1941.73
191.207	1961.41
191.282	1972.05
191.358	1963.02
191.433	1950.23
191.509	1961.3
191.585	1957.12
191.66	1957.92
191.736	1963.2
191.811	1956.83
191.887	1971.57
191.963	1995.2
192.038	2001.67
192.114	2001.77
192.189	2006.33
192.265	1999.49
192.34	1981.55
192.416	1982.41
192.491	1978.84
192.567	1980.89
192.642	1982.12
192.718	1981.89
192.793	1971.66
192.869	1967.15
192.944	1970.52
193.02	1975.23
193.095	1978.46
193.171	1986.83
193.246	1986.4
193.322	1984.17
193.397	1984.55
193.473	1974.51
193.548	1956.54
193.624	1961.29
193.699	1962.39
193.775	1972.42
193.85	1976.7
193.925	1984.54
194.001	1981.03
194.076	1974.09
194.152	1966.28
194.227	1961.72
194.302	1952.64
194.378	1957.06
194.453	1952.36
194.529	1965.62
194.604	1954.07
194.679	1949.98
194.755	1931.35
194.83	1941.96
194.905	1939.82
194.981	1946.38
195.056	1937.78
195.131	1941.72
195.207	1943.58
195.282	1932.31
195.357	1915.33
195.433	1928.79
195.508	1918.09
195.583	1928.45
195.659	1941.48
195.734	1944.24
195.809	1942.34
195.884	1951.42
195.96	1952.65
196.035	1967.39
196.11	1963.73
196.185	1974.66
196.261	1977.04
196.336	2007.66
196.411	1994.11
196.486	1998.53
196.561	1994.58
196.637	2002.09
196.712	2018.27
196.787	2016.93
196.862	2032.86
196.937	2043.23
197.013	2049.12
197.088	2058.35
197.163	2078.86
197.238	2094.71
197.313	2095.75
197.388	2109.93
197.464	2141.05
197.539	2148.46
197.614	2139.57
197.689	2150.32
197.764	2165.12
197.839	2181.25
197.914	2173.82
197.989	2193.24
198.065	2208.12
198.14	2254.4
198.215	2278.81
198.29	2288.9
198.365	2305.18
198.44	2315.12
198.515	2340.25
198.59	2355.1
198.665	2378.56
198.74	2382.61
198.815	2382.85
198.89	2402.27
198.965	2430.65
199.04	2424.12
199.115	2440.02
199.19	2484.29
199.265	2487.29
199.34	2498.05
199.415	2532.63
199.49	2551.77
199.565	2559.34
199.64	2583.29
199.715	2576.09
199.79	2582.76
199.865	2589.47
199.94	2586.76
200.015	2615.91
200.09	2622.96
200.165	2626.01
200.24	2629.73
200.315	2668.82
200.39	2685.78
200.464	2693.35
200.539	2695.83
200.614	2711.64
200.689	2732.79
200.764	2736.99
200.839	2748.7
200.914	2754.27
200.989	2741.93
201.063	2756.08
201.138	2743.75
201.213	2744.56
201.288	2731.13
201.363	2736.84
201.438	2738.08
201.512	2751.27
201.587	2734.4
201.662	2737.12
201.737	2747.5
201.812	2759.13
201.886	2727.28
201.961	2733.91
202.036	2720.38
202.111	2713.38
202.186	2685.43
202.26	2669.8
202.335	2651.51
202.41	2649.74
202.485	2632.65
202.559	2614.31
202.634	2588.4
202.709	2596.88
202.784	2575.78
202.858	2573.68
202.933	2555.25
203.008	2549.39
203.082	2532.11
203.157	2532.4
203.232	2492.32
203.306	2476.88
203.381	2446.88
203.456	2424.98
203.53	2401.92
203.605	2387.64
203.68	2365.79
203.754	2360.36
203.829	2346.18
203.904	2329.18
203.978	2313.71
204.053	2318.47
204.127	2306.48
204.202	2304.96
204.277	2288.11
204.351	2282.21
204.426	2276.64
204.5	2269.41
204.575	2237.39
204.65	2245.81
204.724	2237.91
204.799	2246.94
204.873	2240.66
204.948	2237.8
205.022	2227.67
205.097	2221.15
205.171	2234.95
205.246	2244.18
205.32	2241.81
205.395	2242.85
205.469	2232.86
205.544	2239.48
205.618	2221.63
205.693	2235.29
205.767	2225.54
205.842	2242.91
205.916	2237.77
205.991	2231.01
206.065	2238.72
206.14	2250.56
206.214	2247.8
206.289	2241.04
206.363	2253.65
206.438	2257.41
206.512	2267.22
206.586	2284.58
206.661	2290.68
206.735	2266.99
206.81	2267.65
206.884	2285.07
206.958	2273.03
207.033	2287.54
207.107	2295.97
207.181	2325.58
207.256	2317.44
207.33	2333.9
207.405	2343.43
207.479	2363.08
207.553	2368.84
207.628	2353.52
207.702	2365.09
207.776	2358.71
207.851	2361.61
207.925	2369.61
207.999	2366.75
208.073	2365.33
208.148	2368.52
208.222	2358.57
208.296	2388.3
208.371	2403.02
208.445	2412.54
208.519	2438.67
208.593	2451.24
208.668	2448.1
208.742	2451.86
208.816	2454.43
208.89	2467.24
208.965	2471.34
209.039	2476.39
209.113	2492.24
209.187	2512.28
209.261	2510.47
209.336	2528.8
209.41	2546.09
209.484	2547.56
209.558	2568.61
209.632	2575.04
209.707	2584.18
209.781	2606.09
209.855	2622.52
209.929	2637.64
210.003	2641.07
210.077	2642.88
210.151	2686.12
210.226	2718
210.3	2742.94
210.374	2765.85
210.448	2770.56
210.522	2776.14
210.596	2788.24
210.67	2798.96
210.744	2841.39
210.818	2871.78
210.892	2892.27
210.966	2889.89
211.041	2904.42
211.115	2900.99
211.189	2926.58
211.263	2945.45
211.337	2950.93
211.411	2963.38
211.485	2961.04
211.559	2974.05
211.633	2976.91
211.707	2949.1
211.781	2958.45
211.855	2924.7
211.929	2921.27
212.003	2904.98
212.077	2920.38
212.151	2933.21
212.225	2943.79
212.299	2936.73
212.373	2928.29
212.447	2927.1
212.52	2959.91
212.594	2970.44
212.668	2986.75
212.742	2979.12
212.816	2980.64
212.89	2984.89
212.964	2992.42
213.038	3004.01
213.112	3025.91
213.186	3052.75
213.26	3045.6
213.333	3013.46
213.407	3031
213.481	3048.54
213.555	3079.42
213.629	3085.76
213.703	3085.81
213.777	3099.79
213.85	3102.94
213.924	3156.86
213.998	3179.81
214.072	3193.85
214.146	3206.25
214.219	3230.16
214.293	3252
214.367	3281.3
214.441	3312.41
214.515	3333.42
214.588	3341.39
214.662	3341.82
214.736	3355.75
214.81	3395.77
214.883	3442.56
214.957	3472.1
215.031	3500.16
215.105	3515.09
215.178	3540.11
215.252	3576.11
215.326	3597.93
215.4	3622.18
215.473	3621.61
215.547	3648.93
215.621	3682.34
215.694	3732.03
215.768	3759.65
215.842	3798.82
215.915	3836.29
215.989	3869.12
216.063	3909.42
216.136	3966.97
216.21	4019.68
216.284	4083.28
216.357	4142.85
216.431	4195.68
216.504	4266.37
216.578	4348.66
216.652	4421.53
216.725	4485.16
216.799	4559.83
216.873	4625.62
216.946	4702.46
217.02	4765.48
217.093	4827.81
217.167	4878.04
217.24	4934.69
217.314	4999.52
217.387	5067.7
217.461	5132.75
217.535	5209.68
217.608	5271.77
217.682	5340.25
217.755	5426.57
217.829	5490.95
217.902	5563.1
217.976	5637.36
218.049	5696.97
218.123	5753.19
218.196	5836.16
218.27	5909.65
218.343	5966.7
218.417	6046.3
218.49	6116.07
218.563	6211
218.637	6294.37
218.71	6396.38
218.784	6485.74
218.857	6577.19
218.931	6658.66
219.004	6741.69
219.077	6830.03
219.151	6915.76
219.224	6994.69
219.298	7070.65
219.371	7161.33
219.444	7232.06
219.518	7316.16
219.591	7401.89
219.665	7512.05
219.738	7591.32
219.811	7663.09
219.885	7755.31
219.958	7847.79
220.031	7930.74
220.105	8009.86
220.178	8093.51
220.251	8159.37
220.325	8242.23
220.398	8329.94
220.471	8417.74
220.544	8502.86
220.618	8578.27
220.691	8664.98
220.764	8751.61
220.838	8836.85
220.911	8911.13
220.984	9005.32
221.057	9092.02
221.131	9178.77
221.204	9225.63
221.277	9322.56
221.35	9440.97
221.424	9508.72
221.497	9582.21
221.57	9661.95
221.643	9746.81
221.716	9839.39
221.79	9912.79
221.863	9986.78
221.936	10060.82
222.009	10137.55
222.082	10218.48
222.155	10293
222.229	10380.45
222.302	10461.68
222.375	10532.45
222.448	10618.17
222.521	10699.65
222.594	10771.78
222.667	10828.35
222.74	10916.43
222.814	10981.49
222.887	11037.29
222.96	11126.54
223.033	11205.62
223.106	11281.57
223.179	11351.89
223.252	11409
223.325	11483.17
223.398	11548.43
223.471	11618.94
223.544	11683.23
223.617	11751.62
223.69	11829.61
223.763	11882.49
223.837	11944.09
223.91	12016.29
223.983	12064.54
224.056	12112.35
224.129	12179.55
224.202	12263.37
224.275	12324.49
224.348	12377.61
224.42	12425.48
224.493	12473.59
224.566	12529.26
224.639	12595.69
224.712	12650.35
224.785	12708.63
224.858	12772.07
224.931	12826.11
225.004	12869.69
225.077	12939.29
225.15	12975.93
225.223	13028.19
225.296	13106.42
225.369	13144.65
225.442	13197.87
225.514	13258.51
225.587	13320.75
225.66	13379.03
225.733	13435.05
225.806	13492.32
225.879	13539.85
225.952	13587.86
226.025	13650.05
226.097	13726.16
226.17	13775.29
226.243	13814.57
226.316	13869.82
226.389	13919.18
226.461	13990.86
226.534	14052.52
226.607	14108.97
226.68	14187.06
226.753	14240.04
226.825	14272.68
226.898	14351.11
226.971	14404.28
227.044	14456.29
227.117	14513.27
227.189	14566.2
227.262	14627.18
227.335	14678.8
227.407	14741.71
227.48	14809.29
227.553	14870.17
227.626	14904.3
227.698	14954.48
227.771	15023.89
227.844	15069.5
227.916	15127.53
227.989	15161.76
228.062	15210.44
228.134	15266.55
228.207	15305.45
228.28	15349.12
228.352	15392.93
228.425	15434.92
228.498	15484.23
228.57	15529.3
228.643	15592.58
228.716	15636.64
228.788	15672.4
228.861	15712.22
228.934	15769
229.006	15801.34
229.079	15839.22
229.151	15877.73
229.224	15914.99
229.296	15952.2
229.369	16022.19
229.442	16075.54
229.514	16113.23
229.587	16165.19
229.659	16190.16
229.732	16242.26
229.804	16289.83
229.877	16356.78
229.949	16413.79
230.022	16474.86
230.094	16517.51
230.167	16546.86
230.239	16575.25
230.312	16611.21
230.384	16677.09
230.457	16712.27
230.529	16760.37
230.602	16803.46
230.674	16848.91
230.747	16895.66
230.819	16942.26
230.892	16951.32
230.964	16990.5
231.037	17027.86
231.109	17067.76
231.181	17118.22
231.254	17146.51
231.326	17182.22
231.399	17211.19
231.471	17230.22
231.544	17245.5
231.616	17293.31
231.688	17332.92
231.761	17367.33
231.833	17408.83
231.905	17420.1
231.978	17459.57
232.05	17490.32
232.122	17525.5
232.195	17549.6
232.267	17595.86
232.339	17619.28
232.412	17656.78
232.484	17679.52
232.556	17709.6
232.629	17754.27
232.701	17797.59
232.773	17827.57
232.846	17854.46
232.918	17883.28
232.99	17919.04
233.062	17957.93
233.135	17981.83
233.207	17993.73
233.279	18027.95
233.351	18053.73
233.424	18066.79
233.496	18070.26
233.568	18111.56
233.64	18114.4
233.713	18139.51
233.785	18151.56
233.857	18179.7
233.929	18190.5
234.001	18223.12
234.074	18254.2
234.146	18254.59
234.218	18254.06
234.29	18258.06
234.362	18267.02
234.434	18265.77
234.507	18269.29
234.579	18260.42
234.651	18256.76
234.723	18273.38
234.795	18284.18
234.867	18293
234.939	18317.67
235.012	18331.55
235.084	18336.99
235.156	18358.05
235.228	18351.6
235.3	18352.95
235.372	18360.95
235.444	18378.97
235.516	18367.02
235.588	18372.41
235.66	18373.23
235.732	18374.25
235.804	18447.01
235.876	18462.39
235.948	18481.85
236.02	18481.85
236.092	18480.17
236.164	18494.72
236.236	18505.56
236.308	18510.53
236.38	18512.94
236.452	18508.21
236.524	18518.77
236.596	18539.3
236.668	18541.47
236.74	18555.25
236.812	18566.24
236.884	18569.85
236.956	18576.89
237.028	18563.78
237.1	18556.55
237.172	18573.13
237.244	18583.44
237.316	18534.09
237.388	18520.6
237.46	18502.82
237.532	18514.38
237.604	18512.17
237.675	18523.59
237.747	18521.66
237.819	18510.38
237.891	18497.61
237.963	18489.28
238.035	18476.7
238.107	18430.92
238.178	18448.89
238.25	18435.5
238.322	18448.07
238.394	18419.45
238.466	18392.56
238.538	18387.93
238.609	18376.22
238.681	18345.38
238.753	18334.87
238.825	18331.79
238.897	18321.86
238.968	18333.62
239.04	18306.06
239.112	18313.43
239.184	18282.11
239.255	18255.65
239.327	18242.16
239.399	18236.76
239.471	18229.48
239.542	18216.95
239.614	18216.47
239.686	18166.4
239.758	18158.3
239.829	18122.4
239.901	18127.41
239.973	18124.43
240.044	18115.66
240.116	18102.64
240.188	18083.42
240.259	18058.12
240.331	18022.94
240.403	18011.95
240.474	17984.24
240.546	17961.01
240.618	17920.92
240.689	17895.66
240.761	17879.86
240.833	17885.54
240.904	17858.46
240.976	17829.83
241.048	17817.4
241.119	17798.32
241.191	17784.34
241.262	17769.55
241.334	17745.45
241.405	17718.27
241.477	17683.48
241.549	17658.27
241.62	17642.56
241.692	17628.97
241.763	17625.36
241.835	17608.39
241.906	17590.8
241.978	17546.9
242.049	17535
242.121	17532.83
242.192	17531.43
242.264	17505.89
242.335	17453.41
242.407	17441.79
242.478	17417.69
242.55	17390.9
242.621	17370.13
242.693	17344.25
242.764	17321.16
242.836	17294.9
242.907	17275.72
242.979	17265.21
243.05	17248.15
243.122	17228.39
243.193	17202.99
243.264	17144.92
243.336	17118.99
243.407	17097.79
243.479	17095.33
243.55	17083.04
243.622	17048.39
243.693	17013.74
243.764	17002.17
243.836	16970.22
243.907	16940.38
243.978	16910.02
244.05	16880.48
244.121	16831.22
244.192	16808.86
244.264	16763.36
244.335	16735.89
244.407	16691.02
244.478	16659.26
244.549	16626.87
244.62	16586.34
244.692	16555.06
244.763	16533.61
244.834	16501.95
244.906	16465.85
244.977	16444.64
245.048	16420.79
245.119	16396.78
245.191	16358.66
245.262	16300.29
245.333	16291.23
245.405	16266.31
245.476	16254.75
245.547	16238.12
245.618	16221.97
245.689	16196.04
245.761	16181.39
245.832	16148.18
245.903	16124.27
245.974	16096.41
246.045	16062
246.117	16051.93
246.188	16010.04
246.259	15970.13
246.33	15936.2
246.401	15901.16
246.473	15847.8
246.544	15814.88
246.615	15792.81
246.686	15761.33
246.757	15746.34
246.828	15703.59
246.899	15680.84
246.97	15631.82
247.042	15588.49
247.113	15559.76
247.184	15553.83
247.255	15510.74
247.326	15483.31
247.397	15455.31
247.468	15434.58
247.539	15415.78
247.61	15371.73
247.681	15354.04
247.752	15347.82
247.823	15314.56
247.894	15288
247.965	15250.11
248.037	15211.16
248.108	15167.44
248.179	15144.84
248.25	15124.01
248.321	15101.41
248.392	15055.57
248.463	15059.13
248.534	15032.43
248.605	15021.68
248.675	14985.67
248.746	14962.63
248.817	14945.28
248.888	14916.5
248.959	14876.44
249.03	14852.58
249.101	14822.94
249.172	14791.56
249.243	14739.16
249.314	14725.76
249.385	14702.76
249.456	14693.07
249.527	14668.97
249.598	14647.67
249.669	14619.03
249.739	14588.9
249.81	14568.13
249.881	14524.5
249.952	14489.65
250.023	14456.63
250.094	14418.84
250.165	14378.49
250.235	14357.62
250.306	14328.55
250.377	14296.2
250.448	14264.48
250.519	14215.94
250.59	14198.63
250.66	14173.13
250.731	14167.69
250.802	14141.51
250.873	14114.95
250.944	14086.46
251.014	14047.89
251.085	14039.6
251.156	14011.93
251.227	13997.52
251.297	13984.31
251.368	13985.42
251.439	13963.78
251.51	13950.13
251.58	13908.15
251.651	13879.13
251.722	13863.51
251.792	13830
251.863	13805.08
251.934	13801.85
252.005	13796.07
252.075	13774.13
252.146	13759.19
252.217	13741.45
252.287	13720.33
252.358	13699.07
252.429	13696.13
252.499	13673.96
252.57	13654.34
252.641	13640.17
252.711	13617.07
252.782	13580.77
252.852	13565.88
252.923	13532.95
252.994	13517.48
253.064	13509.81
253.135	13476.46
253.205	13445.84
253.276	13439
253.347	13430.32
253.417	13394.84
253.488	13374.16
253.558	13346.97
253.629	13318.77
253.699	13298.04
253.77	13291.54
253.841	13260.3
253.911	13237.78
253.982	13210.21
254.052	13192.57
254.123	13171.6
254.193	13148.22
254.264	13160.94
254.334	13128.55
254.405	13097.17
254.475	13053.54
254.546	13029.1
254.616	13022.5
254.687	13006.49
254.757	12985.86
254.827	12960.84
254.898	12946.81
254.968	12932.06
255.039	12898.8
255.109	12885.69
255.18	12858.6
255.25	12807.35
255.321	12792.41
255.391	12752.93
255.461	12759.49
255.532	12716.24
255.602	12693.93
255.673	12654.01
255.743	12616.99
255.813	12576.64
255.884	12571.1
255.954	12560.98
256.024	12547.24
256.095	12522.22
256.165	12487.46
256.235	12469
256.306	12435.69
256.376	12412.46
256.446	12392.45
256.517	12381.9
256.587	12370.91
256.657	12350.85
256.728	12337.21
256.798	12320.97
256.868	12296.48
256.938	12268.33
257.009	12249
257.079	12233.09
257.149	12236.95
257.219	12192.17
257.29	12175.49
257.36	12137.32
257.43	12134.91
257.5	12099.62
257.571	12077.3
257.641	12065.54
257.711	12038.31
257.781	12032.81
257.852	12026.88
257.922	11989.09
257.992	11966.87
258.062	11937.28
258.132	11927.83
258.202	11907.73
258.273	11893.42
258.343	11900.4
258.413	11866.76
258.483	11850.76
258.553	11817.84
258.623	11796.49
258.693	11782.7
258.764	11783.42
258.834	11776.29
258.904	11754.26
258.974	11730.5
259.044	11711.51
259.114	11690.88
259.184	11658.73
259.254	11636.66
259.324	11596.12
259.394	11585.38
259.464	11585.33
259.535	11572.94
259.605	11545.32
259.675	11518.48
259.745	11496.84
259.815	11458.18
259.885	11433.6
259.955	11446.76
260.025	11424.79
260.095	11400.06
260.165	11388.88
260.235	11382.47
260.305	11359.92
260.375	11326.37
260.445	11324.54
260.515	11320.93
260.585	11315.38
260.655	11314.23
260.725	11309.55
260.795	11297.89
260.865	11294.56
260.934	11267.53
261.004	11258.18
261.074	11243.24
261.144	11238.71
261.214	11234.75
261.284	11215.77
261.354	11216.78
261.424	11187.91
261.494	11185.74
261.564	11169.16
261.634	11170.7
261.703	11139.52
261.773	11128.15
261.843	11119.28
261.913	11108.73
261.983	11076.15
262.053	11065.45
262.123	11037.41
262.192	11002.95
262.262	10998.37
262.332	10967.97
262.402	10960.74
262.472	10940.02
262.541	10897.76
262.611	10895.54
262.681	10863.5
262.751	10860.94
262.821	10842.97
262.89	10809.91
262.96	10800.8
263.03	10801.28
263.1	10775.31
263.169	10759.31
263.239	10749.91
263.309	10751.99
263.379	10740.76
263.448	10722.88
263.518	10714.26
263.588	10706.02
263.657	10707.03
263.727	10694.89
263.797	10678.46
263.867	10653.3
263.936	10629.12
264.006	10627.62
264.076	10604.25
264.145	10594.57
264.215	10570.14
264.285	10566.67
264.354	10524.52
264.424	10505.39
264.494	10477.39
264.563	10459.37
264.633	10459.47
264.702	10448
264.772	10410.56
264.842	10389.61
264.911	10388.64
264.981	10353.37
265.05	10332.32
265.12	10313
265.19	10300.86
265.259	10297
265.329	10289.73
265.398	10272.53
265.468	10287.51
265.537	10270.6
265.607	10253.84
265.676	10247.86
265.746	10233.27
265.815	10240.97
265.885	10221.56
265.955	10196.12
266.024	10177.14
266.094	10143.95
266.163	10139.28
266.232	10141.2
266.302	10121.02
266.371	10108.4
266.441	10096.6
266.51	10093.66
266.58	10076.08
266.649	10048.71
266.719	10040.43
266.788	10030.98
266.858	10034.74
266.927	9994.52
266.996	9980.5
267.066	9970.48
267.135	9942.64
267.205	9931.75
267.274	9922.36
267.343	9925.3
267.413	9918.12
267.482	9912.68
267.552	9913.21
267.621	9880.45
267.69	9844.33
267.76	9833.25
267.829	9819.86
267.898	9810.23
267.968	9790.48
268.037	9788.36
268.106	9789.37
268.176	9761.68
268.245	9746.89
268.314	9725.17
268.384	9726.08
268.453	9717.75
268.522	9710.28
268.592	9712.4
268.661	9690.01
268.73	9683.6
268.799	9663.32
268.869	9663.52
268.938	9639.1
269.007	9622.82
269.076	9613.04
269.146	9619.5
269.215	9611.74
269.284	9615.55
269.353	9594.17
269.422	9577.84
269.492	9557.23
269.561	9517.74
269.63	9517.5
269.699	9495.83
269.768	9486.92
269.838	9478.93
269.907	9475.08
269.976	9452.92
270.045	9423.6
270.114	9424.42
270.183	9407.56
270.253	9396.29
270.322	9366.39
270.391	9356.95
270.46	9353.15
270.529	9357.34
270.598	9353.39
270.667	9341.3
270.736	9314.87
270.806	9311.93
270.875	9309.33
270.944	9297.53
271.013	9321.03
271.082	9311.98
271.151	9311.74
271.22	9283.47
271.289	9269.41
271.358	9257.47
271.427	9250.83
271.496	9243.37
271.565	9224.44
271.634	9217.46
271.703	9220.35
271.772	9221.94
271.841	9210.62
271.91	9187.37
271.979	9173.26
272.048	9152.7
272.117	9154.72
272.186	9138.98
272.255	9139.7
272.324	9138.02
272.393	9134.65
272.462	9121.26
272.531	9116.69
272.6	9101.28
272.669	9108.26
272.738	9094.25
272.807	9089.58
272.876	9071.62
272.945	9093.87
273.013	9091.8
273.082	9091.89
273.151	9072.15
273.22	9066.38
273.289	9061.13
273.358	9071.96
273.427	9060.41
273.496	9052.85
273.564	9042.02
273.633	9046.83
273.702	9033.4
273.771	9025.89
273.84	9016.69
273.909	9006.97
273.977	8999.22
274.046	8993.58
274.115	9000.95
274.184	8991.8
274.253	8980.3
274.322	8989.68
274.39	8953.96
274.459	8942.31
274.528	8911.46
274.597	8903.71
274.665	8900.63
274.734	8906.89
274.803	8894.42
274.872	8889.61
274.94	8875.74
275.009	8901.79
275.078	8886
275.147	8875.17
275.215	8864.3
275.284	8872
275.353	8860.35
275.421	8835.08
275.49	8850.34
275.559	8839.41
275.627	8828.15
275.696	8823.24
275.765	8816.69
275.833	8816.98
275.902	8809.86
275.971	8823.38
276.039	8833.2
276.108	8829.3
276.177	8823.24
276.245	8813.56
276.314	8804.61
276.383	8815.2
276.451	8780.63
276.52	8785.83
276.588	8797.19
276.657	8806.14
276.725	8795.89
276.794	8794.39
276.863	8805.13
276.931	8775.52
277	8778.89
277.068	8790.54
277.137	8800.21
277.205	8798.63
277.274	8813.88
277.342	8825.44
277.411	8808.11
277.48	8797.23
277.548	8795.74
277.617	8794.49
277.685	8789.24
277.754	8794.92
277.822	8783.71
277.89	8798.54
277.959	8788.81
278.027	8767.35
278.096	8751.7
278.164	8779.19
278.233	8772.7
278.301	8763.79
278.37	8771.83
278.438	8754.12
278.507	8755.66
278.575	8729.42
278.643	8721.34
278.712	8705.21
278.78	8692.31
278.849	8701.02
278.917	8704.15
278.985	8692.22
279.054	8696.16
279.122	8701.99
279.191	8699
279.259	8693.04
279.327	8669.5
279.396	8682.11
279.464	8679.8
279.532	8695.44
279.601	8687.74
279.669	8677.82
279.737	8686.2
279.806	8684.66
279.874	8691.06
279.942	8687.74
280.011	8684.75
280.079	8691.88
280.147	8702.75
280.215	8706.7
280.284	8698.95
280.352	8689.81
280.42	8701.36
280.488	8689.33
280.557	8685.72
280.625	8682.11
280.693	8683.6
280.761	8680.62
280.83	8665.17
280.898	8679.12
280.966	8655.97
281.034	8624.35
281.102	8616.94
281.171	8611.26
281.239	8623.2
281.307	8615.01
281.375	8604.28
281.443	8625.65
281.512	8623.63
281.58	8626.18
281.648	8613.38
281.716	8617.32
281.784	8614.73
281.852	8602.4
281.92	8605.24
281.989	8609.38
282.057	8595.04
282.125	8635.14
282.193	8633.17
282.261	8634.71
282.329	8631.1
282.397	8634.28
282.465	8637.93
282.533	8650.54
282.601	8642.02
282.67	8615.55
282.738	8615.94
282.806	8622.58
282.874	8613.86
282.942	8613.86
283.01	8609
283.078	8610.88
283.146	8602.99
283.214	8613.91
283.282	8622
283.35	8630.47
283.418	8622.77
283.486	8627.39
283.554	8585.41
283.622	8591.14
283.69	8591.72
283.758	8581.42
283.826	8586.23
283.894	8594.27
283.962	8613.62
284.03	8625.41
284.098	8632.68
284.165	8620.4
284.233	8622.57
284.301	8609.63
284.369	8603.9
284.437	8598.17
284.505	8594.32
284.573	8612.51
284.641	8599.18
284.709	8600.96
284.777	8584.16
284.845	8593.07
284.912	8600.81
284.98	8602.64
285.048	8593.88
285.116	8595.04
285.184	8608.95
285.252	8604.86
285.319	8589.75
285.387	8580.55
285.455	8566.5
285.523	8565.39
285.591	8562.89
285.659	8561.35
285.726	8579.49
285.794	8562.17
285.862	8553.61
285.93	8553.03
285.997	8544.56
286.065	8539.7
286.133	8532.05
286.201	8524.3
286.269	8514.53
286.336	8504.28
286.404	8496.72
286.472	8509.28
286.539	8487.63
286.607	8475.94
286.675	8477.96
286.743	8484.07
286.81	8480.27
286.878	8484.79
286.946	8477.14
287.013	8477.14
287.081	8476.66
287.149	8461.93
287.216	8482.86
287.284	8485.56
287.352	8482.53
287.419	8485.99
287.487	8498.79
287.555	8505.24
287.622	8507.36
287.69	8514.48
287.758	8525.5
287.825	8523.96
287.893	8507.65
287.96	8514.58
288.028	8519.87
288.096	8516.84
288.163	8518.76
288.231	8498.79
288.298	8504.42
288.366	8521.03
288.433	8520.3
288.501	8511.11
288.569	8515.35
288.636	8516.45
288.704	8524.06
288.771	8537.87
288.839	8526.27
288.906	8519.34
288.974	8528.97
289.041	8528.25
289.109	8516.07
289.176	8523.1
289.244	8530.6
289.311	8542.15
289.379	8551.63
289.446	8559.33
289.514	8565.98
289.581	8566.5
289.649	8578.73
289.716	8581.85
289.783	8574.78
289.851	8592.05
289.918	8593.02
289.986	8597.49
290.053	8599.18
290.121	8597.35
290.188	8598.74
290.255	8624.44
290.323	8623.63
290.39	8615.54
290.458	8623.19
290.525	8634.79
290.592	8632.86
290.66	8631.56
290.727	8625.89
290.794	8638.88
290.862	8635.66
290.929	8637.72
290.996	8638.01
291.064	8642.39
291.131	8653.08
291.198	8666.99
291.266	8667.81
291.333	8668.1
291.4	8671.99
291.468	8683.5
291.535	8680.71
291.602	8685.86
291.669	8678.06
291.737	8681.28
291.804	8677.29
291.871	8695.77
291.938	8705.45
292.006	8730.86
292.073	8744
292.14	8762.34
292.207	8761.43
292.275	8762.24
292.342	8767.87
292.409	8789.92
292.476	8816.44
292.543	8806.63
292.611	8802.25
292.678	8817.26
292.745	8842.24
292.812	8857.79
292.879	8851.39
292.946	8855.77
293.014	8866.07
293.081	8878.39
293.148	8890.23
293.215	8904.72
293.282	8893.7
293.349	8899.57
293.416	8882.62
293.484	8900.68
293.551	8906.36
293.618	8918.68
293.685	8942.65
293.752	8940.29
293.819	8940.2
293.886	8921.71
293.953	8932.4
294.02	8944.87
294.087	8951.37
294.154	8944.48
294.221	8954.74
294.288	8962.78
294.356	8981.31
294.423	8984.77
294.49	8973.61
294.557	8989.06
294.624	8988.43
294.691	9005.28
294.758	9005.19
294.825	9007.93
294.892	8996.67
294.959	8994.45
295.026	9001.14
295.093	8993.78
295.16	8995.7
295.226	8991.99
295.293	9021.07
295.36	9023.29
295.427	9032
295.494	9040.76
295.561	9054.34
295.628	9075.19
295.695	9086.07
295.762	9085.16
295.829	9097.15
295.896	9114.48
295.963	9119.82
296.03	9126.56
296.096	9137.83
296.163	9151.65
296.23	9174.76
296.297	9189.78
296.364	9191.65
296.431	9198.15
296.498	9193.44
296.564	9215.92
296.631	9219.63
296.698	9206.67
296.765	9234.17
296.832	9229.88
296.899	9219.15
296.965	9231.23
297.032	9212.79
297.099	9228.82
297.166	9237.05
297.233	9231.32
297.299	9221.02
297.366	9221.6
297.433	9227.18
297.5	9226.94
297.566	9222.56
297.633	9213.03
297.7	9216.54
297.767	9213.51
297.833	9218.81
297.9	9226.27
297.967	9209.8
298.033	9223.38
298.1	9253.14
298.167	9238.26
298.234	9243.12
298.3	9252.03
298.367	9244.14
298.434	9250.73
298.5	9238.89
298.567	9235.52
298.634	9237.54
298.7	9259.88
298.767	9261.8
298.834	9271.82
298.9	9274.18
298.967	9272.01
299.033	9286.12
299.1	9300.66
299.167	9318.14
299.233	9314.77
299.3	9322.91
299.366	9338.89
299.433	9353.53
299.5	9324.35
299.566	9324.83
299.633	9337.25
299.699	9348.86
299.766	9349.58
299.832	9353.48
299.899	9361.86
299.965	9378.81
300.032	9376.31
300.099	9382.76
300.165	9389.93
300.232	9390.9
300.298	9392.39
300.365	9408.86
300.431	9409.44
300.498	9393.02
300.564	9401.49
300.631	9408.96
300.697	9423.88
300.763	9430.14
300.83	9431.64
300.896	9447.72
300.963	9458.02
301.029	9463.37
301.096	9463.08
301.162	9474.88
301.229	9470.83
301.295	9465.39
301.361	9464.28
301.428	9463.71
301.494	9443.53
301.561	9441.56
301.627	9437.27
301.693	9436.79
301.76	9436.07
301.826	9431.88
301.892	9451.76
301.959	9458.46
302.025	9461.68
302.092	9461.49
302.158	9466.84
302.224	9467.95
302.291	9453.69
302.357	9451.81
302.423	9446.66
302.49	9442.42
302.556	9450.66
302.622	9447.62
302.688	9457.11
302.755	9471.61
302.821	9482.44
302.887	9498.81
302.954	9499.68
303.02	9509.84
303.086	9511.72
303.152	9513.93
303.219	9512.15
303.285	9516.78
303.351	9517.16
303.417	9511.91
303.483	9497.71
303.55	9488.89
303.616	9486.29
303.682	9489.18
303.748	9483.98
303.815	9500.31
303.881	9509.51
303.947	9500.69
304.013	9508.16
304.079	9501.03
304.145	9477.53
304.212	9476.47
304.278	9467.42
304.344	9466.55
304.41	9456.24
304.476	9454.46
304.542	9443.1
304.608	9443.82
304.674	9423.55
304.741	9422.44
304.807	9429.85
304.873	9437.27
304.939	9448.49
305.005	9427.59
305.071	9428.75
305.137	9428.41
305.203	9397.78
305.269	9392.2
305.335	9403.61
305.401	9400.09
305.467	9394.17
305.533	9406.4
305.599	9412.76
305.666	9419.84
305.732	9420.56
305.798	9429.56
305.864	9453.79
305.93	9461.88
305.996	9464.24
306.062	9467.71
306.128	9465.88
306.194	9451.28
306.259	9451.14
306.325	9446.13
306.391	9454.99
306.457	9464.14
306.523	9466.45
306.589	9485.86
306.655	9475.51
306.721	9456.63
306.787	9441.94
306.853	9460
306.919	9443
306.985	9434.91
307.051	9430.39
307.117	9418.59
307.183	9415.07
307.248	9387.43
307.314	9386.95
307.38	9383
307.446	9386.85
307.512	9371.1
307.578	9379.15
307.644	9368.74
307.709	9369.08
307.775	9365.09
307.841	9359.93
307.907	9362.58
307.973	9347.08
308.039	9347.03
308.104	9355.26
308.17	9357.28
308.236	9342.64
308.302	9347.99
308.368	9335.85
308.433	9336.58
308.499	9334.12
308.565	9318.71
308.631	9317.51
308.696	9296.37
308.762	9291.46
308.828	9290.5
308.894	9276.25
308.959	9256.51
309.025	9251.02
309.091	9247.41
309.156	9242.64
309.222	9245.09
309.288	9231.23
309.354	9211.2
309.419	9212.93
309.485	9194.01
309.551	9192.9
309.616	9181.59
309.682	9173.88
309.748	9171.57
309.813	9157.23
309.879	9145.91
309.945	9137.01
310.01	9132.96
310.076	9138.88
310.141	9129.97
310.207	9112.83
310.273	9110.23
310.338	9110.52
310.404	9094.59
310.469	9079.47
310.535	9070.56
310.601	9043.99
310.666	9051.06
310.732	9061.61
310.797	9051.93
310.863	9041.72
310.928	9034.69
310.994	9030.27
311.059	9024.63
311.125	9015.63
311.191	9032.1
311.256	9026.51
311.322	9029.98
311.387	9005.19
311.453	9311.07
311.518	9286.67
311.584	9279.93
311.649	9288.83
311.715	9274.97
311.78	9274.83
311.846	9259.86
311.911	9264.57
311.976	9268.47
312.042	9249.17
312.107	9229.82
312.173	9219.71
312.238	9217.01
312.304	9213.5
312.369	9209.98
312.434	9201.46
312.5	9195.59
312.565	9163.14
312.631	9167.81
312.696	9164.39
312.761	9170.27
312.827	8852.54
312.892	8882.96
312.958	8883.25
313.023	8875.21
313.088	8879.25
313.154	8865.68
313.219	8863.37
313.284	8851.24
313.35	8846.28
313.415	8839.35
313.48	8840.79
313.546	8840.75
313.611	8846.91
313.676	8834.44
313.741	8816.05
313.807	8823.42
313.872	8826.31
313.937	8830.4
314.003	8838
314.068	8834.92
314.133	8836.9
314.198	8823.71
314.264	8807.87
314.329	8804.64
314.394	8804.6
314.459	8795.4
314.525	8815.71
314.59	8810.66
314.655	8795.16
314.72	8798.87
314.785	8794.68
314.851	8791.99
314.916	8774.56
314.981	8757.53
315.046	8752.28
315.111	8747.37
315.176	8733.8
315.242	8729.9
315.307	8722.25
315.372	8702.7
315.437	8690.04
315.502	8680.9
315.567	8692.45
315.632	8679.31
315.698	8671.8
315.763	8663.28
315.828	8655
315.893	8647.3
315.958	8641.82
316.023	8629.21
316.088	8608.85
316.153	8587.77
316.218	8572.14
316.283	8558.37
316.348	8541.58
316.413	8535.66
316.479	8520.07
316.544	8482.5
316.609	8453.67
316.674	8420.72
316.739	8385.74
316.804	8355.24
316.869	8322.76
316.934	8284.74
316.999	8242.89
317.064	8195.26
317.129	8152.73
317.194	8116.51
317.259	8066.91
317.324	8017.8
317.389	7978.51
317.454	7943.44
317.518	7907.9
317.583	7881.88
317.648	7853.55
317.713	7819.21
317.778	7758.09
317.843	7730.24
317.908	7696.06
317.973	7658.46
318.038	7628.07
318.103	7588.94
318.168	7550.09
318.233	7517.4
318.297	7471.1
318.362	7443.02
318.427	7397.08
318.492	7371.98
318.557	7320.76
318.622	7289.46
318.687	7260.44
318.751	7222.24
318.816	7187.73
318.881	7156.3
318.946	7104.83
319.011	7060.72
319.075	7019.45
319.14	6989.04
319.205	6941.76
319.27	6904.73
319.335	6866.92
319.399	6834.3
319.464	6805.67
319.529	6756.83
319.594	6717.4
319.658	6681.66
319.723	6637.24
319.788	6613.28
319.853	6556.75
319.917	6535.06
319.982	6490.25
320.047	6454.44
320.112	6426.98
320.176	6374.22
320.241	6336.87
320.306	6302.46
320.37	6257.39
320.435	6225.14
320.5	6193.56
320.564	6155.6
320.629	6117.17
320.694	6076.48
320.758	6028.11
320.823	5982.63
320.888	5956.44
320.952	5906.51
321.017	5863.1
321.082	5822.57
321.146	5788.51
321.211	5755.23
321.275	5711.21
321.34	5662.64
321.405	5619.2
321.469	5575.18
321.534	5534.15
321.598	5484.97
321.663	5456.25
321.727	5425.77
321.792	5375.49
321.857	5332.31
321.921	5295.21
321.986	5249.42
322.05	5196.68
322.115	5161.7
322.179	5120.6
322.244	5066.91
322.308	5031.9
322.373	4988.42
322.437	4949.68
322.502	4920.69
322.566	4873.33
322.631	4839.05
322.695	4797.07
322.76	4755.28
322.824	4718.14
322.889	4674.5
322.953	4630.43
323.018	4567.63
323.082	4508.26
323.146	4460.05
323.211	4407.48
323.275	4356.82
323.34	4314.35
323.404	4279.07
323.468	4233.25
323.533	4189.21
323.597	4146.53
323.662	4099.82
323.726	4063.68
323.79	4016.07
323.855	3950.56
323.919	3905.73
323.983	3857.51
324.048	3796.54
324.112	3928.05
324.177	3798.08
324.241	3601.6
324.305	3409.56
324.37	3216.76
324.434	3032.65
324.498	2990.54
324.562	2943.37
324.627	2889.95
324.691	2837.97
324.755	2775.8
324.82	2701.2
324.884	2625.61
324.948	2554.51
325.012	2461.12
325.077	2343.82
