Data from 20250630_urea_2M_MAYP1162681_22-12-26-955.txt Node
Date: Mon Jun 30 22:12:26 BST 2025
User: adleo
Spectrometer: MAYP116268
Trigger mode: 0
Integration Time (sec): 1.000000E0
Scans to average: 1
Electric dark correction enabled: true
Nonlinearity correction enabled: true
Boxcar width: 10
XAxis mode: Wavelengths
Number of Pixels in Spectrum: 2068
>>>>>Begin Spectral Data<<<<<
179.565	1136.03
179.642	1186.86
179.718	1223.65
179.795	1257.68
179.871	1288.1
179.948	1302.94
180.024	1321.25
180.101	1339.47
180.177	1355.29
180.254	1376.62
180.33	1397.58
180.407	1445.86
180.483	1534.7
180.56	1617.98
180.636	1696.17
180.712	1685.86
180.789	1694.88
180.865	1704.34
180.942	1710.8
181.018	1718.16
181.095	1731.76
181.171	1734.99
181.248	1735.61
181.324	1750.53
181.4	1757.09
181.477	1767.12
181.553	1781.13
181.63	1800.95
181.706	1817.78
181.782	1821.25
181.859	1819.77
181.935	1825.29
182.011	1820.96
182.088	1839.98
182.164	1856.67
182.24	1868.31
182.317	1876.96
182.393	1875.44
182.469	1888.65
182.546	1900.2
182.622	1903.43
182.698	1896.11
182.775	1909.04
182.851	1921.93
182.927	1916.08
183.003	1912.75
183.08	1908.71
183.156	1918.41
183.232	1917.36
183.308	1908.05
183.385	1916.22
183.461	1933.24
183.537	1933.38
183.613	1946.51
183.69	1934.57
183.766	1925.2
183.842	1932.9
183.918	1938.09
183.995	1952.49
184.071	1954.58
184.147	1952.35
184.223	1944.27
184.299	1958.63
184.375	1947.6
184.452	1954.83
184.528	2007.87
184.604	2016.99
184.68	2025.93
184.756	2029.54
184.832	2034.44
184.908	2037.2
184.985	2038.44
185.061	2022.32
185.137	2031.59
185.213	2019.66
185.289	2020.61
185.365	2015.48
185.441	2015
185.517	2029.08
185.593	2022.85
185.669	2021.57
185.745	2028.46
185.822	2044.43
185.898	2034.87
185.974	2044.62
186.05	2037.67
186.126	2001.05
186.202	1996.15
186.278	1994.11
186.354	1988.16
186.43	1991.92
186.506	1992.78
186.582	1993.39
186.658	2000.62
186.734	1979.42
186.81	1983.31
186.886	1986.79
186.962	1997.1
187.038	1992.78
187.114	1982.07
187.19	1992.58
187.266	1981.5
187.341	1982.17
187.417	1974.47
187.493	1973.85
187.569	1975.13
187.645	1968.81
187.721	1955.4
187.797	1960.72
187.873	1963.34
187.949	1956.16
188.025	1948.36
188.101	1950.02
188.176	1953.26
188.252	1948.41
188.328	1958.15
188.404	1958.62
188.48	1951.64
188.556	1945.93
188.632	1943.32
188.707	1943.84
188.783	1938.42
188.859	1934.33
188.935	1922.21
189.011	1930.76
189.086	1926.77
189.162	1918.02
189.238	1914.36
189.314	1910.61
189.39	1905.95
189.465	1901.14
189.541	1916.03
189.617	1901.29
189.693	1896.92
189.768	1898.63
189.844	1924.55
189.92	1917.71
189.996	1921.18
190.071	1934.78
190.147	1934.44
190.223	1947.71
190.298	1942.2
190.374	1931.59
190.45	1946.09
190.526	1957.79
190.601	1952.13
190.677	1952.89
190.753	1982.44
190.828	1986.86
190.904	2003.07
190.98	2019
191.055	2026.66
191.131	2019.72
191.207	2041.68
191.282	2050.33
191.358	2042.2
191.433	2025.22
191.509	2036.39
191.585	2034.82
191.66	2037.77
191.736	2045.71
191.811	2035.68
191.887	2051.18
191.963	2071.16
192.038	2072.58
192.114	2070.78
192.189	2075.48
192.265	2071.78
192.34	2047.22
192.416	2046.56
192.491	2045.46
192.567	2048.46
192.642	2052.6
192.718	2052.65
192.793	2040.09
192.869	2034.96
192.944	2039.47
193.02	2047.46
193.095	2048.75
193.171	2057.12
193.246	2054.07
193.322	2050.79
193.397	2049.94
193.473	2037.71
193.548	2021.35
193.624	2031.96
193.699	2029.3
193.775	2045.8
193.85	2047.28
193.925	2055.65
194.001	2054.37
194.076	2044.85
194.152	2031.87
194.227	2024.4
194.302	2015.46
194.378	2020.83
194.453	2019.5
194.529	2030.35
194.604	2014.84
194.679	2011.33
194.755	1992.74
194.83	2005.77
194.905	2002.06
194.981	2009.91
195.056	2002.92
195.131	2010.62
195.207	2004.63
195.282	2000.45
195.357	1977.71
195.433	1990.17
195.508	1978.89
195.583	1987.6
195.659	2002.44
195.734	2013.38
195.809	2012.66
195.884	2022.74
195.96	2022.03
196.035	2035.06
196.11	2030.44
196.185	2043.9
196.261	2047.09
196.336	2078.53
196.411	2063.73
196.486	2069.96
196.561	2063.54
196.637	2071.72
196.712	2089.18
196.787	2093.37
196.862	2107.63
196.937	2119.57
197.013	2128.09
197.088	2137.17
197.163	2156.63
197.238	2172.63
197.313	2167.49
197.388	2179.76
197.464	2206.56
197.539	2217.07
197.614	2208.65
197.689	2221.4
197.764	2239.73
197.839	2258.95
197.914	2249.43
197.989	2271.28
198.065	2284.07
198.14	2334.45
198.215	2356.34
198.29	2362.82
198.365	2374.53
198.44	2382.09
198.515	2409.42
198.59	2423.46
198.665	2451.22
198.74	2458.65
198.815	2458.84
198.89	2480.45
198.965	2511.12
199.04	2508.17
199.115	2526.54
199.19	2569.82
199.265	2573.67
199.34	2578.68
199.415	2611.79
199.49	2633.55
199.565	2644.03
199.64	2665.36
199.715	2661.17
199.79	2669.22
199.865	2679.41
199.94	2680.55
200.015	2713.33
200.09	2719.38
200.165	2725.43
200.24	2732.72
200.315	2770.11
200.39	2784.78
200.464	2792.5
200.539	2791.74
200.614	2806.89
200.689	2825.19
200.764	2834.48
200.839	2851.58
200.914	2858.54
200.989	2848.19
201.063	2860.11
201.138	2842.06
201.213	2844.92
201.288	2825.14
201.363	2830.96
201.438	2827.34
201.512	2842.1
201.587	2823.66
201.662	2823.71
201.737	2836.57
201.812	2843.77
201.886	2814.06
201.961	2821.5
202.036	2811.73
202.111	2808.02
202.186	2777.78
202.26	2761.05
202.335	2738.13
202.41	2729.22
202.485	2712.02
202.559	2693.49
202.634	2667.86
202.709	2674.86
202.784	2657.28
202.858	2659
202.933	2645.18
203.008	2640.9
203.082	2621.8
203.157	2623.51
203.232	2583.9
203.306	2559.36
203.381	2529.3
203.456	2507.02
203.53	2487.05
203.605	2466.63
203.68	2443.91
203.754	2439.68
203.829	2425.49
203.904	2403.92
203.978	2393.59
204.053	2397.92
204.127	2384.98
204.202	2383.45
204.277	2369.7
204.351	2363.6
204.426	2357.22
204.5	2346.61
204.575	2314.96
204.65	2323.96
204.724	2313.86
204.799	2323.04
204.873	2324.52
204.948	2322.61
205.022	2311.67
205.097	2302.34
205.171	2315.57
205.246	2327.42
205.32	2328.23
205.395	2328.33
205.469	2321.9
205.544	2328.28
205.618	2312.86
205.693	2322.57
205.767	2313.72
205.842	2330.81
205.916	2324.58
205.991	2314.53
206.065	2319.39
206.14	2329.09
206.214	2322.52
206.289	2316.14
206.363	2325.52
206.438	2327.71
206.512	2333.04
206.586	2348.88
206.661	2355.12
206.735	2335.71
206.81	2336.52
206.884	2349.23
206.958	2338.28
207.033	2351.84
207.107	2355.89
207.181	2386.51
207.256	2381.51
207.33	2398.31
207.405	2413.6
207.479	2429.07
207.553	2436.78
207.628	2417.94
207.702	2432.12
207.776	2426.89
207.851	2429.17
207.925	2444.36
207.999	2440.37
208.073	2440.27
208.148	2442.65
208.222	2434.17
208.296	2467.25
208.371	2481.98
208.445	2492.55
208.519	2518.49
208.593	2530.63
208.668	2527.96
208.742	2528.63
208.816	2529.44
208.89	2544.83
208.965	2543.49
209.039	2552.16
209.113	2569.02
209.187	2592.96
209.261	2589.91
209.336	2606.15
209.41	2623.63
209.484	2625.49
209.558	2646.45
209.632	2658.31
209.707	2672.93
209.781	2693.17
209.855	2706.13
209.929	2720.58
210.003	2728.02
210.077	2730.26
210.151	2779.23
210.226	2814.17
210.3	2841.83
210.374	2866.22
210.448	2869.51
210.522	2876.28
210.596	2886.9
210.67	2896.2
210.744	2941.35
210.818	2972.7
210.892	2997.2
210.966	3000.25
211.041	3018.41
211.115	3016.41
211.189	3038.2
211.263	3056.26
211.337	3062.94
211.411	3079.87
211.485	3079.11
211.559	3093.22
211.633	3098.46
211.707	3072.12
211.781	3085.24
211.855	3058.92
211.929	3058.15
212.003	3047.19
212.077	3066.8
212.151	3088.12
212.225	3109.3
212.299	3108.58
212.373	3109.3
212.447	3119.8
212.52	3162.98
212.594	3182.87
212.668	3212.45
212.742	3220.89
212.816	3236.97
212.89	3260.16
212.964	3286.13
213.038	3315.11
213.112	3356.5
213.186	3401.49
213.26	3419.05
213.333	3411.79
213.407	3454.59
213.481	3499.87
213.555	3560.66
213.629	3598.5
213.703	3631.36
213.777	3681.29
213.85	3720.23
213.924	3811.94
213.998	3872.45
214.072	3923
214.146	3971.42
214.219	4037.49
214.293	4108.28
214.367	4184.61
214.441	4270.6
214.515	4340.47
214.588	4404.57
214.662	4459.69
214.736	4532.13
214.81	4632.39
214.883	4735.73
214.957	4827.2
215.031	4920.49
215.105	5003.84
215.178	5100.62
215.252	5206.83
215.326	5298.02
215.4	5393.32
215.473	5465.01
215.547	5566.2
215.621	5680.9
215.694	5812.04
215.768	5922.62
215.842	6040.36
215.915	6158.19
215.989	6266.34
216.063	6389.88
216.136	6528.79
216.21	6669.56
216.284	6823.75
216.357	6964.89
216.431	7112.01
216.504	7262.99
216.578	7436.34
216.652	7594.84
216.725	7741.88
216.799	7900
216.873	8055.68
216.946	8222.13
217.02	8378.69
217.093	8533.86
217.167	8670.63
217.24	8813
217.314	8963.01
217.387	9117.95
217.461	9271.33
217.535	9450.2
217.608	9593.54
217.682	9756.76
217.755	9925.51
217.829	10069.2
217.902	10232.83
217.976	10388.34
218.049	10544.29
218.123	10681.47
218.196	10843.6
218.27	11004.01
218.343	11147.04
218.417	11312.47
218.49	11471.8
218.563	11639.95
218.637	11797.98
218.71	11974.48
218.784	12131.46
218.857	12300.3
218.931	12453.53
219.004	12609.56
219.077	12758.12
219.151	12922.15
219.224	13063.2
219.298	13209.02
219.371	13363.27
219.444	13497.24
219.518	13646.14
219.591	13790.37
219.665	13958.46
219.738	14093.73
219.811	14221.04
219.885	14369.75
219.958	14499.37
220.031	14625.86
220.105	14756.3
220.178	14889.63
220.251	15011
220.325	15150.94
220.398	15272.89
220.471	15405.01
220.544	15541.32
220.618	15654.59
220.691	15775.62
220.764	15900.08
220.838	16021.3
220.911	16140.93
220.984	16273.71
221.057	16387.07
221.131	16492.58
221.204	16566.46
221.277	16692.69
221.35	16827.25
221.424	16924.61
221.497	17031.02
221.57	17130.26
221.643	17236.43
221.716	17345.63
221.79	17433.35
221.863	17524.72
221.936	17619.32
222.009	17697.2
222.082	17780.24
222.155	17866.26
222.229	17962.84
222.302	18047.03
222.375	18122.69
222.448	18212.08
222.521	18286.68
222.594	18361.37
222.667	18436.31
222.74	18524.89
222.814	18595.05
222.887	18655
222.96	18737.65
223.033	18818.99
223.106	18888.43
223.179	18960.19
223.252	19016.76
223.325	19086.44
223.398	19146.49
223.471	19203.16
223.544	19273.23
223.617	19337.66
223.69	19397.7
223.763	19451.24
223.837	19509.7
223.91	19571.48
223.983	19603.57
224.056	19644.24
224.129	19696
224.202	19754.12
224.275	19799.27
224.348	19831.7
224.42	19871.9
224.493	19895.8
224.566	19931.65
224.639	19983.31
224.712	20017.34
224.785	20061.72
224.858	20108.66
224.931	20156.37
225.004	20193.62
225.077	20240.51
225.15	20245.43
225.223	20280.94
225.296	20335.11
225.369	20359.11
225.442	20385.28
225.514	20417.04
225.587	20460.13
225.66	20501.52
225.733	20537.09
225.806	20576.75
225.879	20608.56
225.952	20619.36
226.025	20677.62
226.097	20716.52
226.17	20743.02
226.243	20755.55
226.316	20779.51
226.389	20796.95
226.461	20816.04
226.534	20847.75
226.607	20857.73
226.68	20903.85
226.753	20932.48
226.825	20934.45
226.898	20969.59
226.971	20996.62
227.044	21029.45
227.117	21047.33
227.189	21074.75
227.262	21106.42
227.335	21136.44
227.407	21155.53
227.48	21199.24
227.553	21212.93
227.626	21221.66
227.698	21239.44
227.771	21266.86
227.844	21275.92
227.916	21302.39
227.989	21304.51
228.062	21312.75
228.134	21354.15
228.207	21374.01
228.28	21390.35
228.352	21406.35
228.425	21415.12
228.498	21437.73
228.57	21438.4
228.643	21463.08
228.716	21469.2
228.788	21474.65
228.861	21466.79
228.934	21484
229.006	21486.26
229.079	21497.2
229.151	21497.93
229.224	21490.94
229.296	21493.4
229.369	21534.46
229.442	21549.26
229.514	21558.71
229.587	21582.62
229.659	21570.33
229.732	21577.41
229.804	21582.18
229.877	21602.23
229.949	21624.94
230.022	21646.87
230.094	21664.7
230.167	21671.5
230.239	21663.6
230.312	21666.2
230.384	21701.97
230.457	21712.14
230.529	21708.57
230.602	21712.67
230.674	21724.86
230.747	21749.97
230.819	21775.28
230.892	21747.32
230.964	21751.22
231.037	21765.06
231.109	21765.73
231.181	21776.82
231.254	21770.46
231.326	21764.38
231.399	21764.24
231.471	21754.79
231.544	21730.45
231.616	21739.56
231.688	21741.05
231.761	21729.73
231.833	21716.9
231.905	21687.5
231.978	21684.37
232.05	21694.15
232.122	21692.99
232.195	21683.31
232.267	21691.69
232.339	21675.26
232.412	21683.35
232.484	21673.96
232.556	21657.52
232.629	21676.9
232.701	21689.82
232.773	21691.26
232.846	21683.12
232.918	21676.56
232.99	21673.28
233.062	21672.85
233.135	21664.75
233.207	21645.76
233.279	21659.4
233.351	21660.94
233.424	21648.8
233.496	21639.3
233.568	21648.65
233.64	21620.55
233.713	21611.54
233.785	21587.2
233.857	21585.22
233.929	21556.78
234.001	21563.96
234.074	21570.42
234.146	21526.42
234.218	21500.1
234.29	21477.35
234.362	21462.74
234.434	21432.19
234.507	21402.64
234.579	21376.18
234.651	21347.69
234.723	21329.09
234.795	21310.82
234.867	21295.64
234.939	21297.9
235.012	21277.61
235.084	21247.87
235.156	21236.98
235.228	21217.03
235.3	21203.29
235.372	21183.1
235.444	21174.23
235.516	21123.67
235.588	21100.58
235.66	21083.47
235.732	21043.28
235.804	21075.38
235.876	21050.6
235.948	21038.51
236.02	21018.84
236.092	20993.25
236.164	20974.12
236.236	20949.93
236.308	20923.23
236.38	20891.9
236.452	20856.28
236.524	20832.28
236.596	20824.47
236.668	20809.05
236.74	20781.87
236.812	20758.64
236.884	20740.13
236.956	20723.65
237.028	20694.01
237.1	20656.95
237.172	20650.49
237.244	20652.56
237.316	20596.22
237.388	20576.94
237.46	20547.21
237.532	20530.58
237.604	20500.46
237.675	20488.99
237.747	20467.84
237.819	20430.25
237.891	20410.87
237.963	20380.51
238.035	20339.69
238.107	20283.16
238.178	20262.78
238.25	20236.66
238.322	20236.71
238.394	20186.15
238.466	20146.39
238.538	20135.65
238.609	20113.53
238.681	20060.71
238.753	20015.55
238.825	19982.83
238.897	19956.66
238.968	19937.77
239.04	19896.18
239.112	19891.32
239.184	19856.04
239.255	19826.5
239.327	19797.54
239.399	19763.76
239.471	19736.09
239.542	19718.6
239.614	19694.99
239.686	19641.02
239.758	19625.79
239.829	19566.85
239.901	19550.8
239.973	19519.33
240.044	19485.31
240.116	19449.17
240.188	19409.94
240.259	19379.2
240.331	19344.69
240.403	19312.98
240.474	19265.37
240.546	19231.35
240.618	19179.59
240.689	19134.39
240.761	19091.55
240.833	19087.65
240.904	19055.89
240.976	19021.29
241.048	18994.5
241.119	18971.42
241.191	18947.95
241.262	18918.21
241.334	18887.28
241.405	18849.45
241.477	18804.2
241.549	18762.95
241.62	18733.41
241.692	18713.46
241.763	18696.25
241.835	18658.81
241.906	18631.58
241.978	18584.64
242.049	18562.72
242.121	18534.53
242.192	18517.47
242.264	18481.85
242.335	18416.89
242.407	18388.22
242.478	18350.44
242.55	18312.18
242.621	18271.55
242.693	18223.41
242.764	18183.03
242.836	18148.91
242.907	18124.43
242.979	18102.16
243.05	18065.25
243.122	18043.51
243.193	18005.83
243.264	17946.36
243.336	17903.9
243.407	17874.07
243.479	17862.8
243.55	17818.56
243.622	17788.58
243.693	17751.19
243.764	17738.08
243.836	17699.04
243.907	17657.21
243.978	17615.57
244.05	17591.72
244.121	17544.54
244.192	17525.5
244.264	17472.2
244.335	17434.56
244.407	17384.2
244.478	17351.09
244.549	17321.26
244.62	17259.28
244.692	17227.19
244.763	17206.32
244.834	17174.03
244.906	17128.82
244.977	17096.29
245.048	17083.52
245.119	17046.12
245.191	17002.46
245.262	16948.87
245.333	16936.58
245.405	16905.73
245.476	16881.01
245.547	16854.84
245.618	16828.48
245.689	16804.86
245.761	16788.62
245.832	16754.98
245.903	16727.7
245.974	16698.88
246.045	16663.45
246.117	16653.57
246.188	16606.92
246.259	16563.64
246.33	16528.79
246.401	16498.62
246.473	16448.79
246.544	16406.37
246.615	16378.47
246.686	16340.63
246.757	16322.03
246.828	16271.85
246.899	16257.97
246.97	16205.82
247.042	16153.05
247.113	16134.83
247.184	16113.38
247.255	16071.54
247.326	16045.37
247.397	16012.45
247.468	15982.76
247.539	15951.29
247.61	15910.51
247.681	15890.12
247.752	15874.89
247.823	15834.5
247.894	15808.09
247.965	15769.77
248.037	15737.23
248.108	15696.12
248.179	15667.1
248.25	15628.59
248.321	15610.51
248.392	15566.8
248.463	15567.86
248.534	15540.14
248.605	15513
248.675	15471.94
248.746	15446.68
248.817	15418
248.888	15406.91
248.959	15356.74
249.03	15330.76
249.101	15304.2
249.172	15273.25
249.243	15218.73
249.314	15209.91
249.385	15180.75
249.456	15158.24
249.527	15128.79
249.598	15098.56
249.669	15072.1
249.739	15050.21
249.81	15023.12
249.881	14980.56
249.952	14947.88
250.023	14915.25
250.094	14866.95
250.165	14834.79
250.235	14808.81
250.306	14788.76
250.377	14731.4
250.448	14714
250.519	14667.91
250.59	14648.63
250.66	14616.86
250.731	14600.67
250.802	14568.56
250.873	14539.25
250.944	14517.22
251.014	14480.88
251.085	14492.25
251.156	14466.75
251.227	14447.09
251.297	14429.3
251.368	14410.16
251.439	14386.59
251.51	14371.74
251.58	14337.27
251.651	14300.44
251.722	14277.88
251.792	14225.87
251.863	14200.85
251.934	14186.29
252.005	14188.08
252.075	14163.35
252.146	14143.78
252.217	14132.98
252.287	14117.94
252.358	14088.63
252.429	14080.82
252.499	14054.55
252.57	14022.15
252.641	14002.44
252.711	13979.15
252.782	13942.08
252.852	13932.25
252.923	13910.12
252.994	13888.67
253.064	13876.43
253.135	13845.48
253.205	13813.52
253.276	13804.94
253.347	13791.49
253.417	13765.79
253.488	13739.37
253.558	13707.03
253.629	13685.72
253.699	13670.2
253.77	13652.41
253.841	13628.02
253.911	13601.84
253.982	13580.39
254.052	13552.62
254.123	13542.4
254.193	13515.5
254.264	13536.81
254.334	13500.8
254.405	13466.62
254.475	13432.49
254.546	13412.24
254.616	13405.83
254.687	13393.01
254.757	13371.61
254.827	13353.72
254.898	13333.86
254.968	13308.02
255.039	13277.27
255.109	13266.66
255.18	13228.72
255.25	13185.48
255.321	13172.56
255.391	13137.08
255.461	13133.27
255.532	13094.95
255.602	13058.94
255.673	13018.93
255.743	12976.41
255.813	12936.64
255.884	12924.59
255.954	12920.01
256.024	12913.07
256.095	12892.53
256.165	12853.87
256.235	12839.36
256.306	12812.8
256.376	12796.36
256.446	12787.01
256.517	12771.39
256.587	12753.7
256.657	12736.64
256.728	12722.17
256.798	12697.93
256.868	12677.05
256.938	12650.11
257.009	12634.58
257.079	12625.23
257.149	12630.49
257.219	12589.47
257.29	12579.05
257.36	12546.47
257.43	12529.26
257.5	12482.79
257.571	12455.89
257.641	12448.47
257.711	12415.45
257.781	12397.52
257.852	12383.15
257.922	12339.62
257.992	12323.76
258.062	12296.53
258.132	12283.08
258.202	12255.27
258.273	12236.13
258.343	12235.41
258.413	12205.18
258.483	12189.47
258.553	12155.97
258.623	12124.93
258.693	12114.08
258.764	12110.13
258.834	12101.21
258.904	12076.48
258.974	12055.03
259.044	12031.75
259.114	12019.51
259.184	12000.76
259.254	11979.7
259.324	11941.42
259.394	11932.8
259.464	11930.29
259.535	11911.73
259.605	11883.44
259.675	11856.93
259.745	11843.91
259.815	11810.85
259.885	11792.1
259.955	11794.85
260.025	11771.95
260.095	11758.12
260.165	11741.54
260.235	11734.55
260.305	11712.28
260.375	11683.07
260.445	11686.88
260.515	11684.76
260.585	11674.16
260.655	11662.25
260.725	11658.73
260.795	11646.01
260.865	11643.26
260.934	11619.84
261.004	11610.34
261.074	11594.15
261.144	11593.38
261.214	11585.62
261.284	11566.87
261.354	11555.3
261.424	11528.45
261.494	11530
261.564	11506.43
261.634	11501.42
261.703	11465.07
261.773	11445.27
261.843	11433.03
261.913	11409.51
261.983	11380.06
262.053	11363.48
262.123	11337.79
262.192	11300.25
262.262	11290.9
262.332	11258.66
262.402	11243.38
262.472	11222.51
262.541	11188.2
262.611	11177.79
262.681	11150.42
262.751	11140.2
262.821	11123
262.89	11096.87
262.96	11079.77
263.03	11085.65
263.1	11071.62
263.169	11058.32
263.239	11049.16
263.309	11052.1
263.379	11047.81
263.448	11027.29
263.518	11015.87
263.588	11002.23
263.657	11000.25
263.727	10996.88
263.797	10982.33
263.867	10963.19
263.936	10939.58
264.006	10938.67
264.076	10923.49
264.145	10900.5
264.215	10878.91
264.285	10866.92
264.354	10833.76
264.424	10810.68
264.494	10779.12
264.563	10750.35
264.633	10757
264.702	10745.05
264.772	10710.16
264.842	10689.15
264.911	10688.33
264.981	10655.08
265.05	10645.35
265.12	10634.27
265.19	10616.05
265.259	10617.98
265.329	10608.73
265.398	10590.76
265.468	10602.47
265.537	10584.93
265.607	10581.99
265.676	10575.87
265.746	10567.92
265.815	10567.73
265.885	10553.61
265.955	10530.05
266.024	10509.81
266.094	10470.06
266.163	10465.87
266.232	10463.8
266.302	10444.63
266.371	10429.5
266.441	10416.58
266.51	10406.61
266.58	10383.58
266.649	10363.35
266.719	10351.11
266.788	10340.41
266.858	10343.83
266.927	10300.86
266.996	10283.56
267.066	10268.87
267.135	10244.59
267.205	10235.19
267.274	10221.27
267.343	10219.49
267.413	10200.41
267.482	10209.9
267.552	10212.02
267.621	10179.6
267.69	10148.87
267.76	10137.35
267.829	10123.38
267.898	10116.54
267.968	10090.82
268.037	10083.54
268.106	10075.74
268.176	10043.95
268.245	10026.12
268.314	10004.39
268.384	10006.13
268.453	9995.44
268.522	9986.14
268.592	9988.84
268.661	9966.77
268.73	9951.99
268.799	9928.48
268.869	9931.32
268.938	9892.25
269.007	9870.34
269.076	9871.01
269.146	9867.74
269.215	9861.81
269.284	9864.99
269.353	9842.06
269.422	9830.41
269.492	9818.46
269.561	9775.02
269.63	9773.48
269.699	9758.64
269.768	9749.64
269.838	9742.46
269.907	9741.35
269.976	9721.51
270.045	9687.84
270.114	9688.57
270.183	9679.85
270.253	9675.52
270.322	9652.45
270.391	9645.46
270.46	9648.21
270.529	9638.53
270.598	9636.55
270.667	9622.11
270.736	9601.88
270.806	9600.53
270.875	9604.23
270.944	9586.8
271.013	9612.08
271.082	9603.03
271.151	9597.59
271.22	9572.74
271.289	9556.56
271.358	9542.35
271.427	9537.2
271.496	9527.38
271.565	9507.2
271.634	9498.38
271.703	9499.06
271.772	9498.91
271.841	9484.81
271.91	9460.05
271.979	9451.05
272.048	9425.52
272.117	9421.82
272.186	9409.05
272.255	9411.08
272.324	9403.81
272.393	9398.7
272.462	9378.28
272.531	9367.3
272.6	9359.69
272.669	9362.73
272.738	9350.59
272.807	9344.53
272.876	9322.71
272.945	9347.51
273.013	9353.15
273.082	9351.7
273.151	9331.81
273.22	9331.28
273.289	9327.77
273.358	9335.71
273.427	9322.95
273.496	9325.89
273.564	9322.38
273.633	9317.61
273.702	9300.71
273.771	9289.78
273.84	9284.14
273.909	9279.57
273.977	9273.26
274.046	9252.51
274.115	9256.75
274.184	9245.34
274.253	9233.68
274.322	9236.67
274.39	9208.16
274.459	9193.62
274.528	9166.61
274.597	9159.49
274.665	9155.15
274.734	9162.28
274.803	9150.34
274.872	9144.99
274.94	9130.21
275.009	9188.5
275.078	9179.25
275.147	9170.15
275.215	9168.37
275.284	9170.44
275.353	9163.08
275.421	9147.24
275.49	9165.58
275.559	9153.02
275.627	9147.34
275.696	9142.67
275.765	9149.16
275.833	9144.11
275.902	9138.43
275.971	9145.84
276.039	9157.3
276.108	9156.1
276.177	9156.39
276.245	9143.87
276.314	9138.53
276.383	9142.18
276.451	9072.44
276.52	9069.65
276.588	9074.75
276.657	9069.7
276.725	9067.43
276.794	9068.16
276.863	9076.82
276.931	9058.53
277	9063.58
277.068	9064.64
277.137	9075.28
277.205	9067.72
277.274	9078.17
277.342	9087.07
277.411	9070.37
277.48	9054.34
277.548	9047.02
277.617	9038.55
277.685	9035.47
277.754	9037.3
277.822	9030.36
277.89	9042.35
277.959	9037.68
278.027	9023.96
278.096	9015.2
278.164	9030.95
278.233	9020.64
278.301	9006.59
278.37	9003.22
278.438	8987.09
278.507	8995.42
278.575	8978.33
278.643	8971.2
278.712	8953.63
278.78	8942.85
278.849	8955.56
278.917	8962.92
278.985	8954.4
279.054	8953.92
279.122	8963.5
279.191	8958.25
279.259	8951.42
279.327	8929.75
279.396	8945.11
279.464	8937.89
279.532	8944.63
279.601	8943.81
279.669	8941.55
279.737	8954.45
279.806	8957.67
279.874	8965.67
279.942	8961.91
280.011	8953.49
280.079	8960.08
280.147	8973.9
280.215	8970.67
280.284	8965.33
280.352	8951.46
280.42	8953.97
280.488	8948.91
280.557	8940.05
280.625	8945.45
280.693	8943.86
280.761	8945.74
280.83	8923.45
280.898	8930.43
280.966	8913.24
281.034	8875.02
281.102	8859.76
281.171	8855.91
281.239	8864.62
281.307	8855.81
281.375	8837.62
281.443	8861.59
281.512	8855.62
281.58	8860.01
281.648	8849.99
281.716	8850.57
281.784	8855.48
281.852	8850.28
281.92	8844.84
281.989	8847.97
282.057	8832.57
282.125	8884.38
282.193	8885
282.261	8887.31
282.329	8884.14
282.397	8890.44
282.465	8897.08
282.533	8914.12
282.601	8903.77
282.67	8884.13
282.738	8877.3
282.806	8889.28
282.874	8876.09
282.942	8883.84
283.01	8873.54
283.078	8878.93
283.146	8865.74
283.214	8865.11
283.282	8868.92
283.35	8879.65
283.418	8876.43
283.486	8882.92
283.554	8839.25
283.622	8836.32
283.69	8832.95
283.758	8831.94
283.826	8835.06
283.894	8845.41
283.962	8856.87
284.03	8866.26
284.098	8862.02
284.165	8859.9
284.233	8856.68
284.301	8848.45
284.369	8834.25
284.437	8826.16
284.505	8819.23
284.573	8838.14
284.641	8831.41
284.709	8839.11
284.777	8826.3
284.845	8835.02
284.912	8834.01
284.98	8834.82
285.048	8828.37
285.116	8829.43
285.184	8840.41
285.252	8841.71
285.319	8821.01
285.387	8815.23
285.455	8799.98
285.523	8807.87
285.591	8807.2
285.659	8806.14
285.726	8815.76
285.794	8803.83
285.862	8803.25
285.93	8798.25
285.997	8794.97
286.065	8785.88
286.133	8775.53
286.201	8770.86
286.269	8753.29
286.336	8745.73
286.404	8734.81
286.472	8741.5
286.539	8728.93
286.607	8713.53
286.675	8709.49
286.743	8723.01
286.81	8713.91
286.878	8729.51
286.946	8722.19
287.013	8719.07
287.081	8721.28
287.149	8704.62
287.216	8718.73
287.284	8716.71
287.352	8722.05
287.419	8721.08
287.487	8737.88
287.555	8740.77
287.622	8735.48
287.69	8741.54
287.758	8752.32
287.825	8748.71
287.893	8737.93
287.96	8737.5
288.028	8749.34
288.096	8752.56
288.163	8750.35
288.231	8738.99
288.298	8732.21
288.366	8749.77
288.433	8738.61
288.501	8733.12
288.569	8739.19
288.636	8735.96
288.704	8743.18
288.771	8750.79
288.839	8738.52
288.906	8728.55
288.974	8738.42
289.041	8735.77
289.109	8725.38
289.176	8729.95
289.244	8737.65
289.311	8750.26
289.379	8759.36
289.446	8758.06
289.514	8758.83
289.581	8765.71
289.649	8768.98
289.716	8768.6
289.783	8751.32
289.851	8784.62
289.918	8781.3
289.986	8786.4
290.053	8795.94
290.121	8795.94
290.188	8793.19
290.255	8820.92
290.323	8813.02
290.39	8806.24
290.458	8814.23
290.525	8824.62
290.592	8822.07
290.66	8820.39
290.727	8810.76
290.794	8825.54
290.862	8819.04
290.929	8816.05
290.996	8811.24
291.064	8822.36
291.131	8835.84
291.198	8854.75
291.266	8849.41
291.333	8859.04
291.4	8864.77
291.468	8876.22
291.535	8875.41
291.602	8883.16
291.669	8878.77
291.737	8889.8
291.804	8887.49
291.871	8901.59
291.938	8909.77
292.006	8933.36
292.073	8947.03
292.14	8960.22
292.207	8953.2
292.275	8962.15
292.342	8977.75
292.409	9003.31
292.476	9028.39
292.543	9021.27
292.611	9015.01
292.678	9026.9
292.745	9046.78
292.812	9056.85
292.879	9054.97
292.946	9063.3
293.014	9072.3
293.081	9075.43
293.148	9093.72
293.215	9111.2
293.282	9106.34
293.349	9125.26
293.416	9107.25
293.484	9121.69
293.551	9129.11
293.618	9144.08
293.685	9170.75
293.752	9164.4
293.819	9153.61
293.886	9144.8
293.953	9153.37
294.02	9171.38
294.087	9178.7
294.154	9168.01
294.221	9180.1
294.288	9178.41
294.356	9195.74
294.423	9205.23
294.49	9201.81
294.557	9211.3
294.624	9201.23
294.691	9223.62
294.758	9221.16
294.825	9228.92
294.892	9221.89
294.959	9222.51
295.026	9234.55
295.093	9221.12
295.16	9223.33
295.226	9229.2
295.293	9246.92
295.36	9247.26
295.427	9252.7
295.494	9262.33
295.561	9274.23
295.628	9302.69
295.695	9321.18
295.762	9318.39
295.829	9328.98
295.896	9342.9
295.963	9346.85
296.03	9356.33
296.096	9358.88
296.163	9366.01
296.23	9378.77
296.297	9391.58
296.364	9393.74
296.431	9397.21
296.498	9394.42
296.564	9413.73
296.631	9418.11
296.698	9406.12
296.765	9432.89
296.832	9427.74
296.899	9412.04
296.965	9430.15
297.032	9407.75
297.099	9425.62
297.166	9433.61
297.233	9430.72
297.299	9422.1
297.366	9420.9
297.433	9424.95
297.5	9430.77
297.566	9430.39
297.633	9433.28
297.7	9433.23
297.767	9432.65
297.833	9441.61
297.9	9452.92
297.967	9441.27
298.033	9458.94
298.1	9485.96
298.167	9471.08
298.234	9473.73
298.3	9491.59
298.367	9481.34
298.434	9487.55
298.5	9475.65
298.567	9470.07
298.634	9466.74
298.7	9488.85
298.767	9495.06
298.834	9510.81
298.9	9507.97
298.967	9505.41
299.033	9511.91
299.1	9523.28
299.167	9543.7
299.233	9538.21
299.3	9546.97
299.366	9562.43
299.433	9569.99
299.5	9547.6
299.566	9555.59
299.633	9570.62
299.699	9578.56
299.766	9581.4
299.832	9584
299.899	9592.1
299.965	9606.49
300.032	9607.26
300.099	9610.2
300.165	9612.8
300.232	9602.55
300.298	9604.38
300.365	9622.68
300.431	9625.42
300.498	9620.75
300.564	9625.52
300.631	9629.95
300.697	9642.71
300.763	9643.34
300.83	9641.07
300.896	9654.13
300.963	9665.44
301.029	9673.73
301.096	9681.29
301.162	9691.69
301.229	9692.9
301.295	9683.22
301.361	9689.04
301.428	9689.81
301.494	9674.5
301.561	9679.22
301.627	9687.12
301.693	9692.42
301.76	9684.76
301.826	9685.09
301.892	9696.75
301.959	9703.64
302.025	9702.92
302.092	9693.67
302.158	9697.47
302.224	9704.89
302.291	9697.47
302.357	9689.53
302.423	9678.64
302.49	9667.08
302.556	9678.74
302.622	9672.91
302.688	9679.85
302.755	9687.55
302.821	9692.18
302.887	9704.5
302.954	9701.18
303.02	9702.72
303.086	9707.15
303.152	9703.88
303.219	9695.35
303.285	9697.62
303.351	9699.21
303.417	9698.44
303.483	9698.34
303.55	9692.7
303.616	9693.33
303.682	9692.46
303.748	9685.53
303.815	9700.85
303.881	9705.23
303.947	9692.42
304.013	9693.67
304.079	9690.01
304.145	9678.5
304.212	9683.12
304.278	9677.39
304.344	9672.57
304.41	9662.17
304.476	9652.83
304.542	9653.07
304.608	9658.51
304.674	9642.91
304.741	9635.58
304.807	9640.45
304.873	9643.48
304.939	9657.16
305.005	9629.13
305.071	9621.91
305.137	9621.91
305.203	9598.93
305.269	9603.17
305.335	9611.41
305.401	9602.64
305.467	9602.11
305.533	9602.31
305.599	9608.33
305.666	9611.41
305.732	9607.46
305.798	9620.22
305.864	9642.23
305.93	9649.26
305.996	9647.34
306.062	9653.7
306.128	9649.46
306.194	9638.48
306.259	9633.27
306.325	9622.05
306.391	9637.22
306.457	9647.82
306.523	9653.79
306.589	9674.31
306.655	9658.8
306.721	9636.31
306.787	9628.55
306.853	9635.59
306.919	9620.71
306.985	9610.11
307.051	9610.54
307.117	9612.71
307.183	9609.19
307.248	9584.87
307.314	9587.47
307.38	9581.89
307.446	9587.42
307.512	9579.72
307.578	9585.02
307.644	9582.95
307.709	9582.08
307.775	9580.92
307.841	9576.11
307.907	9580.92
307.973	9557.76
308.039	9561.71
308.104	9572.64
308.17	9582.37
308.236	9569.65
308.302	9568.74
308.368	9549.91
308.433	9547.11
308.499	9537.24
308.565	9517.69
308.631	9516.73
308.696	9496.6
308.762	9489.9
308.828	9478.06
308.894	9461.73
308.959	9437.08
309.025	9423.26
309.091	9418.25
309.156	9405.3
309.222	9407.03
309.288	9388.97
309.354	9373.03
309.419	9366.19
309.485	9349.2
309.551	9336.77
309.616	9320.98
309.682	9316.64
309.748	9318.04
309.813	9305.67
309.879	9296.42
309.945	9292.57
310.01	9284.09
310.076	9278.22
310.141	9274.27
310.207	9259.25
310.273	9259.39
310.338	9264.3
310.404	9249.62
310.469	9233.15
310.535	9219.91
310.601	9203.1
310.666	9209.8
310.732	9216.06
310.797	9206.23
310.863	9199.25
310.928	9199.2
310.994	9204.55
311.059	9202.62
311.125	9198.96
311.191	9213.7
311.256	9203.16
311.322	9210.14
311.387	9194.92
311.453	9503.32
311.518	9476.07
311.584	9473.18
311.649	9478.24
311.715	9466.2
311.78	9467.7
311.846	9466.25
311.911	9470.39
311.976	9465.91
312.042	9440.83
312.107	9425.13
312.173	9416.76
312.238	9404.63
312.304	9397.74
312.369	9382.86
312.434	9376.17
312.5	9366.88
312.565	9332.94
312.631	9338.76
312.696	9327.3
312.761	9329.03
312.827	9015.34
312.892	9053.23
312.958	9049
313.023	9037.73
313.088	9037.87
313.154	9027.38
313.219	9009.38
313.284	9004.27
313.35	8998.26
313.415	8995.13
313.48	8993.97
313.546	9001.1
313.611	9011.16
313.676	9006.1
313.741	8998.69
313.807	9000.13
313.872	9005
313.937	9014.62
314.003	9026.52
314.068	9021.7
314.133	9020.79
314.198	9005.82
314.264	8983.86
314.329	8975.82
314.394	8978.32
314.459	8974.67
314.525	8981.98
314.59	8983.04
314.655	8968.12
314.72	8976.45
314.785	8975
314.851	8970.33
314.916	8945.3
314.981	8929.8
315.046	8919.79
315.111	8912.33
315.176	8897.98
315.242	8896.15
315.307	8887.97
315.372	8862.74
315.437	8855.86
315.502	8853.02
315.567	8859.61
315.632	8845.99
315.698	8846.04
315.763	8838.53
315.828	8828.81
315.893	8831.69
315.958	8824.48
316.023	8819.71
316.088	8791.94
316.153	8770.86
316.218	8761.04
316.283	8744.2
316.348	8729.23
316.413	8723.65
316.479	8710.46
316.544	8680.62
316.609	8649.15
316.674	8614.64
316.739	8579.81
316.804	8555.99
316.869	8514.31
316.934	8478.7
316.999	8450.94
317.064	8399.36
317.129	8351.1
317.194	8308.04
317.259	8256.65
317.324	8212.15
317.389	8162.07
317.454	8124.07
317.518	8091.07
317.583	8061.87
317.648	8036.42
317.713	8000.06
317.778	7940.07
317.843	7907.46
317.908	7867.74
317.973	7828.35
318.038	7796.85
318.103	7754.64
318.168	7712.17
318.233	7682.79
318.297	7637.4
318.362	7593.45
318.427	7559.03
318.492	7539.8
318.557	7495.48
318.622	7466.78
318.687	7444.81
318.751	7404.78
318.816	7367.09
318.881	7329.8
318.946	7272.84
319.011	7227.61
319.075	7183.69
319.14	7146.26
319.205	7096.28
319.27	7061.55
319.335	7018.3
319.399	6978.52
319.464	6954.4
319.529	6900.12
319.594	6860.06
319.658	6826.91
319.723	6783.1
319.788	6752.13
319.853	6689.25
319.917	6660.01
319.982	6607.22
320.047	6563.42
320.112	6537.3
320.176	6488.38
320.241	6453.67
320.306	6419.87
320.37	6379.21
320.435	6349.69
320.5	6325.25
320.564	6289.06
320.629	6251.1
320.694	6215.82
320.758	6176.71
320.823	6129.3
320.888	6103.35
320.952	6051.43
321.017	6005.23
321.082	5967.81
321.146	5927.9
321.211	5893.17
321.275	5849.48
321.34	5804.17
321.405	5759.61
321.469	5710.46
321.534	5675.8
321.598	5624.4
321.663	5598.59
321.727	5567.72
321.792	5514.6
321.857	5464.45
321.921	5424.23
321.986	5373.49
322.05	5312.97
322.115	5268.16
322.179	5226.91
322.244	5172.16
322.308	5137.09
322.373	5095.56
322.437	5053.7
322.502	5031.94
322.566	4987.97
322.631	4954.93
322.695	4915.58
322.76	4872.44
322.824	4838.3
322.889	4790.29
322.953	4745.59
323.018	4679.81
323.082	4613.44
323.146	4564.54
323.211	4515.69
323.275	4468.51
323.34	4427.9
323.404	4394.67
323.468	4351.61
323.533	4305.46
323.597	4259.29
323.662	4210.37
323.726	4172.78
323.79	4122.73
323.855	4051.94
323.919	4003.71
323.983	3959.06
324.048	3892.38
324.112	4028.73
324.177	3896.68
324.241	3696.18
324.305	3497.93
324.37	3301.39
324.434	3113.65
324.498	3071.25
324.562	3019.15
324.627	2960.7
324.691	2904.7
324.755	2842.02
324.82	2765.83
324.884	2692.09
324.948	2621.66
325.012	2530.21
325.077	2405.64
