Data from 20250630_urea_2M_MAYP1162681_23-52-27-478.txt Node
Date: Mon Jun 30 23:52:27 BST 2025
User: adleo
Spectrometer: MAYP116268
Trigger mode: 0
Integration Time (sec): 1.000000E0
Scans to average: 1
Electric dark correction enabled: true
Nonlinearity correction enabled: true
Boxcar width: 10
XAxis mode: Wavelengths
Number of Pixels in Spectrum: 2068
>>>>>Begin Spectral Data<<<<<
179.565	1097.63
179.642	1148.7
179.718	1188.31
179.795	1225.97
179.871	1254.48
179.948	1272.26
180.024	1291.59
180.101	1314.42
180.177	1325.55
180.254	1346.95
180.33	1368.78
180.407	1416.86
180.483	1503.33
180.56	1585.42
180.636	1663.66
180.712	1649.78
180.789	1660.56
180.865	1671.3
180.942	1681.51
181.018	1689.63
181.095	1703.23
181.171	1707.69
181.248	1707.36
181.324	1721.38
181.4	1724.52
181.477	1734.54
181.553	1744.95
181.63	1763.58
181.706	1777.27
181.782	1786.62
181.859	1784.72
181.935	1787.05
182.011	1778.83
182.088	1797.18
182.164	1813.29
182.24	1826.22
182.317	1834.39
182.393	1831.16
182.469	1847.61
182.546	1861.1
182.622	1867
182.698	1865.05
182.775	1877.08
182.851	1893.95
182.927	1888.15
183.003	1886.2
183.08	1882.16
183.156	1891.15
183.232	1890.2
183.308	1878.83
183.385	1886.15
183.461	1902.32
183.537	1904.88
183.613	1920.38
183.69	1908.92
183.766	1901.31
183.842	1905.59
183.918	1911.82
183.995	1923.7
184.071	1924.13
184.147	1917.29
184.223	1905.69
184.299	1914.63
184.375	1904.7
184.452	1907.83
184.528	1961.39
184.604	1970.28
184.68	1980.45
184.756	1987.82
184.832	1992.29
184.908	1996.62
184.985	1997.52
185.061	1986.01
185.137	1992.81
185.213	1980.36
185.289	1985.44
185.365	1979.26
185.441	1977.93
185.517	1992.3
185.593	1988.73
185.669	1986.88
185.745	1996.81
185.822	2014.68
185.898	2005.51
185.974	2014.02
186.05	2006.98
186.126	1965.45
186.202	1960.41
186.278	1957.7
186.354	1947.96
186.43	1949.72
186.506	1949.81
186.582	1947.34
186.658	1951.95
186.734	1934.79
186.81	1937.55
186.886	1938.16
186.962	1947.39
187.038	1943.58
187.114	1932.97
187.19	1943.1
187.266	1935.64
187.341	1935.88
187.417	1927.8
187.493	1928.65
187.569	1928.79
187.645	1922.76
187.721	1913.77
187.797	1918.43
187.873	1922.52
187.949	1918
188.025	1913.39
188.101	1913.96
188.176	1917
188.252	1915.57
188.328	1920.71
188.404	1920.37
188.48	1915.67
188.556	1910.53
188.632	1913.29
188.707	1915.81
188.783	1911.44
188.859	1908.2
188.935	1897.98
189.011	1905.83
189.086	1901.22
189.162	1894.94
189.238	1893.7
189.314	1890.8
189.39	1886.81
189.465	1880.77
189.541	1896.08
189.617	1883.34
189.693	1877.31
189.768	1881.3
189.844	1902.28
189.92	1895.67
189.996	1905.9
190.071	1917.21
190.147	1915.5
190.223	1923.2
190.298	1914.03
190.374	1901.62
190.45	1912.74
190.526	1921.63
190.601	1914.41
190.677	1915.64
190.753	1944.28
190.828	1946.04
190.904	1961.82
190.98	1974.14
191.055	1982.08
191.131	1973.95
191.207	1993.2
191.282	2003.28
191.358	1996.39
191.433	1982.07
191.509	1994.71
191.585	1989.29
191.66	1988
191.736	1995.32
191.811	1986.76
191.887	2003.41
191.963	2024.43
192.038	2025.67
192.114	2026.14
192.189	2029.23
192.265	2025.48
192.34	2004.45
192.416	2007.11
192.491	2000.64
192.567	2005.78
192.642	2008.2
192.718	2008.96
192.793	1995.98
192.869	1992.51
192.944	1994.89
193.02	2004.83
193.095	2009.39
193.171	2016.77
193.246	2016.15
193.322	2012.25
193.397	2011.87
193.473	1998.93
193.548	1984.19
193.624	1990.94
193.699	1987.47
193.775	2002.83
193.85	2003.31
193.925	2008.63
194.001	2006.16
194.076	2000.88
194.152	1991.13
194.227	1986.14
194.302	1975.92
194.378	1979.63
194.453	1976.3
194.529	1988.62
194.604	1969.93
194.679	1964.27
194.755	1944.83
194.83	1956.48
194.905	1958.53
194.981	1965.37
195.056	1960.86
195.131	1965.04
195.207	1962.9
195.282	1957.53
195.357	1938.69
195.433	1953.96
195.508	1945.97
195.583	1952.53
195.659	1965.85
195.734	1971.98
195.809	1968.98
195.884	1976.4
195.96	1975.26
196.035	1990.05
196.11	1984.48
196.185	1996.41
196.261	1999.55
196.336	2030.13
196.411	2016.24
196.486	2017.09
196.561	2013.91
196.637	2020.56
196.712	2034.98
196.787	2038.02
196.862	2050.77
196.937	2061.7
197.013	2066.94
197.088	2075.45
197.163	2096.86
197.238	2112.81
197.313	2112.95
197.388	2126.08
197.464	2154.15
197.539	2167.66
197.614	2162.52
197.689	2177.98
197.764	2194.59
197.839	2213.57
197.914	2205.53
197.989	2225.99
198.065	2239.69
198.14	2284.4
198.215	2306.57
198.29	2317
198.365	2329.65
198.44	2340.12
198.515	2366.3
198.59	2381.77
198.665	2405.57
198.74	2411.91
198.815	2411.52
198.89	2432.61
198.965	2461.37
199.04	2460.66
199.115	2472.32
199.19	2509.78
199.265	2509.74
199.34	2519.17
199.415	2552.09
199.49	2574.75
199.565	2587.13
199.64	2611.6
199.715	2608.84
199.79	2615.36
199.865	2622.89
199.94	2623.08
200.015	2654.24
200.09	2659.19
200.165	2664.95
200.24	2672.58
200.315	2711.1
200.39	2725.39
200.464	2729.77
200.539	2731.73
200.614	2746.45
200.689	2771.32
200.764	2781.09
200.839	2797.38
200.914	2799.57
200.989	2788.32
201.063	2803.66
201.138	2787.76
201.213	2787.04
201.288	2768.65
201.363	2772.85
201.438	2773.23
201.512	2788.04
201.587	2771.12
201.662	2777.41
201.737	2787.23
201.812	2795.9
201.886	2763.71
201.961	2773.01
202.036	2764.67
202.111	2763.1
202.186	2734.2
202.26	2717.14
202.335	2694.22
202.41	2688.03
202.485	2674.07
202.559	2654.35
202.634	2627.01
202.709	2636.06
202.784	2617.58
202.858	2619.15
202.933	2603.43
203.008	2594.91
203.082	2574.81
203.157	2572.72
203.232	2530.82
203.306	2514.15
203.381	2484.04
203.456	2462.38
203.53	2443.93
203.605	2424.28
203.68	2398.18
203.754	2390.81
203.829	2376.09
203.904	2359.44
203.978	2351.96
204.053	2358.29
204.127	2346.11
204.202	2343.82
204.277	2325.03
204.351	2319.08
204.426	2309.36
204.5	2302.75
204.575	2273.73
204.65	2281.25
204.724	2272.77
204.799	2279.1
204.873	2273.72
204.948	2269.91
205.022	2259.78
205.097	2248.73
205.171	2262.86
205.246	2273.24
205.32	2276.66
205.395	2275.95
205.469	2267.58
205.544	2271.15
205.618	2250.64
205.693	2264.25
205.767	2253.07
205.842	2271.34
205.916	2265.06
205.991	2258.35
206.065	2264.97
206.14	2277.33
206.214	2275.14
206.289	2271.05
206.363	2284.37
206.438	2287.8
206.512	2295.37
206.586	2312.73
206.661	2320.31
206.735	2298
206.81	2295.57
206.884	2306.13
206.958	2295.23
207.033	2311.65
207.107	2314.41
207.181	2348.59
207.256	2341.31
207.33	2358.92
207.405	2372.35
207.479	2391.68
207.553	2400.57
207.628	2383.59
207.702	2394.68
207.776	2390.77
207.851	2393.01
207.925	2406.73
207.999	2403.68
208.073	2402.87
208.148	2405.25
208.222	2394.97
208.296	2425.94
208.371	2445.71
208.445	2456.9
208.519	2484.94
208.593	2494.7
208.668	2494.22
208.742	2493.46
208.816	2494.6
208.89	2508.03
208.965	2509.51
209.039	2515.61
209.113	2533.13
209.187	2555.16
209.261	2554.07
209.336	2570.69
209.41	2589.4
209.484	2587.93
209.558	2607.89
209.632	2618.08
209.707	2629.12
209.781	2651.03
209.855	2665.42
209.929	2680.44
210.003	2686.97
210.077	2687.97
210.151	2732.6
210.226	2766.2
210.3	2792.05
210.374	2817.76
210.448	2823.01
210.522	2834.4
210.596	2846.6
210.67	2857.99
210.744	2899.03
210.818	2927.42
210.892	2949.88
210.966	2945.11
211.041	2961.7
211.115	2961.75
211.189	2985.15
211.263	3001.49
211.337	3008.79
211.411	3025.05
211.485	3022.38
211.559	3035.67
211.633	3042.11
211.707	3019.44
211.781	3028.99
211.855	3003.76
211.929	3003.09
212.003	2993.18
212.077	3009.36
212.151	3029.44
212.225	3041.5
212.299	3042.55
212.373	3044.79
212.447	3050.66
212.52	3091.25
212.594	3111.42
212.668	3136.89
212.742	3144.09
212.816	3161.41
212.89	3176.34
212.964	3201.3
213.038	3229.18
213.112	3270.8
213.186	3311.49
213.26	3319.41
213.333	3309.19
213.407	3347.17
213.481	3381.03
213.555	3430.35
213.629	3455.52
213.703	3484.51
213.777	3532.13
213.85	3564.65
213.924	3647.21
213.998	3704.26
214.072	3750.38
214.146	3795.39
214.219	3852.93
214.293	3911.03
214.367	3975.8
214.441	4053.67
214.515	4116.18
214.588	4169.21
214.662	4216.61
214.736	4273.8
214.81	4365.16
214.883	4460.98
214.957	4538.47
215.031	4621.32
215.105	4690.06
215.178	4774.17
215.252	4863.99
215.326	4939.28
215.4	5018.47
215.473	5080.96
215.547	5168.33
215.621	5269.29
215.694	5386.6
215.768	5479.32
215.842	5587.71
215.915	5693.85
215.989	5793.82
216.063	5904.39
216.136	6029.14
216.21	6148.95
216.284	6291.21
216.357	6420
216.431	6542.09
216.504	6679.57
216.578	6834.38
216.652	6984.93
216.725	7122.01
216.799	7269.75
216.873	7408.82
216.946	7565.31
217.02	7696.96
217.093	7830.1
217.167	7948.21
217.24	8070.1
217.314	8212.41
217.387	8347.92
217.461	8483.98
217.535	8633.25
217.608	8756.4
217.682	8898.25
217.755	9052.53
217.829	9179.63
217.902	9326.33
217.976	9470.34
218.049	9604.6
218.123	9738.4
218.196	9881.88
218.27	10021.08
218.343	10146.28
218.417	10295.04
218.49	10426.13
218.563	10581.69
218.637	10724.4
218.71	10887.5
218.784	11041.02
218.857	11182.5
218.931	11328.32
219.004	11472.22
219.077	11625.34
219.151	11773.92
219.224	11908.69
219.298	12046.87
219.371	12194.6
219.444	12307.15
219.518	12443.27
219.591	12576.45
219.665	12726.22
219.738	12854.45
219.811	12974.47
219.885	13117.06
219.958	13241.77
220.031	13376.17
220.105	13510.08
220.178	13649.59
220.251	13760.12
220.325	13874.9
220.398	14003.46
220.471	14124.17
220.544	14245.21
220.618	14343.22
220.691	14456.98
220.764	14577.54
220.838	14682.38
220.911	14793.68
220.984	14936.03
221.057	15047.52
221.131	15157.96
221.204	15239.08
221.277	15361.85
221.35	15490.12
221.424	15585.31
221.497	15689.96
221.57	15783.66
221.643	15884.49
221.716	15975.39
221.79	16074.49
221.863	16171.66
221.936	16258.23
222.009	16344.07
222.082	16438.44
222.155	16520.32
222.229	16623.51
222.302	16705.54
222.375	16792.54
222.448	16874.71
222.521	16950.52
222.594	17029.7
222.667	17104.31
222.74	17192.36
222.814	17269.52
222.887	17335.64
222.96	17417.52
223.033	17495.21
223.106	17570.29
223.179	17644.99
223.252	17717.08
223.325	17784.36
223.398	17854.86
223.471	17922.04
223.544	17995.3
223.617	18056.55
223.69	18127.39
223.763	18172.59
223.837	18232.4
223.91	18295.19
223.983	18336.63
224.056	18375.18
224.129	18437.16
224.202	18499.52
224.275	18543.08
224.348	18583.61
224.42	18624.62
224.493	18649.43
224.566	18683.6
224.639	18734.92
224.712	18766.54
224.785	18812.75
224.858	18860.65
224.931	18903.15
225.004	18943.92
225.077	18978.76
225.15	19001.27
225.223	19037.51
225.296	19109.65
225.369	19140.15
225.442	19176.05
225.514	19221.11
225.587	19269.01
225.66	19303.61
225.733	19347.13
225.806	19392.57
225.879	19422.98
225.952	19455.6
226.025	19508.76
226.097	19568.51
226.17	19603.26
226.243	19617.47
226.316	19642.24
226.389	19672.65
226.461	19715.25
226.534	19759.39
226.607	19790.19
226.68	19846.09
226.753	19886.81
226.825	19893.75
226.898	19943.29
226.971	19973.12
227.044	20013.89
227.117	20045.89
227.189	20082.51
227.262	20119
227.335	20154.56
227.407	20180.49
227.48	20212.49
227.553	20247.67
227.626	20279.96
227.698	20300.78
227.771	20346.61
227.844	20367.96
227.916	20404.15
227.989	20415.81
228.062	20426.65
228.134	20474.51
228.207	20484.24
228.28	20497.26
228.352	20514.36
228.425	20528.29
228.498	20555.38
228.57	20565.26
228.643	20597.4
228.716	20613.84
228.788	20613.88
228.861	20624.34
228.934	20661.36
229.006	20679.48
229.079	20696.06
229.151	20699.38
229.224	20709.26
229.296	20726.85
229.369	20773.31
229.442	20798.04
229.514	20795.05
229.587	20832.35
229.659	20835
229.732	20860.74
229.804	20886.71
229.877	20927.3
229.949	20949.27
230.022	20986.82
230.094	21005.66
230.167	21019.93
230.239	21025.71
230.312	21046.15
230.384	21079.98
230.457	21090.63
230.529	21101.86
230.602	21111.6
230.674	21128.56
230.747	21158.01
230.819	21172.08
230.892	21153.24
230.964	21162.73
231.037	21191.51
231.109	21189.39
231.181	21202.74
231.254	21202.21
231.326	21204.13
231.399	21206.83
231.471	21212.62
231.544	21192.47
231.616	21206.5
231.688	21215.17
231.761	21214.69
231.833	21221.87
231.905	21193.53
231.978	21193.34
232.05	21209.15
232.122	21209.92
232.195	21197.1
232.267	21199.6
232.339	21200.37
232.412	21213.34
232.484	21203.65
232.556	21195.99
232.629	21217.58
232.701	21230.74
232.773	21229.15
232.846	21225.82
232.918	21215.41
232.99	21210.98
233.062	21218.54
233.135	21219.17
233.207	21207.12
233.279	21207.07
233.351	21206.06
233.424	21202.78
233.496	21182.93
233.568	21182.98
233.64	21161.62
233.713	21154.15
233.785	21140.51
233.857	21131.41
233.929	21108.75
234.001	21117.48
234.074	21131.12
234.146	21097.52
234.218	21080.03
234.29	21074.05
234.362	21061.04
234.434	21036.26
234.507	21016.17
234.579	20986.62
234.651	20965.42
234.723	20957.85
234.795	20955.73
234.867	20941.03
234.939	20944.4
235.012	20941.27
235.084	20929.51
235.156	20932.59
235.228	20919.78
235.3	20905.56
235.372	20895.15
235.444	20891.24
235.516	20856.4
235.588	20832.06
235.66	20819.87
235.732	20795.96
235.804	20821.79
235.876	20813.36
235.948	20815.77
236.02	20800.64
236.092	20784.44
236.164	20758.52
236.236	20727.24
236.308	20694.03
236.38	20676.25
236.452	20643.62
236.524	20622.37
236.596	20614.42
236.668	20596.15
236.74	20567.14
236.812	20552.15
236.884	20537.26
236.956	20515.57
237.028	20481.07
237.1	20441.31
237.172	20432.68
237.244	20425.11
237.316	20374.08
237.388	20347.18
237.46	20316.29
237.532	20306.9
237.604	20274.99
237.675	20274.85
237.747	20254.8
237.819	20235.38
237.891	20201.79
237.963	20170.51
238.035	20142.66
238.107	20083.14
238.178	20075
238.25	20047.05
238.322	20045.94
238.394	19993.55
238.466	19963.19
238.538	19946.57
238.609	19936.59
238.681	19887.68
238.753	19842.48
238.825	19803.34
238.897	19774.77
238.968	19758.62
239.04	19712.55
239.112	19710.29
239.184	19660.89
239.255	19636.32
239.327	19607.31
239.399	19588.17
239.471	19571.69
239.542	19549.62
239.614	19542.2
239.686	19471.22
239.758	19468.71
239.829	19415.22
239.901	19419.17
239.973	19391.94
240.044	19365.34
240.116	19329.97
240.188	19297.35
240.259	19262.89
240.331	19235.33
240.403	19205.4
240.474	19158.9
240.546	19120.01
240.618	19067
240.689	19035.87
240.761	19001.32
240.833	18987.29
240.904	18950.14
240.976	18907.97
241.048	18871.98
241.119	18835.16
241.191	18817.28
241.262	18792.37
241.334	18759.6
241.405	18706.4
241.477	18656.62
241.549	18621.2
241.62	18596.38
241.692	18570.64
241.763	18550.36
241.835	18517.64
241.906	18483.52
241.978	18438.17
242.049	18418.46
242.121	18402.27
242.192	18389.74
242.264	18342.17
242.335	18294.32
242.407	18271.05
242.478	18238.95
242.55	18213.02
242.621	18174.62
242.693	18139.82
242.764	18100.21
242.836	18061.42
242.907	18036.98
242.979	18014.33
243.05	17983.64
243.122	17939.4
243.193	17900.7
243.264	17851.01
243.336	17819.45
243.407	17799.3
243.479	17786.39
243.55	17764.99
243.622	17735.93
243.693	17690.92
243.764	17672.32
243.836	17622.2
243.907	17577.48
243.978	17546.68
244.05	17509.38
244.121	17465.43
244.192	17446.63
244.264	17389.19
244.335	17362.78
244.407	17313.91
244.478	17291.84
244.549	17259.45
244.62	17218.63
244.692	17199.55
244.763	17179.21
244.834	17142.15
244.906	17101.04
244.977	17072.7
245.048	17051.16
245.119	17008.07
245.191	16974.87
245.262	16927.49
245.333	16912.65
245.405	16879.78
245.476	16850.72
245.547	16827.34
245.618	16802.96
245.689	16762.57
245.761	16741.22
245.832	16708.35
245.903	16682.66
245.974	16649.65
246.045	16608.29
246.117	16600.44
246.188	16546.31
246.259	16505.1
246.33	16465.34
246.401	16429.72
246.473	16373.67
246.544	16334.58
246.615	16310.44
246.686	16267.93
246.757	16244.41
246.828	16205.75
246.899	16188.74
246.97	16144.88
247.042	16100.2
247.113	16075.86
247.184	16062.07
247.255	16026.5
247.326	15991.85
247.397	15965.77
247.468	15928.13
247.539	15901.86
247.61	15855.49
247.681	15835.78
247.752	15804.64
247.823	15763.24
247.894	15732.77
247.965	15694.45
248.037	15650.79
248.108	15601.62
248.179	15574.82
248.25	15546.58
248.321	15524.93
248.392	15482.08
248.463	15469.89
248.534	15446.61
248.605	15424.19
248.675	15386.36
248.746	15355.46
248.817	15329.29
248.888	15287.69
248.959	15247.92
249.03	15222.9
249.101	15187.62
249.172	15152.77
249.243	15109
249.314	15098.3
249.385	15074.73
249.456	15059.25
249.527	15029.9
249.598	15009.03
249.669	14978.56
249.739	14951.71
249.81	14916.23
249.881	14877.04
249.952	14849.86
250.023	14816.65
250.094	14774.71
250.165	14739.95
250.235	14712.09
250.306	14687.32
250.377	14653.04
250.448	14629.61
250.519	14581.75
250.59	14568.97
250.66	14537.25
250.731	14528.38
250.802	14500.33
250.873	14471.31
250.944	14445.57
251.014	14409.46
251.085	14403.63
251.156	14377.16
251.227	14360
251.297	14346.89
251.368	14336.24
251.439	14315.51
251.51	14296.42
251.58	14258.48
251.651	14223.77
251.722	14208.35
251.792	14154.94
251.863	14138.55
251.934	14131.07
252.005	14134.01
252.075	14105.67
252.146	14097.52
252.217	14084.65
252.287	14067.78
252.358	14041.31
252.429	14031.87
252.499	14007.76
252.57	13984.34
252.641	13968.81
252.711	13945.53
252.782	13911.54
252.852	13903.45
252.923	13877.8
252.994	13850.76
253.064	13841.26
253.135	13811.23
253.205	13780.47
253.276	13780.61
253.347	13763.74
253.417	13726.19
253.488	13692.98
253.558	13668.1
253.629	13641.54
253.699	13614.88
253.77	13588.7
253.841	13562.82
253.911	13545.03
253.982	13526.9
254.052	13510.66
254.123	13486.31
254.193	13457
254.264	13466.16
254.334	13426.06
254.405	13393.03
254.475	13369.03
254.546	13347.04
254.616	13350.42
254.687	13335.19
254.757	13318.12
254.827	13297.73
254.898	13279.03
254.968	13256.75
255.039	13222.09
255.109	13204.74
255.18	13171.33
255.25	13134.36
255.321	13118.88
255.391	13080.95
255.461	13076.41
255.532	13025.12
255.602	13005.07
255.673	12972.87
255.743	12936.18
255.813	12897.62
255.884	12883.3
255.954	12857.61
256.024	12843.63
256.095	12812.2
256.165	12783.76
256.235	12761.77
256.306	12733.09
256.376	12725.48
256.446	12715.59
256.517	12709.23
256.587	12693.8
256.657	12680.84
256.728	12664.5
256.798	12646.71
256.868	12622.56
256.938	12591.27
257.009	12584.28
257.079	12570.16
257.149	12579.08
257.219	12536.8
257.29	12520.51
257.36	12479.25
257.43	12479.97
257.5	12444.97
257.571	12411.71
257.641	12389.59
257.711	12366.5
257.781	12352.13
257.852	12338.88
257.922	12298.77
257.992	12276.69
258.062	12252.54
258.132	12236.69
258.202	12212.01
258.273	12183.61
258.343	12181.49
258.413	12154.6
258.483	12134.25
258.553	12095.93
258.623	12055.78
258.693	12050.72
258.764	12047.54
258.834	12048.7
258.904	12025.7
258.974	11995
259.044	11987
259.114	11972.1
259.184	11952.24
259.254	11936.53
259.324	11890.4
259.394	11882.79
259.464	11879.99
259.535	11863.07
259.605	11836.76
259.675	11813.33
259.745	11804.37
259.815	11769.61
259.885	11742.09
259.955	11744.84
260.025	11725.03
260.095	11707.34
260.165	11689.8
260.235	11683.92
260.305	11654.57
260.375	11618.27
260.445	11628.1
260.515	11621.26
260.585	11613.21
260.655	11591.43
260.725	11576.97
260.795	11567.04
260.865	11558.17
260.934	11527.8
261.004	11511.8
261.074	11501.73
261.144	11499.46
261.214	11493.97
261.284	11479.56
261.354	11478.45
261.424	11445.05
261.494	11445.92
261.564	11423.46
261.634	11417.34
261.703	11377.82
261.773	11366.59
261.843	11357.58
261.913	11333.09
261.983	11297.48
262.053	11285.23
262.123	11266.25
262.192	11234.92
262.262	11232.56
262.332	11202.68
262.402	11191.55
262.472	11175.16
262.541	11131.55
262.611	11123.98
262.681	11091.26
262.751	11083.07
262.821	11059.6
262.89	11029.82
262.96	11019.7
263.03	11027.99
263.1	11007.7
263.169	10996.42
263.239	10983.17
263.309	10988.42
263.379	10977.39
263.448	10964.52
263.518	10951.32
263.588	10937.15
263.657	10939.12
263.727	10929.44
263.797	10915.56
263.867	10896.67
263.936	10868.72
264.006	10874.17
264.076	10863.76
264.145	10845.78
264.215	10819.81
264.285	10814.32
264.354	10786.76
264.424	10761.84
264.494	10727.87
264.563	10709.08
264.633	10713.13
264.702	10699.92
264.772	10670.63
264.842	10651.4
264.911	10643.64
264.981	10607.7
265.05	10597.05
265.12	10580.28
265.19	10562.88
265.259	10557.92
265.329	10545.3
265.398	10532.87
265.468	10541.35
265.537	10519.76
265.607	10512.39
265.676	10507.57
265.746	10488.68
265.815	10491.38
265.885	10469.03
265.955	10448.36
266.024	10431.01
266.094	10390.25
266.163	10391.8
266.232	10384.52
266.302	10365.3
266.371	10350.6
266.441	10345.88
266.51	10342.12
266.58	10326.76
266.649	10304.93
266.719	10301.22
266.788	10292.07
266.858	10294.57
266.927	10252.32
266.996	10234.78
267.066	10229.34
267.135	10201.21
267.205	10200.1
267.274	10186.95
267.343	10188.83
267.413	10170.14
267.482	10170.38
267.552	10172.74
267.621	10144.46
267.69	10113.77
267.76	10102.31
267.829	10088.1
267.898	10070.37
267.968	10045.46
268.037	10034.48
268.106	10036.17
268.176	10009.96
268.245	9997.39
268.314	9979.42
268.384	9979.51
268.453	9967.95
268.522	9956.87
268.592	9957.6
268.661	9936.45
268.73	9926.48
268.799	9910.15
268.869	9918.58
268.938	9881.3
269.007	9865.21
269.076	9850.81
269.146	9849.26
269.215	9847.05
269.284	9857.31
269.353	9845.37
269.422	9827.5
269.492	9809.2
269.561	9765.12
269.63	9760.55
269.699	9744.36
269.768	9729.91
269.838	9716.81
269.907	9711.71
269.976	9679.73
270.045	9651.65
270.114	9648.91
270.183	9633.93
270.253	9620.15
270.322	9593.81
270.391	9588.56
270.46	9589.91
270.529	9588.71
270.598	9584.47
270.667	9571.71
270.736	9546.37
270.806	9539.05
270.875	9542.85
270.944	9527.4
271.013	9544.64
271.082	9531.44
271.151	9523.5
271.22	9499.56
271.289	9492.39
271.358	9478.42
271.427	9478.47
271.496	9476.11
271.565	9459.4
271.634	9451.94
271.703	9456.56
271.772	9453.43
271.841	9443.03
271.91	9419.58
271.979	9402.58
272.048	9381.68
272.117	9375.71
272.186	9359.53
272.255	9360.1
272.324	9351.63
272.393	9352.35
272.462	9336.31
272.531	9324.52
272.6	9313.54
272.669	9317.77
272.738	9303.62
272.807	9299.72
272.876	9279.78
272.945	9295.39
273.013	9294.04
273.082	9299.09
273.151	9279.74
273.22	9278.48
273.289	9265.77
273.358	9276.13
273.427	9271.84
273.496	9269.39
273.564	9262.55
273.633	9254.65
273.702	9228.8
273.771	9225.14
273.84	9216.71
273.909	9213.01
273.977	9213.92
274.046	9200.34
274.115	9203.91
274.184	9192.59
274.253	9183.16
274.322	9188.45
274.39	9160
274.459	9145.5
274.528	9113.15
274.597	9105.88
274.665	9100.15
274.734	9107.71
274.803	9086.28
274.872	9076.46
274.94	9063.32
275.009	9092.89
275.078	9082.68
275.147	9081.58
275.215	9069.49
275.284	9076.95
275.353	9066.36
275.421	9041.71
275.49	9055.58
275.559	9044.55
275.627	9033.87
275.696	9023.28
275.765	9019.09
275.833	9012.73
275.902	9009.89
275.971	9024.62
276.039	9033
276.108	9035.55
276.177	9034.01
276.245	9029.29
276.314	9024.67
276.383	9024.86
276.451	8987.98
276.52	8988.99
276.588	9007.47
276.657	9013.64
276.725	8996.35
276.794	8996.74
276.863	9005.79
276.931	8980.08
277	8982.39
277.068	8990.05
277.137	9007.38
277.205	9005.64
277.274	9019.12
277.342	9029.19
277.411	9011.23
277.48	8999.19
277.548	8986.2
277.617	8983.26
277.685	8977.87
277.754	8985.09
277.822	8978.98
277.89	8991.25
277.959	8989.71
278.027	8970.94
278.096	8957.7
278.164	8984.08
278.233	8972.48
278.301	8959.97
278.37	8963.29
278.438	8947.74
278.507	8947.3
278.575	8919.05
278.643	8909.61
278.712	8890.98
278.78	8876.49
278.849	8877.46
278.917	8883.86
278.985	8877.12
279.054	8875.92
279.122	8883.33
279.191	8872.69
279.259	8870.81
279.327	8848.18
279.396	8857.86
279.464	8848.81
279.532	8860.51
279.601	8854.73
279.669	8855.21
279.737	8870.13
279.806	8879.86
279.874	8896.8
279.942	8892.23
280.011	8888.48
280.079	8899.89
280.147	8919.14
280.215	8920.15
280.284	8913.08
280.352	8903.98
280.42	8915.87
280.488	8911.2
280.557	8905.95
280.625	8911.63
280.693	8909.18
280.761	8907.59
280.83	8893.39
280.898	8903.69
280.966	8875.87
281.034	8845.54
281.102	8830.67
281.171	8822.34
281.239	8824.02
281.307	8806.69
281.375	8796.01
281.443	8817.53
281.512	8815.79
281.58	8816.03
281.648	8802.17
281.716	8805.2
281.784	8798.99
281.852	8791.39
281.92	8787.73
281.989	8796.73
282.057	8781.76
282.125	8817.87
282.193	8815.03
282.261	8814.36
282.329	8809.73
282.397	8816.18
282.465	8823.98
282.533	8837.84
282.601	8830
282.67	8809.11
282.738	8804.49
282.806	8819.55
282.874	8812.52
282.942	8813.53
283.01	8802.27
283.078	8808.04
283.146	8802.36
283.214	8813.87
283.282	8819.65
283.35	8831.01
283.418	8824.27
283.486	8826.96
283.554	8792.01
283.622	8791.38
283.69	8791.24
283.758	8779.74
283.826	8787.34
283.894	8792.68
283.962	8813.87
284.03	8822.43
284.098	8816.95
284.165	8810.11
284.233	8809.49
284.301	8793.94
284.369	8783.45
284.437	8775.51
284.505	8773.2
284.573	8791.63
284.641	8776.18
284.709	8775.26
284.777	8755.53
284.845	8760.78
284.912	8764.19
284.98	8762.94
285.048	8759.14
285.116	8763.42
285.184	8782
285.252	8780.13
285.319	8760.58
285.387	8739.83
285.455	8727.66
285.523	8739.16
285.591	8736.18
285.659	8734.83
285.726	8751.77
285.794	8740.22
285.862	8745.95
285.93	8741.04
285.997	8734.11
286.065	8728.62
286.133	8720.29
286.201	8717.74
286.269	8702.97
286.336	8694.78
286.404	8689.63
286.472	8696.28
286.539	8677.7
286.607	8658.78
286.675	8655.41
286.743	8670.96
286.81	8671.92
286.878	8683.72
286.946	8677.27
287.013	8680.68
287.081	8681.93
287.149	8667.11
287.216	8683.91
287.284	8673.99
287.352	8671.1
287.419	8665.38
287.487	8682.27
287.555	8686.17
287.622	8687.23
287.69	8694.16
287.758	8708.5
287.825	8703.11
287.893	8694.21
287.96	8698.92
288.028	8709.7
288.096	8710.47
288.163	8709.17
288.231	8697.33
288.298	8695.55
288.366	8707.01
288.433	8699.41
288.501	8690.79
288.569	8688.05
288.636	8681.6
288.704	8695.6
288.771	8707.3
288.839	8701.33
288.906	8694.98
288.974	8702.78
289.041	8698.97
289.109	8689.4
289.176	8693.87
289.244	8700.03
289.311	8711.15
289.379	8722.22
289.446	8726.26
289.514	8727.28
289.581	8721.5
289.649	8725.25
289.716	8726.65
289.783	8720.97
289.851	8745.71
289.918	8741.95
289.986	8758.56
290.053	8762.46
290.121	8758.85
290.188	8760.44
290.255	8796.59
290.323	8791.2
290.39	8785.85
290.458	8793.46
290.525	8805.49
290.592	8793.26
290.66	8795.67
290.727	8784.55
290.794	8796.15
290.862	8795.43
290.929	8796.97
290.996	8803.32
291.064	8810.59
291.131	8818.44
291.198	8830.28
291.266	8825.71
291.333	8835.67
291.4	8832.88
291.468	8851.27
291.535	8845.3
291.602	8849.2
291.669	8834.46
291.737	8844.81
291.804	8846.64
291.871	8866.04
291.938	8871.48
292.006	8905.47
292.073	8917.45
292.14	8928
292.207	8922.27
292.275	8922.89
292.342	8933.19
292.409	8951.49
292.476	8975.9
292.543	8970.46
292.611	8978.4
292.678	8997.95
292.745	9017.68
292.812	9035.45
292.879	9028.95
292.946	9033.95
293.014	9041.7
293.081	9046.61
293.148	9056.15
293.215	9062.84
293.282	9054.27
293.349	9067.03
293.416	9044.3
293.484	9058.89
293.551	9075.16
293.618	9093.46
293.685	9120.85
293.752	9109.25
293.819	9109.59
293.886	9099.57
293.953	9114.98
294.02	9113.25
294.087	9113.87
294.154	9109.59
294.221	9121.62
294.288	9124.85
294.356	9148.01
294.423	9162.6
294.49	9157.97
294.557	9168.04
294.624	9162.55
294.691	9184.94
294.758	9186.24
294.825	9195.34
294.892	9189.22
294.959	9188.64
295.026	9189.27
295.093	9183.01
295.16	9188.78
295.226	9185.66
295.293	9206.7
295.36	9198.42
295.427	9219.22
295.494	9228.7
295.561	9231.21
295.628	9250.04
295.695	9263.18
295.762	9265.06
295.829	9270.41
295.896	9284.51
295.963	9294
296.03	9309.5
296.096	9314.46
296.163	9316.63
296.23	9326.5
296.297	9340.9
296.364	9340.13
296.431	9341.96
296.498	9337.38
296.564	9369.74
296.631	9375.9
296.698	9357.6
296.765	9381.58
296.832	9370.46
296.899	9362.08
296.965	9381.29
297.032	9364.34
297.099	9385.14
297.166	9394.1
297.233	9389.19
297.299	9385.48
297.366	9379.7
297.433	9379.17
297.5	9387.55
297.566	9396.75
297.633	9398.63
297.7	9396.61
297.767	9399.64
297.833	9407.39
297.9	9410.43
297.967	9390.54
298.033	9409.61
298.1	9442.89
298.167	9438.89
298.234	9446.16
298.3	9456.75
298.367	9455.07
298.434	9460.94
298.5	9447.94
298.567	9437.97
298.634	9437.35
298.7	9455.31
298.767	9461.52
298.834	9477.46
298.9	9470.38
298.967	9461.61
299.033	9472.64
299.1	9487.81
299.167	9499.47
299.233	9491.57
299.3	9505.24
299.366	9523.45
299.433	9527.49
299.5	9499.37
299.566	9496.43
299.633	9505.1
299.699	9517.52
299.766	9513.81
299.832	9517.81
299.899	9525.95
299.965	9542.71
300.032	9535.1
300.099	9538.57
300.165	9547.09
300.232	9540.74
300.298	9540.21
300.365	9553.74
300.431	9564.29
300.498	9559.52
300.564	9565.25
300.631	9579.74
300.697	9590.29
300.763	9590
300.83	9590
300.896	9604.55
300.963	9618.99
301.029	9620.15
301.096	9620.73
301.162	9633.1
301.229	9630.17
301.295	9622.32
301.361	9620.05
301.428	9629.73
301.494	9622.03
301.561	9620.48
301.627	9625.78
301.693	9634.4
301.76	9639.8
301.826	9633.54
301.892	9644.56
301.959	9657.57
302.025	9657.28
302.092	9653.28
302.158	9658.92
302.224	9657.76
302.291	9649.19
302.357	9641.43
302.423	9642.06
302.49	9630.12
302.556	9639.46
302.622	9634.21
302.688	9644.47
302.755	9654.34
302.821	9662.96
302.887	9667.59
302.954	9665.28
303.02	9676.16
303.086	9679.82
303.152	9672.02
303.219	9663.88
303.285	9669.76
303.351	9671.39
303.417	9671.63
303.483	9655.31
303.55	9645.92
303.616	9648.76
303.682	9649.53
303.748	9643.75
303.815	9651.02
303.881	9661.62
303.947	9646.5
304.013	9651.22
304.079	9640.57
304.145	9624.15
304.212	9625.64
304.278	9623.57
304.344	9623.28
304.41	9606.57
304.476	9590.49
304.542	9588.56
304.608	9593.71
304.674	9576.61
304.741	9565.63
304.807	9567.32
304.873	9575.74
304.939	9595.92
305.005	9573.63
305.071	9570.59
305.137	9571.03
305.203	9548.01
305.269	9546.08
305.335	9558.36
305.401	9553.45
305.467	9551.72
305.533	9560.38
305.599	9562.94
305.666	9565.49
305.732	9565.06
305.798	9574.4
305.864	9602.28
305.93	9607.97
305.996	9601.32
306.062	9596.94
306.128	9594.53
306.194	9583.45
306.259	9585.67
306.325	9575.89
306.391	9588.17
306.457	9595.2
306.523	9601.66
306.589	9627.9
306.655	9623.76
306.721	9605.03
306.787	9593.04
306.853	9605.08
306.919	9585.81
306.985	9571.94
307.051	9561.59
307.117	9556.1
307.183	9550.51
307.248	9525.18
307.314	9522.96
307.38	9533.75
307.446	9538.57
307.512	9531.01
307.578	9535
307.644	9527.97
307.709	9523.06
307.775	9521.28
307.841	9517.72
307.907	9518.68
307.973	9498.93
308.039	9494.12
308.104	9498.45
308.17	9499.9
308.236	9485.3
308.302	9495.9
308.368	9493.49
308.433	9489.97
308.499	9481.98
308.565	9475.38
308.631	9475.96
308.696	9455.01
308.762	9433.92
308.828	9431.37
308.894	9410.52
308.959	9388.32
309.025	9380.14
309.091	9370.55
309.156	9362.51
309.222	9363.33
309.288	9349.51
309.354	9329.14
309.419	9330.3
309.485	9314.84
309.551	9321.92
309.616	9304.44
309.682	9295.63
309.748	9284.99
309.813	9283.25
309.879	9277.57
309.945	9262.21
310.01	9257.45
310.076	9265.92
310.141	9263.37
310.207	9251.04
310.273	9254.36
310.338	9258.02
310.404	9241.22
310.469	9230
310.535	9217.43
310.601	9197.11
310.666	9193.94
310.732	9202.89
310.797	9190.13
310.863	9179.54
310.928	9167.12
310.994	9167.02
311.059	9164.08
311.125	9162.45
311.191	9172.32
311.256	9156
311.322	9163.46
311.387	9141.99
311.453	9544.13
311.518	9515.49
311.584	9512.16
311.649	9516.64
311.715	9509.71
311.78	9509.42
311.846	9501.81
311.911	9507.11
311.976	9510.34
312.042	9503.11
312.107	9484.87
312.173	9474.66
312.238	9471.96
312.304	9467.54
312.369	9459.35
312.434	9445.15
312.5	9434.46
312.565	9400.57
312.631	9409.43
312.696	9393.2
312.761	9397.1
312.827	8973.49
312.892	9009.69
312.958	8999.58
313.023	8992.84
313.088	8987.06
313.154	8977.19
313.219	8966.36
313.284	8952.83
313.35	8948.89
313.415	8933.68
313.48	8930.88
313.546	8933
313.611	8939.16
313.676	8923.42
313.741	8919.96
313.807	8928.72
313.872	8933.48
313.937	8941.71
314.003	8954.14
314.068	8956.3
314.133	8956.78
314.198	8948.6
314.264	8932.62
314.329	8928.14
314.394	8925.83
314.459	8926.21
314.525	8942.63
314.59	8941.62
314.655	8932.9
314.72	8935.79
314.785	8935.46
314.851	8929.54
314.916	8909.08
314.981	8893.1
315.046	8889.68
315.111	8882.89
315.176	8870.23
315.242	8868.88
315.307	8863.69
315.372	8838.8
315.437	8834.42
315.502	8831.53
315.567	8847.75
315.632	8827.53
315.698	8826.95
315.763	8823.87
315.828	8812.42
315.893	8806.4
315.958	8803.32
316.023	8797.93
316.088	8775.64
316.153	8753.07
316.218	8745.81
316.283	8728.53
316.348	8711.06
316.413	8707.55
316.479	8681.95
316.544	8647.06
316.609	8619.77
316.674	8582.77
316.739	8551.3
316.804	8523.63
316.869	8481.28
316.934	8438.84
316.999	8410.21
317.064	8358.44
317.129	8314.41
317.194	8277.6
317.259	8227.71
317.324	8174.65
317.389	8127.94
317.454	8092.86
317.518	8064.1
317.583	8038.12
317.648	8011.95
317.713	7977.66
317.778	7916.38
317.843	7893.2
317.908	7854.44
317.973	7812.22
318.038	7781.63
318.103	7741.72
318.168	7699.6
318.233	7670.75
318.297	7615.94
318.362	7574.16
318.427	7538.68
318.492	7511.65
318.557	7464.55
318.622	7434.31
318.687	7413.84
318.751	7372.22
318.816	7333.09
318.881	7299.83
318.946	7242.67
319.011	7194.81
319.075	7147.57
319.14	7114.81
319.205	7067.42
319.27	7034.37
319.335	6987
319.399	6946.26
319.464	6915.47
319.529	6859.7
319.594	6815.55
319.658	6787.98
319.723	6749.56
319.788	6713.88
319.853	6650.67
319.917	6616.77
319.982	6565.67
320.047	6518.23
320.112	6493.26
320.176	6444.82
320.241	6404.39
320.306	6374.52
320.37	6335.31
320.435	6308.57
320.5	6275.4
320.564	6236.05
320.629	6193.24
320.694	6166.42
320.758	6129.75
320.823	6084.02
320.888	6055.39
320.952	6008.23
321.017	5966.34
321.082	5924.61
321.146	5892.52
321.211	5859.23
321.275	5815.36
321.34	5772.1
321.405	5731.68
321.469	5680.13
321.534	5634.25
321.598	5584.29
321.663	5546.89
321.727	5512.8
321.792	5458.73
321.857	5417.07
321.921	5378.49
321.986	5332.78
322.05	5269.29
322.115	5229.18
322.179	5187.31
322.244	5133.67
322.308	5098.74
322.373	5050.32
322.437	5010.18
322.502	4981.57
322.566	4935.55
322.631	4901.51
322.695	4858.19
322.76	4815.96
322.824	4780.49
322.889	4739.66
322.953	4695.83
323.018	4633.22
323.082	4571.5
323.146	4522.23
323.211	4466.44
323.275	4418.78
323.34	4380.24
323.404	4350.01
323.468	4303.51
323.533	4257.84
323.597	4214.49
323.662	4164.43
323.726	4129.67
323.79	4083.77
323.855	4017.25
323.919	3971.46
323.983	3928.4
324.048	3865.31
324.112	3987.38
324.177	3856.44
324.241	3655.56
324.305	3456.97
324.37	3264.06
324.434	3079.1
324.498	3037.04
324.562	2990.41
324.627	2932.01
324.691	2873.11
324.755	2806.23
324.82	2729.76
324.884	2652.4
324.948	2582.2
325.012	2487.34
325.077	2366.94
