Data from 20250630_urea_2M_MAYP1162681_22-42-26-808.txt Node
Date: Mon Jun 30 22:42:26 BST 2025
User: adleo
Spectrometer: MAYP116268
Trigger mode: 0
Integration Time (sec): 1.000000E0
Scans to average: 1
Electric dark correction enabled: true
Nonlinearity correction enabled: true
Boxcar width: 10
XAxis mode: Wavelengths
Number of Pixels in Spectrum: 2068
>>>>>Begin Spectral Data<<<<<
179.565	1112.28
179.642	1164.91
179.718	1205.83
179.795	1241.9
179.871	1272.04
179.948	1289.05
180.024	1308.35
180.101	1329.6
180.177	1344.15
180.254	1364.93
180.33	1386.4
180.407	1434.96
180.483	1525.46
180.56	1608.65
180.636	1686.22
180.712	1676.1
180.789	1685.6
180.865	1696.57
180.942	1704.65
181.018	1716.43
181.095	1731.21
181.171	1736.25
181.248	1736.87
181.324	1752.36
181.4	1758.16
181.477	1767.38
181.553	1781.11
181.63	1799.65
181.706	1815.95
181.782	1820.8
181.859	1820.89
181.935	1824.36
182.011	1818.51
182.088	1833.82
182.164	1852.37
182.24	1864.82
182.317	1875.03
182.393	1872.13
182.469	1884.54
182.546	1901.13
182.622	1905.5
182.698	1900.94
182.775	1911.11
182.851	1922.76
182.927	1913.77
183.003	1910.54
183.08	1908.07
183.156	1914.92
183.232	1910.83
183.308	1899.84
183.385	1910.3
183.461	1927.23
183.537	1928.13
183.613	1940.63
183.69	1929.46
183.766	1917.86
183.842	1924.75
183.918	1929.93
183.995	1941.82
184.071	1944.62
184.147	1933.64
184.223	1920.76
184.299	1930.18
184.375	1920.43
184.452	1927.95
184.528	1981.31
184.604	1992.53
184.68	2000.32
184.756	2005.79
184.832	2014.4
184.908	2018.35
184.985	2017.25
185.061	2000.42
185.137	2009.88
185.213	1999.61
185.289	2002.56
185.365	1997.24
185.441	1996.48
185.517	2007.7
185.593	2001.33
185.669	1998.15
185.745	2011.22
185.822	2028.71
185.898	2021.25
185.974	2032.47
186.05	2023.33
186.126	1987.09
186.202	1978.25
186.278	1975.73
186.354	1967.41
186.43	1969.21
186.506	1967.17
186.582	1963.84
186.658	1970.83
186.734	1951.53
186.81	1953.34
186.886	1955.62
186.962	1967.12
187.038	1960.8
187.114	1953.43
187.19	1962.75
187.266	1954.9
187.341	1954.24
187.417	1949.67
187.493	1950.81
187.569	1950.29
187.645	1948.86
187.721	1934.98
187.797	1943.3
187.873	1944.96
187.949	1940.87
188.025	1938.68
188.101	1939.11
188.176	1946.24
188.252	1941.58
188.328	1949.47
188.404	1949.71
188.48	1946.34
188.556	1937.4
188.632	1941.48
188.707	1939.73
188.783	1937.68
188.859	1934.97
188.935	1924.7
189.011	1929.36
189.086	1924.65
189.162	1918
189.238	1913.81
189.314	1912.96
189.39	1909.06
189.465	1905.16
189.541	1919.76
189.617	1903.88
189.693	1900.6
189.768	1905.36
189.844	1929.66
189.92	1922.91
189.996	1929.95
190.071	1939.93
190.147	1941.55
190.223	1951.63
190.298	1946.21
190.374	1932.99
190.45	1942.69
190.526	1949.44
190.601	1945.07
190.677	1944.12
190.753	1971.9
190.828	1975.61
190.904	1987.69
190.98	2000.81
191.055	2010.18
191.131	2000.34
191.207	2020.07
191.282	2030.81
191.358	2018.55
191.433	2005.18
191.509	2016.58
191.585	2015.35
191.66	2017.11
191.736	2023.53
191.811	2013.11
191.887	2026.19
191.963	2047.21
192.038	2053.87
192.114	2053.34
192.189	2057.1
192.265	2056.77
192.34	2035.54
192.416	2032.07
192.491	2030.69
192.567	2031.74
192.642	2035.64
192.718	2036.83
192.793	2025.04
192.869	2020.42
192.944	2025.03
193.02	2034.07
193.095	2038.83
193.171	2043.44
193.246	2038.64
193.322	2037.12
193.397	2035.59
193.473	2025.04
193.548	2009.29
193.624	2015.05
193.699	2016.19
193.775	2032.84
193.85	2031.13
193.925	2037.93
194.001	2038.93
194.076	2032.37
194.152	2024.71
194.227	2016.96
194.302	2008.12
194.378	2011.02
194.453	2010.21
194.529	2021.67
194.604	2005.55
194.679	2000.46
194.755	1983.06
194.83	1996.33
194.905	1993.24
194.981	2003.65
195.056	1995.81
195.131	2006.84
195.207	2003.18
195.282	1993.29
195.357	1972.17
195.433	1988.43
195.508	1973.83
195.583	1982.91
195.659	1993.14
195.734	1998.32
195.809	1997.28
195.884	2007.07
195.96	2007.55
196.035	2021.53
196.11	2016.96
196.185	2029.8
196.261	2029.8
196.336	2057.81
196.411	2043.73
196.486	2050.63
196.561	2044.39
196.637	2050.96
196.712	2063.23
196.787	2066.13
196.862	2082.87
196.937	2092.1
197.013	2100.9
197.088	2114.12
197.163	2131.77
197.238	2148.67
197.313	2146.2
197.388	2157.61
197.464	2188.6
197.539	2198.16
197.614	2191.31
197.689	2205.34
197.764	2220.43
197.839	2241.6
197.914	2239.13
197.989	2261.59
198.065	2273.96
198.14	2321.15
198.215	2349.94
198.29	2361.6
198.365	2377.6
198.44	2385.11
198.515	2414.01
198.59	2422.2
198.665	2446.67
198.74	2457.14
198.815	2459.05
198.89	2481.23
198.965	2509.75
199.04	2504.37
199.115	2517.7
199.19	2557.64
199.265	2559.31
199.34	2568.65
199.415	2598.57
199.49	2619.04
199.565	2628.56
199.64	2652.95
199.715	2650.42
199.79	2656.62
199.865	2661.29
199.94	2658.52
200.015	2692.25
200.09	2694.45
200.165	2704.69
200.24	2711.83
200.315	2747.55
200.39	2761.08
200.464	2768.27
200.539	2771.13
200.614	2784.76
200.689	2809.1
200.764	2813.54
200.839	2830.25
200.914	2831.11
200.989	2823.67
201.063	2834.73
201.138	2818.59
201.213	2819.54
201.288	2801.2
201.363	2806.87
201.438	2809.01
201.512	2823.73
201.587	2805.33
201.662	2812.48
201.737	2823.77
201.812	2830.83
201.886	2800.31
201.961	2809.41
202.036	2797.7
202.111	2796.55
202.186	2768.13
202.26	2753.4
202.335	2732.77
202.41	2724.81
202.485	2711
202.559	2692.9
202.634	2666.03
202.709	2677.41
202.784	2655.78
202.858	2655.5
202.933	2636.49
203.008	2627.87
203.082	2607.15
203.157	2607.49
203.232	2567.06
203.306	2547.15
203.381	2515.76
203.456	2492.28
203.53	2472.93
203.605	2455.85
203.68	2430.17
203.754	2423.99
203.829	2408.75
203.904	2390.9
203.978	2381.05
204.053	2384.95
204.127	2372.72
204.202	2372.14
204.277	2355.39
204.351	2349.53
204.426	2343.63
204.5	2337.2
204.575	2306.13
204.65	2316.42
204.724	2308.89
204.799	2315.98
204.873	2311.88
204.948	2311.03
205.022	2302.99
205.097	2290.51
205.171	2305.45
205.246	2315.02
205.32	2317.54
205.395	2315.97
205.469	2307.03
205.544	2310.98
205.618	2294.13
205.693	2303.41
205.767	2292.52
205.842	2310.32
205.916	2304.04
205.991	2291.48
206.065	2294.14
206.14	2307.46
206.214	2301.22
206.289	2291.13
206.363	2301.27
206.438	2300.88
206.512	2310.55
206.586	2330.73
206.661	2342.39
206.735	2317.18
206.81	2316.04
206.884	2328.27
206.958	2319.32
207.033	2335.02
207.107	2343.07
207.181	2372.92
207.256	2367.49
207.33	2385.77
207.405	2397.01
207.479	2416.24
207.553	2426.43
207.628	2412.72
207.702	2426.48
207.776	2422.72
207.851	2428.1
207.925	2441.57
207.999	2440.05
208.073	2438.77
208.148	2436.77
208.222	2426.38
208.296	2460.36
208.371	2478.99
208.445	2487.84
208.519	2515.08
208.593	2528.5
208.668	2526.17
208.742	2525.26
208.816	2525.03
208.89	2538.08
208.965	2539.41
209.039	2544.46
209.113	2557.99
209.187	2576.97
209.261	2572.12
209.336	2592.07
209.41	2609.46
209.484	2610.74
209.558	2630.6
209.632	2639.79
209.707	2651.75
209.781	2670.66
209.855	2684.76
209.929	2698.35
210.003	2707.83
210.077	2708.02
210.151	2753.76
210.226	2784.93
210.3	2817.98
210.374	2842.7
210.448	2848.04
210.522	2857.57
210.596	2870.2
210.67	2880.87
210.744	2927.45
210.818	2959.28
210.892	2979.97
210.966	2978.78
211.041	2995.46
211.115	2995.55
211.189	3021.25
211.263	3039.03
211.337	3045.99
211.411	3063.44
211.485	3064.3
211.559	3078.89
211.633	3085.94
211.707	3062.27
211.781	3077.16
211.855	3045.92
211.929	3043.07
212.003	3033.3
212.077	3050.66
212.151	3072.99
212.225	3093.49
212.299	3095.69
212.373	3095.26
212.447	3106.52
212.52	3147.4
212.594	3170.21
212.668	3201.45
212.742	3206.03
212.816	3223.3
212.89	3241.33
212.964	3263.87
213.038	3293.65
213.112	3333.56
213.186	3380.09
213.26	3392.35
213.333	3380.27
213.407	3424.26
213.481	3469.77
213.555	3529.75
213.629	3561.37
213.703	3591.56
213.777	3641.82
213.85	3676.26
213.924	3765.63
213.998	3822.46
214.072	3877.54
214.146	3926.49
214.219	3992.89
214.293	4062.53
214.367	4136.17
214.441	4222.52
214.515	4291.41
214.588	4349.63
214.662	4401.73
214.736	4466.7
214.81	4564.79
214.883	4668.92
214.957	4754.38
215.031	4841.1
215.105	4913.32
215.178	5003.89
215.252	5104.62
215.326	5191.06
215.4	5287.45
215.473	5352.75
215.547	5453.73
215.621	5558.48
215.694	5683.23
215.768	5784.01
215.842	5894.76
215.915	6010.61
215.989	6112.64
216.063	6234.43
216.136	6371.39
216.21	6506.18
216.284	6655.45
216.357	6795.36
216.431	6931.87
216.504	7085.62
216.578	7256.66
216.652	7421.42
216.725	7567.89
216.799	7729.74
216.873	7875.81
216.946	8032.29
217.02	8180.88
217.093	8332.38
217.167	8466.18
217.24	8602.9
217.314	8745.46
217.387	8900.47
217.461	9050.18
217.535	9220.59
217.608	9365.75
217.682	9519.26
217.755	9678.55
217.829	9819.62
217.902	9975.67
217.976	10130.33
218.049	10273.5
218.123	10405.65
218.196	10552.45
218.27	10701.52
218.343	10841.65
218.417	10999.31
218.49	11149.56
218.563	11323.67
218.637	11468.3
218.71	11639.58
218.784	11801.95
218.857	11971.41
218.931	12116
219.004	12266.09
219.077	12418.31
219.151	12568.37
219.224	12706.08
219.298	12849
219.371	13002.63
219.444	13131.48
219.518	13272.72
219.591	13413.77
219.665	13578.29
219.738	13717.07
219.811	13847.57
219.885	13992.57
219.958	14136.7
220.031	14265.22
220.105	14392.86
220.178	14524.27
220.251	14651.96
220.325	14779.22
220.398	14902.09
220.471	15033.35
220.544	15157.95
220.618	15269.06
220.691	15388.89
220.764	15508.19
220.838	15636.59
220.911	15743.94
220.984	15883.09
221.057	16005.27
221.131	16116.33
221.204	16204.96
221.277	16339.34
221.35	16470.19
221.424	16555.26
221.497	16651.89
221.57	16757.44
221.643	16853.59
221.716	16964.93
221.79	17045.07
221.863	17137.8
221.936	17229.13
222.009	17311.11
222.082	17404.75
222.155	17490.29
222.229	17588.02
222.302	17680.12
222.375	17756.12
222.448	17847.64
222.521	17919.78
222.594	17989.13
222.667	18053.65
222.74	18131.05
222.814	18191.14
222.887	18259.14
222.96	18349.88
223.033	18429.64
223.106	18499.13
223.179	18580.42
223.252	18643.6
223.325	18722.87
223.398	18792.56
223.471	18861.76
223.544	18936.02
223.617	18996.16
223.69	19059.34
223.763	19108.68
223.837	19167.38
223.91	19235.09
223.983	19273.4
224.056	19310.07
224.129	19369.87
224.202	19443.17
224.275	19491.79
224.348	19533.38
224.42	19565.33
224.493	19601.09
224.566	19640.85
224.639	19688.79
224.712	19722.58
224.785	19761.8
224.858	19795.49
224.931	19827.87
225.004	19857.32
225.077	19900.11
225.15	19911.77
225.223	19946.18
225.296	20015.19
225.369	20036.54
225.442	20051.87
225.514	20088.3
225.587	20135.04
225.66	20172.54
225.733	20209.6
225.806	20245.4
225.879	20273.98
225.952	20309.64
226.025	20353.55
226.097	20399.81
226.17	20427.52
226.243	20440.54
226.316	20472.3
226.389	20504.97
226.461	20534.85
226.534	20570.18
226.607	20588.25
226.68	20648.68
226.753	20682.51
226.825	20678.42
226.898	20718.76
226.971	20752.93
227.044	20783.62
227.117	20810.85
227.189	20826.28
227.262	20861.41
227.335	20879.44
227.407	20897.65
227.48	20919.34
227.553	20938.14
227.626	20948.02
227.698	20972.12
227.771	21002.58
227.844	21008.6
227.916	21028.79
227.989	21039.4
228.062	21047.83
228.134	21098
228.207	21106.25
228.28	21112.9
228.352	21132.37
228.425	21147.79
228.498	21167.89
228.57	21177.29
228.643	21203.27
228.716	21224.23
228.788	21219.12
228.861	21228.81
228.934	21263.03
229.006	21276
229.079	21285.93
229.151	21294.84
229.224	21293.64
229.296	21311.13
229.369	21362.8
229.442	21383.77
229.514	21399.19
229.587	21428.64
229.659	21412.26
229.732	21426.57
229.804	21457.75
229.877	21480.7
229.949	21502.87
230.022	21532.61
230.094	21545.86
230.167	21547.55
230.239	21553.67
230.312	21571.51
230.384	21608.72
230.457	21616.96
230.529	21639.95
230.602	21651.33
230.674	21655.04
230.747	21670.56
230.819	21685.84
230.892	21649.88
230.964	21652.72
231.037	21652.53
231.109	21651.28
231.181	21660.24
231.254	21664
231.326	21655.95
231.399	21660.82
231.471	21659.95
231.544	21631.03
231.616	21637.49
231.688	21646.6
231.761	21643.95
231.833	21626.12
231.905	21600.71
231.978	21595.65
232.05	21575.94
232.122	21562.2
232.195	21559.98
232.267	21575.02
232.339	21563.6
232.412	21575.79
232.484	21569.38
232.556	21556.42
232.629	21567.22
232.701	21568.47
232.773	21554.2
232.846	21541.48
232.918	21524.7
232.99	21512.41
233.062	21524.08
233.135	21522.97
233.207	21494.87
233.279	21496.46
233.351	21494.82
233.424	21476.17
233.496	21455.15
233.568	21466.24
233.64	21450.86
233.713	21444.31
233.785	21431.1
233.857	21421.99
233.929	21399.05
234.001	21408.16
234.074	21412.69
234.146	21377.74
234.218	21360.63
234.29	21355.28
234.362	21342.75
234.434	21313.93
234.507	21288.87
234.579	21255.47
234.651	21232.38
234.723	21226.5
234.795	21211.75
234.867	21198.25
234.939	21202.01
235.012	21192.57
235.084	21178.64
235.156	21170.35
235.228	21145.48
235.3	21123.84
235.372	21113.38
235.444	21111.31
235.516	21068.17
235.588	21050.38
235.66	21041.61
235.732	21022.38
235.804	21042.92
235.876	21032.6
235.948	21033.37
236.02	21010.67
236.092	20992.31
236.164	20966.09
236.236	20935.83
236.308	20903.68
236.38	20887.05
236.452	20861.37
236.524	20847.05
236.596	20833.36
236.668	20816.01
236.74	20790.71
236.812	20766.23
236.884	20735.38
236.956	20699.91
237.028	20657.46
237.1	20626.66
237.172	20607.24
237.244	20592.2
237.316	20530.85
237.388	20486.94
237.46	20452.44
237.532	20444.77
237.604	20413.93
237.675	20411.04
237.747	20392.34
237.819	20361.98
237.891	20326.75
237.963	20292.3
238.035	20250.8
238.107	20191.48
238.178	20176.68
238.25	20151.28
238.322	20137.69
238.394	20099.48
238.466	20078.66
238.538	20066.61
238.609	20042.95
238.681	20000.4
238.753	19958.28
238.825	19934.28
238.897	19911.44
238.968	19903.34
239.04	19866.62
239.112	19853.65
239.184	19803.97
239.255	19773.51
239.327	19749.37
239.399	19716.99
239.471	19688.22
239.542	19670.34
239.614	19655.54
239.686	19598.2
239.758	19574.73
239.829	19545.81
239.901	19529.62
239.973	19488.71
240.044	19462.3
240.116	19431.46
240.188	19398.45
240.259	19370.98
240.331	19325.39
240.403	19303.9
240.474	19247.13
240.546	19202.32
240.618	19157.26
240.689	19121.94
240.761	19090.52
240.833	19073.94
240.904	19038.47
240.976	19007.15
241.048	18968.93
241.119	18939.2
241.191	18916.45
241.262	18895.97
241.334	18848.17
241.405	18806.58
241.477	18772.51
241.549	18735.41
241.62	18700.9
241.692	18675.84
241.763	18654.5
241.835	18627.17
241.906	18590.6
241.978	18552.86
242.049	18533.83
242.121	18508.14
242.192	18494.12
242.264	18451.47
242.335	18394.85
242.407	18381.21
242.478	18342.51
242.55	18315.09
242.621	18267.91
242.693	18230.28
242.764	18192.45
242.836	18152.69
242.907	18123.2
242.979	18100.31
243.05	18072.98
243.122	18050.14
243.193	18010.96
243.264	17958.67
243.336	17917.9
243.407	17896.75
243.479	17877.23
243.55	17848.27
243.622	17824.27
243.693	17781.33
243.764	17763.69
243.836	17720.22
243.907	17682.25
243.978	17651.79
244.05	17618.01
244.121	17576.66
244.192	17546.15
244.264	17498.34
244.335	17476.9
244.407	17436.18
244.478	17403.6
244.549	17365.77
244.62	17312.08
244.692	17280.61
244.763	17252.66
244.834	17214.49
244.906	17164.7
244.977	17137.76
245.048	17117.04
245.119	17073.57
245.191	17026.53
245.262	16968.5
245.333	16963.49
245.405	16921.47
245.476	16895.97
245.547	16865.75
245.618	16846.43
245.689	16816.5
245.761	16785.6
245.832	16735.34
245.903	16708.73
245.974	16674.03
246.045	16638.56
246.117	16626.27
246.188	16574.41
246.259	16533.35
246.33	16501.39
246.401	16468.96
246.473	16416.76
246.544	16377.05
246.615	16349.72
246.686	16325.38
246.757	16314.82
246.828	16259.3
246.899	16244.21
246.97	16191.53
247.042	16145.94
247.113	16117.5
247.184	16102.51
247.255	16061.45
247.326	16037.25
247.397	15994.02
247.468	15964.08
247.539	15932.66
247.61	15886.72
247.681	15870.05
247.752	15846.82
247.823	15807.97
247.894	15776.68
247.965	15737.3
248.037	15691.76
248.108	15648.95
248.179	15615.36
248.25	15575.5
248.321	15553.76
248.392	15514.23
248.463	15505.27
248.534	15479.29
248.605	15454.13
248.675	15421.01
248.746	15403.37
248.817	15379.85
248.888	15356.81
248.959	15309.19
249.03	15289.13
249.101	15258.96
249.172	15227.72
249.243	15169.35
249.314	15159.27
249.385	15130.64
249.456	15107.12
249.527	15083.16
249.598	15056.36
249.669	15024.74
249.739	15007.58
249.81	14985.79
249.881	14942.65
249.952	14912.43
250.023	14877.38
250.094	14836.99
250.165	14797.75
250.235	14764.92
250.306	14740.1
250.377	14707.13
250.448	14689.72
250.519	14639.25
250.59	14623.83
250.66	14589.07
250.731	14586.62
250.802	14551.23
250.873	14530.7
250.944	14508.91
251.014	14478.93
251.085	14475.94
251.156	14452.75
251.227	14435.3
251.297	14419.05
251.368	14407.44
251.439	14394.86
251.51	14382.95
251.58	14351.23
251.651	14317.92
251.722	14296.56
251.792	14249.85
251.863	14217.84
251.934	14199.43
252.005	14210.28
252.075	14190.13
252.146	14180.15
252.217	14167.76
252.287	14150.12
252.358	14124.08
252.429	14118.01
252.499	14086.24
252.57	14056.84
252.641	14042.81
252.711	14017.6
252.782	13978.89
252.852	13963.8
252.923	13927.55
252.994	13909.37
253.064	13896.41
253.135	13867.97
253.205	13844.05
253.276	13840.82
253.347	13839.86
253.417	13808
253.488	13762.97
253.558	13731.35
253.629	13699.19
253.699	13680.1
253.77	13661.3
253.841	13627.66
253.911	13604.66
253.982	13582.73
254.052	13571.35
254.123	13552.07
254.193	13531.87
254.264	13545.08
254.334	13517.31
254.405	13487.23
254.475	13446.93
254.546	13420.27
254.616	13408.85
254.687	13393.71
254.757	13370.71
254.827	13337.45
254.898	13323.81
254.968	13300.38
255.039	13268.08
255.109	13253.38
255.18	13219.73
255.25	13181.5
255.321	13171.43
255.391	13135.13
255.461	13129.49
255.532	13078.34
255.602	13052.55
255.673	13002.61
255.743	12970.07
255.813	12924.42
255.884	12918.64
255.954	12912.47
256.024	12912.27
256.095	12890.44
256.165	12849.8
256.235	12839.58
256.306	12813.07
256.376	12793.64
256.446	12785.35
256.517	12777.63
256.587	12772.14
256.657	12755.36
256.728	12741.24
256.798	12712.08
256.868	12685.13
256.938	12653.46
257.009	12643.24
257.079	12622.8
257.149	12626.13
257.219	12587.37
257.29	12575.17
257.36	12530.15
257.43	12508.02
257.5	12459.24
257.571	12433.11
257.641	12423.04
257.711	12379.66
257.781	12367.56
257.852	12361.39
257.922	12324.46
257.992	12294.29
258.062	12266.23
258.132	12248.88
258.202	12229.55
258.273	12219.48
258.343	12221.16
258.413	12191.04
258.483	12168.09
258.553	12140.57
258.623	12116.47
258.693	12100.37
258.764	12095.4
258.834	12096.41
258.904	12083.3
258.974	12061.81
259.044	12040.45
259.114	12029.03
259.184	12015.44
259.254	11988.16
259.324	11943.57
259.394	11935.23
259.464	11940.68
259.535	11921.06
259.605	11901.73
259.675	11869.87
259.745	11856.13
259.815	11825.04
259.885	11810.05
259.955	11828.95
260.025	11803.6
260.095	11782.63
260.165	11764.65
260.235	11760.36
260.305	11726.91
260.375	11697.37
260.445	11698.86
260.515	11704.79
260.585	11694.72
260.655	11679.34
260.725	11679.29
260.795	11665.36
260.865	11657.36
260.934	11624.83
261.004	11619.33
261.074	11596.63
261.144	11596.49
261.214	11584.24
261.284	11562.27
261.354	11554.85
261.424	11517.97
261.494	11518.31
261.564	11498.89
261.634	11493.05
261.703	11454.79
261.773	11449.73
261.843	11438.25
261.913	11414.01
261.983	11367.84
262.053	11356.52
262.123	11334.68
262.192	11303.84
262.262	11309.77
262.332	11281.19
262.402	11268.03
262.472	11245.76
262.541	11204.18
262.611	11194.64
262.681	11170.73
262.751	11164.61
262.821	11141.14
262.89	11108.8
262.96	11097
263.03	11092.9
263.1	11075.26
263.169	11059.55
263.239	11041.96
263.309	11042.49
263.379	11034.2
263.448	11027.51
263.518	11009.82
263.588	10996.52
263.657	10991.6
263.727	10972.52
263.797	10951.8
263.867	10934.93
263.936	10906.02
264.006	10917.92
264.076	10899.13
264.145	10881.25
264.215	10858.5
264.285	10850.02
264.354	10824.49
264.424	10796.78
264.494	10769.74
264.563	10745.07
264.633	10751.53
264.702	10736.93
264.772	10703.49
264.842	10684.65
264.911	10677.18
264.981	10650.48
265.05	10633.33
265.12	10620.56
265.19	10607.45
265.259	10608.7
265.329	10604.27
265.398	10590.88
265.468	10598.11
265.537	10578.98
265.607	10570.26
265.676	10564.23
265.746	10556.48
265.815	10552.72
265.885	10541.01
265.955	10520.2
266.024	10504.39
266.094	10465.22
266.163	10470.67
266.232	10465.32
266.302	10452.02
266.371	10439.06
266.441	10427.83
266.51	10425.91
266.58	10402.4
266.649	10375.66
266.719	10361.54
266.788	10346.75
266.858	10352.24
266.927	10308.4
266.996	10296.69
267.066	10284.16
267.135	10255.02
267.205	10241.62
267.274	10224.67
267.343	10223.85
267.413	10208.77
267.482	10207.76
267.552	10209.64
267.621	10178.27
267.69	10150.96
267.76	10136.56
267.829	10115.99
267.898	10102.21
267.968	10080
268.037	10076.44
268.106	10076.15
268.176	10052.25
268.245	10040.98
268.314	10018.92
268.384	10015.4
268.453	10003.45
268.522	9997.77
268.592	10002.01
268.661	9985.29
268.73	9979.95
268.799	9958.03
268.869	9965.35
268.938	9935.34
269.007	9917.08
269.076	9908.7
269.146	9904.18
269.215	9896.85
269.284	9906.44
269.353	9890.16
269.422	9876.48
269.492	9856.54
269.561	9813.67
269.63	9810.98
269.699	9791.37
269.768	9782.12
269.838	9774.61
269.907	9773.45
269.976	9747.73
270.045	9710.84
270.114	9709.74
270.183	9695.14
270.253	9688.16
270.322	9659.36
270.391	9651.65
270.46	9654.54
270.529	9648.33
270.598	9649.97
270.667	9633.74
270.736	9610.09
270.806	9599.83
270.875	9601.95
270.944	9591.88
271.013	9616.11
271.082	9604.65
271.151	9596.02
271.22	9567.27
271.289	9553.79
271.358	9535.87
271.427	9533.18
271.496	9531.01
271.565	9509.2
271.634	9493.74
271.703	9495.42
271.772	9499.76
271.841	9483.05
271.91	9455.79
271.979	9446.59
272.048	9419.87
272.117	9421.12
272.186	9403.88
272.255	9402.87
272.324	9395.11
272.393	9395.98
272.462	9377.87
272.531	9371.8
272.6	9363.91
272.669	9369.11
272.738	9359.04
272.807	9353.22
272.876	9331.69
272.945	9349.99
273.013	9355.58
273.082	9363.62
273.151	9347.05
273.22	9339.35
273.289	9334.68
273.358	9343.1
273.427	9325.29
273.496	9326.69
273.564	9319.08
273.633	9323.94
273.702	9306.27
273.771	9289.85
273.84	9271.26
273.909	9266.02
273.977	9260
274.046	9244.2
274.115	9240.16
274.184	9220.85
274.253	9210.36
274.322	9217.82
274.39	9192.35
274.459	9175.69
274.528	9144.88
274.597	9129.52
274.665	9127.83
274.734	9131.59
274.803	9114.74
274.872	9111.51
274.94	9093.27
275.009	9144.13
275.078	9127.71
275.147	9119.96
275.215	9117.89
275.284	9125.98
275.353	9107.44
275.421	9084
275.49	9102.53
275.559	9095.65
275.627	9093.58
275.696	9084.91
275.765	9077.84
275.833	9065.47
275.902	9061.23
275.971	9077.45
276.039	9089.63
276.108	9086.84
276.177	9087.47
276.245	9080.34
276.314	9077.26
276.383	9079.76
276.451	9017.06
276.52	9014.17
276.588	9028.13
276.657	9028.22
276.725	9019.51
276.794	9024.47
276.863	9035.3
276.931	9008.15
277	9009.78
277.068	9017.24
277.137	9033.52
277.205	9027.35
277.274	9044.06
277.342	9052.96
277.411	9034.67
277.48	9022.93
277.548	9014.74
277.617	9014.45
277.685	9005.64
277.754	9007.71
277.822	9005.11
277.89	9013.54
277.959	9008.82
278.027	8991.54
278.096	8983.16
278.164	9010.75
278.233	9006.71
278.301	8994.05
278.37	8995.01
278.438	8983.36
278.507	8981.19
278.575	8962.42
278.643	8963.14
278.712	8951.25
278.78	8935.41
278.849	8937.48
278.917	8942.49
278.985	8933.2
279.054	8925.59
279.122	8935.94
279.191	8932.28
279.259	8913.94
279.327	8900.08
279.396	8916.11
279.464	8915.1
279.532	8921.74
279.601	8909.94
279.669	8905.27
279.737	8920.25
279.806	8924
279.874	8930.55
279.942	8933.72
280.011	8926.55
280.079	8932.33
280.147	8945.76
280.215	8954.38
280.284	8948.6
280.352	8934.5
280.42	8939.89
280.488	8937.91
280.557	8933.97
280.625	8934.02
280.693	8944.94
280.761	8943.01
280.83	8923.52
280.898	8927.42
280.966	8907.3
281.034	8877.4
281.102	8864.12
281.171	8856.46
281.239	8865.37
281.307	8861.23
281.375	8849.68
281.443	8869.99
281.512	8864.89
281.58	8864.46
281.648	8844.62
281.716	8848.57
281.784	8845.44
281.852	8839.52
281.92	8830.42
281.989	8830.18
282.057	8814.2
282.125	8857.63
282.193	8856.57
282.261	8856.53
282.329	8851.04
282.397	8853.83
282.465	8859.08
282.533	8870.63
282.601	8859.22
282.67	8834.91
282.738	8822.83
282.806	8829.18
282.874	8817.44
282.942	8816.76
283.01	8813.78
283.078	8821.77
283.146	8815.65
283.214	8826.53
283.282	8828.27
283.35	8845.6
283.418	8845.26
283.486	8851.95
283.554	8804.62
283.622	8803.85
283.69	8804.96
283.758	8796.29
283.826	8803.95
283.894	8810.64
283.962	8829.36
284.03	8841.49
284.098	8847.17
284.165	8842.7
284.233	8839.91
284.301	8833.6
284.369	8827.87
284.437	8820.31
284.505	8817.14
284.573	8838.7
284.641	8824.79
284.709	8832.88
284.777	8815.31
284.845	8819.98
284.912	8820.55
284.98	8828.93
285.048	8824.93
285.116	8828.54
285.184	8851.02
285.252	8848.42
285.319	8826.77
285.387	8815.93
285.455	8804.48
285.523	8807.27
285.591	8808.67
285.659	8814.44
285.726	8826.52
285.794	8813.24
285.862	8802.51
285.93	8801.69
285.997	8791.1
286.065	8789.99
286.133	8781.61
286.201	8777.96
286.269	8768.19
286.336	8763.61
286.404	8753.41
286.472	8753.99
286.539	8734.35
286.607	8716.06
286.675	8714.57
286.743	8732.57
286.81	8725.2
286.878	8735.65
286.946	8724.96
287.013	8720.25
287.081	8715.48
287.149	8696.03
287.216	8716.73
287.284	8716.01
287.352	8716.2
287.419	8713.79
287.487	8726.79
287.555	8727.56
287.622	8726.12
287.69	8726.69
287.758	8728.62
287.825	8725.59
287.893	8718.18
287.96	8724.19
288.028	8729.63
288.096	8731.75
288.163	8724.14
288.231	8708.65
288.298	8703.35
288.366	8722.12
288.433	8724.38
288.501	8717.89
288.569	8719.19
288.636	8712.25
288.704	8722.84
288.771	8730.5
288.839	8718.08
288.906	8709.22
288.974	8716.25
289.041	8710.77
289.109	8704.17
289.176	8718.42
289.244	8722.8
289.311	8734.45
289.379	8741.96
289.446	8749.95
289.514	8752.35
289.581	8756.59
289.649	8761.93
289.716	8770.4
289.783	8757.74
289.851	8775.94
289.918	8778.01
289.986	8792.73
290.053	8795.57
290.121	8797.69
290.188	8795.96
290.255	8828.69
290.323	8830.13
290.39	8821.08
290.458	8826.62
290.525	8839.04
290.592	8834.17
290.66	8839.28
290.727	8830.28
290.794	8840.62
290.862	8833.69
290.929	8831.53
290.996	8833.16
291.064	8846.83
291.131	8850.11
291.198	8862.62
291.266	8857.57
291.333	8859.16
291.4	8862.72
291.468	8871.86
291.535	8866.76
291.602	8868.3
291.669	8856.27
291.737	8860.5
291.804	8866.33
291.871	8890.2
291.938	8898.43
292.006	8928.24
292.073	8935.75
292.14	8957.12
292.207	8951.78
292.275	8958.04
292.342	8968.96
292.409	8996.89
292.476	9017.78
292.543	9015.13
292.611	9014.46
292.678	9031.94
292.745	9053.74
292.812	9060.87
292.879	9067.61
292.946	9072.81
293.014	9085.95
293.081	9094.23
293.148	9105.11
293.215	9118.11
293.282	9110.98
293.349	9121
293.416	9091.77
293.484	9105.69
293.551	9107.8
293.618	9124.8
293.685	9144.25
293.752	9141.75
293.819	9133.56
293.886	9127.16
293.953	9130.72
294.02	9143.96
294.087	9154.55
294.154	9148.2
294.221	9165.48
294.288	9158.12
294.356	9180.55
294.423	9189.85
294.49	9187.2
294.557	9204.34
294.624	9201.55
294.691	9218.78
294.758	9212.57
294.825	9223.93
294.892	9215.51
294.959	9218.88
295.026	9231.88
295.093	9226.29
295.16	9226.63
295.226	9226.15
295.293	9246.23
295.36	9256.82
295.427	9268.14
295.494	9278.06
295.561	9290.77
295.628	9312.15
295.695	9331.89
295.762	9328.86
295.829	9339.74
295.896	9352.41
295.963	9358.23
296.03	9365.74
296.096	9372.92
296.163	9385.2
296.23	9402.58
296.297	9417.7
296.364	9413.27
296.431	9415.29
296.498	9413.9
296.564	9434.89
296.631	9439.75
296.698	9422.99
296.765	9434.12
296.832	9423.72
296.899	9408.84
296.965	9418.52
297.032	9394.53
297.099	9412.45
297.166	9419.48
297.233	9406.76
297.299	9401.71
297.366	9395.78
297.433	9396.31
297.5	9402.33
297.566	9408.93
297.633	9410.33
297.7	9410.95
297.767	9406.57
297.833	9408.26
297.9	9410.14
297.967	9399.06
298.033	9409.32
298.1	9441.1
298.167	9435.66
298.234	9441.44
298.3	9450.16
298.367	9452.28
298.434	9459.11
298.5	9445
298.567	9440.67
298.634	9446.69
298.7	9466.19
298.767	9471.54
298.834	9489.35
298.9	9490.46
298.967	9480.83
299.033	9489.07
299.1	9506.4
299.167	9528.02
299.233	9524.12
299.3	9537.89
299.366	9555.28
299.433	9572.62
299.5	9545.12
299.566	9548.54
299.633	9559.42
299.699	9566.93
299.766	9555.04
299.832	9564.96
299.899	9575.17
299.965	9590.15
300.032	9587.16
300.099	9592.84
300.165	9602.96
300.232	9595.11
300.298	9591.01
300.365	9608.16
300.431	9606.81
300.498	9599.49
300.564	9604.35
300.631	9621.45
300.697	9636.33
300.763	9637.78
300.83	9631.9
300.896	9648.56
300.963	9658.24
301.029	9664.36
301.096	9673.42
301.162	9689.74
301.229	9679.77
301.295	9671.54
301.361	9671.34
301.428	9673.75
301.494	9659.3
301.561	9660.94
301.627	9664.12
301.693	9668.6
301.76	9664.07
301.826	9661.52
301.892	9676.45
301.959	9686.52
302.025	9677.17
302.092	9670.09
302.158	9668.69
302.224	9672.93
302.291	9661.28
302.357	9659.83
302.423	9661.23
302.49	9651.02
302.556	9663.21
302.622	9662
302.688	9665.81
302.755	9679.39
302.821	9690.13
302.887	9708.09
302.954	9704.19
303.02	9710.55
303.086	9716.23
303.152	9717.97
303.219	9713.05
303.285	9712.09
303.351	9711.27
303.417	9715.75
303.483	9702.6
303.55	9700.1
303.616	9695.47
303.682	9699.86
303.748	9690.23
303.815	9694.7
303.881	9704.77
303.947	9689.12
304.013	9690.13
304.079	9686.18
304.145	9662.24
304.212	9662.44
304.278	9645.15
304.344	9639.03
304.41	9626.03
304.476	9615.29
304.542	9610.37
304.608	9618.42
304.674	9601.22
304.741	9596.89
304.807	9601.27
304.873	9612.35
304.939	9633.97
305.005	9616.25
305.071	9609.31
305.137	9613.5
305.203	9587.74
305.269	9583.21
305.335	9593.04
305.401	9591.16
305.467	9586.34
305.533	9596.12
305.599	9597.03
305.666	9606.81
305.732	9610.86
305.798	9624
305.864	9645.1
305.93	9653.53
305.996	9647.17
306.062	9648.37
306.128	9642.21
306.194	9624.2
306.259	9623.47
306.325	9603.63
306.391	9612.64
306.457	9623.71
306.523	9628.77
306.589	9652.22
306.655	9647.46
306.721	9629.64
306.787	9618.32
306.853	9634.31
306.919	9620.01
306.985	9611.29
307.051	9599.97
307.117	9587.26
307.183	9576.52
307.248	9551.28
307.314	9546.13
307.38	9549.88
307.446	9548.25
307.512	9540.73
307.578	9549.26
307.644	9542.23
307.709	9547.81
307.775	9547.77
307.841	9536.98
307.907	9536.11
307.973	9520.94
308.039	9517.76
308.104	9526
308.17	9533.22
308.236	9519.54
308.302	9520.12
308.368	9506.59
308.433	9511.36
308.499	9506.64
308.565	9496.91
308.631	9500.33
308.696	9479.86
308.762	9469.41
308.828	9467.39
308.894	9450.01
308.959	9428.19
309.025	9418.32
309.091	9409.37
309.156	9395.4
309.222	9401.56
309.288	9386.15
309.354	9362.27
309.419	9356.97
309.485	9338.24
309.551	9328.95
309.616	9306.99
309.682	9303.62
309.748	9302.61
309.813	9293.89
309.879	9287.97
309.945	9278.97
310.01	9268.57
310.076	9278.15
310.141	9270.59
310.207	9256.67
310.273	9256.82
310.338	9257.44
310.404	9241.6
310.469	9233.66
310.535	9226.24
310.601	9198.51
310.666	9204.29
310.732	9213.72
310.797	9203.32
310.863	9194.42
310.928	9192.63
310.994	9203.76
311.059	9199.62
311.125	9196.63
311.191	9202.84
311.256	9191.96
311.322	9193.36
311.387	9169.96
311.453	9434.07
311.518	9408.07
311.584	9412.02
311.649	9415.92
311.715	9406.15
311.78	9409.9
311.846	9396.08
311.911	9405.47
311.976	9405.23
312.042	9387.42
312.107	9381.64
312.173	9376.15
312.238	9372.59
312.304	9368.11
312.369	9353.43
312.434	9337.78
312.5	9330.75
312.565	9294.45
312.631	9301.96
312.696	9296.71
312.761	9304.7
312.827	9021.53
312.892	9058.6
312.958	9050.85
313.023	9051.09
313.088	9046.81
313.154	9031.16
313.219	9020.38
313.284	9007.67
313.35	9007.38
313.415	8998.14
313.48	8984.22
313.546	8987.45
313.611	8993.61
313.676	8989.62
313.741	8985.96
313.807	8994.96
313.872	8995.73
313.937	9007.38
314.003	9012.05
314.068	9005.36
314.133	9010.51
314.198	9005.02
314.264	8987.06
314.329	8979.31
314.394	8970.84
314.459	8969.92
314.525	8988.41
314.59	8987.25
314.655	8972.23
314.72	8976.81
314.785	8973.77
314.851	8968.29
314.916	8942
314.981	8923.09
315.046	8908.02
315.111	8893.87
315.176	8881.74
315.242	8883.81
315.307	8879.62
315.372	8858.77
315.437	8854.15
315.502	8846.69
315.567	8855.4
315.632	8835.48
315.698	8835.38
315.763	8830.08
315.828	8819.98
315.893	8809.34
315.958	8802.94
316.023	8800.19
316.088	8780.31
316.153	8766.02
316.218	8758.7
316.283	8743.02
316.348	8728.34
316.413	8722.37
316.479	8712.94
316.544	8681.47
316.609	8646
316.674	8612.07
316.739	8573.77
316.804	8540.76
316.869	8501.3
316.934	8461.36
316.999	8431.91
317.064	8376.34
317.129	8334.37
317.194	8303.34
317.259	8258.06
317.324	8208.18
317.389	8156.22
317.454	8119.03
317.518	8080.12
317.583	8052.46
317.648	8025.95
317.713	7988.77
317.778	7932.11
317.843	7893.15
317.908	7858.72
317.973	7821.88
318.038	7789.42
318.103	7759.56
318.168	7725.75
318.233	7693.77
318.297	7639.83
318.362	7595.5
318.427	7556.47
318.492	7530.79
318.557	7475.51
318.622	7445.37
318.687	7420.13
318.751	7383.08
318.816	7348.27
318.881	7313.81
318.946	7260.31
319.011	7212.21
319.075	7170.74
319.14	7137.68
319.205	7093.52
319.27	7053.69
319.335	7008.86
319.399	6964.42
319.464	6931.94
319.529	6879.53
319.594	6836.78
319.658	6807.05
319.723	6765.65
319.788	6739.19
319.853	6684.81
319.917	6655.85
319.982	6598.42
320.047	6559.42
320.112	6536.42
320.176	6483.03
320.241	6443.22
320.306	6411.68
320.37	6377.21
320.435	6345.53
320.5	6314.95
320.564	6277.61
320.629	6235.81
320.694	6202.27
320.758	6165.99
320.823	6120.3
320.888	6091.33
320.952	6042.34
321.017	5999.64
321.082	5961.94
321.146	5924.09
321.211	5888.01
321.275	5843.41
321.34	5804.62
321.405	5758.77
321.469	5704.87
321.534	5664.41
321.598	5614.83
321.663	5585.19
321.727	5553.02
321.792	5501.29
321.857	5457.47
321.921	5414.96
321.986	5373.03
322.05	5317.59
322.115	5274.65
322.179	5230.34
322.244	5172.28
322.308	5140.14
322.373	5095.02
322.437	5055.02
322.502	5028.81
322.566	4982.2
322.631	4949.98
322.695	4908.9
322.76	4865.66
322.824	4829.66
322.889	4788.31
322.953	4742.65
323.018	4672.9
323.082	4609.44
323.146	4562.51
323.211	4507.62
323.275	4464.03
323.34	4415.63
323.404	4376.94
323.468	4332.65
323.533	4287.17
323.597	4248.93
323.662	4197.23
323.726	4162.04
323.79	4115.33
323.855	4049.47
323.919	4003.29
323.983	3952.39
324.048	3883.99
324.112	4010.24
324.177	3882.01
324.241	3677.54
324.305	3481.82
324.37	3287.29
324.434	3096.97
324.498	3053.39
324.562	3002.68
324.627	2942.6
324.691	2889.51
324.755	2827.96
324.82	2754.52
324.884	2680.05
324.948	2603.31
325.012	2508.51
325.077	2385.62
