Data from 20250630_urea_2M_MAYP1162681_01-22-27-037.txt Node
Date: Tue Jul 01 01:22:27 BST 2025
User: adleo
Spectrometer: MAYP116268
Trigger mode: 0
Integration Time (sec): 1.000000E0
Scans to average: 1
Electric dark correction enabled: true
Nonlinearity correction enabled: true
Boxcar width: 10
XAxis mode: Wavelengths
Number of Pixels in Spectrum: 2068
>>>>>Begin Spectral Data<<<<<
179.565	1088.23
179.642	1132.25
179.718	1170.95
179.795	1206.4
179.871	1232.74
179.948	1247.74
180.024	1267.73
180.101	1290.48
180.177	1303.64
180.254	1323.77
180.33	1343.6
180.407	1388.74
180.483	1474.92
180.56	1553.64
180.636	1628.69
180.712	1614.24
180.789	1624.55
180.865	1634.48
180.942	1644.12
181.018	1653.95
181.095	1664.36
181.171	1666.55
181.248	1671.11
181.324	1683.99
181.4	1689.16
181.477	1702.56
181.553	1713.87
181.63	1731.69
181.706	1745.04
181.782	1752.36
181.859	1753.45
181.935	1759.06
182.011	1752.41
182.088	1767.57
182.164	1786.68
182.24	1800.36
182.317	1808.2
182.393	1808.68
182.469	1822.6
182.546	1831.77
182.622	1835.96
182.698	1833.77
182.775	1842.61
182.851	1855.01
182.927	1849.45
183.003	1848.74
183.08	1842.37
183.156	1852.92
183.232	1852.88
183.308	1841.37
183.385	1848.31
183.461	1863
183.537	1861.48
183.613	1874.69
183.69	1866.61
183.766	1856.15
183.842	1863.76
183.918	1867.99
183.995	1877.21
184.071	1881.87
184.147	1876.59
184.223	1866.9
184.299	1876.08
184.375	1870.18
184.452	1876.65
184.528	1930.24
184.604	1937.56
184.68	1948.78
184.756	1954.16
184.832	1958.01
184.908	1963.38
184.985	1964.9
185.061	1949.31
185.137	1960.81
185.213	1950.78
185.289	1951.5
185.365	1947.36
185.441	1944.22
185.517	1959.01
185.593	1957.78
185.669	1952.93
185.745	1961.72
185.822	1977.36
185.898	1971.41
185.974	1978.49
186.05	1970.41
186.126	1930.75
186.202	1926.7
186.278	1922.24
186.354	1915.06
186.43	1918.48
186.506	1914.44
186.582	1911.45
186.658	1920.33
186.734	1899.85
186.81	1901.13
186.886	1902.46
186.962	1913.06
187.038	1910.35
187.114	1902.12
187.19	1908.11
187.266	1899.42
187.341	1902.18
187.417	1895.19
187.493	1894.81
187.569	1895.24
187.645	1886.49
187.721	1875.89
187.797	1879.07
187.873	1882.4
187.949	1875.94
188.025	1870.13
188.101	1874.74
188.176	1879.78
188.252	1870.66
188.328	1878.92
188.404	1878.26
188.48	1877.55
188.556	1870.18
188.632	1869.75
188.707	1872.13
188.783	1871.75
188.859	1866.81
188.935	1857.49
189.011	1866.23
189.086	1862.38
189.162	1855.82
189.238	1855.16
189.314	1853.35
189.39	1850.07
189.465	1843.23
189.541	1858.58
189.617	1845.23
189.693	1840.52
189.768	1844.99
189.844	1871.43
189.92	1866.34
189.996	1878.18
190.071	1887.21
190.147	1886.64
190.223	1892.06
190.298	1883.5
190.374	1870.05
190.45	1883.21
190.526	1889.82
190.601	1884.88
190.677	1885.59
190.753	1913.65
190.828	1920.5
190.904	1934.71
190.98	1947.36
191.055	1959.11
191.131	1950.31
191.207	1967.9
191.282	1975.5
191.358	1964.62
191.433	1952.06
191.509	1963.23
191.585	1958.04
191.66	1955
191.736	1961.85
191.811	1955.62
191.887	1970.55
191.963	1992.62
192.038	1995.33
192.114	1995.04
192.189	1999.7
192.265	1995.94
192.34	1973.59
192.416	1969.93
192.491	1964.88
192.567	1969.74
192.642	1970.59
192.718	1972.3
192.793	1960.8
192.869	1958.66
192.944	1961.27
193.02	1967.46
193.095	1968.98
193.171	1974.06
193.246	1976.49
193.322	1973.4
193.397	1974.16
193.473	1958.99
193.548	1941.01
193.624	1947.72
193.699	1944.39
193.775	1957.85
193.85	1958.61
193.925	1967.12
194.001	1967.31
194.076	1959.8
194.152	1949
194.227	1941.78
194.302	1932.22
194.378	1936.41
194.453	1932.79
194.529	1946.96
194.604	1933.46
194.679	1927.61
194.755	1910.83
194.83	1922.3
194.905	1919.16
194.981	1927.81
195.056	1925.1
195.131	1931.71
195.207	1930.86
195.282	1924.49
195.357	1904.51
195.433	1921.25
195.508	1911.41
195.583	1920.15
195.659	1933.75
195.734	1939.65
195.809	1939.98
195.884	1945.59
195.96	1946.11
196.035	1962.33
196.11	1956.43
196.185	1965.27
196.261	1970.55
196.336	1998.94
196.411	1984.24
196.486	1989.71
196.561	1980.53
196.637	1989.51
196.712	2002.79
196.787	2004.59
196.862	2019.43
196.937	2030.93
197.013	2034.07
197.088	2042.35
197.163	2061.71
197.238	2077.94
197.313	2080.03
197.388	2091.92
197.464	2121.08
197.539	2132.07
197.614	2125.27
197.689	2135.88
197.764	2151.58
197.839	2168.42
197.914	2162.95
197.989	2183.35
198.065	2196.96
198.14	2245.65
198.215	2268.69
198.29	2281.68
198.365	2293.2
198.44	2305.9
198.515	2330.46
198.59	2345.22
198.665	2372.35
198.74	2379.92
198.815	2379.82
198.89	2397.53
198.965	2425.52
199.04	2424.62
199.115	2440.52
199.19	2479.26
199.265	2482.74
199.34	2493.88
199.415	2524.89
199.49	2545.45
199.565	2555.4
199.64	2575.35
199.715	2576.78
199.79	2584.4
199.865	2587.5
199.94	2586.88
200.015	2615.37
200.09	2621.13
200.165	2626.04
200.24	2627.75
200.315	2665.27
200.39	2680.66
200.464	2689.18
200.539	2691.99
200.614	2704.57
200.689	2725.34
200.764	2732.59
200.839	2745.82
200.914	2748.68
200.989	2738.62
201.063	2752.2
201.138	2739.68
201.213	2744.4
201.288	2722.72
201.363	2726.15
201.438	2726.39
201.512	2741.15
201.587	2720.18
201.662	2724.76
201.737	2736.81
201.812	2747.44
201.886	2717.73
201.961	2725.65
202.036	2710.93
202.111	2707.45
202.186	2677.79
202.26	2660.64
202.335	2638.96
202.41	2637.91
202.485	2622.25
202.559	2604.77
202.634	2580
202.709	2587.38
202.784	2570.95
202.858	2570.33
202.933	2551.38
203.008	2545.76
203.082	2528
203.157	2531
203.232	2488.78
203.306	2469.15
203.381	2435.87
203.456	2411.25
203.53	2392.81
203.605	2375.82
203.68	2355.06
203.754	2350.59
203.829	2337.26
203.904	2316.18
203.978	2303.18
204.053	2307.89
204.127	2298.14
204.202	2292.62
204.277	2274.82
204.351	2263.92
204.426	2256.49
204.5	2250.07
204.575	2221
204.65	2229.38
204.724	2222.28
204.799	2230.51
204.873	2227.89
204.948	2229.7
205.022	2220.8
205.097	2207.52
205.171	2220.75
205.246	2227.55
205.32	2230.74
205.395	2227.41
205.469	2222.8
205.544	2229.56
205.618	2212.95
205.693	2222.8
205.767	2215.38
205.842	2235.75
205.916	2232.18
205.991	2225.23
206.065	2232.23
206.14	2245.45
206.214	2241.02
206.289	2236.45
206.363	2249.82
206.438	2251.49
206.512	2257.77
206.586	2274.33
206.661	2284.09
206.735	2262.73
206.81	2261.49
206.884	2273.86
206.958	2264.73
207.033	2277.81
207.107	2283.24
207.181	2312.51
207.256	2306.99
207.33	2323.93
207.405	2334.55
207.479	2350.73
207.553	2357.82
207.628	2341.84
207.702	2352.45
207.776	2349.74
207.851	2349.83
207.925	2359.88
207.999	2356.17
208.073	2355.69
208.148	2359.21
208.222	2347.79
208.296	2379.66
208.371	2397.43
208.445	2408
208.519	2435.99
208.593	2449.46
208.668	2447.27
208.742	2451.7
208.816	2451.79
208.89	2464.75
208.965	2465.32
209.039	2472.99
209.113	2489.41
209.187	2508.73
209.261	2503.78
209.336	2518.35
209.41	2538.78
209.484	2544.59
209.558	2564.83
209.632	2575.93
209.707	2583.88
209.781	2607.16
209.855	2622.93
209.929	2636.23
210.003	2642
210.077	2641.14
210.151	2684.62
210.226	2714.55
210.3	2737.86
210.374	2761.01
210.448	2765.49
210.522	2773.83
210.596	2785.55
210.67	2795.98
210.744	2838.07
210.818	2868.55
210.892	2887.85
210.966	2884.18
211.041	2899.24
211.115	2898.58
211.189	2921.78
211.263	2941.42
211.337	2949.76
211.411	2964.45
211.485	2961.58
211.559	2973.31
211.633	2979.64
211.707	2955.32
211.781	2967.91
211.855	2940.64
211.929	2937.4
212.003	2927.44
212.077	2943.18
212.151	2962.11
212.225	2977.66
212.299	2976.7
212.373	2977.75
212.447	2987.53
212.52	3028.55
212.594	3044.14
212.668	3069.13
212.742	3071.56
212.816	3081.05
212.89	3090.64
212.964	3108.15
213.038	3132.86
213.112	3169.51
213.186	3209.62
213.26	3217.68
213.333	3204.7
213.407	3243.14
213.481	3280.01
213.555	3321.2
213.629	3345.84
213.703	3366.7
213.777	3407.67
213.85	3431.54
213.924	3503.03
213.998	3548.79
214.072	3585.2
214.146	3619.73
214.219	3668.6
214.293	3722.85
214.367	3783
214.441	3853.33
214.515	3904.14
214.588	3945.05
214.662	3980.8
214.736	4025.3
214.81	4101.08
214.883	4185.19
214.957	4247.82
215.031	4316.09
215.105	4377.33
215.178	4446.8
215.252	4523.82
215.326	4585.81
215.4	4659.64
215.473	4708.14
215.547	4781.46
215.621	4863.81
215.694	4968.34
215.768	5046.71
215.842	5135.53
215.915	5226.06
215.989	5307.07
216.063	5404.29
216.136	5512.54
216.21	5619.53
216.284	5742.3
216.357	5856.07
216.431	5964.87
216.504	6085.4
216.578	6225.94
216.652	6358.46
216.725	6478
216.799	6612.66
216.873	6740.3
216.946	6861
217.02	6983.47
217.093	7105.54
217.167	7205.49
217.24	7318.2
217.314	7442.43
217.387	7562.78
217.461	7683.51
217.535	7824.92
217.608	7944.38
217.682	8070.01
217.755	8209.89
217.829	8331.33
217.902	8462.15
217.976	8591.64
218.049	8710.7
218.123	8820.4
218.196	8952.58
218.27	9075
218.343	9192
218.417	9317.58
218.49	9457.25
218.563	9597.81
218.637	9731.26
218.71	9890.39
218.784	10026.51
218.857	10157.43
218.931	10287.87
219.004	10418.18
219.077	10543.98
219.151	10677.1
219.224	10799.04
219.298	10921.82
219.371	11052.27
219.444	11163.2
219.518	11284.35
219.591	11410.17
219.665	11555.24
219.738	11675.01
219.811	11794.19
219.885	11921.63
219.958	12047.14
220.031	12158.82
220.105	12276.14
220.178	12392.26
220.251	12498.17
220.325	12616.41
220.398	12738.7
220.471	12862.3
220.544	12980.74
220.618	13083.17
220.691	13195.4
220.764	13311.33
220.838	13423.26
220.911	13527.19
220.984	13651.13
221.057	13762.1
221.131	13879.72
221.204	13956.03
221.277	14072.35
221.35	14200.43
221.424	14295.45
221.497	14397.64
221.57	14496.75
221.643	14601.55
221.716	14700.51
221.79	14789.69
221.863	14878.24
221.936	14974.21
222.009	15051.82
222.082	15141.33
222.155	15218.41
222.229	15311.68
222.302	15401.05
222.375	15480.68
222.448	15568.16
222.521	15655.02
222.594	15731.61
222.667	15787.09
222.74	15870.43
222.814	15935.55
222.887	15996.56
222.96	16076.96
223.033	16149.06
223.106	16231.63
223.179	16310.28
223.252	16389.52
223.325	16459.07
223.398	16523.27
223.471	16577.44
223.544	16653.35
223.617	16723.57
223.69	16803.82
223.763	16859.24
223.837	16926.52
223.91	16993.47
223.983	17039.44
224.056	17078.91
224.129	17141.52
224.202	17217.76
224.275	17274.34
224.348	17324.22
224.42	17376.85
224.493	17410.63
224.566	17463.98
224.639	17512.85
224.712	17551.11
224.785	17588.13
224.858	17637.72
224.931	17686.2
225.004	17733.14
225.077	17782.73
225.15	17808.27
225.223	17853.62
225.296	17924.55
225.369	17962.72
225.442	17992.12
225.514	18043.01
225.587	18101.51
225.66	18152.98
225.733	18195.19
225.806	18245.79
225.879	18288.83
225.952	18312.87
226.025	18366.7
226.097	18418.46
226.17	18461.88
226.243	18481.06
226.316	18522.26
226.389	18553.25
226.461	18590.55
226.534	18634.64
226.607	18669.87
226.68	18734.97
226.753	18778.29
226.825	18795.02
226.898	18843.4
226.971	18889.08
227.044	18923.83
227.117	18962.76
227.189	19002.71
227.262	19054.61
227.335	19095.77
227.407	19132.54
227.48	19179.19
227.553	19219.52
227.626	19244.39
227.698	19281.3
227.771	19325.88
227.844	19346.69
227.916	19385.63
227.989	19408.57
228.062	19444.13
228.134	19500.85
228.207	19516.27
228.28	19529.09
228.352	19558.87
228.425	19578.2
228.498	19619.16
228.57	19652.03
228.643	19690.77
228.716	19710.48
228.788	19725.85
228.861	19741.66
228.934	19774.38
229.006	19795.87
229.079	19812.31
229.151	19824.74
229.224	19824.21
229.296	19849.8
229.369	19901.46
229.442	19945.56
229.514	19965.27
229.587	19985.75
229.659	19980.3
229.732	20005.26
229.804	20045.7
229.877	20091.77
229.949	20122.03
230.022	20149.21
230.094	20163.86
230.167	20174.9
230.239	20184.01
230.312	20198.08
230.384	20231.77
230.457	20258.13
230.529	20290.13
230.602	20319.38
230.674	20341.84
230.747	20377.16
230.819	20404.53
230.892	20403.04
230.964	20416.15
231.037	20434.7
231.109	20445.88
231.181	20469.93
231.254	20474.65
231.326	20471.57
231.399	20464.39
231.471	20469.79
231.544	20462.99
231.616	20494.03
231.688	20511.28
231.761	20521.55
231.833	20532.39
231.905	20526.89
231.978	20529.5
232.05	20529.4
232.122	20537.59
232.195	20554.56
232.267	20571.33
232.339	20578.51
232.412	20589.59
232.484	20587.23
232.556	20600
232.629	20635.86
232.701	20645.4
232.773	20654.13
232.846	20665.93
232.918	20666.17
232.99	20682.13
233.062	20692.2
233.135	20690.08
233.207	20671.86
233.279	20676.63
233.351	20683.19
233.424	20670.27
233.496	20658.08
233.568	20684.73
233.64	20665.74
233.713	20662.99
233.785	20656.3
233.857	20650.17
233.929	20632.73
234.001	20642.95
234.074	20651.09
234.146	20619.72
234.218	20600.44
234.29	20595.52
234.362	20581.84
234.434	20563.33
234.507	20541.21
234.579	20524.24
234.651	20495.23
234.723	20498.17
234.795	20501.93
234.867	20482.75
234.939	20499.86
235.012	20499.57
235.084	20476.68
235.156	20472.92
235.228	20452.73
235.3	20444.1
235.372	20435.91
235.444	20440.68
235.516	20399.52
235.588	20384.44
235.66	20372.34
235.732	20363.38
235.804	20408.34
235.876	20410.94
235.948	20413.69
236.02	20399.91
236.092	20381.35
236.164	20380.44
236.236	20359.48
236.308	20336.87
236.38	20320.97
236.452	20288.58
236.524	20275.86
236.596	20267.57
236.668	20255.91
236.74	20242.9
236.812	20219.43
236.884	20211.91
236.956	20192.3
237.028	20174.61
237.1	20140.73
237.172	20151.05
237.244	20148.73
237.316	20089.41
237.388	20058.71
237.46	20030.95
237.532	20015.24
237.604	19997.31
237.675	19994.08
237.747	19979.63
237.819	19947.96
237.891	19934.33
237.963	19907.34
238.035	19871.29
238.107	19814.62
238.178	19798.19
238.25	19765.66
238.322	19763.97
238.394	19710.48
238.466	19678.05
238.538	19656.51
238.609	19649.09
238.681	19590.44
238.753	19560.03
238.825	19536.13
238.897	19510.73
238.968	19503.12
239.04	19471.46
239.112	19471.7
239.184	19419.65
239.255	19396.96
239.327	19380.28
239.399	19355.17
239.471	19334.84
239.542	19320.72
239.614	19318.65
239.686	19273.88
239.758	19257.45
239.829	19216.1
239.901	19204.29
239.973	19183.38
240.044	19167.76
240.116	19128.06
240.188	19111.82
240.259	19075.14
240.331	19035.53
240.403	19017.89
240.474	18972.16
240.546	18933.08
240.618	18876.7
240.689	18850.68
240.761	18823.59
240.833	18801.23
240.904	18776.27
240.976	18749.67
241.048	18714.39
241.119	18696.81
241.191	18671.89
241.262	18651.94
241.334	18625.63
241.405	18600.38
241.477	18561.05
241.549	18517.15
241.62	18494.02
241.692	18466.89
241.763	18448.19
241.835	18414.41
241.906	18374.9
241.978	18329.84
242.049	18312.54
242.121	18288.2
242.192	18274.85
242.264	18222.95
242.335	18175.48
242.407	18142.86
242.478	18108.69
242.55	18081.56
242.621	18027.44
242.693	17988.74
242.764	17958.14
242.836	17909.37
242.907	17882.05
242.979	17852.99
243.05	17834.58
243.122	17797.28
243.193	17753.76
243.264	17697.23
243.336	17669.86
243.407	17655.55
243.479	17644.37
243.55	17618.54
243.622	17595.69
243.693	17554.54
243.764	17538.35
243.836	17503.89
243.907	17471.55
243.978	17435.79
244.05	17412.51
244.121	17367.02
244.192	17348.42
244.264	17296.9
244.335	17276.51
244.407	17228.85
244.478	17206.25
244.549	17172.56
244.62	17140.32
244.692	17110.24
244.763	17100.17
244.834	17056.99
244.906	17008.22
244.977	16982.96
245.048	16951.01
245.119	16903.59
245.191	16861.18
245.262	16804.4
245.333	16780.3
245.405	16751.53
245.476	16721.02
245.547	16687.38
245.618	16665.74
245.689	16629.07
245.761	16605.93
245.832	16575.57
245.903	16548
245.974	16522.55
246.045	16482.55
246.117	16463.22
246.188	16423.36
246.259	16371.26
246.33	16336.8
246.401	16304.22
246.473	16259.11
246.544	16229.8
246.615	16209.7
246.686	16172.93
246.757	16162.42
246.828	16120.34
246.899	16094.94
246.97	16047.47
247.042	15998.98
247.113	15980.62
247.184	15975.17
247.255	15928.03
247.326	15890
247.397	15848.94
247.468	15809.46
247.539	15776.11
247.61	15728.87
247.681	15706.07
247.752	15689.54
247.823	15650.78
247.894	15628.66
247.965	15578.63
248.037	15540.79
248.108	15497.02
248.179	15471.43
248.25	15435.23
248.321	15414.21
248.392	15366.5
248.463	15360.08
248.534	15341.91
248.605	15310.39
248.675	15273.32
248.746	15252.31
248.817	15232.4
248.888	15215.53
248.959	15172.24
249.03	15156.09
249.101	15128.28
249.172	15097.24
249.243	15043.4
249.314	15034.24
249.385	14998.9
249.456	14987.29
249.527	14958.51
249.598	14939.28
249.669	14905.39
249.739	14879.36
249.81	14859.31
249.881	14820.65
249.952	14796.16
250.023	14764.83
250.094	14729.06
250.165	14693
250.235	14669.58
250.306	14639.98
250.377	14602.62
250.448	14582.57
250.519	14534.02
250.59	14519.8
250.66	14490.25
250.731	14483.41
250.802	14459.55
250.873	14435.54
250.944	14410.76
251.014	14378.47
251.085	14370.22
251.156	14351.52
251.227	14334.31
251.297	14315.27
251.368	14307.12
251.439	14284.66
251.51	14265.52
251.58	14232.5
251.651	14196.83
251.722	14173.54
251.792	14121.24
251.863	14091.06
251.934	14078.43
252.005	14079.54
252.075	14055.25
252.146	14037.84
252.217	14017.84
252.287	13997.21
252.358	13967.13
252.429	13954.35
252.499	13918
252.57	13897.61
252.641	13883.01
252.711	13859.87
252.782	13814.79
252.852	13806.55
252.923	13776.08
252.994	13751.74
253.064	13733.47
253.135	13702.33
253.205	13679.77
253.276	13688.06
253.347	13677.36
253.417	13646.84
253.488	13620.23
253.558	13589.52
253.629	13562.19
253.699	13550.43
253.77	13530.66
253.841	13513.26
253.911	13491.18
253.982	13477.59
254.052	13459.9
254.123	13445.19
254.193	13421.04
254.264	13444.71
254.334	13406.15
254.405	13374.57
254.475	13340.34
254.546	13319.42
254.616	13311.37
254.687	13285.73
254.757	13264.42
254.827	13236.51
254.898	13212.79
254.968	13187.29
255.039	13160.15
255.109	13149.25
255.18	13116.33
255.25	13074.1
255.321	13054.58
255.391	13025.65
255.461	13023.05
255.532	12975.04
255.602	12945.49
255.673	12908.46
255.743	12872.94
255.813	12821.02
255.884	12811.47
255.954	12803.95
256.024	12797.45
256.095	12774.84
256.165	12745.96
256.235	12726.1
256.306	12702.39
256.376	12694.82
256.446	12681.9
256.517	12663.82
256.587	12647.38
256.657	12621.26
256.728	12602.46
256.798	12578.89
256.868	12547.21
256.938	12516.65
257.009	12502.29
257.079	12484.55
257.149	12490.43
257.219	12448.3
257.29	12442.51
257.36	12404.72
257.43	12391.47
257.5	12351.22
257.571	12320.94
257.641	12308.36
257.711	12276.6
257.781	12267.44
257.852	12249.8
257.922	12204.92
257.992	12178.02
258.062	12158.6
258.132	12149.39
258.202	12132.47
258.273	12109
258.343	12108.08
258.413	12081.47
258.483	12062.19
258.553	12032.55
258.623	11993.36
258.693	11977.69
258.764	11975.19
258.834	11972.44
258.904	11951.38
258.974	11924.77
259.044	11916
259.114	11900.33
259.184	11884.96
259.254	11862.59
259.324	11829.04
259.394	11824.85
259.464	11833.72
259.535	11807.06
259.605	11778.92
259.675	11745.76
259.745	11731.44
259.815	11702.38
259.885	11681.51
259.955	11685.36
260.025	11658.18
260.095	11648.3
260.165	11633.12
260.235	11629.6
260.305	11601.84
260.375	11570.56
260.445	11578.51
260.515	11568.87
260.585	11565.45
260.655	11545.25
260.725	11535.28
260.795	11515.8
260.865	11511.13
260.934	11478.79
261.004	11461.15
261.074	11445.73
261.144	11443.17
261.214	11438.21
261.284	11413.72
261.354	11404.86
261.424	11375.26
261.494	11374.68
261.564	11351.41
261.634	11342.68
261.703	11308.99
261.773	11297.04
261.843	11285.91
261.913	11256.61
261.983	11219.74
262.053	11199.59
262.123	11176.94
262.192	11146.58
262.262	11143.5
262.332	11114.82
262.402	11106.39
262.472	11090.2
262.541	11053.62
262.611	11043.6
262.681	11020.52
262.751	11011.31
262.821	10988.52
262.89	10963.03
262.96	10951.6
263.03	10952.13
263.1	10929.53
263.169	10910.84
263.239	10901.68
263.309	10896.33
263.379	10892.86
263.448	10881.06
263.518	10871.47
263.588	10860.29
263.657	10864.53
263.727	10857.39
263.797	10836.14
263.867	10813.98
263.936	10789.84
264.006	10789.11
264.076	10776.39
264.145	10757.55
264.215	10741.17
264.285	10739.29
264.354	10707.06
264.424	10688.22
264.494	10658.24
264.563	10644.32
264.633	10651.74
264.702	10636.46
264.772	10612.13
264.842	10589.05
264.911	10582.26
264.981	10551.23
265.05	10534.84
265.12	10511.38
265.19	10489.69
265.259	10491.28
265.329	10486.61
265.398	10474.61
265.468	10489.99
265.537	10469.7
265.607	10462.57
265.676	10451.83
265.746	10437.28
265.815	10428.85
265.885	10415.07
265.955	10394.74
266.024	10375.8
266.094	10337.35
266.163	10332.44
266.232	10324.59
266.302	10311.1
266.371	10302.28
266.441	10287.49
266.51	10278.14
266.58	10264.61
266.649	10247.21
266.719	10239.7
266.788	10226.98
266.858	10236.32
266.927	10194.99
266.996	10186.32
267.066	10171.77
267.135	10147.83
267.205	10139.11
267.274	10135.45
267.343	10127.16
267.413	10108.23
267.482	10110.5
267.552	10102.5
267.621	10076.34
267.69	10049.65
267.76	10037.27
267.829	10020.08
267.898	10014.2
267.968	9998.64
268.037	9986.74
268.106	9981.54
268.176	9956.97
268.245	9937.37
268.314	9909.09
268.384	9910.97
268.453	9894.98
268.522	9882.84
268.592	9882.31
268.661	9864.49
268.73	9855.62
268.799	9834.91
268.869	9842.52
268.938	9808.75
269.007	9794.79
269.076	9788.09
269.146	9786.12
269.215	9779.95
269.284	9784.58
269.353	9763.24
269.422	9746
269.492	9729.82
269.561	9689.02
269.63	9682.47
269.699	9665.14
269.768	9660.7
269.838	9649
269.907	9645.05
269.976	9623.67
270.045	9598.53
270.114	9593.57
270.183	9575.8
270.253	9567.37
270.322	9547
270.391	9536.07
270.46	9540.69
270.529	9535.83
270.598	9534.67
270.667	9520.75
270.736	9499.46
270.806	9492.87
270.875	9494.02
270.944	9481.89
271.013	9502.02
271.082	9492.58
271.151	9488.29
271.22	9461.42
271.289	9443.32
271.358	9435.22
271.427	9430.12
271.496	9422.13
271.565	9403.2
271.634	9397.42
271.703	9397.71
271.772	9400.27
271.841	9391.98
271.91	9364.34
271.979	9355.43
272.048	9327.26
272.117	9321.34
272.186	9305.69
272.255	9304.68
272.324	9302.18
272.393	9298.71
272.462	9282.05
272.531	9270.83
272.6	9257.01
272.669	9256.77
272.738	9250.12
272.807	9235.53
272.876	9219.21
272.945	9245.89
273.013	9250.37
273.082	9250.85
273.151	9225.09
273.22	9212.14
273.289	9200.97
273.358	9207.33
273.427	9191.44
273.496	9198.08
273.564	9194.9
273.633	9195.14
273.702	9171.41
273.771	9162.02
273.84	9146.76
273.909	9149.07
273.977	9142.67
274.046	9137.27
274.115	9144.35
274.184	9125.34
274.253	9121.24
274.322	9129.43
274.39	9092.35
274.459	9075.21
274.528	9045.08
274.597	9041.18
274.665	9040.36
274.734	9045.9
274.803	9033.91
274.872	9023.03
274.94	9004.93
275.009	9053.38
275.078	9037.11
275.147	9032.97
275.215	9030.13
275.284	9040.81
275.353	9025.79
275.421	9005.38
275.49	9015.01
275.559	8993.44
275.627	8986.32
275.696	8974.52
275.765	8967.06
275.833	8955.13
275.902	8957.39
275.971	8973.71
276.039	8990.51
276.108	8991.52
276.177	8985.02
276.245	8978.14
276.314	8971.78
276.383	8976.6
276.451	8914.37
276.52	8921.6
276.588	8944.46
276.657	8941.81
276.725	8927.81
276.794	8922.9
276.863	8933.29
276.931	8908.41
277	8919.19
277.068	8927.9
277.137	8942.58
277.205	8942.78
277.274	8962.13
277.342	8968.05
277.411	8942.83
277.48	8926.41
277.548	8915.24
277.617	8919.67
277.685	8916.06
277.754	8924.1
277.822	8912.16
277.89	8925.26
277.959	8913.94
278.027	8889.73
278.096	8875.67
278.164	8903.31
278.233	8897.82
278.301	8881.12
278.37	8891.08
278.438	8880.44
278.507	8884.97
278.575	8857.87
278.643	8846.75
278.712	8826.19
278.78	8806.84
278.849	8818.3
278.917	8827.78
278.985	8821.14
279.054	8820.99
279.122	8829.37
279.191	8824.07
279.259	8823.98
279.327	8802.36
279.396	8817.33
279.464	8813.72
279.532	8822.48
279.601	8820.27
279.669	8817.53
279.737	8828.31
279.806	8830.18
279.874	8836.15
279.942	8825.56
280.011	8825.56
280.079	8836.1
280.147	8852.37
280.215	8859.88
280.284	8860.85
280.352	8840.77
280.42	8843.04
280.488	8835.62
280.557	8828.02
280.625	8828.69
280.693	8825.27
280.761	8831.48
280.83	8813.24
280.898	8823.54
280.966	8803.61
281.034	8767.03
281.102	8752.78
281.171	8748.55
281.239	8753.75
281.307	8743.98
281.375	8737.82
281.443	8761.35
281.512	8753.22
281.58	8759.33
281.648	8741.62
281.716	8741.14
281.784	8745.81
281.852	8742.82
281.92	8734.5
281.989	8743.5
282.057	8728
282.125	8765.89
282.193	8764.93
282.261	8761.46
282.329	8753.71
282.397	8762.47
282.465	8770.07
282.533	8784.61
282.601	8779.22
282.67	8756.98
282.738	8749.47
282.806	8757.22
282.874	8742.1
282.942	8752.36
283.01	8746.97
283.078	8751.44
283.146	8744.61
283.214	8751.25
283.282	8748.79
283.35	8766.65
283.418	8756.59
283.486	8766.12
283.554	8723.9
283.622	8713.27
283.69	8715.29
283.758	8711.58
283.826	8712.35
283.894	8720.53
283.962	8735.36
284.03	8738.92
284.098	8740.08
284.165	8732.28
284.233	8733.92
284.301	8725.49
284.369	8709.51
284.437	8697.1
284.505	8692.19
284.573	8707.11
284.641	8697.19
284.709	8704.6
284.777	8683.23
284.845	8686.41
284.912	8687.04
284.98	8690.55
285.048	8690.45
285.116	8697.34
285.184	8703.21
285.252	8700.42
285.319	8686.46
285.387	8675.87
285.455	8661.91
285.523	8666.82
285.591	8671.97
285.659	8673.12
285.726	8686.7
285.794	8675
285.862	8675.15
285.93	8675.44
285.997	8667.35
286.065	8656.71
286.133	8649.3
286.201	8649.88
286.269	8639.05
286.336	8634.33
286.404	8628.13
286.472	8633.18
286.539	8611.09
286.607	8604.88
286.675	8609.55
286.743	8616.05
286.81	8611.62
286.878	8630.58
286.946	8626.25
287.013	8623.94
287.081	8620.67
287.149	8603
287.216	8622.06
287.284	8613.25
287.352	8614.12
287.419	8607.19
287.487	8621.68
287.555	8626.87
287.622	8623.26
287.69	8627.98
287.758	8634.19
287.825	8636.93
287.893	8625.05
287.96	8626.87
288.028	8629.52
288.096	8626.78
288.163	8631.49
288.231	8617.25
288.298	8614.12
288.366	8626.63
288.433	8620.96
288.501	8615.52
288.569	8624.37
288.636	8618.36
288.704	8636.36
288.771	8647.09
288.839	8641.56
288.906	8639.53
288.974	8645.79
289.041	8647.14
289.109	8638.96
289.176	8645.79
289.244	8647.48
289.311	8666.39
289.379	8681.84
289.446	8685.59
289.514	8691.61
289.581	8686.89
289.649	8700.75
289.716	8706.15
289.783	8698.4
289.851	8724.05
289.918	8727.46
289.986	8730.35
290.053	8732.23
290.121	8726.31
290.188	8726.21
290.255	8754.8
290.323	8746
290.39	8737.76
290.458	8737.04
290.525	8749.03
290.592	8745.03
290.66	8746.14
290.727	8737.76
290.794	8748.98
290.862	8747.15
290.929	8743.06
290.996	8743.97
291.064	8742.58
291.131	8749.32
291.198	8757.79
291.266	8752.44
291.333	8750.81
291.4	8756.29
291.468	8775.12
291.535	8772.9
291.602	8773.72
291.669	8771.17
291.737	8780.65
291.804	8786.19
291.871	8806.11
291.938	8813.52
292.006	8840.2
292.073	8850.54
292.14	8856.61
292.207	8851.17
292.275	8852.37
292.342	8864.55
292.409	8885.4
292.476	8912.02
292.543	8904.56
292.611	8907.97
292.678	8924.24
292.745	8952.4
292.812	8963.72
292.879	8958.76
292.946	8964.68
293.014	8977.77
293.081	8983.5
293.148	8993.51
293.215	9008.78
293.282	9000.26
293.349	9012.39
293.416	8990.39
293.484	9006.61
293.551	9020.14
293.618	9031.64
293.685	9057.78
293.752	9052.01
293.819	9055.38
293.886	9045.02
293.953	9049.79
294.02	9061.83
294.087	9063.32
294.154	9052.73
294.221	9068.04
294.288	9074.87
294.356	9093.65
294.423	9105.16
294.49	9095.48
294.557	9115.41
294.624	9104.1
294.691	9131.59
294.758	9133.76
294.825	9149.26
294.892	9143.43
294.959	9142.28
295.026	9154.26
295.093	9151.62
295.16	9152.72
295.226	9149.88
295.293	9171.65
295.36	9181.03
295.427	9187.2
295.494	9204.48
295.561	9209.68
295.628	9230.39
295.695	9240.17
295.762	9244.12
295.829	9246.81
295.896	9262.94
295.963	9268
296.03	9281.19
296.096	9280.32
296.163	9289.52
296.23	9304.35
296.297	9316.48
296.364	9318.55
296.431	9319.47
296.498	9318.31
296.564	9341.37
296.631	9348.36
296.698	9331.17
296.765	9351
296.832	9340.12
296.899	9325.19
296.965	9345.18
297.032	9321.34
297.099	9339.01
297.166	9341.56
297.233	9336.8
297.299	9336.03
297.366	9335.11
297.433	9335.3
297.5	9342.29
297.566	9341.13
297.633	9334.77
297.7	9335.74
297.767	9334
297.833	9342.14
297.9	9339.88
297.967	9326.3
298.033	9332.9
298.1	9362.03
298.167	9355.05
298.234	9364.63
298.3	9377.15
298.367	9375.37
298.434	9386.97
298.5	9378.4
298.567	9377.58
298.634	9382.16
298.7	9394.82
298.767	9394.63
298.834	9408.69
298.9	9403.68
298.967	9398.29
299.033	9409.22
299.1	9421.5
299.167	9440.42
299.233	9431.76
299.3	9446.83
299.366	9465.08
299.433	9479.53
299.5	9457.28
299.566	9461.23
299.633	9471.82
299.699	9480.73
299.766	9478.56
299.832	9478.22
299.899	9476.92
299.965	9483.04
300.032	9478.42
300.099	9479.53
300.165	9486.56
300.232	9484.2
300.298	9486.89
300.365	9498.64
300.431	9496.38
300.498	9492.82
300.564	9497.29
300.631	9516.94
300.697	9526.57
300.763	9523.73
300.83	9523.35
300.896	9539.48
300.963	9548.29
301.029	9551.57
301.096	9548.53
301.162	9557.39
301.229	9558.79
301.295	9555.81
301.361	9556.62
301.428	9564.04
301.494	9553.21
301.561	9560.43
301.627	9562.5
301.693	9568.13
301.76	9569.48
301.826	9571.17
301.892	9584.56
301.959	9583.64
302.025	9571.84
302.092	9569.87
302.158	9573.72
302.224	9575.21
302.291	9562.74
302.357	9556.58
302.423	9553.16
302.49	9552.63
302.556	9561.88
302.622	9559.8
302.688	9573.1
302.755	9591.01
302.821	9595.59
302.887	9608.78
302.954	9603
303.02	9611.38
303.086	9611.86
303.152	9609.17
303.219	9605.7
303.285	9606.23
303.351	9617.84
303.417	9621.55
303.483	9610.85
303.55	9614.51
303.616	9614.23
303.682	9616.2
303.748	9608.59
303.815	9624.24
303.881	9626.84
303.947	9615.38
304.013	9620.01
304.079	9603.87
304.145	9583.74
304.212	9581.62
304.278	9569.82
304.344	9564
304.41	9549.84
304.476	9547.96
304.542	9545.31
304.608	9548.15
304.674	9535
304.741	9529.47
304.807	9535.15
304.873	9539.39
304.939	9544.06
305.005	9521.28
305.071	9518.05
305.137	9521.42
305.203	9499.61
305.269	9498.21
305.335	9506.4
305.401	9496.81
305.467	9496.86
305.533	9500.76
305.599	9505.1
305.666	9510.78
305.732	9514.63
305.798	9523.49
305.864	9546.27
305.93	9544.2
305.996	9543.87
306.062	9537.8
306.128	9532.16
306.194	9518.15
306.259	9524.22
306.325	9514.44
306.391	9525.42
306.457	9533.8
306.523	9531.25
306.589	9548.92
306.655	9542.13
306.721	9526.82
306.787	9521.04
306.853	9536.21
306.919	9521.09
306.985	9510.35
307.051	9500.62
307.117	9483.24
307.183	9477.85
307.248	9448.13
307.314	9452.37
307.38	9449.19
307.446	9454.68
307.512	9448.71
307.578	9451.69
307.644	9441.53
307.709	9439.89
307.775	9431.42
307.841	9430.7
307.907	9434.6
307.973	9416.73
308.039	9416.78
308.104	9423.38
308.17	9421.5
308.236	9405.99
308.302	9409.89
308.368	9403.87
308.433	9403.49
308.499	9405.41
308.565	9394.43
308.631	9395.16
308.696	9373.25
308.762	9359.86
308.828	9356.2
308.894	9341.32
308.959	9327.21
309.025	9316.72
309.091	9315.56
309.156	9310.6
309.222	9307.62
309.288	9295.91
309.354	9274.54
309.419	9269.24
309.485	9252.72
309.551	9256.86
309.616	9242.47
309.682	9241.02
309.748	9236.26
309.813	9232.41
309.879	9228.6
309.945	9220.18
310.01	9216.37
310.076	9225.38
310.141	9221.23
310.207	9205.83
310.273	9199.04
310.338	9198.75
310.404	9182.81
310.469	9166.35
310.535	9155.8
310.601	9135
310.666	9141.46
310.732	9151.28
310.797	9140.44
310.863	9127.73
310.928	9115.89
310.994	9121.43
311.059	9110.35
311.125	9104
311.191	9114.83
311.256	9101.16
311.322	9102.94
311.387	9080.79
311.453	9322
311.518	9299.03
311.584	9298.7
311.649	9306.69
311.715	9294.75
311.78	9297.54
311.846	9291.14
311.911	9300.72
311.976	9303.17
312.042	9283.29
312.107	9268.66
312.173	9256.57
312.238	9252.1
312.304	9248.68
312.369	9236.93
312.434	9231.11
312.5	9224.32
312.565	9191.34
312.631	9196.49
312.696	9187.49
312.761	9194.42
312.827	8939.16
312.892	8971.75
312.958	8962.8
313.023	8960.82
313.088	8960.15
313.154	8942.97
313.219	8930.6
313.284	8918.9
313.35	8907.68
313.415	8896.27
313.48	8885.2
313.546	8893.15
313.611	8901.47
313.676	8886.21
313.741	8876.54
313.807	8881.11
313.872	8884.77
313.937	8892.91
314.003	8891.65
314.068	8889.58
314.133	8890.16
314.198	8883.81
314.264	8868.11
314.329	8864.45
314.394	8853
314.459	8851.17
314.525	8867.96
314.59	8868.11
314.655	8855.69
314.72	8866.71
314.785	8875.33
314.851	8871.48
314.916	8851.41
314.981	8836.49
315.046	8836.97
315.111	8827.2
315.176	8820.84
315.242	8817.42
315.307	8820.02
315.372	8808.04
315.437	8801.73
315.502	8789.46
315.567	8798.99
315.632	8777.38
315.698	8781.52
315.763	8774.54
315.828	8759.91
315.893	8756.59
315.958	8745.81
316.023	8737.29
316.088	8711.54
316.153	8684.63
316.218	8676.79
316.283	8661.87
316.348	8642.62
316.413	8637.04
316.479	8622.46
316.544	8580.5
316.609	8551.53
316.674	8509.96
316.739	8479.02
316.804	8448.85
316.869	8414.59
316.934	8371.08
316.999	8341.69
317.064	8280.11
317.129	8239.4
317.194	8202.55
317.259	8151.31
317.324	8101.96
317.389	8053.43
317.454	8018.46
317.518	7984.55
317.583	7959.63
317.648	7932.6
317.713	7890.04
317.778	7828.76
317.843	7801.73
317.908	7766.87
317.973	7733.69
318.038	7702.67
318.103	7659.54
318.168	7620.93
318.233	7591.74
318.297	7546.31
318.362	7509.82
318.427	7475.5
318.492	7447.33
318.557	7402.25
318.622	7373.4
318.687	7348.7
318.751	7314.35
318.816	7274.45
318.881	7243.07
318.946	7189.53
319.011	7142.52
319.075	7109.42
319.14	7072.86
319.205	7027.59
319.27	6995.79
319.335	6944.52
319.399	6905.75
319.464	6879.76
319.529	6828.32
319.594	6782.74
319.658	6750.6
319.723	6703.92
319.788	6676.69
319.853	6621.89
319.917	6590.4
319.982	6538.3
320.047	6503.39
320.112	6477.8
320.176	6431.57
320.241	6386.77
320.306	6355.62
320.37	6313.72
320.435	6280.07
320.5	6251.8
320.564	6210.33
320.629	6164.17
320.694	6133.7
320.758	6089.6
320.823	6041.47
320.888	6013.46
320.952	5966.11
321.017	5916.55
321.082	5883.17
321.146	5844.89
321.211	5810.26
321.275	5772.28
321.34	5726.64
321.405	5683.05
321.469	5628.77
321.534	5587.26
321.598	5542.39
321.663	5505.7
321.727	5474.16
321.792	5424.36
321.857	5379.16
321.921	5336.02
321.986	5290.42
322.05	5229
322.115	5190.71
322.179	5144.35
322.244	5094.53
322.308	5057.27
322.373	5015.7
322.437	4976.47
322.502	4949.83
322.566	4905.24
322.631	4864.3
322.695	4831.32
322.76	4785.5
322.824	4753.86
322.889	4710.46
322.953	4666.53
323.018	4604.45
323.082	4540.1
323.146	4490.02
323.211	4439.25
323.275	4398.16
323.34	4358.42
323.404	4327.58
323.468	4279.08
323.533	4239.59
323.597	4189.59
323.662	4142.64
323.726	4105.3
323.79	4050.8
323.855	3987.2
323.919	3938.93
323.983	3893.19
324.048	3824.51
324.112	3954.44
324.177	3823.51
324.241	3624.35
324.305	3427.86
324.37	3236.68
324.434	3053.29
324.498	3011.27
324.562	2961.07
324.627	2899.17
324.691	2844.73
324.755	2779.11
324.82	2708.28
324.884	2631.35
324.948	2561.71
325.012	2469.26
325.077	2351.44
