Data from 20250630_urea_2M_MAYP1162681_22-32-26-847.txt Node
Date: Mon Jun 30 22:32:26 BST 2025
User: adleo
Spectrometer: MAYP116268
Trigger mode: 0
Integration Time (sec): 1.000000E0
Scans to average: 1
Electric dark correction enabled: true
Nonlinearity correction enabled: true
Boxcar width: 10
XAxis mode: Wavelengths
Number of Pixels in Spectrum: 2068
>>>>>Begin Spectral Data<<<<<
179.565	1123.86
179.642	1177.05
179.718	1215.37
179.795	1251.71
179.871	1284.48
179.948	1299.05
180.024	1320.24
180.101	1341.35
180.177	1353.99
180.254	1377.14
180.33	1396.47
180.407	1444.79
180.483	1532.64
180.56	1618.87
180.636	1696.96
180.712	1686.6
180.789	1694.15
180.865	1708.59
180.942	1721.23
181.018	1729.55
181.095	1742.05
181.171	1746.47
181.248	1744.85
181.324	1760.06
181.4	1766.33
181.477	1773.41
181.553	1786.38
181.63	1805.35
181.706	1819.47
181.782	1826.12
181.859	1824.69
181.935	1833.49
182.011	1830.02
182.088	1847.98
182.164	1861.58
182.24	1873.23
182.317	1879.88
182.393	1875.84
182.469	1886.68
182.546	1894.57
182.622	1899.89
182.698	1897.85
182.775	1908.64
182.851	1924.09
182.927	1916.81
183.003	1914.2
183.08	1909.35
183.156	1917.77
183.232	1913.63
183.308	1902.27
183.385	1911.68
183.461	1929.08
183.537	1924.61
183.613	1936.31
183.69	1928.08
183.766	1918.52
183.842	1926.56
183.918	1932.64
183.995	1945.05
184.071	1948.43
184.147	1945.76
184.223	1936.73
184.299	1946.29
184.375	1935.07
184.452	1941.83
184.528	1994.76
184.604	2001.85
184.68	2014.4
184.756	2020.87
184.832	2023.2
184.908	2029.9
184.985	2030.37
185.061	2014.06
185.137	2023.86
185.213	2012.02
185.289	2013.16
185.365	2007.65
185.441	2007.22
185.517	2019.78
185.593	2019.44
185.669	2020.11
185.745	2031.43
185.822	2043.36
185.898	2036.51
185.974	2044.83
186.05	2037.27
186.126	1999.17
186.202	1994.94
186.278	1990.94
186.354	1983.33
186.43	1990.89
186.506	1986.76
186.582	1984.33
186.658	1989.61
186.734	1971.93
186.81	1972.78
186.886	1973.4
186.962	1984.38
187.038	1978.96
187.114	1968.73
187.19	1973.35
187.266	1960.46
187.341	1961.08
187.417	1955.9
187.493	1955.09
187.569	1959.28
187.645	1951.95
187.721	1939.87
187.797	1945.15
187.873	1949.48
187.949	1943.87
188.025	1937.88
188.101	1941.11
188.176	1947.53
188.252	1942.35
188.328	1951.99
188.404	1952.14
188.48	1948.38
188.556	1940.39
188.632	1942.58
188.707	1944.2
188.783	1943.91
188.859	1940.87
188.935	1927.79
189.011	1934.92
189.086	1930.65
189.162	1922.37
189.238	1920.52
189.314	1919.38
189.39	1912.01
189.465	1902.74
189.541	1919.48
189.617	1903.88
189.693	1900.89
189.768	1904.27
189.844	1930.76
189.92	1920.45
189.996	1929.67
190.071	1940.08
190.147	1942.89
190.223	1948.88
190.298	1942.08
190.374	1928.58
190.45	1941.03
190.526	1947.78
190.601	1942.03
190.677	1941.27
190.753	1967.72
190.828	1971.43
190.904	1984.69
190.98	2002.38
191.055	2013.18
191.131	2003.52
191.207	2023.44
191.282	2031.57
191.358	2020.82
191.433	2005.79
191.509	2019.72
191.585	2015.29
191.66	2017.53
191.736	2023
191.811	2017.48
191.887	2031.8
191.963	2054.96
192.038	2059.1
192.114	2063.42
192.189	2069.32
192.265	2067.47
192.34	2048.48
192.416	2045.15
192.491	2041.87
192.567	2044.63
192.642	2045.3
192.718	2046.82
192.793	2036.4
192.869	2033.55
192.944	2034.26
193.02	2041.26
193.095	2041.88
193.171	2051.48
193.246	2049.2
193.322	2045.97
193.397	2043.54
193.473	2032.17
193.548	2013.34
193.624	2017.76
193.699	2014.05
193.775	2028.08
193.85	2027.99
193.925	2035.5
194.001	2036.55
194.076	2029.56
194.152	2018.38
194.227	2012.44
194.302	2002.69
194.378	2008.59
194.453	2007.4
194.529	2018.38
194.604	2002.17
194.679	1998.55
194.755	1975.88
194.83	1990.44
194.905	1988.49
194.981	1998.19
195.056	1990.91
195.131	1998.19
195.207	1995.14
195.282	1985.64
195.357	1966.18
195.433	1983.35
195.508	1971.17
195.583	1978.11
195.659	1993.53
195.734	2000.04
195.809	2000.9
195.884	2010.36
195.96	2007.12
196.035	2017.54
196.11	2018.2
196.185	2031.23
196.261	2035.04
196.336	2070.28
196.411	2054.05
196.486	2062.9
196.561	2055.81
196.637	2064.18
196.712	2080.64
196.787	2086.4
196.862	2102.23
196.937	2112.36
197.013	2115.6
197.088	2128.68
197.163	2150.66
197.238	2166.09
197.313	2167.94
197.388	2182.12
197.464	2208.39
197.539	2220.04
197.614	2215.67
197.689	2225.99
197.764	2243.65
197.839	2265.11
197.914	2256.45
197.989	2277.24
198.065	2287.38
198.14	2335.28
198.215	2361.83
198.29	2371.16
198.365	2381.92
198.44	2391.53
198.515	2418.14
198.59	2434.14
198.665	2457.61
198.74	2465.61
198.815	2464.9
198.89	2487.65
198.965	2514.71
199.04	2513.85
199.115	2528.75
199.19	2569.08
199.265	2572.45
199.34	2580.12
199.415	2606.95
199.49	2625.61
199.565	2636.52
199.64	2659
199.715	2654.56
199.79	2662.8
199.865	2666.19
199.94	2668.61
200.015	2699.68
200.09	2703.97
200.165	2708.87
200.24	2713.49
200.315	2753.22
200.39	2769.56
200.464	2775.71
200.539	2778.61
200.614	2791.29
200.689	2812.3
200.764	2818.31
200.839	2833.88
200.914	2836.88
200.989	2830.25
201.063	2844.36
201.138	2824.65
201.213	2822.69
201.288	2806.21
201.363	2810.78
201.438	2811.16
201.512	2823.83
201.587	2807.72
201.662	2809.92
201.737	2822.64
201.812	2830.84
201.886	2795.5
201.961	2802.22
202.036	2788.74
202.111	2783.69
202.186	2758.54
202.26	2746.1
202.335	2725.8
202.41	2722.04
202.485	2707.51
202.559	2687.84
202.634	2663.73
202.709	2672.3
202.784	2657.01
202.858	2654.63
202.933	2636.25
203.008	2631.58
203.082	2611.67
203.157	2609.86
203.232	2572.2
203.306	2552.71
203.381	2522.47
203.456	2503.56
203.53	2482.02
203.605	2462.27
203.68	2439.07
203.754	2432.46
203.829	2415.27
203.904	2396.18
203.978	2383.75
204.053	2388.13
204.127	2374.09
204.202	2373.09
204.277	2360.34
204.351	2354.53
204.426	2351.2
204.5	2339.49
204.575	2307.75
204.65	2318.8
204.724	2310.46
204.799	2320.64
204.873	2316.98
204.948	2313.31
205.022	2298.42
205.097	2291.32
205.171	2306.84
205.246	2318.41
205.32	2316.5
205.395	2317.08
205.469	2309.51
205.544	2313.84
205.618	2295
205.693	2308.28
205.767	2296.19
205.842	2314.75
205.916	2307.9
205.991	2296.19
206.065	2304.76
206.14	2318.36
206.214	2313.7
206.289	2307.27
206.363	2314.17
206.438	2314.41
206.512	2324.69
206.586	2344.86
206.661	2351.82
206.735	2328.98
206.81	2327.22
206.884	2341.64
206.958	2330.26
207.033	2344.96
207.107	2352.39
207.181	2384.1
207.256	2375.2
207.33	2395.24
207.405	2409.1
207.479	2425.53
207.553	2436.23
207.628	2422.34
207.702	2433.43
207.776	2425.72
207.851	2430.72
207.925	2446.24
207.999	2443.53
208.073	2441.53
208.148	2445.29
208.222	2434.29
208.296	2463.98
208.371	2479.99
208.445	2490.51
208.519	2514.46
208.593	2525.5
208.668	2522.79
208.742	2526.36
208.816	2531.5
208.89	2542.17
208.965	2540.84
209.039	2550.65
209.113	2564.42
209.187	2580.79
209.261	2577.98
209.336	2598.69
209.41	2614.13
209.484	2615.22
209.558	2634.23
209.632	2647.85
209.707	2654.8
209.781	2676.76
209.855	2694.1
209.929	2708.12
210.003	2713.93
210.077	2716.41
210.151	2759.99
210.226	2791.55
210.3	2814.77
210.374	2836.83
210.448	2844.12
210.522	2851.89
210.596	2865.66
210.67	2874.14
210.744	2920.86
210.818	2953.16
210.892	2973.9
210.966	2970.8
211.041	2988.68
211.115	2990.44
211.189	3016.24
211.263	3038.69
211.337	3043.98
211.411	3059.67
211.485	3057.67
211.559	3072.97
211.633	3078.21
211.707	3058.84
211.781	3074.11
211.855	3051.74
211.929	3053.12
212.003	3043.45
212.077	3062.2
212.151	3081.76
212.225	3105.46
212.299	3109.14
212.373	3111.14
212.447	3122.54
212.52	3168.53
212.594	3187.9
212.668	3216.38
212.742	3223.15
212.816	3238.76
212.89	3256.74
212.964	3278.6
213.038	3312.97
213.112	3356.7
213.186	3404.7
213.26	3416.39
213.333	3409.23
213.407	3450.31
213.481	3491.3
213.555	3546.74
213.629	3577.55
213.703	3609.03
213.777	3654.6
213.85	3689.72
213.924	3780.96
213.998	3841.19
214.072	3891.39
214.146	3943.93
214.219	4011.62
214.293	4076.77
214.367	4149.5
214.441	4241.75
214.515	4313.56
214.588	4374.08
214.662	4429.01
214.736	4496.52
214.81	4595.95
214.883	4699.05
214.957	4788.64
215.031	4878.18
215.105	4954.96
215.178	5054.01
215.252	5156.72
215.326	5245.64
215.4	5337.48
215.473	5405.19
215.547	5507.19
215.621	5617.94
215.694	5743.14
215.768	5850.55
215.842	5964.62
215.915	6084.69
215.989	6190.53
216.063	6312.28
216.136	6448.11
216.21	6580.23
216.284	6730.79
216.357	6871.38
216.431	7006.28
216.504	7153.36
216.578	7331.2
216.652	7492.07
216.725	7636.59
216.799	7799.33
216.873	7953.05
216.946	8109.61
217.02	8257.26
217.093	8405.88
217.167	8540.99
217.24	8679.93
217.314	8824.16
217.387	8976.86
217.461	9120.94
217.535	9285.78
217.608	9430.03
217.682	9588.46
217.755	9755.52
217.829	9900.64
217.902	10061.18
217.976	10223.36
218.049	10371.06
218.123	10500.23
218.196	10659.99
218.27	10810.52
218.343	10947.47
218.417	11108.71
218.49	11262.96
218.563	11428.63
218.637	11588.3
218.71	11756.89
218.784	11920.23
218.857	12086.8
218.931	12242.72
219.004	12400.53
219.077	12554.49
219.151	12712.54
219.224	12854.88
219.298	12993.91
219.371	13154.33
219.444	13281.88
219.518	13421.19
219.591	13558.24
219.665	13726.62
219.738	13860.1
219.811	13986.59
219.885	14119.16
219.958	14253.46
220.031	14385.34
220.105	14525.96
220.178	14652.11
220.251	14771.17
220.325	14903.29
220.398	15028.38
220.471	15157.95
220.544	15287.08
220.618	15399.54
220.691	15507.27
220.764	15626.42
220.838	15748.37
220.911	15843.85
220.984	15978.09
221.057	16105.86
221.131	16223.28
221.204	16307.96
221.277	16431.34
221.35	16564.95
221.424	16675.03
221.497	16777.01
221.57	16882.8
221.643	16981.84
221.716	17092.21
221.79	17189.22
221.863	17281.51
221.936	17372.4
222.009	17451.97
222.082	17541.71
222.155	17628.98
222.229	17727.49
222.302	17815.68
222.375	17895.54
222.448	17990.33
222.521	18064.83
222.594	18122.04
222.667	18196.2
222.74	18274.85
222.814	18340.25
222.887	18403.9
222.96	18480.82
223.033	18552.14
223.106	18622.4
223.179	18700.08
223.252	18756.46
223.325	18819.16
223.398	18881.42
223.471	18949.08
223.544	19019.44
223.617	19077.17
223.69	19137.21
223.763	19193.79
223.837	19253.01
223.91	19315.61
223.983	19358.79
224.056	19406.21
224.129	19464.9
224.202	19521.67
224.275	19568.51
224.348	19607.79
224.42	19643.4
224.493	19670.1
224.566	19715.83
224.639	19761.47
224.712	19797.32
224.785	19845.17
224.858	19891.44
224.931	19925.51
225.004	19959.68
225.077	20001.02
225.15	20016.54
225.223	20049.17
225.296	20109.07
225.369	20128.2
225.442	20163.91
225.514	20211.91
225.587	20249.36
225.66	20290.46
225.733	20333.93
225.806	20370.8
225.879	20415.81
225.952	20448.1
226.025	20494.51
226.097	20536.1
226.17	20567.62
226.243	20573.74
226.316	20597.98
226.389	20620.39
226.461	20659.77
226.534	20686.85
226.607	20717.99
226.68	20769.75
226.753	20801.12
226.825	20802.03
226.898	20840.4
226.971	20855.15
227.044	20862.47
227.117	20891.34
227.189	20916.88
227.262	20943.73
227.335	20965.32
227.407	20979.78
227.48	21010.96
227.553	21044.17
227.626	21054.97
227.698	21085.57
227.771	21114.58
227.844	21121.43
227.916	21141.19
227.989	21133.33
228.062	21145.96
228.134	21174.35
228.207	21187.99
228.28	21196.81
228.352	21222.69
228.425	21237.82
228.498	21262.65
228.57	21274.21
228.643	21291.32
228.716	21303.28
228.788	21308
228.861	21324.68
228.934	21351.52
229.006	21350.37
229.079	21347.76
229.151	21358.8
229.224	21343.52
229.296	21354.9
229.369	21398.66
229.442	21430.48
229.514	21435.73
229.587	21456.69
229.659	21441.75
229.732	21457.85
229.804	21487.06
229.877	21509.91
229.949	21532.9
230.022	21562.79
230.094	21578.16
230.167	21591.8
230.239	21587.37
230.312	21591.9
230.384	21617.83
230.457	21626.75
230.529	21647.33
230.602	21653.69
230.674	21663.52
230.747	21685.46
230.819	21706.95
230.892	21678.66
230.964	21684.06
231.037	21707.77
231.109	21706.42
231.181	21732.98
231.254	21731.68
231.326	21721.8
231.399	21720.01
231.471	21708.16
231.544	21688.3
231.616	21704.25
231.688	21706.08
231.761	21709.99
231.833	21713.84
231.905	21682.9
231.978	21677.98
232.05	21667.95
232.122	21671.91
232.195	21657.45
232.267	21667.28
232.339	21653.54
232.412	21670.27
232.484	21658.36
232.556	21641.64
232.629	21662.85
232.701	21654.84
232.773	21634.89
232.846	21625.59
232.918	21619.32
232.99	21623.13
233.062	21620.14
233.135	21607.61
233.207	21587.31
233.279	21586.88
233.351	21575.17
233.424	21565.14
233.496	21542.63
233.568	21557.05
233.64	21535.31
233.713	21525.86
233.785	21503.21
233.857	21487.78
233.929	21455.59
234.001	21451.73
234.074	21447.83
234.146	21413.03
234.218	21403.19
234.29	21393.89
234.362	21377.21
234.434	21351.72
234.507	21330.99
234.579	21304.77
234.651	21286.94
234.723	21269.88
234.795	21251.17
234.867	21228.28
234.939	21231.61
235.012	21215.36
235.084	21203.22
235.156	21196.81
235.228	21180.32
235.3	21163.02
235.372	21150.49
235.444	21143.6
235.516	21106.58
235.588	21093.86
235.66	21073.76
235.732	21042.96
235.804	21076.22
235.876	21063.16
235.948	21056.46
236.02	21024.12
236.092	20997.57
236.164	20978.58
236.236	20962.14
236.308	20938.91
236.38	20924.69
236.452	20885.85
236.524	20863.78
236.596	20846.76
236.668	20819.29
236.74	20795.15
236.812	20771.34
236.884	20755.34
236.956	20725.17
237.028	20696.83
237.1	20661.36
237.172	20647.96
237.244	20637.17
237.316	20577.64
237.388	20544.39
237.46	20505.35
237.532	20492.24
237.604	20460.34
237.675	20445.98
237.747	20424.92
237.819	20383.52
237.891	20350.46
237.963	20315.48
238.035	20288.3
238.107	20229.4
238.178	20212.25
238.25	20179.19
238.322	20178.85
238.394	20130.13
238.466	20105.5
238.538	20077.46
238.609	20051.63
238.681	20014.86
238.753	19975.58
238.825	19948.78
238.897	19923.19
238.968	19908.69
239.04	19872.35
239.112	19861.46
239.184	19815.44
239.255	19783.39
239.327	19765.32
239.399	19741.56
239.471	19716.26
239.542	19689.37
239.614	19671.88
239.686	19626.29
239.758	19608.12
239.829	19558.83
239.901	19547.12
239.973	19518.06
240.044	19495.31
240.116	19467.7
240.188	19426.3
240.259	19392.14
240.331	19350.11
240.403	19329.68
240.474	19281.68
240.546	19242.17
240.618	19195.81
240.689	19156.78
240.761	19123.04
240.833	19104.88
240.904	19073.79
240.976	19050.71
241.048	19015
241.119	18984.69
241.191	18956.5
241.262	18938.43
241.334	18902.48
241.405	18856.7
241.477	18807.45
241.549	18773.14
241.62	18747.45
241.692	18717.77
241.763	18691.17
241.835	18660.71
241.906	18620.95
241.978	18576.19
242.049	18548.67
242.121	18528.09
242.192	18511.03
242.264	18466.89
242.335	18416.29
242.407	18387.43
242.478	18342.85
242.55	18308.44
242.621	18266.08
242.693	18228.78
242.764	18189.07
242.836	18156.55
242.907	18130.28
242.979	18107.39
243.05	18076.31
243.122	18050.09
243.193	18017.85
243.264	17974.53
243.336	17940.55
243.407	17918.96
243.479	17902.19
243.55	17876.12
243.622	17846.73
243.693	17807.83
243.764	17782.29
243.836	17740.85
243.907	17688.94
243.978	17664.56
244.05	17640.37
244.121	17593.09
244.192	17567.21
244.264	17513.19
244.335	17473.72
244.407	17424.42
244.478	17396.17
244.549	17359.21
244.62	17307.69
244.692	17269.09
244.763	17234.68
244.834	17184.12
244.906	17140.12
244.977	17114.53
245.048	17097.23
245.119	17052.51
245.191	17014.05
245.262	16959.59
245.333	16944.89
245.405	16926.05
245.476	16884.74
245.547	16857.08
245.618	16831.92
245.689	16796.64
245.761	16773.6
245.832	16744.16
245.903	16721.55
245.974	16686.95
246.045	16653.55
246.117	16631.23
246.188	16591.95
246.259	16544.82
246.33	16516.77
246.401	16471.61
246.473	16418.54
246.544	16366.35
246.615	16344.99
246.686	16303.3
246.757	16287.21
246.828	16232.98
246.899	16213.17
246.97	16165.41
247.042	16121.64
247.113	16099.28
247.184	16090.61
247.255	16052.77
247.326	16021.49
247.397	15990.88
247.468	15965.92
247.539	15929.91
247.61	15885.23
247.681	15859.97
247.752	15847.3
247.823	15806.18
247.894	15792.11
247.965	15752.58
248.037	15728.24
248.108	15682.4
248.179	15660.28
248.25	15624.8
248.321	15605.91
248.392	15561.28
248.463	15557.23
248.534	15527.54
248.605	15504.45
248.675	15468.35
248.746	15443.09
248.817	15416.29
248.888	15382.4
248.959	15330.88
249.03	15311.88
249.101	15290.53
249.172	15250.09
249.243	15199.72
249.314	15190.36
249.385	15149.97
249.456	15124.95
249.527	15087.98
249.598	15069.91
249.669	15037.61
249.739	15018.62
249.81	14997.02
249.881	14954.27
249.952	14931.23
250.023	14898.54
250.094	14855.88
250.165	14811.15
250.235	14787.72
250.306	14758.27
250.377	14721.78
250.448	14702.6
250.519	14655.36
250.59	14640.17
250.66	14619.68
250.731	14614.91
250.802	14580.25
250.873	14562.13
250.944	14539.04
251.014	14505.63
251.085	14497.24
251.156	14476.95
251.227	14460.99
251.297	14446.15
251.368	14433.81
251.439	14404.55
251.51	14389.51
251.58	14348.92
251.651	14323.46
251.722	14307.7
251.792	14268.56
251.863	14248.94
251.934	14237.46
252.005	14235.44
252.075	14203.77
252.146	14193.5
252.217	14173.69
252.287	14161.4
252.358	14132.95
252.429	14127.99
252.499	14099.6
252.57	14075.4
252.641	14055.82
252.711	14025.89
252.782	13980.82
252.852	13973.92
252.923	13952.95
252.994	13928.17
253.064	13923.4
253.135	13888.6
253.205	13850.03
253.276	13841.45
253.347	13826.31
253.417	13784.42
253.488	13757.28
253.558	13730.58
253.629	13702.04
253.699	13678.18
253.77	13660.63
253.841	13635.08
253.911	13613.39
253.982	13600.18
254.052	13577.76
254.123	13561.23
254.193	13540.84
254.264	13551.87
254.334	13514.18
254.405	13478.41
254.475	13447.6
254.546	13422.49
254.616	13411.83
254.687	13395.69
254.757	13376.11
254.827	13354.76
254.898	13346.8
254.968	13323.57
255.039	13292.48
255.109	13278.21
255.18	13245.67
255.25	13196.69
255.321	13183.82
255.391	13145.88
255.461	13137.68
255.532	13093.53
255.602	13059.98
255.673	13013.41
255.743	12985.74
255.813	12943.12
255.884	12934.11
255.954	12915.5
256.024	12906.68
256.095	12882.58
256.165	12851.34
256.235	12836.3
256.306	12807.23
256.376	12794.89
256.446	12782.55
256.517	12766.45
256.587	12746.54
256.657	12727.02
256.728	12717.09
256.798	12691.88
256.868	12671.39
256.938	12638.95
257.009	12623.57
257.079	12612.63
257.149	12629.07
257.219	12585.97
257.29	12577.05
257.36	12537.09
257.43	12519.5
257.5	12483.83
257.571	12462.62
257.641	12444.2
257.711	12408.72
257.781	12400.72
257.852	12382.07
257.922	12340.03
257.992	12319.5
258.062	12297.13
258.132	12287.54
258.202	12260.59
258.273	12242.85
258.343	12238.76
258.413	12211.96
258.483	12195.9
258.553	12161.25
258.623	12122.39
258.693	12110.49
258.764	12103.98
258.834	12098
258.904	12089.28
258.974	12052.36
259.044	12034.86
259.114	12024.55
259.184	12011.48
259.254	11983.86
259.324	11943.86
259.394	11938.85
259.464	11932.1
259.535	11911.13
259.605	11884.91
259.675	11858.78
259.745	11847.36
259.815	11814.78
259.885	11792.61
259.955	11802.01
260.025	11777.14
260.095	11761.47
260.165	11745.13
260.235	11738.19
260.305	11710.24
260.375	11675.97
260.445	11686.28
260.515	11678.38
260.585	11666.42
260.655	11645.6
260.725	11639.86
260.795	11630.56
260.865	11629.21
260.934	11600.1
261.004	11589.79
261.074	11578.22
261.144	11582.75
261.214	11570.12
261.284	11554.8
261.354	11543.47
261.424	11509.63
261.494	11515.42
261.564	11496.43
261.634	11482.06
261.703	11442.06
261.773	11431.8
261.843	11424.52
261.913	11398.64
261.983	11366.54
262.053	11355.79
262.123	11334.88
262.192	11301.29
262.262	11291.02
262.332	11248.08
262.402	11247.07
262.472	11231.98
262.541	11191.74
262.611	11179.89
262.681	11152.8
262.751	11146.97
262.821	11132.51
262.89	11107.45
262.96	11087.45
263.03	11082.68
263.1	11066.73
263.169	11054.25
263.239	11039.89
263.309	11033.62
263.379	11027.07
263.448	11014.68
263.518	10998.06
263.588	10980.28
263.657	10984.52
263.727	10975.94
263.797	10974.4
263.867	10957.05
263.936	10925.15
264.006	10926.06
264.076	10904.96
264.145	10888.52
264.215	10858.5
264.285	10849.88
264.354	10817.01
264.424	10793.21
264.494	10769.74
264.563	10757.36
264.633	10763.05
264.702	10753.12
264.772	10727.87
264.842	10705.99
264.911	10692.55
264.981	10664.79
265.05	10654.82
265.12	10633.28
265.19	10625.67
265.259	10610.68
265.329	10593.14
265.398	10583.41
265.468	10592.47
265.537	10573.82
265.607	10562.4
265.676	10555.8
265.746	10540.77
265.815	10536.58
265.885	10524.87
265.955	10494.37
266.024	10473.85
266.094	10435.16
266.163	10435.54
266.232	10439.16
266.302	10423.55
266.371	10413.91
266.441	10399.99
266.51	10393.34
266.58	10370.84
266.649	10337.31
266.719	10332.1
266.788	10324.68
266.858	10325.6
266.927	10279.49
266.996	10268.12
267.066	10257.62
267.135	10234.54
267.205	10231.61
267.274	10223.99
267.343	10222.69
267.413	10215.18
267.482	10215.56
267.552	10219.27
267.621	10184.49
267.69	10150.81
267.76	10141.81
267.829	10130.97
267.898	10116.71
267.968	10093.73
268.037	10096.77
268.106	10096.86
268.176	10073.64
268.245	10056.01
268.314	10032.89
268.384	10034.67
268.453	10026.58
268.522	10019.98
268.592	10016.17
268.661	9991.8
268.73	9982.55
268.799	9961.5
268.869	9967.52
268.938	9933.7
269.007	9907.74
269.076	9902.92
269.146	9896.23
269.215	9887.8
269.284	9895.65
269.353	9879.85
269.422	9869.5
269.492	9847.15
269.561	9810.64
269.63	9808.57
269.699	9791.85
269.768	9782.99
269.838	9780.05
269.907	9770.04
269.976	9746.72
270.045	9720.19
270.114	9712.34
270.183	9694.32
270.253	9682.23
270.322	9648.18
270.391	9640.38
270.46	9643.32
270.529	9641.78
270.598	9641.35
270.667	9618.66
270.736	9590.73
270.806	9587.5
270.875	9589.81
270.944	9580.47
271.013	9600.74
271.082	9586.2
271.151	9586.25
271.22	9559.62
271.289	9543.43
271.358	9533.27
271.427	9527.78
271.496	9518.63
271.565	9504.81
271.634	9492.63
271.703	9496.82
271.772	9502.41
271.841	9489.93
271.91	9467.35
271.979	9455.69
272.048	9437.63
272.117	9447.27
272.186	9436.09
272.255	9435.47
272.324	9431.13
272.393	9423.48
272.462	9400.41
272.531	9394.73
272.6	9384.95
272.669	9390.2
272.738	9376.72
272.807	9370.46
272.876	9349.27
272.945	9379.27
273.013	9381.44
273.082	9384.57
273.151	9363.62
273.22	9358.95
273.289	9358.03
273.358	9371.81
273.427	9358.95
273.496	9351.73
273.564	9342.58
273.633	9341.95
273.702	9322.74
273.771	9307.18
273.84	9299.1
273.909	9303.57
273.977	9294.52
274.046	9281.52
274.115	9280.32
274.184	9265.2
274.253	9254.41
274.322	9262.26
274.39	9222.49
274.459	9208.81
274.528	9180.89
274.597	9172.42
274.665	9165
274.734	9165.29
274.803	9142.61
274.872	9132.02
274.94	9114.35
275.009	9138.82
275.078	9121.73
275.147	9113.25
275.215	9104.68
275.284	9112.68
275.353	9100.73
275.421	9077.19
275.49	9086.05
275.559	9077.34
275.627	9074.02
275.696	9066.26
275.765	9057.65
275.833	9049.85
275.902	9048.41
275.971	9063.14
276.039	9080.23
276.108	9085.38
276.177	9078.88
276.245	9075.41
276.314	9071.32
276.383	9079.31
276.451	9045.7
276.52	9046.18
276.588	9058.94
276.657	9062.5
276.725	9045.56
276.794	9039.49
276.863	9050.61
276.931	9027.35
277	9038
277.068	9044.2
277.137	9059.95
277.205	9061.68
277.274	9084.36
277.342	9094.03
277.411	9075.5
277.48	9056.63
277.548	9041.65
277.617	9045.31
277.685	9038.19
277.754	9045.94
277.822	9036.7
277.89	9042.96
277.959	9038.48
278.027	9020.52
278.096	9009.21
278.164	9033.62
278.233	9030.88
278.301	9016.53
278.37	9018.46
278.438	9003.1
278.507	9007.33
278.575	8980.62
278.643	8972.53
278.712	8949.52
278.78	8929.83
278.849	8941.48
278.917	8950.72
278.985	8943.4
279.054	8936.9
279.122	8949.52
279.191	8941.09
279.259	8937.77
279.327	8916.44
279.396	8930.93
279.464	8926.84
279.532	8933.68
279.601	8927.32
279.669	8917.69
279.737	8932.62
279.806	8939.89
279.874	8945.95
279.942	8937.91
280.011	8930.55
280.079	8934.93
280.147	8950.72
280.215	8955.2
280.284	8944.22
280.352	8934.06
280.42	8947.64
280.488	8940.56
280.557	8925.25
280.625	8930.4
280.693	8931.42
280.761	8938.64
280.83	8916.25
280.898	8931.94
280.966	8914.09
281.034	8887.85
281.102	8875.43
281.171	8865.27
281.239	8869.8
281.307	8858.92
281.375	8852.61
281.443	8876.06
281.512	8873.02
281.58	8874.66
281.648	8858.68
281.716	8856.27
281.784	8850.5
281.852	8839.71
281.92	8840.29
281.989	8856.85
282.057	8835.96
282.125	8881.46
282.193	8877.85
282.261	8882.86
282.329	8871.35
282.397	8876.55
282.465	8877.42
282.533	8891.95
282.601	8887.77
282.67	8868.46
282.738	8862.73
282.806	8864.95
282.874	8854.5
282.942	8858.83
283.01	8852
283.078	8863.98
283.146	8863.4
283.214	8874.77
283.282	8875.68
283.35	8888.1
283.418	8880.93
283.486	8889.93
283.554	8835.14
283.622	8833.11
283.69	8829.07
283.758	8827.39
283.826	8827.29
283.894	8837.3
283.962	8852.8
284.03	8864.5
284.098	8858.39
284.165	8853.29
284.233	8854.44
284.301	8850.54
284.369	8839.42
284.437	8831.91
284.505	8824.07
284.573	8839.71
284.641	8822
284.709	8831.87
284.777	8815.36
284.845	8817.76
284.912	8818.53
284.98	8827.29
285.048	8822.86
285.116	8829.27
285.184	8841.4
285.252	8846.55
285.319	8826.86
285.387	8818.58
285.455	8801.49
285.523	8814.06
285.591	8809.39
285.659	8809.39
285.726	8816.37
285.794	8802.84
285.862	8800.1
285.93	8793.8
285.997	8786.91
286.065	8784.99
286.133	8773.58
286.201	8764.82
286.269	8757.21
286.336	8749.22
286.404	8744.84
286.472	8752.78
286.539	8727.04
286.607	8706.1
286.675	8707.11
286.743	8717.89
286.81	8710.77
286.878	8724.58
286.946	8715.1
287.013	8710.24
287.081	8712.26
287.149	8698.73
287.216	8717.84
287.284	8714.57
287.352	8717.5
287.419	8715.92
287.487	8726.99
287.555	8727.66
287.622	8729.92
287.69	8728.77
287.758	8738.25
287.825	8734.25
287.893	8722.12
287.96	8731.99
288.028	8743.15
288.096	8742.24
288.163	8738.15
288.231	8727.13
288.298	8724.29
288.366	8736.32
288.433	8742.34
288.501	8731.36
288.569	8729.82
288.636	8721.88
288.704	8734.73
288.771	8746.86
288.839	8733.38
288.906	8732.23
288.974	8744.12
289.041	8740.65
289.109	8732.91
289.176	8737.62
289.244	8734.69
289.311	8746.72
289.379	8752.06
289.446	8750.33
289.514	8745.42
289.581	8749.27
289.649	8756.63
289.716	8754.52
289.783	8744.36
289.851	8758.99
289.918	8760.68
289.986	8775.84
290.053	8784.79
290.121	8776.99
290.188	8775.12
290.255	8807.46
290.323	8802.31
290.39	8795.72
290.458	8807.03
290.525	8822.24
290.592	8819.59
290.66	8822.96
290.727	8815.31
290.794	8835.33
290.862	8837.35
290.929	8841.92
290.996	8845.58
291.064	8854.34
291.131	8872.83
291.198	8882.31
291.266	8885.3
291.333	8888.38
291.4	8894.3
291.468	8907.87
291.535	8906
291.602	8909.61
291.669	8898.49
291.737	8905.27
291.804	8909.51
291.871	8919.04
291.938	8927.18
292.006	8954.96
292.073	8978.35
292.14	8987.3
292.207	8978.16
292.275	8981.62
292.342	8989.52
292.409	9009.69
292.476	9032.8
292.543	9019.66
292.611	9023.08
292.678	9037.23
292.745	9062.26
292.812	9069.92
292.879	9065.01
292.946	9073
293.014	9085.76
293.081	9098.66
293.148	9109.49
293.215	9121
293.282	9117.15
293.349	9125.28
293.416	9105.73
293.484	9116.09
293.551	9127.3
293.618	9143.48
293.685	9170.44
293.752	9167.51
293.819	9167.99
293.886	9149.69
293.953	9159.56
294.02	9169.57
294.087	9174.53
294.154	9166.01
294.221	9181.9
294.288	9182.96
294.356	9196.87
294.423	9201.59
294.49	9190.28
294.557	9200.87
294.624	9189.75
294.691	9207.03
294.758	9204.43
294.825	9216.37
294.892	9203.37
294.959	9198.13
295.026	9207.23
295.093	9198.85
295.16	9203.76
295.226	9203.37
295.293	9230.05
295.36	9231.01
295.427	9244.3
295.494	9256.97
295.561	9268.81
295.628	9288.27
295.695	9307.24
295.762	9310.18
295.829	9317.26
295.896	9334.49
295.963	9351.93
296.03	9365.12
296.096	9372.1
296.163	9382.36
296.23	9391.65
296.297	9410.77
296.364	9420.59
296.431	9422.56
296.498	9422.66
296.564	9439.8
296.631	9444.09
296.698	9426.22
296.765	9450.2
296.832	9438.89
296.899	9425.59
296.965	9442.79
297.032	9422.03
297.099	9434.45
297.166	9442.25
297.233	9442.88
297.299	9437.92
297.366	9428.82
297.433	9424.92
297.5	9437.44
297.566	9439.22
297.633	9439.75
297.7	9439.13
297.767	9436.43
297.833	9446.35
297.9	9443.03
297.967	9429.83
298.033	9443.08
298.1	9480.59
298.167	9471.64
298.234	9475.87
298.3	9486.61
298.367	9476.5
298.434	9486.8
298.5	9478.62
298.567	9476.31
298.634	9472.6
298.7	9487.09
298.767	9492.82
298.834	9510.45
298.9	9500.62
298.967	9493.35
299.033	9503.27
299.1	9522.25
299.167	9536.69
299.233	9529.61
299.3	9540.11
299.366	9556.53
299.433	9567.42
299.5	9540.93
299.566	9541.7
299.633	9557.83
299.699	9566.31
299.766	9564.38
299.832	9562.94
299.899	9569.82
299.965	9582.58
300.032	9584.41
300.099	9594
300.165	9590.68
300.232	9587.3
300.298	9591.78
300.365	9610.37
300.431	9612.54
300.498	9599.58
300.564	9604.64
300.631	9617.26
300.697	9636.04
300.763	9639.17
300.83	9633.06
300.896	9636.28
300.963	9641.87
301.029	9645.48
301.096	9648.56
301.162	9663.01
301.229	9659.98
301.295	9649.57
301.361	9647.02
301.428	9649.96
301.494	9636.96
301.561	9644.13
301.627	9645.96
301.693	9650.63
301.76	9646.25
301.826	9639.03
301.892	9651.45
301.959	9660.8
302.025	9653.23
302.092	9641.29
302.158	9642.88
302.224	9653.96
302.291	9655.16
302.357	9654.15
302.423	9647.36
302.49	9640.91
302.556	9651.65
302.622	9654.3
302.688	9667.35
302.755	9684.2
302.821	9683.39
302.887	9692.78
302.954	9694.51
303.02	9706.79
303.086	9709.15
303.152	9711.37
303.219	9702.99
303.285	9709.92
303.351	9711.18
303.417	9716.81
303.483	9710.98
303.55	9705.88
303.616	9698.85
303.682	9694.8
303.748	9685.03
303.815	9706.36
303.881	9717.54
303.947	9702.75
304.013	9703.09
304.079	9691.34
304.145	9671.45
304.212	9676.6
304.278	9668.22
304.344	9659.6
304.41	9638.84
304.476	9628
304.542	9623.28
304.608	9638.79
304.674	9615.67
304.741	9612.01
304.807	9611.15
304.873	9616.25
304.939	9633.93
305.005	9619.04
305.071	9613.17
305.137	9615.96
305.203	9585.81
305.269	9584.61
305.335	9592.75
305.401	9588.8
305.467	9587.64
305.533	9599.49
305.599	9603.15
305.666	9606.09
305.732	9604.64
305.798	9625.59
305.864	9650.45
305.93	9654.78
305.996	9643.8
306.062	9645.05
306.128	9639.27
306.194	9625.74
306.259	9622.51
306.325	9609.6
306.391	9618.61
306.457	9633.88
306.523	9640.52
306.589	9659.83
306.655	9650.49
306.721	9633.78
306.787	9624.77
306.853	9641.53
306.919	9621.6
306.985	9613.02
307.051	9603.73
307.117	9599.83
307.183	9590.82
307.248	9561.44
307.314	9563.56
307.38	9569.39
307.446	9579.26
307.512	9565.44
307.578	9570.74
307.644	9564.91
307.709	9565.25
307.775	9560.34
307.841	9550.95
307.907	9549.16
307.973	9532.69
308.039	9527.44
308.104	9534.71
308.17	9537.22
308.236	9522.19
308.302	9522.53
308.368	9516.12
308.433	9520.27
308.499	9519.16
308.565	9504.81
308.631	9505.29
308.696	9479.86
308.762	9464.07
308.828	9457.57
308.894	9445.34
308.959	9425.88
309.025	9418.56
309.091	9418.18
309.156	9404.69
309.222	9405.7
309.288	9391.93
309.354	9375.75
309.419	9372.43
309.485	9358.37
309.551	9356.49
309.616	9338.96
309.682	9341.85
309.748	9330.68
309.813	9320.43
309.879	9306.99
309.945	9292.36
310.01	9287.68
310.076	9291.1
310.141	9288.31
310.207	9272.85
310.273	9274.44
310.338	9279.59
310.404	9265.39
310.469	9241.6
310.535	9235.15
310.601	9216.9
310.666	9221.43
310.732	9228.46
310.797	9209.68
310.863	9197.26
310.928	9188.35
310.994	9190.52
311.059	9176.94
311.125	9176.6
311.191	9188.88
311.256	9181.61
311.322	9193.31
311.387	9174
311.453	9473.24
311.518	9453.31
311.584	9446.33
311.649	9448.69
311.715	9435.55
311.78	9437.09
311.846	9430.49
311.911	9436.41
311.976	9432.95
312.042	9418.65
312.107	9401.08
312.173	9405.36
312.238	9395.68
312.304	9398.38
312.369	9391.93
312.434	9383.5
312.5	9376.43
312.565	9339.16
312.631	9339.11
312.696	9326.26
312.761	9326.64
312.827	9020.57
312.892	9059.47
312.958	9060.87
313.023	9057.83
313.088	9060.67
313.154	9041.28
313.219	9037.19
313.284	9027.99
313.35	9020.91
313.415	9013.07
313.48	9005.51
313.546	8999.78
313.611	9006.37
313.676	8991.11
313.741	8974.79
313.807	8983.27
313.872	8989.77
313.937	9003.15
314.003	9015.57
314.068	9015.14
314.133	9021.97
314.198	9010.42
314.264	8979.99
314.329	8969.63
314.394	8959.77
314.459	8949.13
314.525	8978.92
314.59	8978.73
314.655	8967.71
314.72	8978.15
314.785	8974.88
314.851	8971.32
314.916	8953.7
314.981	8939.65
315.046	8926.55
315.111	8920.1
315.176	8908.45
315.242	8905.52
315.307	8903.25
315.372	8877.74
315.437	8867.58
315.502	8859.35
315.567	8871.68
315.632	8858.49
315.698	8858.58
315.763	8856.61
315.828	8848.04
315.893	8832.15
315.958	8818.58
316.023	8810.06
316.088	8786.33
316.153	8768.52
316.218	8757.74
316.283	8742.1
316.348	8727.43
316.413	8723.43
316.479	8709
316.544	8671.94
316.609	8645.08
316.674	8607.5
316.739	8576.61
316.804	8547.59
316.869	8513.18
316.934	8465.63
316.999	8437.77
317.064	8386
317.129	8339.95
317.194	8305.5
317.259	8257
317.324	8210.44
317.389	8161.03
317.454	8118.51
317.518	8082.38
317.583	8056.5
317.648	8029.71
317.713	7994.11
317.778	7937.21
317.843	7905.61
317.908	7868.53
317.973	7827.74
318.038	7796.34
318.103	7758.26
318.168	7723.06
318.233	7688.63
318.297	7641.7
318.362	7598.28
318.427	7551.51
318.492	7526.36
318.557	7478.06
318.622	7456.37
318.687	7431.33
318.751	7393.17
318.816	7362.55
318.881	7329.1
318.946	7271.18
319.011	7226.34
319.075	7182.99
319.14	7146.48
319.205	7097.99
319.27	7066.14
319.335	7015.69
319.399	6976
319.464	6945.15
319.529	6891.74
319.594	6852.34
319.658	6818.24
319.723	6778.7
319.788	6753.21
319.853	6696.82
319.917	6661.96
319.982	6600.87
320.047	6559.62
320.112	6530.81
320.176	6480.2
320.241	6440.54
320.306	6413.46
320.37	6371.99
320.435	6339.92
320.5	6312.17
320.564	6275.36
320.629	6231.4
320.694	6201.07
320.758	6156.01
320.823	6112.67
320.888	6082.16
320.952	6033.79
321.017	5993.83
321.082	5952.91
321.146	5917.36
321.211	5885.85
321.275	5848.34
321.34	5806.34
321.405	5759.92
321.469	5709.57
321.534	5668.58
321.598	5619.38
321.663	5584.33
321.727	5549.28
321.792	5500.86
321.857	5453.69
321.921	5411.56
321.986	5366.23
322.05	5307.15
322.115	5268.33
322.179	5224.25
322.244	5171.27
322.308	5132.04
322.373	5084.76
322.437	5041.6
322.502	5016.25
322.566	4970.89
322.631	4932.63
322.695	4894.95
322.76	4853.2
322.824	4823.95
322.889	4782.26
322.953	4737.89
323.018	4673.51
323.082	4611.36
323.146	4558.97
323.211	4507.77
323.275	4463.61
323.34	4422.43
323.404	4391.34
323.468	4342.83
323.533	4297.31
323.597	4252.61
323.662	4201.78
323.726	4164.63
323.79	4117.59
323.855	4050.29
323.919	4001.68
323.983	3958.99
324.048	3891.5
324.112	4021.64
324.177	3885.57
324.241	3682.35
324.305	3483.75
324.37	3290.66
324.434	3103.54
324.498	3061.48
324.562	3011.28
324.627	2953.78
324.691	2896.6
324.755	2827.07
324.82	2755.49
324.884	2680.07
324.948	2607.23
325.012	2516.5
325.077	2397.22
