Data from 20250630_urea_2M_MAYP1162681_09-12-26-759.txt Node
Date: Tue Jul 01 09:12:26 BST 2025
User: adleo
Spectrometer: MAYP116268
Trigger mode: 0
Integration Time (sec): 1.000000E0
Scans to average: 1
Electric dark correction enabled: true
Nonlinearity correction enabled: true
Boxcar width: 10
XAxis mode: Wavelengths
Number of Pixels in Spectrum: 2068
>>>>>Begin Spectral Data<<<<<
179.565	1094.34
179.642	1145.71
179.718	1182.57
179.795	1218.29
179.871	1246.6
179.948	1260.08
180.024	1280.43
180.101	1301.45
180.177	1314.85
180.254	1336.09
180.33	1356.73
180.407	1402.63
180.483	1489.81
180.56	1572.8
180.636	1649
180.712	1640.35
180.789	1650.52
180.865	1660.63
180.942	1669.56
181.018	1677.49
181.095	1690.33
181.171	1693.98
181.248	1694.6
181.324	1709.43
181.4	1715.18
181.477	1725.21
181.553	1738.7
181.63	1755.09
181.706	1771.73
181.782	1778.04
181.859	1776
181.935	1782.99
182.011	1778.28
182.088	1793.11
182.164	1809.56
182.24	1822.44
182.317	1828.05
182.393	1827.14
182.469	1842.97
182.546	1854
182.622	1861.03
182.698	1856.61
182.775	1868.83
182.851	1880.99
182.927	1876.05
183.003	1870.54
183.08	1866.4
183.156	1875.34
183.232	1874.44
183.308	1861.03
183.385	1871.11
183.461	1890.74
183.537	1887.46
183.613	1900.44
183.69	1890.69
183.766	1879.85
183.842	1885.37
183.918	1890.69
183.995	1902.53
184.071	1903.67
184.147	1897.82
184.223	1886.84
184.299	1897.4
184.375	1885.94
184.452	1891.46
184.528	1940.68
184.604	1952.37
184.68	1966.06
184.756	1972.43
184.832	1975.71
184.908	1981.13
184.985	1978.8
185.061	1962.4
185.137	1970.53
185.213	1959.78
185.289	1961.11
185.365	1956.36
185.441	1955.17
185.517	1967.97
185.593	1964.97
185.669	1962.02
185.745	1972.53
185.822	1986.74
185.898	1978.89
185.974	1987.88
186.05	1981.22
186.126	1946.32
186.202	1938.71
186.278	1932.62
186.354	1924.16
186.43	1931.82
186.506	1929.77
186.582	1928.73
186.658	1936.05
186.734	1919.6
186.81	1922.36
186.886	1926.11
186.962	1936.43
187.038	1932.86
187.114	1924.21
187.19	1930.39
187.266	1924.11
187.341	1927.73
187.417	1921.65
187.493	1922.98
187.569	1925.92
187.645	1920.03
187.721	1908.33
187.797	1917.74
187.873	1922.4
187.949	1916.7
188.025	1909.76
188.101	1910.85
188.176	1912.89
188.252	1905.33
188.328	1912.03
188.404	1910.56
188.48	1904.48
188.556	1896.11
188.632	1894.4
188.707	1894.4
188.783	1890.55
188.859	1884.56
188.935	1871.72
189.011	1878.9
189.086	1873.34
189.162	1865.92
189.238	1865.11
189.314	1863.07
189.39	1858.12
189.465	1849.99
189.541	1862.93
189.617	1848.57
189.693	1844.82
189.768	1849.95
189.844	1875.82
189.92	1867.13
189.996	1876.63
190.071	1888.99
190.147	1889.23
190.223	1899.69
190.298	1893.27
190.374	1881.01
190.45	1892.18
190.526	1899.69
190.601	1895.74
190.677	1895.6
190.753	1921.86
190.828	1926.37
190.904	1938.83
190.98	1950.86
191.055	1961.13
191.131	1955.05
191.207	1975.54
191.282	1986.61
191.358	1979.77
191.433	1964.26
191.509	1977.99
191.585	1974.33
191.66	1975.52
191.736	1982.37
191.811	1975.52
191.887	1990.21
191.963	2013.61
192.038	2015.79
192.114	2013.37
192.189	2017.51
192.265	2014.13
192.34	1993.15
192.416	1987.69
192.491	1983.98
192.567	1986.59
192.642	1988.45
192.718	1992.82
192.793	1979.55
192.869	1976.32
192.944	1978.79
193.02	1985.59
193.095	1989.64
193.171	1994.2
193.246	1992.16
193.322	1990.3
193.397	1989.92
193.473	1977.46
193.548	1958.58
193.624	1965.29
193.699	1967.28
193.775	1979.36
193.85	1983.02
193.925	1991.92
194.001	1994.34
194.076	1987.26
194.152	1980.6
194.227	1974.27
194.302	1961.96
194.378	1965.43
194.453	1960.96
194.529	1970.52
194.604	1957.25
194.679	1951.6
194.755	1935.96
194.83	1947.75
194.905	1946.99
194.981	1955.5
195.056	1950.42
195.131	1957.93
195.207	1957.45
195.282	1948.85
195.357	1931.54
195.433	1945.09
195.508	1933.06
195.583	1939.05
195.659	1953.65
195.734	1956.07
195.809	1955.84
195.884	1963.49
195.96	1964.34
196.035	1980.89
196.11	1977.56
196.185	1988.26
196.261	1990.26
196.336	2017.55
196.411	2005.23
196.486	2010.32
196.561	2004.71
196.637	2011.89
196.712	2026.78
196.787	2028.96
196.862	2040.04
196.937	2050.03
197.013	2054.5
197.088	2065.29
197.163	2087.89
197.238	2103.65
197.313	2106.17
197.388	2117.11
197.464	2147.61
197.539	2158.17
197.614	2148.61
197.689	2160.12
197.764	2175.44
197.839	2196.37
197.914	2190.95
197.989	2211.03
198.065	2221.16
198.14	2264.34
198.215	2288.18
198.29	2297.89
198.365	2310.55
198.44	2321.68
198.515	2349.62
198.59	2364.33
198.665	2390.27
198.74	2397.27
198.815	2397.84
198.89	2417.55
198.965	2445.93
199.04	2441.88
199.115	2454.4
199.19	2494.62
199.265	2501.19
199.34	2509.9
199.415	2538.72
199.49	2561.19
199.565	2569.91
199.64	2593.95
199.715	2592.76
199.79	2599.05
199.865	2607.76
199.94	2607.72
200.015	2638.25
200.09	2643.63
200.165	2649.73
200.24	2655.54
200.315	2692.49
200.39	2704.68
200.464	2706.26
200.539	2707.5
200.614	2723.69
200.689	2748.32
200.764	2754.33
200.839	2766.47
200.914	2771.9
200.989	2766.13
201.063	2775.47
201.138	2760.38
201.213	2761.14
201.288	2741.71
201.363	2745.18
201.438	2745.8
201.512	2759.57
201.587	2742.65
201.662	2745.61
201.737	2757.85
201.812	2762.95
201.886	2731.81
201.961	2742.92
202.036	2733.44
202.111	2730.97
202.186	2701.63
202.26	2683.91
202.335	2662.47
202.41	2658.47
202.485	2642.56
202.559	2621.84
202.634	2598.08
202.709	2606.03
202.784	2586.31
202.858	2589.21
202.933	2573.74
203.008	2566.54
203.082	2548.45
203.157	2549.16
203.232	2509.89
203.306	2489.5
203.381	2461.49
203.456	2438.73
203.53	2415.05
203.605	2398.54
203.68	2377.44
203.754	2371.12
203.829	2356.55
203.904	2339.99
203.978	2328.23
204.053	2330.85
204.127	2317.38
204.202	2315.86
204.277	2301.06
204.351	2294.11
204.426	2286.59
204.5	2281.3
204.575	2249.14
204.65	2258.95
204.724	2249.8
204.799	2257.79
204.873	2254.27
204.948	2251.99
205.022	2242.47
205.097	2237.14
205.171	2251.51
205.246	2259.98
205.32	2261.22
205.395	2262.79
205.469	2256.42
205.544	2260.84
205.618	2246.19
205.693	2260.23
205.767	2249.24
205.842	2269.46
205.916	2267.18
205.991	2259.52
206.065	2262.28
206.14	2277.69
206.214	2271.88
206.289	2265.79
206.363	2277.11
206.438	2279.25
206.512	2285.54
206.586	2302.76
206.661	2307.62
206.735	2287.26
206.81	2286.21
206.884	2298.87
206.958	2287.21
207.033	2302.15
207.107	2309.29
207.181	2338.71
207.256	2331.71
207.33	2347.04
207.405	2356.71
207.479	2373.6
207.553	2377.93
207.628	2364.52
207.702	2375.13
207.776	2370.89
207.851	2374.41
207.925	2385.46
207.999	2382.42
208.073	2379.47
208.148	2379.66
208.222	2371.51
208.296	2399.54
208.371	2414.97
208.445	2425.64
208.519	2452.67
208.593	2462.15
208.668	2458.96
208.742	2460.72
208.816	2461.15
208.89	2477.01
208.965	2477.01
209.039	2482.91
209.113	2499
209.187	2518.61
209.261	2514.85
209.336	2531.28
209.41	2552.14
209.484	2553.52
209.558	2574
209.632	2588.38
209.707	2600.66
209.781	2618
209.855	2632.62
209.929	2648.97
210.003	2653.36
210.077	2650.02
210.151	2691.97
210.226	2722.76
210.3	2750.18
210.374	2773.04
210.448	2775.8
210.522	2781.14
210.596	2792.05
210.67	2802.44
210.744	2846
210.818	2874.73
210.892	2895.27
210.966	2889.27
211.041	2903.23
211.115	2900.8
211.189	2922.29
211.263	2936.97
211.337	2944.55
211.411	2956.94
211.485	2952.22
211.559	2962.56
211.633	2971.19
211.707	2948.58
211.781	2958.21
211.855	2927.7
211.929	2921.79
212.003	2907.98
212.077	2926.34
212.151	2939.26
212.225	2954.42
212.299	2946.98
212.373	2940.4
212.447	2939.78
212.52	2969.24
212.594	2977.49
212.668	2992.94
212.742	2989.5
212.816	2992.84
212.89	2998.94
212.964	3007.86
213.038	3019.6
213.112	3040.48
213.186	3059.98
213.26	3049.31
213.333	3018.89
213.407	3031.9
213.481	3048.77
213.555	3071.35
213.629	3073.07
213.703	3072.74
213.777	3086.86
213.85	3087.96
213.924	3139.11
213.998	3157.91
214.072	3173.9
214.146	3184.21
214.219	3205.68
214.293	3224.71
214.367	3252.53
214.441	3285.84
214.515	3302.69
214.588	3311.9
214.662	3309.66
214.736	3323.21
214.81	3360.21
214.883	3403
214.957	3431.43
215.031	3454.28
215.105	3473.65
215.178	3497.47
215.252	3527.98
215.326	3542.83
215.4	3565.16
215.473	3562.01
215.547	3588.95
215.621	3616.38
215.694	3665.45
215.768	3687.56
215.842	3722.38
215.915	3756.27
215.989	3780.35
216.063	3819.07
216.136	3867.1
216.21	3917.69
216.284	3983.32
216.357	4041.78
216.431	4090.88
216.504	4153.52
216.578	4231.37
216.652	4297.24
216.725	4362.11
216.799	4435.12
216.873	4496.3
216.946	4568.06
217.02	4628.14
217.093	4686.96
217.167	4736.65
217.24	4784.53
217.314	4848.08
217.387	4906.96
217.461	4965.67
217.535	5050.21
217.608	5111.95
217.682	5181.57
217.755	5264.54
217.829	5323.88
217.902	5391.65
217.976	5462.24
218.049	5525.43
218.123	5584.41
218.196	5667.64
218.27	5732.68
218.343	5794.03
218.417	5871.83
218.49	5941.72
218.563	6029.37
218.637	6109.36
218.71	6201.6
218.784	6288.81
218.857	6376.68
218.931	6459.32
219.004	6546.89
219.077	6622.87
219.151	6703.39
219.224	6781.1
219.298	6855.27
219.371	6942.66
219.444	7011.25
219.518	7090.23
219.591	7174.07
219.665	7281.56
219.738	7356.53
219.811	7421.31
219.885	7504.91
219.958	7592.55
220.031	7670.67
220.105	7753.19
220.178	7829.41
220.251	7902.46
220.325	7985.01
220.398	8067.16
220.471	8153.16
220.544	8234.66
220.618	8305.86
220.691	8389.29
220.764	8466.81
220.838	8549.19
220.911	8615.41
220.984	8711.7
221.057	8798.33
221.131	8873.51
221.204	8916.94
221.277	9014.52
221.35	9129.24
221.424	9202.52
221.497	9279.56
221.57	9354.52
221.643	9435.8
221.716	9528.31
221.79	9602.81
221.863	9681.94
221.936	9756.59
222.009	9829.65
222.082	9905.08
222.155	9971.07
222.229	10060.62
222.302	10140.87
222.375	10215.68
222.448	10300.04
222.521	10369.46
222.594	10436.71
222.667	10502.81
222.74	10595.36
222.814	10662.44
222.887	10728.8
222.96	10819.63
223.033	10897.69
223.106	10972.09
223.179	11041.58
223.252	11105.63
223.325	11175.12
223.398	11237.34
223.471	11306.88
223.544	11376.95
223.617	11446.59
223.69	11521.43
223.763	11570.4
223.837	11642.07
223.91	11706.99
223.983	11743.81
224.056	11801.12
224.129	11863.92
224.202	11934.05
224.275	11979.51
224.348	12028
224.42	12067.86
224.493	12101.41
224.566	12154.34
224.639	12221.48
224.712	12273.64
224.785	12325.02
224.858	12383.93
224.931	12435.99
225.004	12487.32
225.077	12545.07
225.15	12574.62
225.223	12632.42
225.296	12717.12
225.369	12745.61
225.442	12794.44
225.514	12868.48
225.587	12930.76
225.66	12989.96
225.733	13041.88
225.806	13115.92
225.879	13172.37
225.952	13225.3
226.025	13302.33
226.097	13369.77
226.17	13425.21
226.243	13465.51
226.316	13524.37
226.389	13584.34
226.461	13644.21
226.534	13697.72
226.607	13752.24
226.68	13838.63
226.753	13893.63
226.825	13930.13
226.898	14001.86
226.971	14058.84
227.044	14123.91
227.117	14183.69
227.189	14248.81
227.262	14316.4
227.335	14356.75
227.407	14406.59
227.48	14466.56
227.553	14516.4
227.626	14558.87
227.698	14612.47
227.771	14669.84
227.844	14713.13
227.916	14761.81
227.989	14803.94
228.062	14851.95
228.134	14923.1
228.207	14959.64
228.28	15005.1
228.352	15050.7
228.425	15102.66
228.498	15165.27
228.57	15200.9
228.643	15263.27
228.716	15306.12
228.788	15350.47
228.861	15399.97
228.934	15455.83
229.006	15499.36
229.079	15539.32
229.151	15587.13
229.224	15613.07
229.296	15670.57
229.369	15741.28
229.442	15798.83
229.514	15843.95
229.587	15907.28
229.659	15925.11
229.732	15973.26
229.804	16029.71
229.877	16092.51
229.949	16144.66
230.022	16199.12
230.094	16246.36
230.167	16281.3
230.239	16307.52
230.312	16347.67
230.384	16408.44
230.457	16459.72
230.529	16506.76
230.602	16547.11
230.674	16583.69
230.747	16640.66
230.819	16689.57
230.892	16695.94
230.964	16738.4
231.037	16778.35
231.109	16809.49
231.181	16859.75
231.254	16900.38
231.326	16930.84
231.399	16958.6
231.471	16991.28
231.544	17001.83
231.616	17046.27
231.688	17084.72
231.761	17127.67
231.833	17158.75
231.905	17171.62
231.978	17203.23
232.05	17238.61
232.122	17280.92
232.195	17311.38
232.267	17353.84
232.339	17375.33
232.412	17432.25
232.484	17459.14
232.556	17486.37
232.629	17541.98
232.701	17580.63
232.773	17602.99
232.846	17628.15
232.918	17666.41
232.99	17701.69
233.062	17745.02
233.135	17775.76
233.207	17782.89
233.279	17814.94
233.351	17849.74
233.424	17866.75
233.496	17867.47
233.568	17908.87
233.64	17914.89
233.713	17935.52
233.785	17956.1
233.857	17982.99
233.929	17979.08
234.001	18006.98
234.074	18047.22
234.146	18032.09
234.218	18047.71
234.29	18058.74
234.362	18076.52
234.434	18064.86
234.507	18058.21
234.579	18055.71
234.651	18053.87
234.723	18078.21
234.795	18097.05
234.867	18105.25
234.939	18141.29
235.012	18167.61
235.084	18174.79
235.156	18193.1
235.228	18196.62
235.3	18205.24
235.372	18209.43
235.444	18234.59
235.516	18222.25
235.588	18217.63
235.66	18239.75
235.732	18241.67
235.804	18305.24
235.876	18314.01
235.948	18334.2
236.02	18344.22
236.092	18356.27
236.164	18367.64
236.236	18373.19
236.308	18363.35
236.38	18364.22
236.452	18350.87
236.524	18354.49
236.596	18371.07
236.668	18380.61
236.74	18385.67
236.812	18383.21
236.884	18394.05
236.956	18392.41
237.028	18388.22
237.1	18385.52
237.172	18387.4
237.244	18391.5
237.316	18351.21
237.388	18343.79
237.46	18336.46
237.532	18348.99
237.604	18328.32
237.675	18344.42
237.747	18343.02
237.819	18341.38
237.891	18346.01
237.963	18340.56
238.035	18325.77
238.107	18279.99
238.178	18285.77
238.25	18270.35
238.322	18283.21
238.394	18259.5
238.466	18257.14
238.538	18251.22
238.609	18247.26
238.681	18228.28
238.753	18218.93
238.825	18206.78
238.897	18201.96
238.968	18212.28
239.04	18188.71
239.112	18204.62
239.184	18170.98
239.255	18151.99
239.327	18134.45
239.399	18116.62
239.471	18107.27
239.542	18097.63
239.614	18103.08
239.686	18073.3
239.758	18077.49
239.829	18049.68
239.901	18052.96
239.973	18034.55
240.044	18025.01
240.116	18005.11
240.188	17985.25
240.259	17960.77
240.331	17949.11
240.403	17939.28
240.474	17906.07
240.546	17890.27
240.618	17850.46
240.689	17828.05
240.761	17806.56
240.833	17811.04
240.904	17792.2
240.976	17775.14
241.048	17763.33
241.119	17743.57
241.191	17721.74
241.262	17715.33
241.334	17688.44
241.405	17654.75
241.477	17624.34
241.549	17601.12
241.62	17578.85
241.692	17561.74
241.763	17550.32
241.835	17515.29
241.906	17486.32
241.978	17441.55
242.049	17424.1
242.121	17418.27
242.192	17412.49
242.264	17382.47
242.335	17336.49
242.407	17316.3
242.478	17290.08
242.55	17264.1
242.621	17236.1
242.693	17204.34
242.764	17169.4
242.836	17133.21
242.907	17118.51
242.979	17096.2
243.05	17073.59
243.122	17054.27
243.193	17036.68
243.264	16985.59
243.336	16971.04
243.407	16962.55
243.479	16970.94
243.55	16949.35
243.622	16927.81
243.693	16894.17
243.764	16885.59
243.836	16856.33
243.907	16827.66
243.978	16790.26
244.05	16774.16
244.121	16744.09
244.192	16730.59
244.264	16688.03
244.335	16672.08
244.407	16634.25
244.478	16616.37
244.549	16590.63
244.62	16550.1
244.692	16518.19
244.763	16507.2
244.834	16471.82
244.906	16438.81
244.977	16414.18
245.048	16400.88
245.119	16361.99
245.191	16337.21
245.262	16282.07
245.333	16270.22
245.405	16244.82
245.476	16223.13
245.547	16193.92
245.618	16161.96
245.689	16127.02
245.761	16112.99
245.832	16086.2
245.903	16061.18
245.974	16030.04
246.045	15992.02
246.117	15985.56
246.188	15942.13
246.259	15902.99
246.33	15872.87
246.401	15831.8
246.473	15777.67
246.544	15740.03
246.615	15717.91
246.686	15676.84
246.757	15675.2
246.828	15641.75
246.899	15624.45
246.97	15580.39
247.042	15537.92
247.113	15520.04
247.184	15514.93
247.255	15481.58
247.326	15454.39
247.397	15424.75
247.468	15403.49
247.539	15380.98
247.61	15337.74
247.681	15321.45
247.752	15310.27
247.823	15275.08
247.894	15254.4
247.965	15217.48
248.037	15186.34
248.108	15151.44
248.179	15125.8
248.25	15095.33
248.321	15067.13
248.392	15020.28
248.463	15022.07
248.534	15000.13
248.605	14976.8
248.675	14937.28
248.746	14913.27
248.817	14898.23
248.888	14873.94
248.959	14830.7
249.03	14814.89
249.101	14792.38
249.172	14759.84
249.243	14709.46
249.314	14699.49
249.385	14667.33
249.456	14651.81
249.527	14620.38
249.598	14595.17
249.669	14567.6
249.739	14541.09
249.81	14517.9
249.881	14481.74
249.952	14458.37
250.023	14427.42
250.094	14394.45
250.165	14367.21
250.235	14332.89
250.306	14299.63
250.377	14263.13
250.448	14243.61
250.519	14189.04
250.59	14171.98
250.66	14145.7
250.731	14138.33
250.802	14105.65
250.873	14092.44
250.944	14067.51
251.014	14037.1
251.085	14040.81
251.156	14020.85
251.227	14001.71
251.297	13990.1
251.368	13986.62
251.439	13955.72
251.51	13943.63
251.58	13907.33
251.651	13876.14
251.722	13872.81
251.792	13826.58
251.863	13802.24
251.934	13787.15
252.005	13793.85
252.075	13768.83
252.146	13758.32
252.217	13738.55
252.287	13726.45
252.358	13693.87
252.429	13689.09
252.499	13657.81
252.57	13630.38
252.641	13619.24
252.711	13599.48
252.782	13558.79
252.852	13545.58
252.923	13529.72
252.994	13504.9
253.064	13493.91
253.135	13463.54
253.205	13425.55
253.276	13429.55
253.347	13414.61
253.417	13385.49
253.488	13359.41
253.558	13329.81
253.629	13299.83
253.699	13283.05
253.77	13262.42
253.841	13237.93
253.911	13216.91
253.982	13197.77
254.052	13176.08
254.123	13150.68
254.193	13123.58
254.264	13141.23
254.334	13105.02
254.405	13066.8
254.475	13038.21
254.546	13013.38
254.616	13002.63
254.687	12981.91
254.757	12961.95
254.827	12942.76
254.898	12923.91
254.968	12901.06
255.039	12877.97
255.109	12862.31
255.18	12832.66
255.25	12791.2
255.321	12780.65
255.391	12741.02
255.461	12736.97
255.532	12696.38
255.602	12670.21
255.673	12635.4
255.743	12595.01
255.813	12554.95
255.884	12546.95
255.954	12534.46
256.024	12533.79
256.095	12505.35
256.165	12479.75
256.235	12464.57
256.306	12438.1
256.376	12427.98
256.446	12410.77
256.517	12395.1
256.587	12386.96
256.657	12367.97
256.728	12349.55
256.798	12325.79
256.868	12305.69
256.938	12277.44
257.009	12262.45
257.079	12249.43
257.149	12247.22
257.219	12207.84
257.29	12192.12
257.36	12152.6
257.43	12137.17
257.5	12094.61
257.571	12076.44
257.641	12062.17
257.711	12031.99
257.781	12016.71
257.852	12002.06
257.922	11965.81
257.992	11944.61
258.062	11917.85
258.132	11908.69
258.202	11891.58
258.273	11874.86
258.343	11874.18
258.413	11851.67
258.483	11826.66
258.553	11792.48
258.623	11765.83
258.693	11751.03
258.764	11747.56
258.834	11746.12
258.904	11726.45
258.974	11693.68
259.044	11676.04
259.114	11658.64
259.184	11635.6
259.254	11613.48
259.324	11567.01
259.394	11555.88
259.464	11554.67
259.535	11532.31
259.605	11509.37
259.675	11482.96
259.745	11465.03
259.815	11435.68
259.885	11413.22
259.955	11424.01
260.025	11402.42
260.095	11381.17
260.165	11368.4
260.235	11365.41
260.305	11343.72
260.375	11309.6
260.445	11317.7
260.515	11320.92
260.585	11312.92
260.655	11295.48
260.725	11293.5
260.795	11294.61
260.865	11296.78
260.934	11263.43
261.004	11257.65
261.074	11230.95
261.144	11230.51
261.214	11223.91
261.284	11200.2
261.354	11190.08
261.424	11166.61
261.494	11168.39
261.564	11154.95
261.634	11145.98
261.703	11118.9
261.773	11108.68
261.843	11104.34
261.913	11081.93
261.983	11039.82
262.053	11024.2
262.123	11006.9
262.192	10976.74
262.262	10963.1
262.332	10931.1
262.402	10925.46
262.472	10906.23
262.541	10878.19
262.611	10872.5
262.681	10842.77
262.751	10836.12
262.821	10812.41
262.89	10779.55
262.96	10763.94
263.03	10771.98
263.1	10762.73
263.169	10735.41
263.239	10712.28
263.309	10715.41
263.379	10707.75
263.448	10697.35
263.518	10684.05
263.588	10670.8
263.657	10669.83
263.727	10660.05
263.797	10643.86
263.867	10629.55
263.936	10599.68
264.006	10594.62
264.076	10571.78
264.145	10553.18
264.215	10527.79
264.285	10527.36
264.354	10494.16
264.424	10477.97
264.494	10439.23
264.563	10412.73
264.633	10421.6
264.702	10413.07
264.772	10371.83
264.842	10354.77
264.911	10348.27
264.981	10327.07
265.05	10309.67
265.12	10293.44
265.19	10282.31
265.259	10278.16
265.329	10267.08
265.398	10256.29
265.468	10267.32
265.537	10247.96
265.607	10245.84
265.676	10249.93
265.746	10234.42
265.815	10238.32
265.885	10220.35
265.955	10197.76
266.024	10180.76
266.094	10142.36
266.163	10147.61
266.232	10149.83
266.302	10132.54
266.371	10122.42
266.441	10111.29
266.51	10109.89
266.58	10089.9
266.649	10066.59
266.719	10064.37
266.788	10053.96
266.858	10052.52
266.927	10013.84
266.996	10005.12
267.066	9993.22
267.135	9964.27
267.205	9959.5
267.274	9945.48
267.343	9946.5
267.413	9931.81
267.482	9932.05
267.552	9936.67
267.621	9900.93
267.69	9869.86
267.76	9856.33
267.829	9838.89
267.898	9819.86
267.968	9796.7
268.037	9794.38
268.106	9786.82
268.176	9760.43
268.245	9748.77
268.314	9732.73
268.384	9734.41
268.453	9720.79
268.522	9705.28
268.592	9702.92
268.661	9683.99
268.73	9678.16
268.799	9658.36
268.869	9666.94
268.938	9641.55
269.007	9624.36
269.076	9616.51
269.146	9619.3
269.215	9615.74
269.284	9623.64
269.353	9605.44
269.422	9591.52
269.492	9569.41
269.561	9537.1
269.63	9523.18
269.699	9502.33
269.768	9492.89
269.838	9483.4
269.907	9477.77
269.976	9456.29
270.045	9428.89
270.114	9427.35
270.183	9410.84
270.253	9397.26
270.322	9371.64
270.391	9355.32
270.46	9351.13
270.529	9351.56
270.598	9348
270.667	9327.77
270.736	9307.4
270.806	9304.46
270.875	9303.55
270.944	9291.27
271.013	9307.84
271.082	9301.09
271.151	9298.45
271.22	9272.01
271.289	9261.56
271.358	9253.57
271.427	9250.59
271.496	9243.46
271.565	9221.7
271.634	9211.73
271.703	9214.62
271.772	9214.81
271.841	9209.32
271.91	9187.61
271.979	9177.98
272.048	9154.92
272.117	9159.44
272.186	9138.64
272.255	9134.55
272.324	9129.93
272.393	9123.48
272.462	9104.55
272.531	9098.44
272.6	9085.1
272.669	9090.16
272.738	9075.47
272.807	9067.82
272.876	9045.91
272.945	9067.34
273.013	9070.13
273.082	9075.57
273.151	9053.47
273.22	9050.01
273.289	9041.78
273.358	9054.82
273.427	9041.78
273.496	9042.64
273.564	9031.86
273.633	9037.3
273.702	9022.13
273.771	9011.11
273.84	9002.44
273.909	9002.83
273.977	8996.52
274.046	8982.08
274.115	8985.6
274.184	8969.86
274.253	8964.46
274.322	8971.78
274.39	8942.99
274.459	8926.48
274.528	8895.29
274.597	8891.24
274.665	8887.2
274.734	8894.76
274.803	8880.94
274.872	8875.6
274.94	8860.87
275.009	8921.79
275.078	8904.36
275.147	8904.8
275.215	8901.57
275.284	8916.74
275.353	8903.79
275.421	8882.32
275.49	8900.18
275.559	8885.16
275.627	8880.2
275.696	8869.23
275.765	8866.92
275.833	8860.76
275.902	8858.3
275.971	8870.67
276.039	8882.22
276.108	8879.67
276.177	8874.86
276.245	8866.72
276.314	8855.75
276.383	8856.47
276.451	8786.6
276.52	8788.57
276.588	8792.81
276.657	8798.29
276.725	8779.42
276.794	8770.71
276.863	8784.91
276.931	8758.1
277	8765.27
277.068	8773.16
277.137	8779.52
277.205	8775.57
277.274	8788.76
277.342	8801.66
277.411	8782.31
277.48	8765.18
277.548	8756.75
277.617	8754.92
277.685	8752.66
277.754	8755.21
277.822	8750.16
277.89	8762.39
277.959	8757.09
278.027	8740.34
278.096	8728.98
278.164	8761.62
278.233	8766.1
278.301	8751.95
278.37	8757.29
278.438	8745.64
278.507	8746.99
278.575	8728.6
278.643	8727.31
278.712	8710.65
278.78	8691.64
278.849	8705.07
278.917	8723.5
278.985	8719.75
279.054	8723.21
279.122	8725.91
279.191	8724.22
279.259	8719.51
279.327	8697.27
279.396	8710.89
279.464	8714.4
279.532	8720.13
279.601	8707.57
279.669	8698.71
279.737	8710.74
279.806	8711.85
279.874	8719.07
279.942	8715.8
280.011	8715.22
280.079	8724.89
280.147	8734.81
280.215	8741.4
280.284	8730.14
280.352	8711.08
280.42	8710.02
280.488	8695.53
280.557	8688.12
280.625	8691.78
280.693	8696.11
280.761	8700.25
280.83	8683.88
280.898	8693.12
280.966	8670.31
281.034	8641
281.102	8627.43
281.171	8619.83
281.239	8631.91
281.307	8625.84
281.375	8610.4
281.443	8634.13
281.512	8622.33
281.58	8625.85
281.648	8612.85
281.716	8621.27
281.784	8617.14
281.852	8613.72
281.92	8613.33
281.989	8623.44
282.057	8603.9
282.125	8637.89
282.193	8635.82
282.261	8636.06
282.329	8627.16
282.397	8633.36
282.465	8640.49
282.533	8659.35
282.601	8648.47
282.67	8628.93
282.738	8615.26
282.806	8628.35
282.874	8605.54
282.942	8611.94
283.01	8610.21
283.078	8613.58
283.146	8608.76
283.214	8614.68
283.282	8620.65
283.35	8634.37
283.418	8628.45
283.486	8639.95
283.554	8603.7
283.622	8603.94
283.69	8600.14
283.758	8593.74
283.826	8597.83
283.894	8601.53
283.962	8620.21
284.03	8631.04
284.098	8625.31
284.165	8626.47
284.233	8625.26
284.301	8626.85
284.369	8619.54
284.437	8608.66
284.505	8602.35
284.573	8610.87
284.641	8603.37
284.709	8611.21
284.777	8595.18
284.845	8602.26
284.912	8599.95
284.98	8603.99
285.048	8598.94
285.116	8604.43
285.184	8610.87
285.252	8608.66
285.319	8586.28
285.387	8571.22
285.455	8557.6
285.523	8566.12
285.591	8556.98
285.659	8564.92
285.726	8571.03
285.794	8551.73
285.862	8545.91
285.93	8550.39
285.997	8545.38
286.065	8543.55
286.133	8532.91
286.201	8526.13
286.269	8510.49
286.336	8501.25
286.404	8490.32
286.472	8496
286.539	8475.7
286.607	8459.63
286.675	8464.29
286.743	8479.79
286.81	8470.26
286.878	8475.41
286.946	8470.21
287.013	8472.13
287.081	8462.7
287.149	8448.79
287.216	8469.1
287.284	8464.72
287.352	8463.04
287.419	8459.28
287.487	8463.81
287.555	8465.2
287.622	8467.51
287.69	8473.91
287.758	8489.5
287.825	8490.27
287.893	8477.76
287.96	8481.61
288.028	8492.1
288.096	8489.93
288.163	8489.02
288.231	8480.84
288.298	8487.43
288.366	8498.31
288.433	8498.12
288.501	8492.63
288.569	8497.25
288.636	8493.98
288.704	8512.41
288.771	8518.81
288.839	8513.61
288.906	8511.4
288.974	8519.2
289.041	8516.79
289.109	8505.58
289.176	8512.36
289.244	8510.39
289.311	8528.44
289.379	8537.73
289.446	8544.61
289.514	8543.5
289.581	8545.04
289.649	8553.12
289.716	8556.54
289.783	8542.68
289.851	8565.25
289.918	8566.55
289.986	8572.61
290.053	8576.03
290.121	8573.09
290.188	8572.76
290.255	8595.23
290.323	8594.85
290.39	8588.83
290.458	8594.08
290.525	8611.59
290.592	8603.65
290.66	8613.9
290.727	8600.96
290.794	8611.21
290.862	8612.02
290.929	8616.16
290.996	8612.99
291.064	8619.24
291.131	8630.27
291.198	8643.02
291.266	8638.45
291.333	8641.96
291.4	8652.21
291.468	8666.03
291.535	8659.05
291.602	8664.05
291.669	8657.99
291.737	8667.04
291.804	8666.6
291.871	8683.16
291.938	8689.08
292.006	8718.78
292.073	8722.05
292.14	8736.4
292.207	8732.98
292.275	8732.88
292.342	8743.18
292.409	8773.99
292.476	8799.94
292.543	8787.61
292.611	8791.03
292.678	8808.36
292.745	8832.52
292.812	8840.03
292.879	8839.74
292.946	8850.28
293.014	8862.75
293.081	8868.33
293.148	8878.58
293.215	8892.88
293.282	8889.51
293.349	8897.17
293.416	8872.37
293.484	8888.16
293.551	8899.52
293.618	8914.49
293.685	8942.65
293.752	8931.97
293.819	8924.41
293.886	8912.57
293.953	8923.4
294.02	8933.84
294.087	8940.15
294.154	8933.31
294.221	8949.59
294.288	8948.29
294.356	8961.43
294.423	8965.38
294.49	8965.62
294.557	8977.94
294.624	8972.12
294.691	8989.4
294.758	8991.9
294.825	9004.61
294.892	8998.88
294.959	8996.91
295.026	9005.33
295.093	8992.48
295.16	8992.19
295.226	8993.97
295.293	9016.94
295.36	9019.49
295.427	9028.01
295.494	9040.38
295.561	9040.58
295.628	9058.63
295.695	9070.96
295.762	9079.43
295.829	9093.54
295.896	9111.98
295.963	9118.91
296.03	9129.02
296.096	9140.62
296.163	9147.61
296.23	9166.48
296.297	9177.5
296.364	9175.72
296.431	9178.85
296.498	9181.16
296.564	9211.11
296.631	9212.07
296.698	9201.19
296.765	9225.21
296.832	9216.02
296.899	9201.81
296.965	9228.44
297.032	9211.78
297.099	9232
297.166	9233.35
297.233	9224.97
297.299	9211.25
297.366	9212.69
297.433	9215.44
297.5	9214.52
297.566	9215.97
297.633	9211.2
297.7	9220.49
297.767	9224.78
297.833	9232.1
297.9	9236.33
297.967	9221.46
298.033	9235.13
298.1	9257.57
298.167	9248.42
298.234	9258.05
298.3	9265.8
298.367	9259.06
298.434	9266.76
298.5	9259.44
298.567	9259.54
298.634	9256.94
298.7	9278.13
298.767	9276.1
298.834	9291.03
298.9	9287.71
298.967	9277.4
299.033	9286.89
299.1	9295.9
299.167	9305.77
299.233	9302.73
299.3	9311.21
299.366	9325.84
299.433	9346.12
299.5	9326.57
299.566	9334.99
299.633	9350.88
299.699	9362.25
299.766	9355.22
299.832	9356.18
299.899	9357.96
299.965	9372.22
300.032	9376.55
300.099	9384.49
300.165	9396.77
300.232	9388.11
300.298	9388.3
300.365	9405.06
300.431	9408.96
300.498	9402.84
300.564	9414.11
300.631	9428.46
300.697	9448.93
300.763	9451.67
300.83	9442.33
300.896	9457.01
300.963	9465.1
301.029	9468.28
301.096	9476.18
301.162	9490.43
301.229	9485.62
301.295	9480.61
301.361	9478.64
301.428	9482.92
301.494	9466.98
301.561	9466.26
301.627	9468.91
301.693	9476.23
301.76	9478.35
301.826	9474.11
301.892	9485.14
301.959	9484.51
302.025	9480.56
302.092	9471.07
302.158	9477.09
302.224	9483.4
302.291	9466.88
302.357	9458.31
302.423	9456.05
302.49	9443.29
302.556	9449.64
302.622	9451.18
302.688	9463.42
302.755	9477.48
302.821	9482.01
302.887	9490.77
302.954	9491.06
303.02	9502.71
303.086	9504.25
303.152	9505.55
303.219	9498.04
303.285	9499.73
303.351	9512.44
303.417	9509.41
303.483	9497.95
303.55	9490.19
303.616	9484.8
303.682	9484.03
303.748	9478.54
303.815	9490.05
303.881	9497.66
303.947	9491.25
304.013	9488.61
304.079	9476.23
304.145	9450.66
304.212	9451.77
304.278	9446.13
304.344	9438.33
304.41	9424.27
304.476	9416.42
304.542	9408.43
304.608	9410.64
304.674	9396.97
304.741	9391.72
304.807	9393.02
304.873	9400.48
304.939	9416.85
305.005	9404.62
305.071	9401.78
305.137	9403.9
305.203	9377.8
305.269	9379.82
305.335	9389.6
305.401	9395.62
305.467	9395.42
305.533	9406.55
305.599	9407.75
305.666	9413.38
305.732	9417.72
305.798	9433.47
305.864	9456.05
305.93	9463.47
305.996	9469.53
306.062	9471.08
306.128	9463.95
306.194	9455.43
306.259	9455.14
306.325	9441.03
306.391	9446.37
306.457	9461.25
306.523	9462.45
306.589	9486.15
306.655	9472.23
306.721	9452.39
306.787	9435.44
306.853	9454.61
306.919	9434.63
306.985	9434.72
307.051	9425.72
307.117	9420.18
307.183	9410.02
307.248	9377.61
307.314	9377.95
307.38	9374.33
307.446	9377.46
307.512	9363.07
307.578	9367.83
307.644	9359.26
307.709	9359.41
307.775	9356.18
307.841	9346.94
307.907	9349.68
307.973	9331.04
308.039	9333.4
308.104	9344.33
308.17	9342.84
308.236	9320.78
308.302	9331.57
308.368	9314.28
308.433	9316.6
308.499	9303.45
308.565	9292.91
308.631	9301.81
308.696	9277.06
308.762	9271.58
308.828	9265.89
308.894	9258.77
308.959	9238.31
309.025	9233.59
309.091	9230.7
309.156	9218.47
309.222	9219.53
309.288	9205.03
309.354	9181.2
309.419	9179.32
309.485	9162.76
309.551	9168.78
309.616	9159.25
309.682	9146.2
309.748	9140.81
309.813	9133.49
309.879	9127.57
309.945	9113.56
310.01	9104.79
310.076	9111.34
310.141	9094.2
310.207	9085.1
310.273	9078.55
310.338	9081.06
310.404	9057.13
310.469	9045.58
310.535	9039.51
310.601	9018.38
310.666	9020.69
310.732	9031.86
310.797	9020.83
310.863	9016.74
310.928	9011.88
310.994	9008.7
311.059	9012.5
311.125	9009.47
311.191	9016.93
311.256	9008.17
311.322	9019.72
311.387	9003.12
311.453	9353.15
311.518	9335.1
311.584	9330.82
311.649	9341.74
311.715	9333.9
311.78	9342.42
311.846	9331.78
311.911	9335.39
311.976	9333.61
312.042	9321.48
312.107	9303.52
312.173	9292.45
312.238	9279.64
312.304	9270.21
312.369	9261.21
312.434	9251.24
312.5	9243.15
312.565	9217.16
312.631	9216.29
312.696	9199.68
312.761	9200.5
312.827	8835.35
312.892	8872.28
312.958	8866.31
313.023	8855.72
313.088	8851.58
313.154	8836.13
313.219	8828.47
313.284	8819.28
313.35	8816.58
313.415	8801.33
313.48	8797.76
313.546	8800.07
313.611	8805.75
313.676	8798.2
313.741	8791.7
313.807	8796.32
313.872	8799.35
313.937	8803.49
314.003	8817.55
314.068	8826.12
314.133	8828.96
314.198	8820.25
314.264	8802.29
314.329	8795.79
314.394	8796.08
314.459	8795.11
314.525	8815.81
314.59	8810.76
314.655	8796.41
314.72	8805.18
314.785	8811.58
314.851	8806.33
314.916	8789.29
314.981	8774.81
315.046	8767.3
315.111	8755.07
315.176	8739.19
315.242	8741.31
315.307	8741.6
315.372	8716.71
315.437	8700.35
315.502	8689.52
315.567	8701.79
315.632	8683.5
315.698	8680.66
315.763	8675.46
315.828	8668.58
315.893	8661.69
315.958	8656.93
316.023	8648.56
316.088	8630.12
316.153	8612.32
316.218	8609.19
316.283	8591.77
316.348	8574.4
316.413	8569.83
316.479	8556.45
316.544	8519.89
316.609	8490.49
316.674	8451.17
316.739	8423.41
316.804	8389.02
316.869	8355.19
316.934	8316.12
316.999	8286.43
317.064	8235.58
317.129	8192.23
317.194	8151.53
317.259	8099.96
317.324	8048.55
317.389	8006.8
317.454	7966.1
317.518	7929.26
317.583	7903.33
317.648	7875.24
317.713	7839.8
317.778	7776.27
317.843	7745.92
317.908	7716.88
317.973	7679.18
318.038	7649.03
318.103	7608.46
318.168	7579.66
318.233	7550.09
318.297	7500.48
318.362	7458.41
318.427	7422.17
318.492	7395.2
318.557	7348.01
318.622	7319.79
318.687	7302.68
318.751	7269.04
318.816	7235.2
318.881	7200.22
318.946	7139.28
319.011	7096.03
319.075	7053.89
319.14	7025.07
319.205	6975.3
319.27	6942.58
319.335	6894.06
319.399	6852.6
319.464	6820.04
319.529	6769.27
319.594	6729.4
319.658	6695.93
319.723	6657.85
319.788	6625.44
319.853	6571.84
319.917	6541.45
319.982	6490.17
320.047	6448.49
320.112	6417.18
320.176	6366.68
320.241	6330.96
320.306	6301.2
320.37	6258.53
320.435	6224.75
320.5	6192.69
320.564	6157.75
320.629	6113.56
320.694	6078.73
320.758	6039.96
320.823	6000.71
320.888	5971.26
320.952	5920.32
321.017	5879.5
321.082	5839.83
321.146	5805.06
321.211	5767.07
321.275	5727.08
321.34	5682.74
321.405	5635.41
321.469	5589.28
321.534	5548.63
321.598	5497.15
321.663	5464.73
321.727	5429.94
321.792	5384.26
321.857	5341.22
321.921	5300.63
321.986	5255.93
322.05	5203.1
322.115	5161.6
322.179	5116.53
322.244	5061.07
322.308	5029.31
322.373	4987.94
322.437	4948.9
322.502	4919.72
322.566	4874.81
322.631	4838.85
322.695	4799.89
322.76	4760.97
322.824	4726.98
322.889	4683.96
322.953	4639.17
323.018	4574.52
323.082	4521.41
323.146	4473.53
323.211	4423.44
323.275	4381.91
323.34	4338.97
323.404	4305.21
323.468	4261.07
323.533	4220.85
323.597	4180.71
323.662	4132.99
323.726	4096.13
323.79	4044.45
323.855	3982.1
323.919	3938.18
323.983	3895.88
324.048	3831.22
324.112	3949.15
324.177	3818.3
324.241	3619.96
324.305	3426.57
324.37	3237.11
324.434	3049.57
324.498	3006.73
324.562	2956.01
324.627	2897.81
324.691	2844.57
324.755	2780.78
324.82	2707.55
324.884	2629.67
324.948	2556.24
325.012	2460.46
325.077	2338.78
