Data from 20250630_urea_2M_MAYP1162681_09-52-27-599.txt Node
Date: Tue Jul 01 09:52:27 BST 2025
User: adleo
Spectrometer: MAYP116268
Trigger mode: 0
Integration Time (sec): 1.000000E0
Scans to average: 1
Electric dark correction enabled: true
Nonlinearity correction enabled: true
Boxcar width: 10
XAxis mode: Wavelengths
Number of Pixels in Spectrum: 2068
>>>>>Begin Spectral Data<<<<<
179.565	1093.17
179.642	1143.55
179.718	1183.26
179.795	1218.15
179.871	1244.47
179.948	1261.58
180.024	1281.66
180.101	1302.89
180.177	1316.95
180.254	1337.09
180.33	1358.3
180.407	1403.1
180.483	1489.71
180.56	1571.76
180.636	1647.57
180.712	1636.31
180.789	1643.39
180.865	1656.35
180.942	1666.85
181.018	1674.55
181.095	1687.19
181.171	1692.41
181.248	1692.89
181.324	1706.1
181.4	1711.14
181.477	1724.02
181.553	1733.71
181.63	1751.86
181.706	1764.45
181.782	1771.29
181.859	1769.35
181.935	1773.2
182.011	1771.01
182.088	1787.22
182.164	1804.62
182.24	1817.97
182.317	1825.53
182.393	1823.63
182.469	1836.7
182.546	1848.34
182.622	1855.85
182.698	1854.47
182.775	1867.4
182.851	1881.19
182.927	1875.67
183.003	1873.44
183.08	1866.45
183.156	1875.34
183.232	1873.1
183.308	1863.31
183.385	1869.54
183.461	1887.55
183.537	1888.27
183.613	1897.35
183.69	1887.17
183.766	1876.14
183.842	1881.8
183.918	1887.93
183.995	1902.67
184.071	1903.62
184.147	1898.44
184.223	1886.75
184.299	1893.64
184.375	1882.8
184.452	1887.23
184.528	1940.83
184.604	1949.29
184.68	1962.98
184.756	1970.87
184.832	1974.2
184.908	1979.81
184.985	1978.09
185.061	1964.59
185.137	1975.91
185.213	1967.4
185.289	1970.11
185.365	1963.84
185.441	1963.88
185.517	1975.63
185.593	1968.59
185.669	1968.12
185.745	1977.2
185.822	1995.59
185.898	1989.46
185.974	1999.25
186.05	1992.07
186.126	1952.02
186.202	1946.75
186.278	1941.28
186.354	1931.39
186.43	1935.19
186.506	1933.39
186.582	1935.48
186.658	1941.8
186.734	1921.22
186.81	1923.45
186.886	1925.78
186.962	1938.47
187.038	1933.53
187.114	1924.63
187.19	1933.71
187.266	1924.11
187.341	1925.82
187.417	1915.32
187.493	1915.7
187.569	1916.03
187.645	1911.33
187.721	1900.77
187.797	1907.99
187.873	1912.56
187.949	1908.52
188.025	1905.19
188.101	1907.42
188.176	1911.7
188.252	1906
188.328	1910.89
188.404	1909.04
188.48	1904.29
188.556	1896.06
188.632	1896.35
188.707	1897.3
188.783	1892.92
188.859	1888.31
188.935	1877.9
189.011	1885.65
189.086	1881.27
189.162	1871.96
189.238	1869.91
189.314	1867.54
189.39	1861.07
189.465	1854.42
189.541	1868.44
189.617	1853.14
189.693	1849.14
189.768	1852.19
189.844	1873.49
189.92	1868.12
189.996	1879.15
190.071	1889.32
190.147	1889.99
190.223	1899.55
190.298	1893.03
190.374	1881.39
190.45	1891.41
190.526	1900.26
190.601	1896.17
190.677	1897.17
190.753	1925.75
190.828	1931.17
190.904	1945.44
190.98	1959.7
191.055	1967.64
191.131	1960.03
191.207	1979.86
191.282	1990.46
191.358	1981.66
191.433	1969.34
191.509	1981.27
191.585	1975.52
191.66	1975.66
191.736	1982.94
191.811	1973.05
191.887	1987.79
191.963	2010.42
192.038	2018.6
192.114	2015.18
192.189	2019.88
192.265	2015.04
192.34	1995.29
192.416	1992.06
192.491	1985.35
192.567	1990.54
192.642	1994.77
192.718	1994.63
192.793	1984.5
192.869	1980.55
192.944	1983.41
193.02	1993.39
193.095	1996.34
193.171	2003.19
193.246	2006.09
193.322	2003.48
193.397	2003.71
193.473	1988.92
193.548	1972.8
193.624	1973.89
193.699	1975.84
193.775	1989.35
193.85	1993.25
193.925	1999.72
194.001	1997.1
194.076	1991.83
194.152	1979.22
194.227	1970.95
194.302	1960.25
194.378	1962.3
194.453	1956.88
194.529	1970.72
194.604	1954.26
194.679	1948.75
194.755	1933.2
194.83	1939.29
194.905	1937.34
194.981	1948.23
195.056	1943.86
195.131	1946.62
195.207	1946.57
195.282	1937.01
195.357	1918.28
195.433	1933.3
195.508	1919.65
195.583	1928.5
195.659	1942.14
195.734	1949.42
195.809	1950.47
195.884	1961.92
195.96	1965.72
196.035	1980.8
196.11	1975.66
196.185	1986.79
196.261	1989.45
196.336	2017.08
196.411	2008.85
196.486	2013.7
196.561	2006.61
196.637	2012.65
196.712	2027.77
196.787	2028.73
196.862	2040.75
196.937	2052.12
197.013	2057.07
197.088	2067.62
197.163	2087.79
197.238	2102.26
197.313	2103.5
197.388	2115.82
197.464	2145.61
197.539	2152.98
197.614	2147.89
197.689	2156.31
197.764	2170.39
197.839	2189.95
197.914	2184.76
197.989	2203.89
198.065	2216.54
198.14	2265.39
198.215	2295.04
198.29	2307.32
198.365	2322.55
198.44	2335.06
198.515	2358.57
198.59	2372.52
198.665	2398.27
198.74	2405.36
198.815	2410.56
198.89	2431.55
198.965	2460.5
199.04	2453.45
199.115	2467.35
199.19	2507.15
199.265	2511.43
199.34	2522.86
199.415	2554.73
199.49	2576.15
199.565	2584.39
199.64	2608.49
199.715	2605.25
199.79	2608.01
199.865	2615.06
199.94	2615.72
200.015	2644.35
200.09	2652.21
200.165	2656.98
200.24	2664.31
200.315	2703.07
200.39	2714.74
200.464	2719.93
200.539	2721.08
200.614	2737.84
200.689	2760.9
200.764	2766.67
200.839	2782.57
200.914	2786.96
200.989	2775.71
201.063	2783.81
201.138	2768.48
201.213	2767.24
201.288	2750.04
201.363	2757.85
201.438	2757.85
201.512	2770.57
201.587	2755.27
201.662	2754.89
201.737	2764.52
201.812	2772.43
201.886	2741.62
201.961	2749.54
202.036	2738.44
202.111	2733.96
202.186	2705.77
202.26	2688.71
202.335	2670.61
202.41	2663.61
202.485	2647.08
202.559	2630.74
202.634	2607.84
202.709	2616.69
202.784	2597.78
202.858	2594.69
202.933	2575.45
203.008	2569.87
203.082	2549.11
203.157	2549.45
203.232	2513.89
203.306	2496.5
203.381	2463.92
203.456	2442.5
203.53	2423.86
203.605	2404.88
203.68	2382.68
203.754	2376.93
203.829	2360.89
203.904	2340.08
203.978	2331.75
204.053	2335.99
204.127	2323.71
204.202	2322.47
204.277	2306.44
204.351	2300.15
204.426	2292.2
204.5	2284.16
204.575	2252.42
204.65	2264.14
204.724	2256.09
204.799	2262.46
204.873	2258.65
204.948	2258.08
205.022	2247.62
205.097	2237.19
205.171	2250.79
205.246	2260.6
205.32	2260.93
205.395	2265.69
205.469	2256.28
205.544	2259.18
205.618	2245.24
205.693	2257.47
205.767	2247.71
205.842	2265.08
205.916	2258.76
205.991	2253.71
206.065	2258.33
206.14	2270.98
206.214	2267.03
206.289	2259.7
206.363	2270.97
206.438	2273.64
206.512	2279.92
206.586	2296
206.661	2305.38
206.735	2284.26
206.81	2281.22
206.884	2297.11
206.958	2282.74
207.033	2297.53
207.107	2306.67
207.181	2333.14
207.256	2324.2
207.33	2342.04
207.405	2355.86
207.479	2377.47
207.553	2382.51
207.628	2368.43
207.702	2381.09
207.776	2373.47
207.851	2376.47
207.925	2388.23
207.999	2386.56
208.073	2385.57
208.148	2386.8
208.222	2375.71
208.296	2407.73
208.371	2426.74
208.445	2437.21
208.519	2466.06
208.593	2480.72
208.668	2476.53
208.742	2479.68
208.816	2482.01
208.89	2495.2
208.965	2492.15
209.039	2498.92
209.113	2514.01
209.187	2533.37
209.261	2528.81
209.336	2547.28
209.41	2563.37
209.484	2562.66
209.558	2579.85
209.632	2592.85
209.707	2603.71
209.781	2620.42
209.855	2633.38
209.929	2647.35
210.003	2651.59
210.077	2646.45
210.151	2688.79
210.226	2722.06
210.3	2748.19
210.374	2769.76
210.448	2772.86
210.522	2782.39
210.596	2792.3
210.67	2800.07
210.744	2845.25
210.818	2875.6
210.892	2895.57
210.966	2896.28
211.041	2912.72
211.115	2910.1
211.189	2934.5
211.263	2950.56
211.337	2959.81
211.411	2973.87
211.485	2970.87
211.559	2981.45
211.633	2988.88
211.707	2960.07
211.781	2965.37
211.855	2934.28
211.929	2926.04
212.003	2911.08
212.077	2925.43
212.151	2938.83
212.225	2955.9
212.299	2947.74
212.373	2942.93
212.447	2942.12
212.52	2972.83
212.594	2981.03
212.668	2997.81
212.742	2988.08
212.816	2990.61
212.89	2991.23
212.964	2996.62
213.038	3006.06
213.112	3025.85
213.186	3048.07
213.26	3039.11
213.333	3006.22
213.407	3021.42
213.481	3041.72
213.555	3066.69
213.629	3066.02
213.703	3066.11
213.777	3078.85
213.85	3079.14
213.924	3125.57
213.998	3143.61
214.072	3155.87
214.146	3164.46
214.219	3179.54
214.293	3198.85
214.367	3225.81
214.441	3261.79
214.515	3279.97
214.588	3281.69
214.662	3277.97
214.736	3286.65
214.81	3327.62
214.883	3370.58
214.957	3395.44
215.031	3416.33
215.105	3430.79
215.178	3453.08
215.252	3481.67
215.326	3490.69
215.4	3506.68
215.473	3498.85
215.547	3520.58
215.621	3547
215.694	3593.96
215.768	3616.69
215.842	3648.02
215.915	3681.08
215.989	3702.63
216.063	3739.39
216.136	3789.93
216.21	3840.86
216.284	3902.56
216.357	3950.45
216.431	3995.37
216.504	4054.27
216.578	4127.37
216.652	4191.18
216.725	4250.62
216.799	4314.48
216.873	4374.88
216.946	4445.22
217.02	4504.48
217.093	4564.52
217.167	4608.07
217.24	4656.38
217.314	4717.71
217.387	4776.19
217.461	4832.45
217.535	4910.02
217.608	4964.9
217.682	5027.35
217.755	5099.92
217.829	5157.22
217.902	5229.43
217.976	5298.85
218.049	5353.44
218.123	5406.02
218.196	5482.57
218.27	5544.61
218.343	5598.26
218.417	5673.21
218.49	5742.98
218.563	5827.97
218.637	5904.77
218.71	5999.05
218.784	6080.82
218.857	6165.26
218.931	6249.66
219.004	6324.33
219.077	6403.61
219.151	6479.69
219.224	6554.73
219.298	6629.69
219.371	6709.79
219.444	6770.54
219.518	6848.44
219.591	6930.67
219.665	7036.43
219.738	7109.75
219.811	7176.96
219.885	7268.7
219.958	7352.18
220.031	7426.39
220.105	7505.95
220.178	7585.28
220.251	7653.85
220.325	7743.41
220.398	7825.25
220.471	7901.23
220.544	7992.66
220.618	8060.44
220.691	8145.19
220.764	8224.66
220.838	8306.64
220.911	8384.25
220.984	8477.68
221.057	8560.59
221.131	8636.61
221.204	8687.92
221.277	8782.41
221.35	8888.58
221.424	8955.01
221.497	9030.35
221.57	9104.18
221.643	9178.42
221.716	9263.75
221.79	9330.86
221.863	9392.6
221.936	9463.24
222.009	9536.34
222.082	9601.5
222.155	9673.2
222.229	9759.9
222.302	9842.31
222.375	9916.3
222.448	9993.46
222.521	10068.56
222.594	10134.51
222.667	10199.1
222.74	10275.6
222.814	10337.8
222.887	10409.93
222.96	10496.32
223.033	10571.58
223.106	10650.59
223.179	10722.05
223.252	10780.79
223.325	10856
223.398	10925.92
223.471	10998.88
223.544	11068.8
223.617	11138.53
223.69	11210.67
223.763	11260.65
223.837	11321.13
223.91	11380.75
223.983	11427.26
224.056	11474.39
224.129	11546.93
224.202	11627.27
224.275	11680.86
224.348	11722.07
224.42	11762.51
224.493	11798.37
224.566	11844.83
224.639	11909.37
224.712	11966.11
224.785	12025.49
224.858	12083.72
224.931	12135.73
225.004	12181.52
225.077	12238.74
225.15	12274.17
225.223	12324.93
225.296	12401.72
225.369	12445.05
225.442	12497.74
225.514	12564.69
225.587	12632.08
225.66	12681.83
225.733	12731.77
225.806	12793.86
225.879	12858.26
225.952	12912.11
226.025	12987.79
226.097	13066.36
226.17	13121.85
226.243	13158.49
226.316	13213.83
226.389	13269.51
226.461	13331.16
226.534	13397.2
226.607	13449.27
226.68	13530.64
226.753	13587.72
226.825	13625.94
226.898	13699.89
226.971	13754.17
227.044	13816.55
227.117	13867.94
227.189	13939.67
227.262	14010.1
227.335	14068.81
227.407	14123.05
227.48	14178.15
227.553	14231.12
227.626	14276.44
227.698	14321.8
227.771	14385.38
227.844	14431.18
227.916	14478.9
227.989	14513.27
228.062	14562.78
228.134	14645.98
228.207	14689.07
228.28	14736.41
228.352	14781.24
228.425	14826.74
228.498	14891.72
228.57	14929.03
228.643	14996.9
228.716	15034.74
228.788	15065.78
228.861	15110.23
228.934	15167.2
229.006	15217.33
229.079	15263.94
229.151	15305.11
229.224	15338.61
229.296	15392.21
229.369	15463.26
229.442	15526.06
229.514	15573.78
229.587	15623.24
229.659	15640.98
229.732	15697.8
229.804	15750.58
229.877	15821.1
229.949	15876.72
230.022	15936
230.094	15979.09
230.167	16018.62
230.239	16057.8
230.312	16105.66
230.384	16171.02
230.457	16221.34
230.529	16272.14
230.602	16318.27
230.674	16364.78
230.747	16428.93
230.819	16483.87
230.892	16491.44
230.964	16535.83
231.037	16583.45
231.109	16623.69
231.181	16667.65
231.254	16693.53
231.326	16733.72
231.399	16764.76
231.471	16799.94
231.544	16812.23
231.616	16861.83
231.688	16899.47
231.761	16923.18
231.833	16954.7
231.905	16967.42
231.978	16990.55
232.05	17009.88
232.122	17039.81
232.195	17067.23
232.267	17103.47
232.339	17126.51
232.412	17186.27
232.484	17208.97
232.556	17234.9
232.629	17291.72
232.701	17337.11
232.773	17372.15
232.846	17401.69
232.918	17431.09
232.99	17461.16
233.062	17507.23
233.135	17534.46
233.207	17545.6
233.279	17589.69
233.351	17630.32
233.424	17660.15
233.496	17678.7
233.568	17731.86
233.64	17745.06
233.713	17770.46
233.785	17793.16
233.857	17815.33
233.929	17822.65
234.001	17859.38
234.074	17892.63
234.146	17888.24
234.218	17894.89
234.29	17914.8
234.362	17921.06
234.434	17930.02
234.507	17931.23
234.579	17923.71
234.651	17941.45
234.723	17964.05
234.795	17980.48
234.867	17983.9
234.939	18007.42
235.012	18028.67
235.084	18038.74
235.156	18056.57
235.228	18071.56
235.3	18073.06
235.372	18085.1
235.444	18107.46
235.516	18100.04
235.588	18109.49
235.66	18119.03
235.732	18123.56
235.804	18178.11
235.876	18201.68
235.948	18220.71
236.02	18234.3
236.092	18246.59
236.164	18251.75
236.236	18256.23
236.308	18253.82
236.38	18268.28
236.452	18264.47
236.524	18274.68
236.596	18295.21
236.668	18313.72
236.74	18308.66
236.812	18318.3
236.884	18330.06
236.956	18323.98
237.028	18313.53
237.1	18311.89
237.172	18321.24
237.244	18336.71
237.316	18298.97
237.388	18277.24
237.46	18257.38
237.532	18262.4
237.604	18242.44
237.675	18244.32
237.747	18243.99
237.819	18232.47
237.891	18219.6
237.963	18207.51
238.035	18194.59
238.107	18151.85
238.178	18146.93
238.25	18143.46
238.322	18155.61
238.394	18130.69
238.466	18119.61
238.538	18124.43
238.609	18115.99
238.681	18089.97
238.753	18068.86
238.825	18061.54
238.897	18064.96
238.968	18082.6
239.04	18064.38
239.112	18090.64
239.184	18069.34
239.255	18054.5
239.327	18055.22
239.399	18051.95
239.471	18050.6
239.542	18049.73
239.614	18049.01
239.686	18010.94
239.758	18012.09
239.829	17989.59
239.901	17987.23
239.973	17981.4
240.044	17967.85
240.116	17952.34
240.188	17945.16
240.259	17937.64
240.331	17915.86
240.403	17906.22
240.474	17869.35
240.546	17852.44
240.618	17812.77
240.689	17791.28
240.761	17783.28
240.833	17777.98
240.904	17754.9
240.976	17728.05
241.048	17703.09
241.119	17695.67
241.191	17687.72
241.262	17666.71
241.334	17641.36
241.405	17620.1
241.477	17588.88
241.549	17566.95
241.62	17552.68
241.692	17524.39
241.763	17513.31
241.835	17495
241.906	17467.77
241.978	17436.25
242.049	17418.76
242.121	17408.25
242.192	17404.78
242.264	17371.09
242.335	17330.66
242.407	17316.88
242.478	17290.66
242.55	17271.38
242.621	17241.69
242.693	17215.09
242.764	17187.62
242.836	17158.66
242.907	17138.75
242.979	17120.39
243.05	17102.65
243.122	17084.78
243.193	17065.59
243.264	17009.16
243.336	16982.02
243.407	16971.23
243.479	16970.17
243.55	16956.92
243.622	16936.53
243.693	16902.26
243.764	16890.26
243.836	16852.04
243.907	16818.64
243.978	16796.47
244.05	16775.03
244.121	16727.36
244.192	16714.64
244.264	16686.83
244.335	16660.9
244.407	16624.32
244.478	16599.01
244.549	16565.13
244.62	16518
244.692	16494.24
244.763	16491.15
244.834	16455.82
244.906	16420.69
244.977	16392.54
245.048	16361.89
245.119	16322.08
245.191	16289.21
245.262	16238.45
245.333	16229.68
245.405	16207.32
245.476	16183.32
245.547	16154.69
245.618	16141.05
245.689	16112.51
245.761	16082.15
245.832	16056.27
245.903	16031.25
245.974	16010.48
246.045	15978.62
246.117	15970.95
246.188	15929.02
246.259	15879.13
246.33	15852.53
246.401	15811.85
246.473	15754.78
246.544	15734.29
246.615	15720.56
246.686	15682
246.757	15668.02
246.828	15624.2
246.899	15603.81
246.97	15559.32
247.042	15521.82
247.113	15501.77
247.184	15490.01
247.255	15459.45
247.326	15433.57
247.397	15405.27
247.468	15380.21
247.539	15355.05
247.61	15307.71
247.681	15288.91
247.752	15272.86
247.823	15233.34
247.894	15215.79
247.965	15186.82
248.037	15145.51
248.108	15097.74
248.179	15075.86
248.25	15048.72
248.321	15029.25
248.392	14990.64
248.463	14986.88
248.534	14961.57
248.605	14940.6
248.675	14908.31
248.746	14879.96
248.817	14854.37
248.888	14828.63
248.959	14777.77
249.03	14752.22
249.101	14729.08
249.172	14697.56
249.243	14654.7
249.314	14646.32
249.385	14613.68
249.456	14597.34
249.527	14571.31
249.598	14552.99
249.669	14521.66
249.739	14492.06
249.81	14475.62
249.881	14435.85
249.952	14410.64
250.023	14381.77
250.094	14340.89
250.165	14305.31
250.235	14279.33
250.306	14254.12
250.377	14222.26
250.448	14206.06
250.519	14165.86
250.59	14156.41
250.66	14132.54
250.731	14127.43
250.802	14097.5
250.873	14085.11
250.944	14064.29
251.014	14029.87
251.085	14024.85
251.156	14011.64
251.227	14003.79
251.297	13991.3
251.368	13982.77
251.439	13959.68
251.51	13950.76
251.58	13913.06
251.651	13883.7
251.722	13873.73
251.792	13831.55
251.863	13801.8
251.934	13789.08
252.005	13792.31
252.075	13768.06
252.146	13756.1
252.217	13749.35
252.287	13738.12
252.358	13705.49
252.429	13699.07
252.499	13669.09
252.57	13656.51
252.641	13637.66
252.711	13613.46
252.782	13566.99
252.852	13560.53
252.923	13538.11
252.994	13514.35
253.064	13510.01
253.135	13471.73
253.205	13436.69
253.276	13430.13
253.347	13424.59
253.417	13390.74
253.488	13353.05
253.558	13321.91
253.629	13297.8
253.699	13267.09
253.77	13247.62
253.841	13225.88
253.911	13196.62
253.982	13177.19
254.052	13151.16
254.123	13131.78
254.193	13102.13
254.264	13126.43
254.334	13087.57
254.405	13050.55
254.475	13019.8
254.546	12995.5
254.616	12989.72
254.687	12972.6
254.757	12952.74
254.827	12930.57
254.898	12920.54
254.968	12905.4
255.039	12877.44
255.109	12851.46
255.18	12815.4
255.25	12767.78
255.321	12749.27
255.391	12720.54
255.461	12728.39
255.532	12679.22
255.602	12653.24
255.673	12615.64
255.743	12571.05
255.813	12528.68
255.884	12518.36
255.954	12498.31
256.024	12490.02
256.095	12473.92
256.165	12446.11
256.235	12439.84
256.306	12407.78
256.376	12391.44
256.446	12373.46
256.517	12362.33
256.587	12359
256.657	12343.53
256.728	12330.66
256.798	12306.75
256.868	12279.27
256.938	12239.99
257.009	12228.9
257.079	12216.51
257.149	12221.57
257.219	12185.04
257.29	12168.74
257.36	12133.8
257.43	12124.11
257.5	12084.97
257.571	12059.71
257.641	12040.96
257.711	11995.6
257.781	11982.83
257.852	11962.68
257.922	11934.1
257.992	11909.95
258.062	11889.37
258.132	11884.06
258.202	11864.64
258.273	11855.53
258.343	11856.11
258.413	11836.83
258.483	11824.83
258.553	11792.72
258.623	11764.05
258.693	11750.21
258.764	11750.41
258.834	11751.42
258.904	11737.54
258.974	11710.5
259.044	11684.76
259.114	11675.65
259.184	11671.55
259.254	11648.66
259.324	11606.83
259.394	11590.63
259.464	11590.34
259.535	11556.12
259.605	11524.12
259.675	11494.77
259.745	11477.61
259.815	11446.18
259.885	11418.42
259.955	11413.36
260.025	11387.44
260.095	11370.42
260.165	11352.11
260.235	11344.49
260.305	11311.34
260.375	11276.59
260.445	11282.42
260.515	11276.73
260.585	11266.37
260.655	11241.65
260.725	11235.91
260.795	11231.81
260.865	11233.65
260.934	11200.44
261.004	11201.98
261.074	11186.42
261.144	11189.45
261.214	11169.5
261.284	11153.69
261.354	11149.45
261.424	11125.31
261.494	11131.33
261.564	11116
261.634	11113.26
261.703	11074.66
261.773	11064.97
261.843	11050.85
261.913	11025.02
261.983	10999.53
262.053	10991.77
262.123	10972.49
262.192	10940.35
262.262	10934.33
262.332	10906.38
262.402	10897.37
262.472	10880.31
262.541	10846.82
262.611	10840.17
262.681	10825.23
262.751	10819.83
262.821	10799.31
262.89	10772.71
262.96	10757.91
263.03	10760.8
263.1	10745
263.169	10735.75
263.239	10726.4
263.309	10730.79
263.379	10726.11
263.448	10708.19
263.518	10691.47
263.588	10678.12
263.657	10681.88
263.727	10671.71
263.797	10649.84
263.867	10636.73
263.936	10602.42
264.006	10600.78
264.076	10578.23
264.145	10561.61
264.215	10539.54
264.285	10535.01
264.354	10503.02
264.424	10483.61
264.494	10446.94
264.563	10428.2
264.633	10432
264.702	10414.47
264.772	10379.82
264.842	10359.35
264.911	10348.31
264.981	10318.92
265.05	10309.58
265.12	10292.43
265.19	10282.02
265.259	10277.78
265.329	10262.89
265.398	10253.26
265.468	10269.88
265.537	10251.72
265.607	10244.25
265.676	10235.29
265.746	10224.16
265.815	10224.45
265.885	10207.59
265.955	10188.27
266.024	10167.22
266.094	10130.22
266.163	10132.29
266.232	10134.75
266.302	10118.03
266.371	10109.75
266.441	10103.39
266.51	10093.08
266.58	10076.03
266.649	10046.16
266.719	10043.46
266.788	10036
266.858	10034.17
266.927	9988.31
266.996	9978.62
267.066	9966.48
267.135	9941.1
267.205	9938.21
267.274	9927.23
267.343	9921.35
267.413	9909.17
267.482	9916.05
267.552	9919.47
267.621	9890.81
267.69	9857.53
267.76	9849.39
267.829	9832.05
267.898	9809.07
267.968	9788.75
268.037	9785.43
268.106	9787.21
268.176	9758.79
268.245	9742.89
268.314	9727.77
268.384	9725.27
268.453	9712.94
268.522	9703.35
268.592	9706.05
268.661	9676.96
268.73	9666.36
268.799	9643.92
268.869	9647.43
268.938	9617.09
269.007	9600.52
269.076	9594.94
269.146	9596.09
269.215	9587.18
269.284	9602.45
269.353	9590.03
269.422	9575.82
269.492	9555.79
269.561	9517.21
269.63	9514.18
269.699	9497.85
269.768	9486.97
269.838	9486.44
269.907	9483.07
269.976	9460.1
270.045	9428.56
270.114	9426.63
270.183	9415.32
270.253	9413.44
270.322	9382.09
270.391	9372.8
270.46	9374.24
270.529	9363.41
270.598	9357.68
270.667	9340.1
270.736	9314.05
270.806	9301.63
270.875	9302.93
270.944	9289.97
271.013	9308.37
271.082	9297.19
271.151	9290.12
271.22	9262.19
271.289	9241.05
271.358	9226.27
271.427	9216.5
271.496	9212.98
271.565	9192.62
271.634	9184.77
271.703	9184.67
271.772	9194.97
271.841	9179.52
271.91	9154.92
271.979	9148.94
272.048	9127.62
272.117	9133.44
272.186	9121.89
272.255	9129.11
272.324	9125.06
272.393	9117.41
272.462	9100.85
272.531	9093.57
272.6	9083.42
272.669	9087.22
272.738	9074.32
272.807	9070.8
272.876	9054.15
272.945	9069.36
273.013	9076.82
273.082	9079.47
273.151	9058.1
273.22	9051.02
273.289	9045.29
273.358	9049.62
273.427	9034.99
273.496	9037.2
273.564	9028.68
273.633	9021.03
273.702	8999.07
273.771	8982.71
273.84	8976.98
273.909	8970.96
273.977	8967.69
274.046	8958.59
274.115	8960.13
274.184	8946.75
274.253	8932.64
274.322	8938.47
274.39	8915.5
274.459	8896.92
274.528	8866.93
274.597	8854.9
274.665	8845.56
274.734	8847.05
274.803	8842.67
274.872	8840.26
274.94	8821.35
275.009	8865.27
275.078	8851.16
275.147	8846.59
275.215	8846.59
275.284	8859.45
275.353	8851.07
275.421	8825.7
275.49	8834.99
275.559	8827.68
275.627	8823.54
275.696	8814.83
275.765	8815.16
275.833	8803.95
275.902	8804.19
275.971	8817.43
276.039	8837.16
276.108	8840.48
276.177	8841.25
276.245	8824.94
276.314	8817.57
276.383	8830.57
276.451	8775.77
276.52	8777.31
276.588	8790.45
276.657	8795.41
276.725	8782.84
276.794	8784.62
276.863	8795.69
276.931	8778.36
277	8782.26
277.068	8785.15
277.137	8805.56
277.205	8799.25
277.274	8819.52
277.342	8826.4
277.411	8801.38
277.48	8790.98
277.548	8777.89
277.617	8774.23
277.685	8772.45
277.754	8777.74
277.822	8765.13
277.89	8770.67
277.959	8762.68
278.027	8747.23
278.096	8732.98
278.164	8752
278.233	8736.45
278.301	8728.12
278.37	8732.26
278.438	8719.07
278.507	8728.27
278.575	8704.68
278.643	8707.23
278.712	8683.65
278.78	8666.51
278.849	8676.86
278.917	8685.62
278.985	8683.79
279.054	8682.83
279.122	8689.71
279.191	8685.38
279.259	8681.63
279.327	8665.5
279.396	8688.17
279.464	8680.23
279.532	8691.11
279.601	8689.33
279.669	8690.29
279.737	8701.46
279.806	8699.48
279.874	8709.01
279.942	8703.38
280.011	8697.85
280.079	8696.98
280.147	8704.92
280.215	8716.71
280.284	8712.53
280.352	8697.17
280.42	8709.97
280.488	8709.3
280.557	8702.18
280.625	8703.86
280.693	8704.68
280.761	8707.9
280.83	8688.56
280.898	8702.8
280.966	8682.2
281.034	8647.64
281.102	8638.07
281.171	8632.96
281.239	8640.81
281.307	8634.6
281.375	8627.67
281.443	8652.89
281.512	8645.86
281.58	8655.35
281.648	8639.37
281.716	8641.77
281.784	8637.49
281.852	8624.21
281.92	8623.15
281.989	8634.46
282.057	8618.82
282.125	8661.42
282.193	8661.95
282.261	8659.79
282.329	8651.41
282.397	8655.84
282.465	8662.34
282.533	8673.16
282.601	8659.16
282.67	8639.38
282.738	8631.24
282.806	8637.02
282.874	8615.02
282.942	8622.53
283.01	8616.42
283.078	8624.17
283.146	8619.02
283.214	8628.02
283.282	8629.61
283.35	8637.98
283.418	8626.62
283.486	8634.61
283.554	8588.73
283.622	8587.24
283.69	8592.34
283.758	8586.33
283.826	8592.73
283.894	8602.55
283.962	8619.87
284.03	8635.66
284.098	8641.1
284.165	8634.6
284.233	8643.31
284.301	8640.91
284.369	8632.48
284.437	8627.91
284.505	8616.84
284.573	8631.71
284.641	8617.95
284.709	8629.11
284.777	8607.22
284.845	8613.23
284.912	8621.08
284.98	8625.46
285.048	8616.6
285.116	8613.14
285.184	8624.06
285.252	8620.84
285.319	8603.41
285.387	8595.86
285.455	8577.23
285.523	8578.53
285.591	8576.95
285.659	8568.57
285.726	8582.29
285.794	8568.48
285.862	8563.04
285.93	8563.76
285.997	8560.1
286.065	8555.05
286.133	8537.96
286.201	8533.49
286.269	8521.65
286.336	8506.97
286.404	8502.35
286.472	8516.02
286.539	8497.16
286.607	8483.44
286.675	8480.7
286.743	8479.35
286.81	8470.59
286.878	8485.37
286.946	8479.64
287.013	8477.52
287.081	8478.49
287.149	8463.37
287.216	8482.82
287.284	8480.12
287.352	8480.46
287.419	8477.04
287.487	8494.22
287.555	8500.57
287.622	8501.01
287.69	8505.96
287.758	8514.14
287.825	8513.52
287.893	8495.95
287.96	8502.78
288.028	8512.46
288.096	8514.43
288.163	8528.05
288.231	8520.35
288.298	8514.86
288.366	8528.48
288.433	8523.24
288.501	8512.65
288.569	8517.13
288.636	8513.42
288.704	8530.51
288.771	8532.14
288.839	8525.02
288.906	8517.71
288.974	8527.72
289.041	8531.61
289.109	8518.72
289.176	8530.85
289.244	8533.97
289.311	8548.65
289.379	8559.33
289.446	8562.46
289.514	8560.01
289.581	8553.9
289.649	8557.41
289.716	8563.57
289.783	8550.62
289.851	8574.11
289.918	8575.89
289.986	8582.62
290.053	8577.96
290.121	8570.5
290.188	8577.47
290.255	8602.5
290.323	8598.02
290.39	8589.99
290.458	8594.7
290.525	8614.87
290.592	8604.08
290.66	8602.93
290.727	8597.3
290.794	8610.49
290.862	8608.75
290.929	8616.98
290.996	8614.87
291.064	8622.57
291.131	8632.19
291.198	8642.2
291.266	8638.88
291.333	8641.38
291.4	8646.58
291.468	8672.43
291.535	8668.39
291.602	8675.7
291.669	8664.92
291.737	8669.54
291.804	8668.29
291.871	8678.92
291.938	8680.99
292.006	8708.1
292.073	8723.5
292.14	8737.55
292.207	8733.99
292.275	8736.88
292.342	8749.92
292.409	8771.48
292.476	8793
292.543	8781.93
292.611	8786.26
292.678	8802.97
292.745	8824.48
292.812	8836.9
292.879	8827.61
292.946	8831.84
293.014	8842.63
293.081	8852.35
293.148	8867.51
293.215	8885.51
293.282	8887.68
293.349	8897.69
293.416	8884.64
293.484	8888.69
293.551	8895.38
293.618	8911.94
293.685	8932.3
293.752	8920.32
293.819	8924.65
293.886	8915.31
293.953	8927.34
294.02	8942.17
294.087	8948.38
294.154	8945.06
294.221	8951.22
294.288	8954.88
294.356	8977.21
294.423	8982.89
294.49	8969.8
294.557	8982.22
294.624	8974.28
294.691	8991.42
294.758	8995.51
294.825	9000.37
294.892	8997.77
294.959	8998.74
295.026	9007.11
295.093	9005.43
295.16	9007.26
295.226	9011.06
295.293	9028.78
295.36	9037.35
295.427	9043.75
295.494	9053.62
295.561	9061.95
295.628	9082.65
295.695	9092.33
295.762	9094.21
295.829	9101.38
295.896	9125.6
295.963	9130.99
296.03	9138.55
296.096	9143.65
296.163	9154.48
296.23	9165.46
296.297	9174.46
296.364	9170.27
296.431	9171
296.498	9167.1
296.564	9190.59
296.631	9188.71
296.698	9182.5
296.765	9197.09
296.832	9193
296.899	9179.04
296.965	9197.77
297.032	9179.42
297.099	9195.02
297.166	9199.3
297.233	9196.08
297.299	9189.34
297.366	9194.25
297.433	9197.81
297.5	9208.7
297.566	9207.49
297.633	9209.42
297.7	9218.04
297.767	9221.98
297.833	9227.62
297.9	9233.35
297.967	9222.75
298.033	9236.77
298.1	9257.42
298.167	9247.46
298.234	9246.06
298.3	9258.1
298.367	9258.24
298.434	9277.41
298.5	9269.99
298.567	9264.02
298.634	9263.49
298.7	9282.17
298.767	9282.65
298.834	9298.74
298.9	9288.14
298.967	9278.32
299.033	9286.17
299.1	9302.83
299.167	9317.42
299.233	9309.52
299.3	9320.21
299.366	9337.83
299.433	9357.68
299.5	9342.7
299.566	9354.26
299.633	9373.95
299.699	9387.29
299.766	9379.05
299.832	9374.33
299.899	9385.07
299.965	9400.87
300.032	9402.36
300.099	9405.73
300.165	9407.56
300.232	9401.78
300.298	9403.85
300.365	9424.6
300.431	9427.11
300.498	9419.98
300.564	9418.87
300.631	9432.45
300.697	9442.71
300.763	9441.03
300.83	9427.2
300.896	9441.12
300.963	9444.25
301.029	9448.39
301.096	9448.58
301.162	9456.82
301.229	9448.34
301.295	9439.77
301.361	9442.28
301.428	9439.34
301.494	9432.26
301.561	9436.5
301.627	9441.26
301.693	9445.89
301.76	9449.93
301.826	9445.02
301.892	9460.38
301.959	9473.24
302.025	9471.65
302.092	9469.73
302.158	9472.08
302.224	9476.32
302.291	9467.65
302.357	9462.36
302.423	9453.35
302.49	9443.87
302.556	9459.71
302.622	9464.77
302.688	9472.81
302.755	9483.5
302.821	9495.87
302.887	9503.96
302.954	9504.21
303.02	9505.75
303.086	9515.43
303.152	9505.17
303.219	9504.3
303.285	9495.63
303.351	9499.39
303.417	9500.83
303.483	9488.27
303.55	9485.38
303.616	9489.86
303.682	9486.2
303.748	9480.23
303.815	9499.39
303.881	9509.65
303.947	9492.65
304.013	9496.02
304.079	9488.12
304.145	9468.04
304.212	9462.07
304.278	9451.67
304.344	9446.57
304.41	9438.91
304.476	9426.73
304.542	9428.22
304.608	9433.27
304.674	9423.07
304.741	9417.57
304.807	9420.22
304.873	9428.41
304.939	9442.52
305.005	9422.63
305.071	9415.6
305.137	9419.07
305.203	9386.9
305.269	9385.98
305.335	9398.75
305.401	9398.89
305.467	9398.84
305.533	9405.63
305.599	9413
305.666	9418.78
305.732	9418.44
305.798	9428.02
305.864	9456.2
305.93	9458.89
305.996	9456.78
306.062	9459.38
306.128	9456.39
306.194	9439.15
306.259	9439.87
306.325	9427.35
306.391	9437.27
306.457	9452.63
306.523	9453.5
306.589	9477.29
306.655	9470.45
306.721	9452.01
306.787	9436.64
306.853	9449.17
306.919	9438.09
306.985	9432.75
307.051	9429.66
307.117	9424.08
307.183	9424.99
307.248	9397.59
307.314	9400
307.38	9400.09
307.446	9405.73
307.512	9391.96
307.578	9401.2
307.644	9395.9
307.709	9397.97
307.775	9386.61
307.841	9383.82
307.907	9383.34
307.973	9363.4
308.039	9362.77
308.104	9364.89
308.17	9364.31
308.236	9348.18
308.302	9356.56
308.368	9345.05
308.433	9343.66
308.499	9338.26
308.565	9324.83
308.631	9320.16
308.696	9299.02
308.762	9288.52
308.828	9280.82
308.894	9270.56
308.959	9250.29
309.025	9239.75
309.091	9234.84
309.156	9229.44
309.222	9223.71
309.288	9210.09
309.354	9197.33
309.419	9193.57
309.485	9178.6
309.551	9183.8
309.616	9169.74
309.682	9157.61
309.748	9149.81
309.813	9140.52
309.879	9131.85
309.945	9116.11
310.01	9107.73
310.076	9111.97
310.141	9107.54
310.207	9095.26
310.273	9093.72
310.338	9094.87
310.404	9080
310.469	9065.27
310.535	9054.43
310.601	9033.93
310.666	9034.94
310.732	9039.51
310.797	9027.81
310.863	9023.38
310.928	9013.13
310.994	9016.93
311.059	9015.77
311.125	9015.63
311.191	9033.06
311.256	9018.52
311.322	9025.7
311.387	9006.73
311.453	9243.2
311.518	9220.92
311.584	9213.45
311.649	9220.63
311.715	9211.29
311.78	9213.65
311.846	9205.22
311.911	9219.09
311.976	9221.69
312.042	9217.98
312.107	9205.85
312.173	9195.35
312.238	9190.11
312.304	9183.56
312.369	9176.82
312.434	9162.43
312.5	9158.77
312.565	9115.97
312.631	9123.91
312.696	9118.95
312.761	9122.66
312.827	8876.08
312.892	8908.38
312.958	8910.69
313.023	8901.64
313.088	8904
313.154	8889.22
313.219	8881.43
313.284	8864.91
313.35	8860.44
313.415	8842.77
313.48	8844.6
313.546	8848.5
313.611	8857.36
313.676	8853.26
313.741	8839.07
313.807	8845.9
313.872	8845.52
313.937	8857.11
314.003	8867.46
314.068	8860.05
314.133	8864.43
314.198	8854.61
314.264	8833.91
314.329	8821.88
314.394	8824.19
314.459	8818.89
314.525	8837.71
314.59	8832.85
314.655	8823.66
314.72	8827.12
314.785	8828.61
314.851	8814.8
314.916	8801.28
314.981	8784.28
315.046	8771.19
315.111	8763.3
315.176	8754.97
315.242	8752.66
315.307	8748.76
315.372	8725.61
315.437	8719.79
315.502	8715.65
315.567	8716.03
315.632	8700.44
315.698	8697.02
315.763	8686.77
315.828	8675.7
315.893	8667.85
315.958	8667.52
316.023	8661.98
316.088	8637.97
316.153	8615.59
316.218	8609.09
316.283	8589.32
316.348	8570.12
316.413	8565.59
316.479	8553.81
316.544	8515.99
316.609	8487.64
316.674	8452.81
316.739	8414.8
316.804	8380.3
316.869	8339.84
316.934	8303.51
316.999	8272.29
317.064	8224.18
317.129	8185.59
317.194	8151.63
317.259	8106.98
317.324	8053.54
317.389	8005.25
317.454	7966.05
317.518	7934.6
317.583	7901.74
317.648	7874.42
317.713	7838.83
317.778	7782.9
317.843	7748.9
317.908	7713.32
317.973	7672.49
318.038	7643.35
318.103	7615.9
318.168	7588.11
318.233	7556.72
318.297	7507.44
318.362	7473.21
318.427	7433.51
318.492	7401.64
318.557	7353.96
318.622	7323.19
318.687	7294.6
318.751	7252.61
318.816	7222.47
318.881	7186.48
318.946	7136.55
319.011	7094.31
319.075	7050.87
319.14	7013.21
319.205	6967.61
319.27	6931.59
319.335	6887.68
319.399	6842.38
319.464	6812.93
319.529	6756.26
319.594	6719.51
319.658	6689.21
319.723	6643.34
319.788	6615.2
319.853	6557.38
319.917	6529.25
319.982	6471.29
320.047	6438.02
320.112	6411.43
320.176	6362.36
320.241	6328.28
320.306	6298.42
320.37	6250.81
320.435	6221.44
320.5	6194.61
320.564	6154.97
320.629	6116.54
320.694	6084.25
320.758	6044.38
320.823	5996.73
320.888	5970.21
320.952	5918.16
321.017	5879.64
321.082	5839.16
321.146	5802.51
321.211	5774.65
321.275	5734.8
321.34	5696.01
321.405	5653.19
321.469	5605.2
321.534	5559.72
321.598	5509.48
321.663	5476.29
321.727	5447.53
321.792	5399.46
321.857	5354.35
321.921	5317.45
321.986	5275.43
322.05	5218.23
322.115	5181.44
322.179	5137.18
322.244	5083.68
322.308	5050.96
322.373	5004.75
322.437	4965.81
322.502	4939.46
322.566	4891.62
322.631	4851.73
322.695	4811.57
322.76	4763.9
322.824	4732.73
322.889	4694.64
322.953	4648.47
323.018	4581.52
323.082	4520.61
323.146	4471.29
323.211	4417.43
323.275	4374.18
323.34	4327.84
323.404	4297.61
323.468	4251.6
323.533	4206.66
323.597	4160.97
323.662	4111.25
323.726	4074
323.79	4027.44
323.855	3962.22
323.919	3919.16
323.983	3873.04
324.048	3807.29
324.112	3936.05
324.177	3808.25
324.241	3609.72
324.305	3417.48
324.37	3229.17
324.434	3044.34
324.498	3000.45
324.562	2954.36
324.627	2894.89
324.691	2841.07
324.755	2773.8
324.82	2701.45
324.884	2628.93
324.948	2560.3
325.012	2468.03
325.077	2350.69
