Data from 20250630_urea_2M_MAYP1162681_10-22-27-438.txt Node
Date: Tue Jul 01 10:22:27 BST 2025
User: adleo
Spectrometer: MAYP116268
Trigger mode: 0
Integration Time (sec): 1.000000E0
Scans to average: 1
Electric dark correction enabled: true
Nonlinearity correction enabled: true
Boxcar width: 10
XAxis mode: Wavelengths
Number of Pixels in Spectrum: 2068
>>>>>Begin Spectral Data<<<<<
179.565	1101.5
179.642	1149.03
179.718	1186.96
179.795	1223.02
179.871	1252.89
179.948	1267.54
180.024	1287.05
180.101	1308.21
180.177	1320.01
180.254	1342.09
180.33	1363.83
180.407	1410.07
180.483	1499.57
180.56	1581.47
180.636	1657.86
180.712	1646.45
180.789	1653.86
180.865	1663.22
180.942	1670.39
181.018	1681.41
181.095	1692.63
181.171	1697.76
181.248	1700.52
181.324	1715.39
181.4	1722.71
181.477	1731.98
181.553	1745.99
181.63	1764
181.706	1777.98
181.782	1785.29
181.859	1782.25
181.935	1786
182.011	1783.11
182.088	1798.74
182.164	1813.91
182.24	1826.45
182.317	1833.53
182.393	1830.26
182.469	1844.8
182.546	1858.25
182.622	1862.53
182.698	1858.2
182.775	1869.18
182.851	1882.25
182.927	1874.98
183.003	1868.9
183.08	1862.67
183.156	1870.71
183.232	1870.33
183.308	1859.68
183.385	1866.81
183.461	1883.82
183.537	1885.39
183.613	1895.71
183.69	1883.21
183.766	1874.36
183.842	1882.02
183.918	1890.72
183.995	1905.07
184.071	1906.5
184.147	1903.41
184.223	1891.19
184.299	1903.98
184.375	1893.95
184.452	1899.19
184.528	1951.54
184.604	1961.38
184.68	1974.17
184.756	1980.59
184.832	1982.92
184.908	1986.29
184.985	1988.43
185.061	1972.6
185.137	1979.16
185.213	1969.32
185.289	1971.13
185.365	1963.81
185.441	1961.57
185.517	1972.7
185.593	1969.52
185.669	1966.9
185.745	1973.85
185.822	1989.2
185.898	1983.06
185.974	1990.67
186.05	1984.44
186.126	1945.39
186.202	1939.97
186.278	1935.22
186.354	1926.23
186.43	1934.56
186.506	1932.99
186.582	1930.13
186.658	1936.31
186.734	1918.35
186.81	1919.49
186.886	1922.15
186.962	1934.17
187.038	1931.65
187.114	1921.47
187.19	1929.18
187.266	1919.24
187.341	1920.24
187.417	1913.87
187.493	1912.49
187.569	1917.96
187.645	1910.4
187.721	1900.66
187.797	1907.64
187.873	1913.73
187.949	1906.98
188.025	1896.99
188.101	1900.94
188.176	1907.64
188.252	1906.45
188.328	1912.44
188.404	1912.11
188.48	1908.87
188.556	1904.45
188.632	1901.88
188.707	1905.07
188.783	1901.55
188.859	1898.46
188.935	1888.81
189.011	1895.32
189.086	1891.33
189.162	1880.54
189.238	1880.25
189.314	1878.88
189.39	1873.93
189.465	1862.28
189.541	1878.02
189.617	1865
189.693	1861.24
189.768	1862.72
189.844	1882.59
189.92	1874.61
189.996	1881.17
190.071	1891.06
190.147	1888.73
190.223	1898
190.298	1888.92
190.374	1875.23
190.45	1885.97
190.526	1892.96
190.601	1890.49
190.677	1889.54
190.753	1916.7
190.828	1919.12
190.904	1933.86
190.98	1946.84
191.055	1957.97
191.131	1951.31
191.207	1971.52
191.282	1980.45
191.358	1973.27
191.433	1962.62
191.509	1976.54
191.585	1975.59
191.66	1977.45
191.736	1986.67
191.811	1979.3
191.887	1993.85
191.963	2016.53
192.038	2020.29
192.114	2021.57
192.189	2023.14
192.265	2019.81
192.34	1998.93
192.416	1997.36
192.491	1991.46
192.567	1995.89
192.642	2001.12
192.718	2000.93
192.793	1987.47
192.869	1984
192.944	1987.76
193.02	1991.89
193.095	1994.46
193.171	1998.6
193.246	1997.84
193.322	1993.03
193.397	1993.27
193.473	1982.33
193.548	1965.21
193.624	1973.96
193.699	1970.83
193.775	1985.05
193.85	1988.71
193.925	1994.03
194.001	1995.65
194.076	1988.42
194.152	1978.1
194.227	1973.11
194.302	1963.55
194.378	1968.4
194.453	1962.65
194.529	1972.54
194.604	1960.37
194.679	1956.57
194.755	1938.74
194.83	1949.87
194.905	1949.45
194.981	1958.24
195.056	1950.64
195.131	1957.96
195.207	1955.63
195.282	1947.93
195.357	1929.95
195.433	1944.59
195.508	1938.51
195.583	1943.26
195.659	1958.62
195.734	1964.85
195.809	1962.95
195.884	1971.65
195.96	1972.84
196.035	1988.1
196.11	1984.29
196.185	1994.94
196.261	1997.46
196.336	2030.32
196.411	2016.96
196.486	2022.09
196.561	2015.29
196.637	2024.89
196.712	2040.12
196.787	2043.02
196.862	2058.81
196.937	2070.55
197.013	2075.97
197.088	2083.01
197.163	2105.42
197.238	2120.08
197.313	2118.94
197.388	2130.07
197.464	2158.81
197.539	2165.8
197.614	2160.14
197.689	2171.85
197.764	2185.45
197.839	2204.34
197.914	2197.68
197.989	2219.52
198.065	2232.93
198.14	2281.45
198.215	2304.05
198.29	2315.38
198.365	2324.38
198.44	2332.89
198.515	2361.93
198.59	2372.69
198.665	2399.82
198.74	2408.06
198.815	2408.11
198.89	2427.15
198.965	2455.05
199.04	2451.57
199.115	2468.09
199.19	2507.22
199.265	2511.26
199.34	2524.45
199.415	2555.32
199.49	2576.6
199.565	2585.56
199.64	2605.7
199.715	2602.51
199.79	2610.55
199.865	2612.27
199.94	2614.13
200.015	2643.42
200.09	2643.37
200.165	2652.42
200.24	2657.61
200.315	2694.61
200.39	2706.67
200.464	2716.05
200.539	2718.62
200.614	2734.67
200.689	2755.73
200.764	2762.07
200.839	2778.64
200.914	2780.69
200.989	2772.54
201.063	2785.88
201.138	2769.13
201.213	2771.17
201.288	2752.45
201.363	2756.26
201.438	2758.02
201.512	2772.93
201.587	2757.49
201.662	2760.21
201.737	2771.41
201.812	2778.79
201.886	2745.99
201.961	2756.61
202.036	2746.75
202.111	2741.89
202.186	2712.42
202.26	2698.79
202.335	2677.21
202.41	2669.59
202.485	2653.35
202.559	2633.35
202.634	2607.38
202.709	2616.33
202.784	2596.62
202.858	2594.14
202.933	2576.8
203.008	2573.33
203.082	2554.52
203.157	2552.71
203.232	2514.2
203.306	2493.76
203.381	2462.66
203.456	2441.14
203.53	2419.17
203.605	2398.71
203.68	2378.85
203.754	2374
203.829	2358.91
203.904	2342.01
203.978	2331.73
204.053	2337.2
204.127	2324.88
204.202	2322.26
204.277	2305.98
204.351	2300.41
204.426	2294.84
204.5	2286.8
204.575	2256.44
204.65	2265.58
204.724	2256.73
204.799	2265.57
204.873	2258.81
204.948	2259.67
205.022	2249.63
205.097	2243.54
205.171	2257.1
205.246	2260.14
205.32	2261.24
205.395	2260.62
205.469	2252.77
205.544	2257.49
205.618	2245.3
205.693	2257.86
205.767	2247.25
205.842	2268.05
205.916	2262.58
205.991	2254.64
206.065	2258.49
206.14	2269.52
206.214	2266.62
206.289	2262.43
206.363	2276.28
206.438	2280.99
206.512	2285.75
206.586	2305.88
206.661	2313.74
206.735	2291.09
206.81	2294.43
206.884	2306.08
206.958	2296.04
207.033	2308.55
207.107	2315.79
207.181	2339.74
207.256	2333.89
207.33	2350.97
207.405	2362.31
207.479	2380.06
207.553	2385.82
207.628	2371.41
207.702	2385.64
207.776	2380.35
207.851	2382.59
207.925	2395.54
207.999	2392.97
208.073	2389.97
208.148	2391.59
208.222	2381.31
208.296	2413.57
208.371	2427.05
208.445	2435.52
208.519	2460.89
208.593	2476.65
208.668	2472.98
208.742	2476.79
208.816	2478.98
208.89	2490.27
208.965	2485.89
209.039	2492.46
209.113	2509.31
209.187	2527.77
209.261	2523.2
209.336	2539.01
209.41	2558.87
209.484	2557.49
209.558	2576.92
209.632	2592.54
209.707	2600.68
209.781	2620.07
209.855	2634.26
209.929	2657.2
210.003	2664.68
210.077	2666.96
210.151	2708.68
210.226	2741.09
210.3	2765.89
210.374	2789.51
210.448	2793.23
210.522	2805.28
210.596	2817.24
210.67	2827.06
210.744	2871.86
210.818	2901.58
210.892	2921.08
210.966	2915.46
211.041	2929.95
211.115	2927.09
211.189	2946.72
211.263	2961.35
211.337	2968.84
211.411	2982.33
211.485	2974.32
211.559	2986.71
211.633	2988.42
211.707	2961.9
211.781	2968.58
211.855	2937.31
211.929	2929.73
212.003	2915.68
212.077	2925.98
212.151	2938.57
212.225	2949.58
212.299	2945.29
212.373	2936.56
212.447	2935.75
212.52	2967.22
212.594	2975.56
212.668	2992.25
212.742	2986.57
212.816	2990.58
212.89	2992.11
212.964	2997.88
213.038	3006.22
213.112	3027.16
213.186	3051.53
213.26	3043.04
213.333	3008.76
213.407	3024.49
213.481	3035.88
213.555	3062.28
213.629	3063.85
213.703	3063.71
213.777	3077.02
213.85	3072.82
213.924	3120.82
213.998	3139.66
214.072	3152.03
214.146	3160.9
214.219	3179.94
214.293	3197.97
214.367	3220.01
214.441	3252.22
214.515	3265.48
214.588	3269.54
214.662	3262.81
214.736	3269.49
214.81	3302.63
214.883	3344.31
214.957	3362.67
215.031	3385.95
215.105	3397.92
215.178	3420.93
215.252	3448.71
215.326	3457.3
215.4	3479.44
215.473	3475.53
215.547	3494.73
215.621	3517.66
215.694	3562.47
215.768	3582.77
215.842	3610.94
215.915	3641.94
215.989	3658.95
216.063	3696.75
216.136	3744.81
216.21	3791.62
216.284	3850.97
216.357	3903.11
216.431	3947.12
216.504	4005.23
216.578	4081.78
216.652	4138.16
216.725	4191
216.799	4252.56
216.873	4313.23
216.946	4373.67
217.02	4422.01
217.093	4476.83
217.167	4516.11
217.24	4556.56
217.314	4612.34
217.387	4669.08
217.461	4728.25
217.535	4805.08
217.608	4856.08
217.682	4921.31
217.755	4994.19
217.829	5044.78
217.902	5108.11
217.976	5172.34
218.049	5236.55
218.123	5283.96
218.196	5353.23
218.27	5415.35
218.343	5471.26
218.417	5544.42
218.49	5613.79
218.563	5697.98
218.637	5773.08
218.71	5868.39
218.784	5951.91
218.857	6029.67
218.931	6109.58
219.004	6186.32
219.077	6261.64
219.151	6335.3
219.224	6404.62
219.298	6474.28
219.371	6559.41
219.444	6623.89
219.518	6702.4
219.591	6773.47
219.665	6874.23
219.738	6954.63
219.811	7018.36
219.885	7095.04
219.958	7178.85
220.031	7249.58
220.105	7329.36
220.178	7407.28
220.251	7473.1
220.325	7544.5
220.398	7627
220.471	7704.98
220.544	7783.08
220.618	7851.8
220.691	7938.8
220.764	8010.75
220.838	8093.34
220.911	8166.85
220.984	8265.95
221.057	8344.61
221.131	8420.53
221.204	8467.45
221.277	8559.99
221.35	8667.11
221.424	8742.47
221.497	8814.97
221.57	8894.66
221.643	8973.03
221.716	9056.37
221.79	9123.43
221.863	9199.21
221.936	9272.2
222.009	9346.73
222.082	9418.34
222.155	9484.74
222.229	9565.35
222.302	9640.04
222.375	9703.08
222.448	9776.05
222.521	9840.5
222.594	9907.06
222.667	9968.28
222.74	10046.74
222.814	10116.31
222.887	10178.94
222.96	10262.62
223.033	10339.8
223.106	10411.01
223.179	10482.46
223.252	10544.96
223.325	10615.73
223.398	10682.85
223.471	10753.1
223.544	10817.14
223.617	10887.54
223.69	10955.72
223.763	11011.92
223.837	11082.85
223.91	11151.13
223.983	11198.02
224.056	11247.76
224.129	11316.86
224.202	11389.58
224.275	11448.38
224.348	11492.19
224.42	11541.5
224.493	11578.51
224.566	11633.65
224.639	11699.78
224.712	11750.2
224.785	11800.76
224.858	11864.04
224.931	11913.02
225.004	11959.96
225.077	12020.07
225.15	12050.24
225.223	12106.4
225.296	12175.67
225.369	12215.05
225.442	12271.35
225.514	12335.22
225.587	12398.99
225.66	12463.58
225.733	12529.53
225.806	12589.4
225.879	12647.72
225.952	12701.71
226.025	12774.74
226.097	12845.03
226.17	12894.2
226.243	12931.9
226.316	12992.15
226.389	13048.17
226.461	13117.63
226.534	13177.26
226.607	13229.86
226.68	13307.47
226.753	13367.82
226.825	13401.57
226.898	13472.29
226.971	13525.7
227.044	13591.79
227.117	13646.12
227.189	13703.87
227.262	13765.19
227.335	13821.78
227.407	13872.45
227.48	13930.49
227.553	13990.41
227.626	14027.48
227.698	14083.54
227.771	14150.98
227.844	14199.62
227.916	14254.33
227.989	14286.49
228.062	14338.6
228.134	14413.12
228.207	14462.15
228.28	14507.89
228.352	14565.5
228.425	14612.07
228.498	14671.74
228.57	14712.67
228.643	14775.38
228.716	14814.91
228.788	14855.01
228.861	14895.65
228.934	14955.47
229.006	14999.82
229.079	15044.21
229.151	15085.86
229.224	15115.65
229.296	15161.01
229.369	15230.76
229.442	15288.16
229.514	15335.98
229.587	15391.22
229.659	15419.61
229.732	15466.46
229.804	15519.1
229.877	15585.52
229.949	15649.58
230.022	15713.97
230.094	15756.87
230.167	15805.89
230.239	15831.05
230.312	15878.04
230.384	15959.07
230.457	16006.83
230.529	16058.16
230.602	16105.01
230.674	16159.28
230.747	16224.3
230.819	16276.55
230.892	16293.08
230.964	16332.8
231.037	16382.78
231.109	16421.48
231.181	16465.92
231.254	16490.93
231.326	16532.09
231.399	16565.69
231.471	16596.82
231.544	16613.35
231.616	16663.96
231.688	16702.9
231.761	16758.52
231.833	16794.71
231.905	16800.93
231.978	16833.75
232.05	16870.38
232.122	16901.23
232.195	16926.62
232.267	16966.58
232.339	17001.86
232.412	17057.04
232.484	17089.91
232.556	17117.47
232.629	17170.73
232.701	17206.53
232.773	17256.37
232.846	17284.37
232.918	17324.27
232.99	17350.25
233.062	17388.32
233.135	17424.66
233.207	17442.15
233.279	17465.81
233.351	17500.66
233.424	17524.27
233.496	17539.89
233.568	17574.73
233.64	17586.2
233.713	17612.37
233.785	17633.77
233.857	17650.54
233.929	17651.5
234.001	17688.56
234.074	17725.52
234.146	17726.39
234.218	17748.17
234.29	17767.88
234.362	17779.59
234.434	17777.38
234.507	17788.03
234.579	17794.87
234.651	17792.17
234.723	17812.08
234.795	17831.45
234.867	17839.4
234.939	17862.97
235.012	17892.89
235.084	17910.19
235.156	17934.34
235.228	17936.6
235.3	17943.16
235.372	17963.4
235.444	17983.49
235.516	17968.84
235.588	17986.34
235.66	17991.44
235.732	17986.96
235.804	18038.53
235.876	18067.63
235.948	18089.37
236.02	18101.08
236.092	18105.75
236.164	18121.9
236.236	18116.35
236.308	18120.69
236.38	18123.29
236.452	18123.53
236.524	18129.27
236.596	18146.81
236.668	18156.5
236.74	18167.63
236.812	18178.52
236.884	18185.17
236.956	18194.42
237.028	18182.95
237.1	18178.47
237.172	18206.76
237.244	18226.76
237.316	18191.24
237.388	18171.44
237.46	18159.92
237.532	18174.81
237.604	18168.16
237.675	18183.34
237.747	18197.46
237.819	18190.57
237.891	18191.44
237.963	18180.11
238.035	18162.33
238.107	18124.02
238.178	18129.85
238.25	18123.58
238.322	18133.9
238.394	18112.55
238.466	18101.56
238.538	18107.82
238.609	18092.64
238.681	18056.93
238.753	18042.77
238.825	18036.94
238.897	18033.08
238.968	18042.38
239.04	18019.73
239.112	18034.19
239.184	18004.7
239.255	17989.95
239.327	17989.81
239.399	17978.09
239.471	17975.49
239.542	17963.44
239.614	17965.95
239.686	17930.19
239.758	17934.77
239.829	17908.56
239.901	17908.8
239.973	17886.1
240.044	17880.65
240.116	17864.65
240.188	17849.42
240.259	17827.74
240.331	17808.61
240.403	17804.8
240.474	17771.79
240.546	17749.43
240.618	17717.96
240.689	17689.72
240.761	17673.38
240.833	17675.55
240.904	17657.19
240.976	17640.51
241.048	17635.89
241.119	17626.92
241.191	17615.21
241.262	17599.41
241.334	17577.33
241.405	17554.68
241.477	17528.9
241.549	17498.35
241.62	17486.3
241.692	17471.79
241.763	17466.59
241.835	17445.04
241.906	17423.21
241.978	17389.77
242.049	17382.06
242.121	17361.62
242.192	17361.91
242.264	17320.8
242.335	17268.37
242.407	17241.86
242.478	17208.41
242.55	17184.32
242.621	17150.68
242.693	17127.69
242.764	17099.4
242.836	17071.79
242.907	17054.58
242.979	17042.39
243.05	17024.41
243.122	17003.93
243.193	16976.89
243.264	16929.66
243.336	16906.29
243.407	16887.97
243.479	16888.36
243.55	16860.45
243.622	16845.22
243.693	16823.1
243.764	16814.81
243.836	16783.82
243.907	16765.7
243.978	16746.33
244.05	16726.61
244.121	16681.79
244.192	16664.35
244.264	16626.17
244.335	16606.32
244.407	16560.87
244.478	16543.61
244.549	16518.99
244.62	16473.82
244.692	16450.88
244.763	16436.38
244.834	16404.42
244.906	16364.66
244.977	16341.14
245.048	16328.08
245.119	16291.01
245.191	16254.05
245.262	16208.93
245.333	16197.12
245.405	16172.21
245.476	16150.81
245.547	16122.85
245.618	16111.77
245.689	16075.86
245.761	16054.41
245.832	16020.67
245.903	16004.81
245.974	15976.42
246.045	15949.38
246.117	15941.72
246.188	15897.52
246.259	15860.99
246.33	15828.84
246.401	15798.66
246.473	15752.58
246.544	15716
246.615	15705.21
246.686	15667.66
246.757	15651.08
246.828	15613.24
246.899	15600.13
246.97	15561.28
247.042	15525.51
247.113	15510.86
247.184	15504.83
247.255	15468.2
247.326	15449.74
247.397	15418.8
247.468	15396.14
247.539	15363.22
247.61	15322.73
247.681	15306.82
247.752	15295.78
247.823	15265.22
247.894	15246.42
247.965	15209.07
248.037	15181.45
248.108	15131.27
248.179	15104.23
248.25	15079.98
248.321	15051.54
248.392	15002.76
248.463	14991.91
248.534	14968.39
248.605	14938.41
248.675	14907.9
248.746	14886.01
248.817	14860.56
248.888	14840.22
248.959	14797.32
249.03	14779.92
249.101	14757.31
249.172	14732.24
249.243	14677.34
249.314	14667.41
249.385	14636.12
249.456	14615.73
249.527	14588.54
249.598	14571.43
249.669	14544.77
249.739	14527.08
249.81	14514.4
249.881	14480.47
249.952	14447.06
250.023	14412.64
250.094	14372.44
250.165	14337.44
250.235	14314.11
250.306	14285.19
250.377	14250.67
250.448	14223.58
250.519	14183.09
250.59	14164.24
250.66	14132.18
250.731	14128.28
250.802	14096.13
250.873	14071.78
250.944	14044.98
251.014	14010.08
251.085	14004
251.156	13982.94
251.227	13956.38
251.297	13943.02
251.368	13928.17
251.439	13915.64
251.51	13901.76
251.58	13870.57
251.651	13836.25
251.722	13826.27
251.792	13782.45
251.863	13755.21
251.934	13738.92
252.005	13737.71
252.075	13719.97
252.146	13701.32
252.217	13682.71
252.287	13665.4
252.358	13639.32
252.429	13641.2
252.499	13610.59
252.57	13583.98
252.641	13575.45
252.711	13557.71
252.782	13518.56
252.852	13517.41
252.923	13492
252.994	13470.41
253.064	13457.92
253.135	13432.61
253.205	13396.89
253.276	13401.86
253.347	13393.71
253.417	13373.22
253.488	13339.52
253.558	13302.26
253.629	13286.93
253.699	13270.01
253.77	13254.3
253.841	13233.42
253.911	13204.11
253.982	13191.58
254.052	13172.63
254.123	13155.04
254.193	13133.59
254.264	13143.42
254.334	13105.58
254.405	13076.75
254.475	13037.85
254.546	13011.87
254.616	12996.97
254.687	12980.77
254.757	12949.44
254.827	12919.99
254.898	12899.74
254.968	12874.09
255.039	12851.82
255.109	12834.47
255.18	12806.12
255.25	12768.72
255.321	12754.54
255.391	12721.19
255.461	12712.99
255.532	12666.14
255.602	12631.28
255.673	12586.93
255.743	12555.89
255.813	12508.22
255.884	12491.88
255.954	12488.26
256.024	12488.6
256.095	12469.65
256.165	12434.27
256.235	12420.24
256.306	12400.43
256.376	12384.91
256.446	12379.17
256.517	12364.81
256.587	12351.55
256.657	12333.96
256.728	12309.18
256.798	12286.24
256.868	12262.91
256.938	12231.91
257.009	12225.5
257.079	12219.52
257.149	12230.9
257.219	12190.02
257.29	12180.82
257.36	12147.32
257.43	12136.04
257.5	12089.76
257.571	12067.3
257.641	12055.25
257.711	12025.8
257.781	12009.12
257.852	12001.51
257.922	11961.5
257.992	11940.97
258.062	11918.6
258.132	11905.63
258.202	11884.48
258.273	11866.06
258.343	11868.47
258.413	11846.69
258.483	11832.13
258.553	11797.76
258.623	11768.36
258.693	11758.48
258.764	11759.78
258.834	11754.05
258.904	11729.08
258.974	11707.44
259.044	11680.83
259.114	11665.51
259.184	11644.2
259.254	11622.51
259.324	11577.11
259.394	11570.22
259.464	11570.17
259.535	11546.75
259.605	11514.41
259.675	11494.69
259.745	11483.13
259.815	11452.14
259.885	11423.6
259.955	11427.12
260.025	11402.69
260.095	11383.89
260.165	11370.54
260.235	11363.79
260.305	11330.16
260.375	11303.26
260.445	11306.68
260.515	11309.53
260.585	11305.53
260.655	11290.39
260.725	11284.37
260.795	11275.26
260.865	11267.74
260.934	11234.49
261.004	11224.37
261.074	11208.08
261.144	11205
261.214	11200.51
261.284	11183.98
261.354	11182.68
261.424	11151.02
261.494	11148.56
261.564	11126.73
261.634	11115.6
261.703	11081.91
261.773	11085.19
261.843	11075.16
261.913	11050.06
261.983	11015.7
262.053	10999.12
262.123	10979.02
262.192	10944.91
262.262	10938.88
262.332	10906.84
262.402	10895.27
262.472	10879.95
262.541	10845.64
262.611	10836.25
262.681	10802.99
262.751	10789.65
262.821	10770.61
262.89	10741.89
262.96	10730.23
263.03	10739.48
263.1	10723.92
263.169	10706.76
263.239	10687.49
263.309	10687.49
263.379	10680.6
263.448	10667.3
263.518	10653.04
263.588	10648.32
263.657	10652.8
263.727	10646.58
263.797	10636.51
263.867	10616.52
263.936	10584.04
264.006	10591.41
264.076	10572.67
264.145	10563.13
264.215	10537.16
264.285	10528.82
264.354	10500.16
264.424	10476.74
264.494	10440.65
264.563	10417
264.633	10423.11
264.702	10411.17
264.772	10377.25
264.842	10359.85
264.911	10358.22
264.981	10336.82
265.05	10315.09
265.12	10294.43
265.19	10286.76
265.259	10278.81
265.329	10269.37
265.398	10263.5
265.468	10268.84
265.537	10247.69
265.607	10235.07
265.676	10239.36
265.746	10227.03
265.815	10224.52
265.885	10204.05
265.955	10178.9
266.024	10161.37
266.094	10117.82
266.163	10111.56
266.232	10114.21
266.302	10094.89
266.371	10074.47
266.441	10058.52
266.51	10055.29
266.58	10038.67
266.649	10005.1
266.719	10001.48
266.788	9995.94
266.858	9994.59
266.927	9951.48
266.996	9943.48
267.066	9930.33
267.135	9898.01
267.205	9890.79
267.274	9878.7
267.343	9888.38
267.413	9878.07
267.482	9884.72
267.552	9894.74
267.621	9874.89
267.69	9843.15
267.76	9836.99
267.829	9829.95
267.898	9816.61
267.968	9793.59
268.037	9788.19
268.106	9787.28
268.176	9759.87
268.245	9747.11
268.314	9727.31
268.384	9731.26
268.453	9715.18
268.522	9705.54
268.592	9705.73
268.661	9688.93
268.73	9684.06
268.799	9656.03
268.869	9670.29
268.938	9637.82
269.007	9615.77
269.076	9605.89
269.146	9607.92
269.215	9600.31
269.284	9604.06
269.353	9583.55
269.422	9571.94
269.492	9552.2
269.561	9511.85
269.63	9510.06
269.699	9489.98
269.768	9482.28
269.838	9474.14
269.907	9475.68
269.976	9449.68
270.045	9421.41
270.114	9420.59
270.183	9405.86
270.253	9403.35
270.322	9364.15
270.391	9357.32
270.46	9361.46
270.529	9353.08
270.598	9350.38
270.667	9339.21
270.736	9316.53
270.806	9318.6
270.875	9322.45
270.944	9310.08
271.013	9326.45
271.082	9315.56
271.151	9313.35
271.22	9285.86
271.289	9267.37
271.358	9251.72
271.427	9248.97
271.496	9242.62
271.565	9218.93
271.634	9210.41
271.703	9207.86
271.772	9210.94
271.841	9199.86
271.91	9174.1
271.979	9163.9
272.048	9135.82
272.117	9130.53
272.186	9114.74
272.255	9112.43
272.324	9101.74
272.393	9097.36
272.462	9082.86
272.531	9071.55
272.6	9058.21
272.669	9064.04
272.738	9057.59
272.807	9053.73
272.876	9032.46
272.945	9055.76
273.013	9059.18
273.082	9060.09
273.151	9042.81
273.22	9046.23
273.289	9034
273.358	9044.35
273.427	9033.62
273.496	9033.76
273.564	9032.7
273.633	9029.86
273.702	9012.34
273.771	9004.1
273.84	8997.41
273.909	8999.39
273.977	8998.04
274.046	8990.05
274.115	8990.1
274.184	8971.42
274.253	8964.49
274.322	8976.38
274.39	8946.87
274.459	8933.72
274.528	8907.68
274.597	8896.03
274.665	8884.96
274.734	8895.84
274.803	8884.04
274.872	8882.84
274.94	8869.08
275.009	8915.74
275.078	8901.21
275.147	8891.29
275.215	8887.01
275.284	8895.19
275.353	8881.61
275.421	8860.15
275.49	8871.6
275.559	8861.98
275.627	8863.37
275.696	8854.18
275.765	8849.61
275.833	8839.21
275.902	8839.16
275.971	8850.28
276.039	8864.53
276.108	8865.01
276.177	8859.57
276.245	8854.52
276.314	8838.44
276.383	8845.03
276.451	8785.32
276.52	8788.83
276.588	8803.52
276.657	8804.09
276.725	8794.18
276.794	8794.71
276.863	8807.7
276.931	8778.82
277	8789.94
277.068	8787.87
277.137	8803.71
277.205	8802.99
277.274	8824.16
277.342	8829.41
277.411	8809.15
277.48	8794.47
277.548	8784.31
277.617	8784.79
277.685	8771.56
277.754	8773.44
277.822	8758.13
277.89	8771.13
277.959	8764.68
278.027	8744.32
278.096	8733.15
278.164	8754.48
278.233	8749.47
278.301	8736.77
278.37	8750.92
278.438	8731.37
278.507	8736.62
278.575	8709.14
278.643	8704.37
278.712	8680.11
278.78	8669.28
278.849	8682.57
278.917	8687.52
278.985	8680.26
279.054	8678.09
279.122	8686.13
279.191	8686.61
279.259	8687.04
279.327	8666.87
279.396	8685.16
279.464	8681.07
279.532	8688.05
279.601	8678.66
279.669	8668.99
279.737	8679.19
279.806	8685.35
279.874	8697
279.942	8695.32
280.011	8695.03
280.079	8703.79
280.147	8720.49
280.215	8719.09
280.284	8715.43
280.352	8706.24
280.42	8713.17
280.488	8700.75
280.557	8694.59
280.625	8702.97
280.693	8708.07
280.761	8704.75
280.83	8684.73
280.898	8694.5
280.966	8674.62
281.034	8651.85
281.102	8638.28
281.171	8630.34
281.239	8626.06
281.307	8613.35
281.375	8604.69
281.443	8621.82
281.512	8614.17
281.58	8617.83
281.648	8603.3
281.716	8594.49
281.784	8595.16
281.852	8587.9
281.92	8591.26
281.989	8602.82
282.057	8585.3
282.125	8621.02
282.193	8619.77
282.261	8623.33
282.329	8622.46
282.397	8629.77
282.465	8632.85
282.533	8646.14
282.601	8635.93
282.67	8620.29
282.738	8614.61
282.806	8625.59
282.874	8612.59
282.942	8613.6
283.01	8606.67
283.078	8621.35
283.146	8629.53
283.214	8635.64
283.282	8638.91
283.35	8645.8
283.418	8635.01
283.486	8639.44
283.554	8601.56
283.622	8602.52
283.69	8595.64
283.758	8582.6
283.826	8585
283.894	8592.08
283.962	8619.08
284.03	8633.04
284.098	8631.88
284.165	8625.82
284.233	8622.45
284.301	8621.49
284.369	8617.73
284.437	8613.4
284.505	8604.11
284.573	8611.28
284.641	8600.46
284.709	8607.29
284.777	8594.44
284.845	8604.11
284.912	8604.31
284.98	8603.78
285.048	8592.66
285.116	8599.54
285.184	8614.94
285.252	8615.52
285.319	8597.04
285.387	8581.15
285.455	8565.47
285.523	8574.13
285.591	8572.83
285.659	8572.88
285.726	8581.64
285.794	8562.63
285.862	8560.32
285.93	8558.01
285.997	8549.54
286.065	8546.8
286.133	8534.81
286.201	8528.8
286.269	8513.3
286.336	8505.26
286.404	8499.59
286.472	8514.02
286.539	8490.01
286.607	8472.74
286.675	8476.59
286.743	8480.92
286.81	8472.88
286.878	8484.14
286.946	8471.97
287.013	8472.98
287.081	8471.97
287.149	8454.69
287.216	8475.09
287.284	8473.5
287.352	8470.04
287.419	8467.06
287.487	8477.31
287.555	8486.5
287.622	8484.81
287.69	8486.55
287.758	8499.78
287.825	8493
287.893	8481.06
287.96	8494.1
288.028	8506.75
288.096	8498.14
288.163	8503.1
288.231	8496.02
288.298	8493.23
288.366	8506.71
288.433	8499.97
288.501	8491.55
288.569	8502.09
288.636	8497.66
288.704	8505.6
288.771	8515.56
288.839	8506.8
288.906	8501.13
288.974	8511.23
289.041	8506.33
289.109	8498.72
289.176	8505.41
289.244	8513.26
289.311	8529.09
289.379	8537.17
289.446	8539.48
289.514	8546.85
289.581	8544.06
289.649	8541.94
289.716	8543.29
289.783	8537.94
289.851	8563.26
289.918	8560.8
289.986	8566.91
290.053	8569.08
290.121	8563.16
290.188	8571.78
290.255	8601.42
290.323	8601.66
290.39	8587.17
290.458	8598.92
290.525	8613.98
290.592	8606.66
290.66	8604.59
290.727	8590.25
290.794	8601.08
290.862	8602.38
290.929	8605.99
290.996	8613.74
291.064	8630.63
291.131	8641.41
291.198	8644.49
291.266	8637.32
291.333	8646.41
291.4	8647.91
291.468	8665.47
291.535	8664.37
291.602	8661.82
291.669	8650.6
291.737	8656.81
291.804	8664.22
291.871	8679.14
291.938	8689.92
292.006	8722.46
292.073	8739.69
292.14	8755.72
292.207	8743.01
292.275	8739.16
292.342	8747.59
292.409	8766.02
292.476	8783.59
292.543	8779.36
292.611	8790
292.678	8811.7
292.745	8834.18
292.812	8848
292.879	8843.47
292.946	8849.97
293.014	8859.26
293.081	8877.12
293.148	8886.41
293.215	8895.55
293.282	8890.31
293.349	8898.35
293.416	8879.28
293.484	8894.3
293.551	8903.35
293.618	8928.62
293.685	8951.87
293.752	8941.18
293.819	8940.65
293.886	8931.8
293.953	8940.51
294.02	8946.81
294.087	8953.41
294.154	8948.74
294.221	8958.13
294.288	8963.09
294.356	8976.33
294.423	8983.35
294.49	8966.94
294.557	8981
294.624	8972.67
294.691	8988.26
294.758	8986.96
294.825	8992.74
294.892	8981.48
294.959	8976.33
295.026	8975.31
295.093	8972.81
295.16	8974.98
295.226	8972.28
295.293	8988.6
295.36	8993.03
295.427	9004.87
295.494	9012.92
295.561	9015.37
295.628	9032.08
295.695	9035.74
295.762	9042.96
295.829	9052.49
295.896	9074.01
295.963	9083.02
296.03	9100.54
296.096	9110.12
296.163	9124.66
296.23	9138.96
296.297	9158.65
296.364	9163.66
296.431	9174.15
296.498	9167.27
296.564	9196.39
296.631	9204.58
296.698	9194.37
296.765	9214.74
296.832	9200.97
296.899	9190.09
296.965	9213.58
297.032	9199.52
297.099	9223.74
297.166	9230.48
297.233	9223.89
297.299	9211.42
297.366	9208.91
297.433	9206.02
297.5	9214.21
297.566	9216.91
297.633	9221.53
297.7	9218.11
297.767	9222.16
297.833	9222.16
297.9	9228.22
297.967	9209.97
298.033	9223.7
298.1	9251.29
298.167	9243.58
298.234	9252.88
298.3	9264.14
298.367	9256.25
298.434	9263.95
298.5	9247.43
298.567	9238.81
298.634	9240.84
298.7	9260.48
298.767	9262.84
298.834	9278.68
298.9	9272.37
298.967	9261.54
299.033	9266.55
299.1	9280.27
299.167	9290.57
299.233	9297.89
299.3	9311.42
299.366	9329.24
299.433	9343.59
299.5	9319.46
299.566	9323.46
299.633	9343.06
299.699	9352.3
299.766	9351.39
299.832	9351.68
299.899	9364.92
299.965	9386.68
300.032	9387.36
300.099	9391.74
300.165	9392.7
300.232	9387.07
300.298	9390.68
300.365	9405.32
300.431	9404.98
300.498	9395.83
300.564	9400.46
300.631	9404.89
300.697	9417.65
300.763	9421.74
300.83	9411.91
300.896	9427.08
300.963	9436.91
301.029	9435.94
301.096	9435.03
301.162	9442.2
301.229	9441.91
301.295	9432.38
301.361	9428.09
301.428	9433.58
301.494	9423.76
301.561	9430.26
301.627	9438.54
301.693	9441.62
301.76	9442.3
301.826	9433.1
301.892	9447.31
301.959	9458.09
302.025	9455.35
302.092	9448.94
302.158	9452.65
302.224	9461.13
302.291	9456.65
302.357	9447.45
302.423	9443.07
302.49	9435.8
302.556	9446.92
302.622	9448.51
302.688	9460.12
302.755	9476.3
302.821	9482.75
302.887	9493.35
302.954	9495.37
303.02	9501.24
303.086	9505.05
303.152	9501.44
303.219	9502.54
303.285	9506.59
303.351	9512.75
303.417	9513.86
303.483	9506.4
303.55	9496.48
303.616	9491.9
303.682	9489.74
303.748	9484.34
303.815	9497.39
303.881	9508.28
303.947	9496.86
304.013	9497.92
304.079	9495.37
304.145	9473.6
304.212	9466.91
304.278	9456.94
304.344	9452.32
304.41	9438.98
304.476	9429.01
304.542	9424.87
304.608	9429.54
304.674	9416.2
304.741	9407.97
304.807	9413.84
304.873	9422.94
304.939	9443.17
305.005	9425.3
305.071	9425.74
305.137	9431.32
305.203	9407.97
305.269	9404.21
305.335	9412.83
305.401	9407.73
305.467	9401.03
305.533	9408.88
305.599	9415.29
305.666	9422.36
305.732	9418.61
305.798	9429.11
305.864	9450.83
305.93	9455.74
305.996	9456.27
306.062	9457.13
306.128	9451.16
306.194	9432.77
306.259	9431.42
306.325	9420.97
306.391	9433.2
306.457	9435.8
306.523	9436.04
306.589	9459.11
306.655	9450.58
306.721	9432.91
306.787	9419.38
306.853	9433.64
306.919	9418.8
306.985	9415.96
307.051	9409.56
307.117	9406.72
307.183	9396.03
307.248	9372.43
307.314	9374.84
307.38	9374.65
307.446	9380.71
307.512	9374.89
307.578	9381
307.644	9375.85
307.709	9371.66
307.775	9364.53
307.841	9364.24
307.907	9363.33
307.973	9342.48
308.039	9343.92
308.104	9348.64
308.17	9353.41
308.236	9340.84
308.302	9344.4
308.368	9332.22
308.433	9335.16
308.499	9327.89
308.565	9324.13
308.631	9328.75
308.696	9311.08
308.762	9297.12
308.828	9290.86
308.894	9273.57
308.959	9254.8
309.025	9241.41
309.091	9240.88
309.156	9232.65
309.222	9228.41
309.288	9217.67
309.354	9195.72
309.419	9191.72
309.485	9181.52
309.551	9181.8
309.616	9164.62
309.682	9162.06
309.748	9160.38
309.813	9152.67
309.879	9141.6
309.945	9124.41
310.01	9116.95
310.076	9121.04
310.141	9118.59
310.207	9103.13
310.273	9101.16
310.338	9109.87
310.404	9094.37
310.469	9080.22
310.535	9075.74
310.601	9059.8
310.666	9066.11
310.732	9079.78
310.797	9064.62
310.863	9056.82
310.928	9050.8
310.994	9052.82
311.059	9043.53
311.125	9040.26
311.191	9053.83
311.256	9043.82
311.322	9053.35
311.387	9034.05
311.453	9343.84
311.518	9314.82
311.584	9314.53
311.649	9321.17
311.715	9304.32
311.78	9306.35
311.846	9293.35
311.911	9292.58
311.976	9290.65
312.042	9272.98
312.107	9256.66
312.173	9253.87
312.238	9247.95
312.304	9239.62
312.369	9220.75
312.434	9206.36
312.5	9193.36
312.565	9151.29
312.631	9154.66
312.696	9142.53
312.761	9142.58
312.827	8816.41
312.892	8857.48
312.958	8850.5
313.023	8845.68
313.088	8847.94
313.154	8837.21
313.219	8829.75
313.284	8819.79
313.35	8811.65
313.415	8803.76
313.48	8796.92
313.546	8793.17
313.611	8797.5
313.676	8795.72
313.741	8798.03
313.807	8814.64
313.872	8819.35
313.937	8831.34
314.003	8842.84
314.068	8848.91
314.133	8852.61
314.198	8844.34
314.264	8820.22
314.329	8808.66
314.394	8803.51
314.459	8793.74
314.525	8810.35
314.59	8802.07
314.655	8792.97
314.72	8804
314.785	8802.36
314.851	8798.22
314.916	8783.69
314.981	8770.55
315.046	8760.44
315.111	8750.28
315.176	8729.68
315.242	8729.59
315.307	8720.83
315.372	8702.53
315.437	8687.04
315.502	8681.55
315.567	8690.89
315.632	8678.37
315.698	8679.72
315.763	8673.41
315.828	8669.52
315.893	8661.81
315.958	8666
316.023	8658.16
316.088	8639.77
316.153	8617.97
316.218	8608.3
316.283	8596.41
316.348	8579.48
316.413	8571.82
316.479	8551.57
316.544	8523.28
316.609	8489.11
316.674	8452.02
316.739	8417.86
316.804	8384.9
316.869	8345.88
316.934	8311.71
316.999	8282.03
317.064	8229.93
317.129	8188.31
317.194	8149.01
317.259	8102.39
317.324	8051.69
317.389	8007.68
317.454	7962.75
317.518	7926.68
317.583	7899.94
317.648	7875.07
317.713	7837.99
317.778	7778.36
317.843	7751.47
317.908	7713.63
317.973	7678.05
318.038	7653.67
318.103	7619.63
318.168	7587.52
318.233	7555.54
318.297	7499.44
318.362	7457.8
318.427	7425.41
318.492	7396.81
318.557	7352.06
318.622	7320.24
318.687	7296.84
318.751	7251.48
318.816	7220.57
318.881	7188.57
318.946	7136.24
319.011	7086.02
319.075	7043.01
319.14	7007.22
319.205	6960.81
319.27	6923.73
319.335	6876.89
319.399	6837.74
319.464	6803.83
319.529	6753.64
319.594	6715.11
319.658	6687.11
319.723	6646.05
319.788	6616.38
319.853	6561.1
319.917	6533.93
319.982	6484.66
320.047	6443.46
320.112	6421.14
320.176	6368.1
320.241	6327.92
320.306	6296
320.37	6257.17
320.435	6225.39
320.5	6198.28
320.564	6157.97
320.629	6117.57
320.694	6086.48
320.758	6044.26
320.823	5997.48
320.888	5969.23
320.952	5921.54
321.017	5873.34
321.082	5835.01
321.146	5795.68
321.211	5763.5
321.275	5717.33
321.34	5672.07
321.405	5628
321.469	5578.95
321.534	5536.77
321.598	5493.39
321.663	5463.47
321.727	5424.79
321.792	5376.09
321.857	5330.32
321.921	5288.82
321.986	5247.96
322.05	5189.76
322.115	5152.67
322.179	5113.77
322.244	5057.21
322.308	5023.83
322.373	4981.78
322.437	4946.1
322.502	4916.25
322.566	4871.77
322.631	4835.76
322.695	4799.48
322.76	4756.16
322.824	4720.83
322.889	4683.08
322.953	4636.85
323.018	4571.29
323.082	4512.35
323.146	4463.7
323.211	4412.95
323.275	4373.29
323.34	4329.2
323.404	4297.74
323.468	4253.73
323.533	4210.98
323.597	4171.03
323.662	4119.53
323.726	4086.3
323.79	4033.91
323.855	3975.67
323.919	3930.84
323.983	3889.21
324.048	3823.88
324.112	3946.46
324.177	3819.96
324.241	3620.28
324.305	3426.85
324.37	3236.58
324.434	3054.24
324.498	3012.63
324.562	2965.33
324.627	2907.69
324.691	2853.31
324.755	2790.18
324.82	2714.36
324.884	2637.67
324.948	2564.38
325.012	2472.86
325.077	2351.93
