Data from 20250630_urea_2M_MAYP1162681_21-22-27-237.txt Node
Date: Mon Jun 30 21:22:27 BST 2025
User: adleo
Spectrometer: MAYP116268
Trigger mode: 0
Integration Time (sec): 1.000000E0
Scans to average: 1
Electric dark correction enabled: true
Nonlinearity correction enabled: true
Boxcar width: 10
XAxis mode: Wavelengths
Number of Pixels in Spectrum: 2068
>>>>>Begin Spectral Data<<<<<
179.565	1132.36
179.642	1187.69
179.718	1228.68
179.795	1263.03
179.871	1295.52
179.948	1309.43
180.024	1327.68
180.101	1349.89
180.177	1362.89
180.254	1383.61
180.33	1404.45
180.407	1452.92
180.483	1543.71
180.56	1630.41
180.636	1711.17
180.712	1699.14
180.789	1708.22
180.865	1717.38
180.942	1726.74
181.018	1734.34
181.095	1744.18
181.171	1749.7
181.248	1748.75
181.324	1760.39
181.4	1768.75
181.477	1778.5
181.553	1793.46
181.63	1813.81
181.706	1828.21
181.782	1837.48
181.859	1839
181.935	1843.18
182.011	1839.71
182.088	1854.3
182.164	1868.71
182.24	1880.97
182.317	1889.81
182.393	1889.48
182.469	1904.45
182.546	1919.48
182.622	1924.04
182.698	1921.19
182.775	1931.55
182.851	1944.34
182.927	1939.77
183.003	1935.73
183.08	1928.37
183.156	1938.02
183.232	1934.4
183.308	1926.42
183.385	1932.88
183.461	1949.67
183.537	1951.85
183.613	1964.41
183.69	1956.65
183.766	1947.57
183.842	1952.66
183.918	1958.6
183.995	1970.49
184.071	1972.87
184.147	1965.97
184.223	1955.8
184.299	1966.69
184.375	1956.66
184.452	1961.99
184.528	2013.5
184.604	2023.24
184.68	2035.46
184.756	2037.98
184.832	2044.07
184.908	2044.59
184.985	2043.64
185.061	2025.24
185.137	2032.9
185.213	2020.15
185.289	2022.2
185.365	2014.45
185.441	2014.4
185.517	2026.96
185.593	2023.54
185.669	2022.3
185.745	2032.38
185.822	2046.59
185.898	2040.08
185.974	2049.3
186.05	2043.88
186.126	2007.87
186.202	2003.02
186.278	2000.55
186.354	1995.79
186.43	2002.12
186.506	2002.83
186.582	2004.21
186.658	2010.96
186.734	1992.9
186.81	1996.94
186.886	1997.55
186.962	2010.06
187.038	2004.88
187.114	1995.31
187.19	2002.78
187.266	1994.89
187.341	1995.98
187.417	1993.79
187.493	1993.22
187.569	1998.12
187.645	1990.56
187.721	1977.77
187.797	1983.81
187.873	1985.47
187.949	1977.82
188.025	1970.49
188.101	1970.82
188.176	1974.96
188.252	1971.92
188.328	1977.67
188.404	1974.67
188.48	1969.68
188.556	1964.31
188.632	1965.78
188.707	1967.21
188.783	1964.45
188.859	1959.46
188.935	1947
189.011	1953.52
189.086	1944.86
189.162	1936.3
189.238	1935.54
189.314	1934.5
189.39	1926.42
189.465	1919.24
189.541	1936.97
189.617	1923.38
189.693	1919.86
189.768	1923.05
189.844	1946.73
189.92	1939.6
189.996	1949.92
190.071	1964.38
190.147	1963.57
190.223	1972.37
190.298	1964.09
190.374	1950.26
190.45	1962.09
190.526	1970.18
190.601	1963.81
190.677	1966.89
190.753	1993.97
190.828	1998.72
190.904	2014.32
190.98	2029.49
191.055	2040.9
191.131	2031.91
191.207	2050.36
191.282	2062.06
191.358	2050.32
191.433	2037.37
191.509	2051.87
191.585	2049.4
191.66	2048.73
191.736	2053.3
191.811	2043.55
191.887	2058.91
191.963	2082.21
192.038	2085.07
192.114	2087.07
192.189	2091.63
192.265	2088.78
192.34	2065.56
192.416	2064.42
192.491	2059.85
192.567	2063.85
192.642	2065.04
192.718	2064.08
192.793	2053
192.869	2047.34
192.944	2052.29
193.02	2058.47
193.095	2060.23
193.171	2068.51
193.246	2067.18
193.322	2067.94
193.397	2065.61
193.473	2053.71
193.548	2038.54
193.624	2041.77
193.699	2040.78
193.775	2055.72
193.85	2058.71
193.925	2068.41
194.001	2064.8
194.076	2053.91
194.152	2041.11
194.227	2035.22
194.302	2027.51
194.378	2031.13
194.453	2027.7
194.529	2036.55
194.604	2021.57
194.679	2015.34
194.755	1993.85
194.83	2003.94
194.905	1999.37
194.981	2012.78
195.056	2006.08
195.131	2010.17
195.207	2012.07
195.282	2001.42
195.357	1983.1
195.433	1995.85
195.508	1983.86
195.583	1990.14
195.659	2005.31
195.734	2015.49
195.809	2014.82
195.884	2020.62
195.96	2020.1
196.035	2035.56
196.11	2034.46
196.185	2047.49
196.261	2052.96
196.336	2084.11
196.411	2072.03
196.486	2079.92
196.561	2073.17
196.637	2082.77
196.712	2095.33
196.787	2097.76
196.862	2113.69
196.937	2121.59
197.013	2126.25
197.088	2134.52
197.163	2158.27
197.238	2175.69
197.313	2178.07
197.388	2190.73
197.464	2220.28
197.539	2232.84
197.614	2226.79
197.689	2238.59
197.764	2252.87
197.839	2272.95
197.914	2266.34
197.989	2285.32
198.065	2297.41
198.14	2341.84
198.215	2368.64
198.29	2381.87
198.365	2392.63
198.44	2402.48
198.515	2429.43
198.59	2444.94
198.665	2471.36
198.74	2479.99
198.815	2480.08
198.89	2497.84
198.965	2528.99
199.04	2526.85
199.115	2541.84
199.19	2582.89
199.265	2586.27
199.34	2596.94
199.415	2628.91
199.49	2648.58
199.565	2658.1
199.64	2681.11
199.715	2681.2
199.79	2684.3
199.865	2690.83
199.94	2692.73
200.015	2723.27
200.09	2730.28
200.165	2737.47
200.24	2742.14
200.315	2777.9
200.39	2792.53
200.464	2797.48
200.539	2798.49
200.614	2813.97
200.689	2834.18
200.764	2839.18
200.839	2858.19
200.914	2861.67
200.989	2849.13
201.063	2863.37
201.138	2851.71
201.213	2853.38
201.288	2832.46
201.363	2840.61
201.438	2840.84
201.512	2855.85
201.587	2841.03
201.662	2842.6
201.737	2852.13
201.812	2861.66
201.886	2831.33
201.961	2840.06
202.036	2828.48
202.111	2825.05
202.186	2797.9
202.26	2781.32
202.335	2762.59
202.41	2755.11
202.485	2740.67
202.559	2723.52
202.634	2695.51
202.709	2702.03
202.784	2683.17
202.858	2686.07
202.933	2666.54
203.008	2661.25
203.082	2641.35
203.157	2636.91
203.232	2596.06
203.306	2578.39
203.381	2546.14
203.456	2523.33
203.53	2503.36
203.605	2485.56
203.68	2461.45
203.754	2454.7
203.829	2441.36
203.904	2421.13
203.978	2409.8
204.053	2414.75
204.127	2401.71
204.202	2403.94
204.277	2389.04
204.351	2384.14
204.426	2373.19
204.5	2366.62
204.575	2334.26
204.65	2347.45
204.724	2341.59
204.799	2351.91
204.873	2347.77
204.948	2346.82
205.022	2333.45
205.097	2323.97
205.171	2338.49
205.246	2344.58
205.32	2342.3
205.395	2342.3
205.469	2333.64
205.544	2339.26
205.618	2321.84
205.693	2334.59
205.767	2321.17
205.842	2339.88
205.916	2330.56
205.991	2323.94
206.065	2326.46
206.14	2339.07
206.214	2330.16
206.289	2324.3
206.363	2335.78
206.438	2339.35
206.512	2347.44
206.586	2369.42
206.661	2379.33
206.735	2360.39
206.81	2363.01
206.884	2375.91
206.958	2363.06
207.033	2379.33
207.107	2383.62
207.181	2414.24
207.256	2409.05
207.33	2428.23
207.405	2438.76
207.479	2456.9
207.553	2465.51
207.628	2450.95
207.702	2462.14
207.776	2460.66
207.851	2459.52
207.925	2472.28
207.999	2466.9
208.073	2466.52
208.148	2467.81
208.222	2453.47
208.296	2483.7
208.371	2501.09
208.445	2514.14
208.519	2542.56
208.593	2552.94
208.668	2550.94
208.742	2552.84
208.816	2553.08
208.89	2565.13
208.965	2565.42
209.039	2576.57
209.113	2594.19
209.187	2616.94
209.261	2612.42
209.336	2626.09
209.41	2647.04
209.484	2647.28
209.558	2670.58
209.632	2683.39
209.707	2694.72
209.781	2716.92
209.855	2727.12
209.929	2742.57
210.003	2749.14
210.077	2747.57
210.151	2794.64
210.226	2830.11
210.3	2856.54
210.374	2881.64
210.448	2886.27
210.522	2895.32
210.596	2904.47
210.67	2914.68
210.744	2959.5
210.818	2992.61
210.892	3014.35
210.966	3011.49
211.041	3028.08
211.115	3027.46
211.189	3051.44
211.263	3068.65
211.337	3079.85
211.411	3098.07
211.485	3099.21
211.559	3114.28
211.633	3124.57
211.707	3097.23
211.781	3107.92
211.855	3081.64
211.929	3080.54
212.003	3070.06
212.077	3090.38
212.151	3113.43
212.225	3130.36
212.299	3132.27
212.373	3138.75
212.447	3152.16
212.52	3199.25
212.594	3222.73
212.668	3254.45
212.742	3263.47
212.816	3285.61
212.89	3302.74
212.964	3330.91
213.038	3361.66
213.112	3404.2
213.186	3452.98
213.26	3472.87
213.333	3470.1
213.407	3517.06
213.481	3559.05
213.555	3621.66
213.629	3658.16
213.703	3690.17
213.777	3747.08
213.85	3785.98
213.924	3878.63
213.998	3940.25
214.072	3999.61
214.146	4057.32
214.219	4121.44
214.293	4191.14
214.367	4269.06
214.441	4362.77
214.515	4438.52
214.588	4501.64
214.662	4564.29
214.736	4637.47
214.81	4736.35
214.883	4846.47
214.957	4939.3
215.031	5038.16
215.105	5130.38
215.178	5227.84
215.252	5340.93
215.326	5436.42
215.4	5540.76
215.473	5620.01
215.547	5729.03
215.621	5845.31
215.694	5977.51
215.768	6094.3
215.842	6221.37
215.915	6345.23
215.989	6462.3
216.063	6594.81
216.136	6740.76
216.21	6885.33
216.284	7045.52
216.357	7199.65
216.431	7337.57
216.504	7495.04
216.578	7681.79
216.652	7844.33
216.725	8005.1
216.799	8176.46
216.873	8334.67
216.946	8498.28
217.02	8651.66
217.093	8810.14
217.167	8954.01
217.24	9098.91
217.314	9262.68
217.387	9421.74
217.461	9581.8
217.535	9761.96
217.608	9915.93
217.682	10079.55
217.755	10257.35
217.829	10409.15
217.902	10577.39
217.976	10751.31
218.049	10912.62
218.123	11054.06
218.196	11229.04
218.27	11393.56
218.343	11539.4
218.417	11701.04
218.49	11864.91
218.563	12042.95
218.637	12215.26
218.71	12399.48
218.784	12573.63
218.857	12743.5
218.931	12906.42
219.004	13061.2
219.077	13216.81
219.151	13370.34
219.224	13520.88
219.298	13659.28
219.371	13823.13
219.444	13952.9
219.518	14095.58
219.591	14233.59
219.665	14401.63
219.738	14532.03
219.811	14656.93
219.885	14802.69
219.958	14955.74
220.031	15091.91
220.105	15227.65
220.178	15355.05
220.251	15471.69
220.325	15604.92
220.398	15727.44
220.471	15851.61
220.544	15975.38
220.618	16089.57
220.691	16217.58
220.764	16332.2
220.838	16461.9
220.911	16567.88
220.984	16707.56
221.057	16831.9
221.131	16958.32
221.204	17033.5
221.277	17159.1
221.35	17300.98
221.424	17406.04
221.497	17507.34
221.57	17606.81
221.643	17712.07
221.716	17813.56
221.79	17904.16
221.863	17997.07
221.936	18094.85
222.009	18185.12
222.082	18285.83
222.155	18367.95
222.229	18463.03
222.302	18557.53
222.375	18636.18
222.448	18728.85
222.521	18810.63
222.594	18878.43
222.667	18935.15
222.74	19021.7
222.814	19083.24
222.887	19146.42
222.96	19221.79
223.033	19290.46
223.106	19363.27
223.179	19430.02
223.252	19495.36
223.325	19563.45
223.398	19619.79
223.471	19680.8
223.544	19744.12
223.617	19800.21
223.69	19867.01
223.763	19909.37
223.837	19963.82
223.91	20028.59
223.983	20055.48
224.056	20092.25
224.129	20154.9
224.202	20218.85
224.275	20263.76
224.348	20301.35
224.42	20332.63
224.493	20352.97
224.566	20395.38
224.639	20443.33
224.712	20482.56
224.785	20518.42
224.858	20560.49
224.931	20598.9
225.004	20616.06
225.077	20654.03
225.15	20664.92
225.223	20700.44
225.296	20760.49
225.369	20790.37
225.442	20804.3
225.514	20839.58
225.587	20872.4
225.66	20911.97
225.733	20946.38
225.806	20976.55
225.879	21004.22
225.952	21022.87
226.025	21072.27
226.097	21115.36
226.17	21142.11
226.243	21142.83
226.316	21174.35
226.389	21190.5
226.461	21215.32
226.534	21249.93
226.607	21266.89
226.68	21320.63
226.753	21337.79
226.825	21343.14
226.898	21379.1
226.971	21406.18
227.044	21438.72
227.117	21455.1
227.189	21460.07
227.262	21476.07
227.335	21495.54
227.407	21506
227.48	21527.21
227.553	21535.6
227.626	21532.61
227.698	21541.96
227.771	21557.67
227.844	21556.61
227.916	21573
227.989	21581.82
228.062	21593.97
228.134	21628.24
228.207	21624.57
228.28	21628.14
228.352	21629.3
228.425	21629.39
228.498	21645.3
228.57	21642.89
228.643	21672.82
228.716	21688.54
228.788	21692.54
228.861	21708.97
228.934	21739.1
229.006	21748.11
229.079	21753.27
229.151	21759.44
229.224	21749.7
229.296	21763.83
229.369	21797.18
229.442	21816.37
229.514	21806.54
229.587	21819.94
229.659	21807.02
229.732	21830.44
229.804	21850.06
229.877	21877.01
229.949	21895.33
230.022	21916.87
230.094	21927.67
230.167	21932.3
230.239	21925.21
230.312	21935.77
230.384	21954.28
230.457	21959.39
230.529	21959.2
230.602	21967.01
230.674	21973.13
230.747	21995.06
230.819	22012.75
230.892	21978.82
230.964	21983.06
231.037	21989.28
231.109	21980.36
231.181	21982.05
231.254	21962.33
231.326	21954.71
231.399	21943.53
231.471	21926.13
231.544	21901.74
231.616	21904
231.688	21888.82
231.761	21880.77
231.833	21873.63
231.905	21836.85
231.978	21828.08
232.05	21823.89
232.122	21823.07
232.195	21811.06
232.267	21815.89
232.339	21799.69
232.412	21819.36
232.484	21815.16
232.556	21806.29
232.629	21826.15
232.701	21834.2
232.773	21832.23
232.846	21819.36
232.918	21810.58
232.99	21805.86
233.062	21800.27
233.135	21788.6
233.207	21775.83
233.279	21771.73
233.351	21757.08
233.424	21745.37
233.496	21721.8
233.568	21731.58
233.64	21695.91
233.713	21677.26
233.785	21657.88
233.857	21651.13
233.929	21617.54
234.001	21606.69
234.074	21605.15
234.146	21556.81
234.218	21538.01
234.29	21523.16
234.362	21496.94
234.434	21467.88
234.507	21448.31
234.579	21413.99
234.651	21403.68
234.723	21384.83
234.795	21371.24
234.867	21356.68
234.939	21350.95
235.012	21339.96
235.084	21311.71
235.156	21308.68
235.228	21283.76
235.3	21255.66
235.372	21231.99
235.444	21217.97
235.516	21170.11
235.588	21152.13
235.66	21141.33
235.732	21114.29
235.804	21139.89
235.876	21132.08
235.948	21123.6
236.02	21093.04
236.092	21073.62
236.164	21042.39
236.236	21017.37
236.308	20983.54
236.38	20967.35
236.452	20940.26
236.524	20912.6
236.596	20908.4
236.668	20889.32
236.74	20862.86
236.812	20830.28
236.884	20803.49
236.956	20776.5
237.028	20750.38
237.1	20711.43
237.172	20704.59
237.244	20687.05
237.316	20629.89
237.388	20593.26
237.46	20560.25
237.532	20543.43
237.604	20505.69
237.675	20494.27
237.747	20478.46
237.819	20455.76
237.891	20411.43
237.963	20369.6
238.035	20338.37
238.107	20271.77
238.178	20256.73
238.25	20228.15
238.322	20230.85
238.394	20189.74
238.466	20159.72
238.538	20138.37
238.609	20118.71
238.681	20064.3
238.753	20019.34
238.825	19984.25
238.897	19953.65
238.968	19940.11
239.04	19903.1
239.112	19904.55
239.184	19856.02
239.255	19818.48
239.327	19776.31
239.399	19747.49
239.471	19734.34
239.542	19709.76
239.614	19692.46
239.686	19629.04
239.758	19608.75
239.829	19565.28
239.901	19555.31
239.973	19523.74
240.044	19498.88
240.116	19463.51
240.188	19434.21
240.259	19400.28
240.331	19362.35
240.403	19330.07
240.474	19280.91
240.546	19245.69
240.618	19194.9
240.689	19152.92
240.761	19120.01
240.833	19106.08
240.904	19071.82
240.976	19031.87
241.048	18996.59
241.119	18972.35
241.191	18947.68
241.262	18935.06
241.334	18893.23
241.405	18846.48
241.477	18807.79
241.549	18769.33
241.62	18735.65
241.692	18711.79
241.763	18694.4
241.835	18658.83
241.906	18632.76
241.978	18579.46
242.049	18559.42
242.121	18533.63
242.192	18511.9
242.264	18466.79
242.335	18419.04
242.407	18387.38
242.478	18343.62
242.55	18312.73
242.621	18270.23
242.693	18233.22
242.764	18187.19
242.836	18153.94
242.907	18127.82
242.979	18103.1
243.05	18068.55
243.122	18051.15
243.193	18010.58
243.264	17951.01
243.336	17915.93
243.407	17888.17
243.479	17884.65
243.55	17849.23
243.622	17821.33
243.693	17794.87
243.764	17777.23
243.836	17731.16
243.907	17705.96
243.978	17674.92
244.05	17640.46
244.121	17593.23
244.192	17562.39
244.264	17521.62
244.335	17482.39
244.407	17425.52
244.478	17393.09
244.549	17356.13
244.62	17298.97
244.692	17269.14
244.763	17250.49
244.834	17213.47
244.906	17171.11
244.977	17139.98
245.048	17117.62
245.119	17068.61
245.191	17021.47
245.262	16957.37
245.333	16939.88
245.405	16906.09
245.476	16879.01
245.547	16850.43
245.618	16825.61
245.689	16791.48
245.761	16749.27
245.832	16715.96
245.903	16706.56
245.974	16674.71
246.045	16640.05
246.117	16620.82
246.188	16570.12
246.259	16524.77
246.33	16486.74
246.401	16456.57
246.473	16399.6
246.544	16357.14
246.615	16335.98
246.686	16302.44
246.757	16292.17
246.828	16247.97
246.899	16219.63
246.97	16169.36
247.042	16127.19
247.113	16101.84
247.184	16093.84
247.255	16057.11
247.326	16030.41
247.397	15999.03
247.468	15966.64
247.539	15928.8
247.61	15892.36
247.681	15877.9
247.752	15866.39
247.823	15829.03
247.894	15801.89
247.965	15760.63
248.037	15716.48
248.108	15665.78
248.179	15635.51
248.25	15602.2
248.321	15578.63
248.392	15542.53
248.463	15539.2
248.534	15517.46
248.605	15495.68
248.675	15454.99
248.746	15439.43
248.817	15417.78
248.888	15380.72
248.959	15333.77
249.03	15317.09
249.101	15284.89
249.172	15238.62
249.243	15183.28
249.314	15173.93
249.385	15147.47
249.456	15128.23
249.527	15107.41
249.598	15089.28
249.669	15057.66
249.739	15026.43
249.81	14993.84
249.881	14946.55
249.952	14912.28
250.023	14873.24
250.094	14828.36
250.165	14791.43
250.235	14758.08
250.306	14729.01
250.377	14693.34
250.448	14672.61
250.519	14629.9
250.59	14613.47
250.66	14585.31
250.731	14575.62
250.802	14543.47
250.873	14517.63
250.944	14495.32
251.014	14467.16
251.085	14467.84
251.156	14445.23
251.227	14431.06
251.297	14428.36
251.368	14418.91
251.439	14406.28
251.51	14403.15
251.58	14364.53
251.651	14335.18
251.722	14317.24
251.792	14268.41
251.863	14242.28
251.934	14228.84
252.005	14225.41
252.075	14199.72
252.146	14187.19
252.217	14170.7
252.287	14158.12
252.358	14123.07
252.429	14118.68
252.499	14088.8
252.57	14062
252.641	14046.95
252.711	14027.48
252.782	13984.67
252.852	13973.97
252.923	13944.9
252.994	13921.09
253.064	13916.89
253.135	13888.74
253.205	13863.29
253.276	13867.92
253.347	13858.95
253.417	13823.71
253.488	13795.7
253.558	13761.53
253.629	13744.17
253.699	13723.35
253.77	13704.21
253.841	13685.7
253.911	13662.22
253.982	13641.44
254.052	13621.82
254.123	13599.31
254.193	13576.65
254.264	13594.78
254.334	13560.84
254.405	13529.65
254.475	13490.99
254.546	13471.42
254.616	13461.68
254.687	13444.28
254.757	13419.64
254.827	13394.38
254.898	13380.55
254.968	13361.75
255.039	13338.9
255.109	13314.55
255.18	13283.61
255.25	13230.48
255.321	13212.93
255.391	13178.61
255.461	13172.25
255.532	13124.04
255.602	13101.72
255.673	13061.62
255.743	13025.17
255.813	12988.82
255.884	12977.01
255.954	12964.77
256.024	12954.74
256.095	12928.76
256.165	12890.1
256.235	12868.6
256.306	12845.7
256.376	12835.87
256.446	12818.22
256.517	12806.07
256.587	12797.54
256.657	12776.53
256.728	12765.97
256.798	12742.59
256.868	12720.75
256.938	12686.86
257.009	12680.5
257.079	12664.88
257.149	12668.01
257.219	12626.03
257.29	12609.11
257.36	12569.24
257.43	12556.52
257.5	12509.66
257.571	12481.95
257.641	12475.78
257.711	12446.42
257.781	12429.5
257.852	12412.58
257.922	12373.05
257.992	12343.26
258.062	12324.94
258.132	12316.12
258.202	12294.53
258.273	12274.72
258.343	12273.13
258.413	12249.31
258.483	12224.34
258.553	12189.35
258.623	12157.39
258.693	12144.23
258.764	12138.11
258.834	12134.06
258.904	12114.39
258.974	12091.55
259.044	12079.45
259.114	12059.01
259.184	12043.92
259.254	12022.47
259.324	11983.77
259.394	11967.67
259.464	11962.7
259.535	11931.23
259.605	11904.19
259.675	11876.52
259.745	11865.24
259.815	11833.19
259.885	11810.2
259.955	11821.67
260.025	11800.75
260.095	11778.68
260.165	11763.45
260.235	11761.66
260.305	11738.29
260.375	11705.17
260.445	11710.33
260.515	11703.92
260.585	11700.26
260.655	11682.09
260.725	11669.41
260.795	11658.95
260.865	11661.12
260.934	11641.36
261.004	11636.3
261.074	11618.08
261.144	11616.63
261.214	11602.61
261.284	11582.27
261.354	11573.35
261.424	11540.82
261.494	11539.56
261.564	11530.89
261.634	11523.61
261.703	11487.08
261.773	11464.62
261.843	11455.07
261.913	11429.63
261.983	11398.25
262.053	11382.35
262.123	11359.99
262.192	11329.53
262.262	11318.3
262.332	11286.25
262.402	11275.26
262.472	11256.85
262.541	11218.35
262.611	11208.66
262.681	11181.86
262.751	11174.44
262.821	11156.51
262.89	11127.89
262.96	11120.18
263.03	11118.25
263.1	11098.68
263.169	11086.05
263.239	11078.3
263.309	11082.68
263.379	11073.09
263.448	11059.21
263.518	11043.16
263.588	11027.89
263.657	11029.82
263.727	11020.8
263.797	11004.81
263.867	10987.17
263.936	10955.85
264.006	10956.42
264.076	10942.83
264.145	10928.47
264.215	10903.56
264.285	10897.59
264.354	10860.05
264.424	10835.86
264.494	10798.85
264.563	10776.83
264.633	10776.64
264.702	10768.35
264.772	10728.74
264.842	10711.05
264.911	10700.64
264.981	10674.72
265.05	10656.41
265.12	10632.94
265.19	10624.08
265.259	10625.67
265.329	10613.24
265.398	10603.17
265.468	10612.32
265.537	10588.08
265.607	10573.05
265.676	10566.93
265.746	10551.32
265.815	10555.66
265.885	10539.28
265.955	10517.74
266.024	10503.82
266.094	10469.99
266.163	10468.02
266.232	10467.73
266.302	10455.1
266.371	10442.58
266.441	10432.99
266.51	10437.71
266.58	10425.38
266.649	10400.71
266.719	10389.14
266.788	10375.12
266.858	10381.63
266.927	10343.42
266.996	10333.79
267.066	10330.27
267.135	10302.52
267.205	10297.9
267.274	10278.82
267.343	10274.82
267.413	10267.69
267.482	10266.63
267.552	10268.89
267.621	10234.11
267.69	10207.13
267.76	10191.19
267.829	10187.43
267.898	10170.52
267.968	10145.61
268.037	10138.24
268.106	10132.08
268.176	10109.67
268.245	10096.76
268.314	10071.37
268.384	10070.7
268.453	10053.21
268.522	10036.35
268.592	10038.04
268.661	10016.02
268.73	10017.52
268.799	9996.23
268.869	10007.02
268.938	9973.35
269.007	9949.41
269.076	9942.76
269.146	9945.07
269.215	9935.87
269.284	9935.29
269.353	9917.13
269.422	9898.83
269.492	9879.52
269.561	9833.62
269.63	9822.93
269.699	9805.68
269.768	9799.42
269.838	9790.85
269.907	9793.64
269.976	9776.3
270.045	9747.4
270.114	9743.31
270.183	9721.06
270.253	9716.87
270.322	9676.22
270.391	9671.11
270.46	9669.57
270.529	9666.3
270.598	9654.78
270.667	9641.44
270.736	9613.02
270.806	9606.23
270.875	9608.69
270.944	9595.88
271.013	9624.29
271.082	9616.3
271.151	9610.66
271.22	9581.29
271.289	9563.23
271.358	9547.48
271.427	9539.2
271.496	9528.36
271.565	9510.35
271.634	9503.99
271.703	9500.19
271.772	9504.04
271.841	9489.84
271.91	9470
271.979	9456.99
272.048	9434.89
272.117	9436.09
272.186	9425.83
272.255	9422.9
272.324	9421.4
272.393	9420.01
272.462	9399.59
272.531	9393.38
272.6	9378.98
272.669	9387.26
272.738	9379.51
272.807	9367.23
272.876	9341.95
272.945	9364.58
273.013	9365.16
273.082	9371.32
273.151	9347.78
273.22	9342
273.289	9335.45
273.358	9342.77
273.427	9332.32
273.496	9330.25
273.564	9322.64
273.633	9321.78
273.702	9305.36
273.771	9290.62
273.84	9279.84
273.909	9282.05
273.977	9274.68
274.046	9267.03
274.115	9259.61
274.184	9243.49
274.253	9241.37
274.322	9258.22
274.39	9224.85
274.459	9211.56
274.528	9179.49
274.597	9178.92
274.665	9175.35
274.734	9181.18
274.803	9169.38
274.872	9164.18
274.94	9148.87
275.009	9200.65
275.078	9184.43
275.147	9179.08
275.215	9168.01
275.284	9175.95
275.353	9159.78
275.421	9139.31
275.49	9155.73
275.559	9148.13
275.627	9142.78
275.696	9131.04
275.765	9122.61
275.833	9116.88
275.902	9112.21
275.971	9123.91
276.039	9132.77
276.108	9134.45
276.177	9130.8
276.245	9127.04
276.314	9119.14
276.383	9128.92
276.451	9064.23
276.52	9061.25
276.588	9075.21
276.657	9078.87
276.725	9066.11
276.794	9065.63
276.863	9074.63
276.931	9045.26
277	9053.74
277.068	9063.36
277.137	9082.09
277.205	9082.72
277.274	9102.51
277.342	9116.95
277.411	9093.51
277.48	9077.09
277.548	9064.72
277.617	9064.53
277.685	9053.93
277.754	9052.25
277.822	9040.74
277.89	9054.13
277.959	9048.5
278.027	9022.26
278.096	9012.44
278.164	9041.57
278.233	9035.74
278.301	9025.2
278.37	9029.2
278.438	9008.59
278.507	9007.39
278.575	8979.08
278.643	8970.27
278.712	8947.93
278.78	8932.24
278.849	8948.89
278.917	8957.22
278.985	8951.54
279.054	8954.24
279.122	8961.07
279.191	8959
279.259	8956.02
279.327	8931.95
279.396	8948.03
279.464	8950.05
279.532	8954.09
279.601	8941.57
279.669	8937.33
279.737	8948.6
279.806	8958.85
279.874	8974.74
279.942	8969.97
280.011	8963.57
280.079	8974.55
280.147	8986.73
280.215	8984.22
280.284	8973.97
280.352	8960.2
280.42	8967.76
280.488	8959.05
280.557	8952.69
280.625	8960.2
280.693	8958.61
280.761	8959.34
280.83	8939.55
280.898	8950.04
280.966	8934.35
281.034	8906.96
281.102	8892.71
281.171	8885.78
281.239	8887.56
281.307	8871.05
281.375	8864.17
281.443	8891.51
281.512	8882.27
281.58	8891.75
281.648	8876.83
281.716	8877.45
281.784	8884.34
281.852	8879.38
281.92	8871.48
281.989	8875.82
282.057	8856.23
282.125	8896.33
282.193	8898.74
282.261	8899.66
282.329	8890.36
282.397	8892.82
282.465	8894.5
282.533	8905.48
282.601	8896.19
282.67	8871.16
282.738	8868.03
282.806	8877.17
282.874	8857.15
282.942	8858.2
283.01	8852.14
283.078	8861.57
283.146	8853.2
283.214	8854.69
283.282	8855.46
283.35	8866.77
283.418	8863.88
283.486	8870.24
283.554	8831.05
283.622	8825.8
283.69	8825.99
283.758	8823.58
283.826	8830.47
283.894	8834.66
283.962	8850.64
284.03	8855.98
284.098	8862.96
284.165	8858.15
284.233	8856.17
284.301	8849.68
284.369	8843.8
284.437	8830.56
284.505	8826.14
284.573	8847.51
284.641	8842.26
284.709	8850.01
284.777	8833.31
284.845	8835.62
284.912	8837.93
284.98	8839.95
285.048	8836.48
285.116	8842.93
285.184	8856.22
285.252	8857.47
285.319	8847.65
285.387	8842.93
285.455	8830.95
285.523	8838.36
285.591	8835.09
285.659	8836.92
285.726	8852.23
285.794	8837.07
285.862	8838.22
285.93	8831.15
285.997	8822.19
286.065	8810.06
286.133	8797.02
286.201	8799.47
286.269	8790.95
286.336	8787.15
286.404	8779.74
286.472	8788.59
286.539	8764.72
286.607	8749.85
286.675	8746.86
286.743	8755.05
286.81	8748.45
286.878	8759.52
286.946	8748.55
287.013	8749.41
287.081	8747.1
287.149	8733.53
287.216	8753.89
287.284	8745.32
287.352	8749.03
287.419	8739.64
287.487	8753.89
287.555	8762.31
287.622	8757.55
287.69	8757.79
287.758	8769.87
287.825	8764.43
287.893	8748.31
287.96	8757.5
288.028	8766.88
288.096	8771.94
288.163	8772.08
288.231	8756.78
288.298	8753.99
288.366	8761.54
288.433	8757.45
288.501	8746.38
288.569	8745.95
288.636	8741.57
288.704	8760.05
288.771	8768.72
288.839	8766.98
288.906	8760.82
288.974	8762.22
289.041	8756.78
289.109	8751.29
289.176	8752.79
289.244	8755
289.311	8768.09
289.379	8779.11
289.446	8780.51
289.514	8774.73
289.581	8773.19
289.649	8777.04
289.716	8773.72
289.783	8769.1
289.851	8788.26
289.918	8793.74
289.986	8805.78
290.053	8809.29
290.121	8802.89
290.188	8801.11
290.255	8832.25
290.323	8830.57
290.39	8826.09
290.458	8830.61
290.525	8843.99
290.592	8843.61
290.66	8846.45
290.727	8846.21
290.794	8858
290.862	8864.45
290.929	8869.56
290.996	8863.44
291.064	8870.18
291.131	8886.21
291.198	8902.05
291.266	8902.67
291.333	8897.96
291.4	8900.56
291.468	8916.83
291.535	8916.06
291.602	8916.64
291.669	8900.46
291.737	8907.06
291.804	8908.5
291.871	8931.46
291.938	8936.23
292.006	8956.69
292.073	8967.81
292.14	8972.05
292.207	8962.9
292.275	8956.98
292.342	8965.16
292.409	8995.59
292.476	9025.92
292.543	9018.46
292.611	9019.18
292.678	9035.02
292.745	9056.92
292.812	9067.17
292.879	9060.19
292.946	9062.74
293.014	9080.85
293.081	9098.56
293.148	9105.35
293.215	9123.89
293.282	9117.05
293.349	9124.56
293.416	9108.14
293.484	9123.55
293.551	9138.42
293.618	9158.55
293.685	9181.32
293.752	9174.53
293.819	9169.33
293.886	9156.67
293.953	9163.46
294.02	9173.86
294.087	9177.33
294.154	9174.53
294.221	9193.31
294.288	9195.62
294.356	9215.99
294.423	9222.92
294.49	9208.38
294.557	9218.01
294.624	9206.26
294.691	9228.36
294.758	9230.96
294.825	9236.84
294.892	9230.87
294.959	9225.67
295.026	9224.13
295.093	9218.06
295.16	9220.71
295.226	9226.05
295.293	9240.74
295.36	9245.36
295.427	9257.16
295.494	9267.51
295.561	9278.01
295.628	9296.65
295.695	9314.85
295.762	9315.91
295.829	9327.18
295.896	9345.42
295.963	9356.4
296.03	9368.44
296.096	9365.41
296.163	9369.93
296.23	9385.97
296.297	9396.66
296.364	9395.74
296.431	9408.55
296.498	9408.84
296.564	9433.97
296.631	9437.92
296.698	9433.06
296.765	9453.43
296.832	9438.98
296.899	9428.53
296.965	9442.55
297.032	9421.55
297.099	9431.18
297.166	9442.93
297.233	9432.14
297.299	9429.64
297.366	9433.3
297.433	9431.03
297.5	9445.14
297.566	9451.26
297.633	9446.88
297.7	9449.28
297.767	9454.2
297.833	9452.94
297.9	9453.38
297.967	9435.85
298.033	9446.06
298.1	9471.34
298.167	9464.55
298.234	9461.33
298.3	9465.52
298.367	9463.83
298.434	9467.49
298.5	9459.11
298.567	9450.39
298.634	9453.96
298.7	9467.63
298.767	9462.58
298.834	9480.68
298.9	9469.66
298.967	9466.77
299.033	9479.96
299.1	9499.66
299.167	9509.92
299.233	9509.48
299.3	9521.52
299.366	9543.58
299.433	9561.45
299.5	9540.3
299.566	9548.92
299.633	9572.62
299.699	9589.76
299.766	9587.64
299.832	9593.95
299.899	9607.68
299.965	9618.71
300.032	9611.48
300.099	9618.03
300.165	9631.28
300.232	9623.52
300.298	9630.89
300.365	9640.43
300.431	9641.39
300.498	9632.58
300.564	9640.33
300.631	9654.3
300.697	9663.59
300.763	9664.31
300.83	9658
300.896	9667.59
300.963	9671.39
301.029	9679.39
301.096	9689.55
301.162	9700.82
301.229	9695.62
301.295	9683.48
301.361	9690.13
301.428	9698.17
301.494	9679.44
301.561	9682.95
301.627	9688.54
301.693	9690.66
301.76	9697.45
301.826	9690.03
301.892	9702.55
301.959	9710.41
302.025	9701.74
302.092	9698.17
302.158	9700.77
302.224	9702.75
302.291	9693.79
302.357	9693.26
302.423	9687.53
302.49	9672.84
302.556	9678.71
302.622	9679.15
302.688	9684.49
302.755	9694.42
302.821	9704.43
302.887	9716.42
302.954	9711.66
303.02	9715.27
303.086	9720.61
303.152	9713.77
303.219	9709.01
303.285	9704.09
303.351	9709.1
303.417	9713.78
303.483	9707.08
303.55	9697.35
303.616	9689.5
303.682	9687.53
303.748	9678.47
303.815	9688.97
303.881	9701.4
303.947	9690.76
304.013	9691.05
304.079	9683.77
304.145	9658.1
304.212	9650.06
304.278	9639.99
304.344	9635.76
304.41	9631.42
304.476	9626.8
304.542	9619.81
304.608	9628.34
304.674	9608.64
304.741	9608.98
304.807	9609.51
304.873	9617.31
304.939	9636.38
305.005	9620.3
305.071	9618.95
305.137	9620.92
305.203	9597.23
305.269	9583.36
305.335	9596.65
305.401	9596.22
305.467	9594.58
305.533	9608.79
305.599	9619.96
305.666	9631.81
305.732	9634.07
305.798	9642.74
305.864	9666.39
305.93	9676.89
305.996	9677.76
306.062	9688.93
306.128	9676.98
306.194	9662.01
306.259	9656.9
306.325	9642.93
306.391	9654.44
306.457	9658.68
306.523	9660.61
306.589	9682.33
306.655	9679.2
306.721	9658.73
306.787	9644.67
306.853	9654.11
306.919	9634.31
306.985	9628.53
307.051	9620.54
307.117	9614.71
307.183	9604.45
307.248	9564.04
307.314	9564.86
307.38	9560.77
307.446	9563.9
307.512	9556.48
307.578	9563.42
307.644	9553.3
307.709	9557.88
307.775	9557.06
307.841	9557.25
307.907	9556.82
307.973	9540.3
308.039	9544.01
308.104	9549.74
308.17	9555.81
308.236	9548.2
308.302	9552.1
308.368	9537.07
308.433	9535.44
308.499	9525.71
308.565	9509.48
308.631	9514.82
308.696	9490.12
308.762	9484.92
308.828	9476.54
308.894	9458.87
308.959	9436.67
309.025	9433.68
309.091	9420.54
309.156	9407.82
309.222	9405.08
309.288	9391.84
309.354	9369.45
309.419	9359.81
309.485	9346.86
309.551	9341.66
309.616	9324.66
309.682	9315.61
309.748	9302.22
309.813	9300.83
309.879	9291.58
309.945	9289.7
310.01	9284.46
310.076	9288.36
310.141	9275.35
310.207	9257.35
310.273	9259.85
310.338	9268.81
310.404	9247.77
310.469	9241.6
310.535	9231.97
310.601	9211.22
310.666	9219.55
310.732	9226.77
310.797	9210.26
310.863	9201.98
310.928	9195.28
310.994	9195.57
311.059	9194.71
311.125	9194.95
311.191	9204.72
311.256	9195.62
311.322	9198.56
311.387	9179.3
311.453	9490.16
311.518	9465.37
311.584	9467.92
311.649	9470.66
311.715	9461.42
311.78	9468.45
311.846	9459.49
311.911	9465.37
311.976	9467.39
312.042	9447.74
312.107	9430.94
312.173	9426.51
312.238	9422.95
312.304	9416.4
312.369	9409.57
312.434	9393.53
312.5	9390.6
312.565	9354.29
312.631	9359.16
312.696	9349.57
312.761	9356.03
312.827	9036.45
312.892	9068.95
312.958	9063.12
313.023	9057.78
313.088	9053.93
313.154	9036.36
313.219	9019.46
313.284	9011.18
313.35	9006.13
313.415	8995.49
313.48	8991.06
313.546	8994.77
313.611	9000.59
313.676	8995.34
313.741	8983.12
313.807	8995.34
313.872	8998.14
313.937	9004.73
314.003	9011.62
314.068	9009.02
314.133	9005.84
314.198	8992.55
314.264	8973.1
314.329	8963.67
314.394	8962.32
314.459	8955
314.525	8978.4
314.59	8980.27
314.655	8963.76
314.72	8972.28
314.785	8973.82
314.851	8968.24
314.916	8949.22
314.981	8927.23
315.046	8913.07
315.111	8905.52
315.176	8890.16
315.242	8887.08
315.307	8885.3
315.372	8865.18
315.437	8855.5
315.502	8852.8
315.567	8860.99
315.632	8851.55
315.698	8857.76
315.763	8847.32
315.828	8838.8
315.893	8832.01
315.958	8824.02
316.023	8815.89
316.088	8797.45
316.153	8776.18
316.218	8767.75
316.283	8752.74
316.348	8734.12
316.413	8736.43
316.479	8722.57
316.544	8689.65
316.609	8661.3
316.674	8623
316.739	8589.32
316.804	8558.37
316.869	8523.87
316.934	8490.52
316.999	8455.34
317.064	8399.43
317.129	8363.92
317.194	8323.7
317.259	8272.21
317.324	8220.83
317.389	8173.55
317.454	8134.72
317.518	8098.69
317.583	8069.73
317.648	8039.14
317.713	8004.94
317.778	7939.67
317.843	7904.56
317.908	7866.42
317.973	7829.58
318.038	7797.26
318.103	7754.71
318.168	7719.61
318.233	7680.27
318.297	7628
318.362	7592.66
318.427	7554.64
318.492	7520.3
318.557	7477.14
318.622	7448.87
318.687	7428.01
318.751	7391.2
318.816	7352.88
318.881	7314.05
318.946	7259.83
319.011	7212.93
319.075	7170.69
319.14	7140.61
319.205	7099.09
319.27	7066.8
319.335	7018.27
319.399	6977.43
319.464	6951.64
319.529	6899.42
319.594	6864.35
319.658	6827.94
319.723	6783.03
319.788	6753.54
319.853	6694.7
319.917	6663.2
319.982	6606.82
320.047	6562.25
320.112	6534.36
320.176	6483.08
320.241	6451.15
320.306	6416.58
320.37	6382.21
320.435	6347.12
320.5	6317.45
320.564	6278.38
320.629	6235.67
320.694	6203.27
320.758	6164.4
320.823	6123.75
320.888	6098.23
320.952	6048.81
321.017	6007.98
321.082	5970.41
321.146	5933.66
321.211	5904.6
321.275	5863.01
321.34	5820.72
321.405	5779.05
321.469	5734.16
321.534	5691.4
321.598	5639.38
321.663	5608.59
321.727	5572.96
321.792	5529.72
321.857	5484.51
321.921	5443.48
321.986	5401.4
322.05	5340.98
322.115	5302.21
322.179	5258.17
322.244	5199.87
322.308	5164.89
322.373	5121.21
322.437	5076.51
322.502	5051.02
322.566	5006.33
322.631	4971.22
322.695	4928.09
322.76	4887.49
322.824	4848.66
322.889	4808.88
322.953	4768.35
323.018	4705.21
323.082	4645.34
323.146	4594.38
323.211	4542.89
323.275	4495.8
323.34	4451.65
323.404	4421.14
323.468	4371.48
323.533	4321.6
323.597	4278.1
323.662	4223.53
323.726	4185.32
323.79	4136.23
323.855	4069.7
323.919	4019.41
323.983	3973.61
324.048	3909.61
324.112	4057.88
324.177	3928.36
324.241	3723.46
324.305	3522.15
324.37	3326.76
324.434	3135.87
324.498	3092.54
324.562	3040.69
324.627	2983.86
324.691	2927.25
324.755	2860.8
324.82	2789.98
324.884	2717.71
324.948	2645.89
325.012	2556.93
325.077	2437.47
