Data from 20250630_urea_2M_MAYP1162681_01-12-27-086.txt Node
Date: Tue Jul 01 01:12:27 BST 2025
User: adleo
Spectrometer: MAYP116268
Trigger mode: 0
Integration Time (sec): 1.000000E0
Scans to average: 1
Electric dark correction enabled: true
Nonlinearity correction enabled: true
Boxcar width: 10
XAxis mode: Wavelengths
Number of Pixels in Spectrum: 2068
>>>>>Begin Spectral Data<<<<<
179.565	1083.92
179.642	1134.82
179.718	1173.82
179.795	1209.39
179.871	1239.22
179.948	1254.66
180.024	1271.51
180.101	1290.98
180.177	1304.09
180.254	1323.22
180.33	1343.81
180.407	1388.71
180.483	1476.22
180.56	1556.65
180.636	1632.56
180.712	1617.69
180.789	1629.99
180.865	1641.82
180.942	1650.41
181.018	1659.77
181.095	1670.61
181.171	1675.98
181.248	1677.83
181.324	1690.19
181.4	1695.7
181.477	1705.01
181.553	1717.27
181.63	1738.46
181.706	1754.62
181.782	1762.27
181.859	1764.36
181.935	1768.73
182.011	1763.93
182.088	1778.33
182.164	1793.92
182.24	1807.99
182.317	1818.82
182.393	1816.35
182.469	1830.32
182.546	1842.11
182.622	1848.81
182.698	1845.67
182.775	1854.32
182.851	1866.54
182.927	1861.26
183.003	1857.8
183.08	1852
183.156	1859.98
183.232	1855.75
183.308	1842.92
183.385	1848.91
183.461	1862.6
183.537	1862.93
183.613	1876.1
183.69	1868.54
183.766	1860.31
183.842	1866.64
183.918	1872.62
183.995	1883.22
184.071	1883.6
184.147	1877.81
184.223	1864.69
184.299	1875.53
184.375	1865.88
184.452	1869.97
184.528	1921.61
184.604	1930.26
184.68	1943.24
184.756	1950.42
184.832	1952.99
184.908	1958.59
184.985	1959.16
185.061	1947.66
185.137	1955.55
185.213	1943.05
185.289	1945.28
185.365	1940.34
185.441	1936.58
185.517	1949.33
185.593	1946.67
185.669	1944.67
185.745	1955.75
185.822	1971.1
185.898	1964.63
185.974	1973.47
186.05	1967.91
186.126	1929.49
186.202	1924.87
186.278	1917.36
186.354	1908
186.43	1915.65
186.506	1913.37
186.582	1913.09
186.658	1917.79
186.734	1901.16
186.81	1903.25
186.886	1902.25
186.962	1911.28
187.038	1909.47
187.114	1899.1
187.19	1905.14
187.266	1895.64
187.341	1893.5
187.417	1886.27
187.493	1886.98
187.569	1890.98
187.645	1884.23
187.721	1872.91
187.797	1878.04
187.873	1886.46
187.949	1882.94
188.025	1876.09
188.101	1879.61
188.176	1884.37
188.252	1879.18
188.328	1885.08
188.404	1886.98
188.48	1883.94
188.556	1878.52
188.632	1878.23
188.707	1880.94
188.783	1877.57
188.859	1873.19
188.935	1863.97
189.011	1867.25
189.086	1863.35
189.162	1854.94
189.238	1853.61
189.314	1852.37
189.39	1846.24
189.465	1836.31
189.541	1849.76
189.617	1834.5
189.693	1833.41
189.768	1835.74
189.844	1857.57
189.92	1850.87
189.996	1860.9
190.071	1873.45
190.147	1870.84
190.223	1877.92
190.298	1869.03
190.374	1858.71
190.45	1870.07
190.526	1882.05
190.601	1879.91
190.677	1878.11
190.753	1906.46
190.828	1911.07
190.904	1924.86
190.98	1942.83
191.055	1954.81
191.131	1946.11
191.207	1965.79
191.282	1973.63
191.358	1963.79
191.433	1949.52
191.509	1961.07
191.585	1954.84
191.66	1953.98
191.736	1962.3
191.811	1955.46
191.887	1970.1
191.963	1994.69
192.038	1999.25
192.114	1998.82
192.189	2004.77
192.265	1999.68
192.34	1980.79
192.416	1979.27
192.491	1976.75
192.567	1974.66
192.642	1975.13
192.718	1975.18
192.793	1967.24
192.869	1961.3
192.944	1962.87
193.02	1972.71
193.095	1977.04
193.171	1985.69
193.246	1985.22
193.322	1982.22
193.397	1982.27
193.473	1970.24
193.548	1950.31
193.624	1958.11
193.699	1954.35
193.775	1969.29
193.85	1972.28
193.925	1976.66
194.001	1975.61
194.076	1967.15
194.152	1960.01
194.227	1954.74
194.302	1946.75
194.378	1948.94
194.453	1942.43
194.529	1955.64
194.604	1939.81
194.679	1934.96
194.755	1913.57
194.83	1924.8
194.905	1923.75
194.981	1930.69
195.056	1923.95
195.131	1930.08
195.207	1926.7
195.282	1917.05
195.357	1898.26
195.433	1913.67
195.508	1904.44
195.583	1911.67
195.659	1928.41
195.734	1937.78
195.809	1935.88
195.884	1945.14
195.96	1946.48
196.035	1966.02
196.11	1963.02
196.185	1979.04
196.261	1981.66
196.336	2012.51
196.411	1997.48
196.486	2002.76
196.561	1998.58
196.637	2009.08
196.712	2023.64
196.787	2025.3
196.862	2040.66
196.937	2049.98
197.013	2055.59
197.088	2064.29
197.163	2084.71
197.238	2096.41
197.313	2096.13
197.388	2110.63
197.464	2138.47
197.539	2148.84
197.614	2138.66
197.689	2148.46
197.764	2160.31
197.839	2179.34
197.914	2175.72
197.989	2197.37
198.065	2212.54
198.14	2255.48
198.215	2279.27
198.29	2291.89
198.365	2302.69
198.44	2308.92
198.515	2334.1
198.59	2349.05
198.665	2375.08
198.74	2382.41
198.815	2384.99
198.89	2403.41
198.965	2430.5
199.04	2425.79
199.115	2436.88
199.19	2480.53
199.265	2483.43
199.34	2491.48
199.415	2523.01
199.49	2539.01
199.565	2548.67
199.64	2570.86
199.715	2572.53
199.79	2578.82
199.865	2581.82
199.94	2583.01
200.015	2616.97
200.09	2625.3
200.165	2627.45
200.24	2632.64
200.315	2669.97
200.39	2683.93
200.464	2691.69
200.539	2693.55
200.614	2711.41
200.689	2736.18
200.764	2740.57
200.839	2760.23
200.914	2766.43
200.989	2755.08
201.063	2770.33
201.138	2754.66
201.213	2750.28
201.288	2731.7
201.363	2735.75
201.438	2734.32
201.512	2749.89
201.587	2735.36
201.662	2738.69
201.737	2752.8
201.812	2759.09
201.886	2727.67
201.961	2736.25
202.036	2724.2
202.111	2721.43
202.186	2692.91
202.26	2677.85
202.335	2654.65
202.41	2643.79
202.485	2628.7
202.559	2610.12
202.634	2584.12
202.709	2588.64
202.784	2572.64
202.858	2573.5
202.933	2556.59
203.008	2554.97
203.082	2533.59
203.157	2530.97
203.232	2488.27
203.306	2468.17
203.381	2440.17
203.456	2417.55
203.53	2397.3
203.605	2377.7
203.68	2352.84
203.754	2348.08
203.829	2335.51
203.904	2318.09
203.978	2308.96
204.053	2310.86
204.127	2301.2
204.202	2301.67
204.277	2290.35
204.351	2285.88
204.426	2276.59
204.5	2268.03
204.575	2237.29
204.65	2246.1
204.724	2237.57
204.799	2245.99
204.873	2243.61
204.948	2239.99
205.022	2231.15
205.097	2220.72
205.171	2232.8
205.246	2241.09
205.32	2239.71
205.395	2236.14
205.469	2228.72
205.544	2234.62
205.618	2221.34
205.693	2233.43
205.767	2224.15
205.842	2242.24
205.916	2234.72
205.991	2224.83
206.065	2230.77
206.14	2241.61
206.214	2240.14
206.289	2233.86
206.363	2245.56
206.438	2246.51
206.512	2254.56
206.586	2270.21
206.661	2277.35
206.735	2259.23
206.81	2259.18
206.884	2273.55
206.958	2261.42
207.033	2277.54
207.107	2284.21
207.181	2311.96
207.256	2303.78
207.33	2319.91
207.405	2330.63
207.479	2348.95
207.553	2357.28
207.628	2342.62
207.702	2355.04
207.776	2350.24
207.851	2355.09
207.925	2370.14
207.999	2368.61
208.073	2364.81
208.148	2368.19
208.222	2360.38
208.296	2387.97
208.371	2405.93
208.445	2416.74
208.519	2444.54
208.593	2456.72
208.668	2454.53
208.742	2456.29
208.816	2459.58
208.89	2470.87
208.965	2470.63
209.039	2479.3
209.113	2497.06
209.187	2517.13
209.261	2515.85
209.336	2535.28
209.41	2551.61
209.484	2548.66
209.558	2568.8
209.632	2582.71
209.707	2593.94
209.781	2614.52
209.855	2633.43
209.929	2645.78
210.003	2648.49
210.077	2649.68
210.151	2692.64
210.226	2724.81
210.3	2749.84
210.374	2771.41
210.448	2774.65
210.522	2786
210.596	2794.95
210.67	2805.2
210.744	2848.57
210.818	2878.01
210.892	2895.93
210.966	2892.93
211.041	2910.9
211.115	2908.61
211.189	2930.87
211.263	2946.21
211.337	2953.51
211.411	2966
211.485	2964.42
211.559	2976.53
211.633	2979.77
211.707	2959.26
211.781	2969.47
211.855	2942.1
211.929	2940.76
212.003	2932.52
212.077	2944.49
212.151	2962.85
212.225	2982.12
212.299	2980.59
212.373	2979.73
212.447	2988.13
212.52	3028.38
212.594	3043.45
212.668	3070.53
212.742	3072.58
212.816	3086.08
212.89	3099.34
212.964	3119.28
213.038	3147.25
213.112	3184.99
213.186	3225.1
213.26	3228.63
213.333	3211.64
213.407	3244.16
213.481	3278.12
213.555	3322.66
213.629	3350.3
213.703	3375.27
213.777	3411.85
213.85	3435
213.924	3504.3
213.998	3550.25
214.072	3589.71
214.146	3629.79
214.219	3679.42
214.293	3734.2
214.367	3796.22
214.441	3867.14
214.515	3920.06
214.588	3957.58
214.662	3990.27
214.736	4039.79
214.81	4117.24
214.883	4201.52
214.957	4273.38
215.031	4344.19
215.105	4402.46
215.178	4471.98
215.252	4555.88
215.326	4618.53
215.4	4691.64
215.473	4745.71
215.547	4824.35
215.621	4909.34
215.694	5010.81
215.768	5087.41
215.842	5179.97
215.915	5265.1
215.989	5344.48
216.063	5438.84
216.136	5553.81
216.21	5670.06
216.284	5797.75
216.357	5916.9
216.431	6027.71
216.504	6148.68
216.578	6287.3
216.652	6421.18
216.725	6543.7
216.799	6666.89
216.873	6794.59
216.946	6929.48
217.02	7048.06
217.093	7167.99
217.167	7274.92
217.24	7386.15
217.314	7519.09
217.387	7643.01
217.461	7774.42
217.535	7921.57
217.608	8039.93
217.682	8164.08
217.755	8303.54
217.829	8423.46
217.902	8548.66
217.976	8686.33
218.049	8806.07
218.123	8921.75
218.196	9049.12
218.27	9174.62
218.343	9295.92
218.417	9429.63
218.49	9561.96
218.563	9709.27
218.637	9843.98
218.71	9995.36
218.784	10138.62
218.857	10273.6
218.931	10405.59
219.004	10532.82
219.077	10657.04
219.151	10791.46
219.224	10912.07
219.298	11032.68
219.371	11172.05
219.444	11289.97
219.518	11413.53
219.591	11541.1
219.665	11686.17
219.738	11812.54
219.811	11926.81
219.885	12055.12
219.958	12174.17
220.031	12289.81
220.105	12413.11
220.178	12537.72
220.251	12641.64
220.325	12755.6
220.398	12874.66
220.471	12991.03
220.544	13109.76
220.618	13223.43
220.691	13341.58
220.764	13462.09
220.838	13581.02
220.911	13673.96
220.984	13799.24
221.057	13906.74
221.131	14012.55
221.204	14088.14
221.277	14210.82
221.35	14339.82
221.424	14432.71
221.497	14532.25
221.57	14625.92
221.643	14720.97
221.716	14823.74
221.79	14917.21
221.863	15006.82
221.936	15094.89
222.009	15183.15
222.082	15269.77
222.155	15344.19
222.229	15435.78
222.302	15530.59
222.375	15603.71
222.448	15696.98
222.521	15780.17
222.594	15861.96
222.667	15930.22
222.74	16013.89
222.814	16081.95
222.887	16145.71
222.96	16230.35
223.033	16309.34
223.106	16381.88
223.179	16459.34
223.252	16521.07
223.325	16594.19
223.398	16657.95
223.471	16721.38
223.544	16788.13
223.617	16852.62
223.69	16926.31
223.763	16973.97
223.837	17031.27
223.91	17104.72
223.983	17137.59
224.056	17178.56
224.129	17232.87
224.202	17310.03
224.275	17366.17
224.348	17404.83
224.42	17457.4
224.493	17490.56
224.566	17544.82
224.639	17599.67
224.712	17645.35
224.785	17698.22
224.858	17741.54
224.931	17793.35
225.004	17833.4
225.077	17870.07
225.15	17900.38
225.223	17950.55
225.296	18021.68
225.369	18055.13
225.442	18094.98
225.514	18154.64
225.587	18204.57
225.66	18251.65
225.733	18293.81
225.806	18339.5
225.879	18392.99
225.952	18421.13
226.025	18485.32
226.097	18540.5
226.17	18586.67
226.243	18615.97
226.316	18644.64
226.389	18688.4
226.461	18728.68
226.534	18780.29
226.607	18829.16
226.68	18890.02
226.753	18918.41
226.825	18937.83
226.898	18986.45
226.971	19015.07
227.044	19053.77
227.117	19093.77
227.189	19144.13
227.262	19194.63
227.335	19233.33
227.407	19258.63
227.48	19302.58
227.553	19329.37
227.626	19351.3
227.698	19381.27
227.771	19408.45
227.844	19432.06
227.916	19462.95
227.989	19481.94
228.062	19504.73
228.134	19554.75
228.207	19580.05
228.28	19595.52
228.352	19624.15
228.425	19654.31
228.498	19682.94
228.57	19695.76
228.643	19740.14
228.716	19752.96
228.788	19767.56
228.861	19787.51
228.934	19824.09
229.006	19841.87
229.079	19863.65
229.151	19881.73
229.224	19891.85
229.296	19926.74
229.369	19977.92
229.442	20021.43
229.514	20044.56
229.587	20072.8
229.659	20072.8
229.732	20091.07
229.804	20135.98
229.877	20178.01
229.949	20204.56
230.022	20244.99
230.094	20260.7
230.167	20270.68
230.239	20272.27
230.312	20288.08
230.384	20332.42
230.457	20352.51
230.529	20379.93
230.602	20398.54
230.674	20419.21
230.747	20452.51
230.819	20479.4
230.892	20468.37
230.964	20472.9
231.037	20502.58
231.109	20515.84
231.181	20535.69
231.254	20540.41
231.326	20552.12
231.399	20558.49
231.471	20557.38
231.544	20550.39
231.616	20582.97
231.688	20594.49
231.761	20610.1
231.833	20617.76
231.905	20593.96
231.978	20597.62
232.05	20598.63
232.122	20610.2
232.195	20613.47
232.267	20626.97
232.339	20624.61
232.412	20641.57
232.484	20647.64
232.556	20633.67
232.629	20659.74
232.701	20682.58
232.773	20687.36
232.846	20676.32
232.918	20676.66
232.99	20686.1
233.062	20700.18
233.135	20705.09
233.207	20697.96
233.279	20714.44
233.351	20724.22
233.424	20721.09
233.496	20716.22
233.568	20729.77
233.64	20721.57
233.713	20721.96
233.785	20714.25
233.857	20715.74
233.929	20693.09
234.001	20701.28
234.074	20711.5
234.146	20693.67
234.218	20677.14
234.29	20675.16
234.362	20677.52
234.434	20657.33
234.507	20636.13
234.579	20606.82
234.651	20592.94
234.723	20586.63
234.795	20576.7
234.867	20555.3
234.939	20555.5
235.012	20550.05
235.084	20547.06
235.156	20540.22
235.228	20519.74
235.3	20514.39
235.372	20504.22
235.444	20510.15
235.516	20478.34
235.588	20465.52
235.66	20444.07
235.732	20422.48
235.804	20461.76
235.876	20453.09
235.948	20447.59
236.02	20438.44
236.092	20438.92
236.164	20417.76
236.236	20408.37
236.308	20382.82
236.38	20368.75
236.452	20357.57
236.524	20344.41
236.596	20343.6
236.668	20325.72
236.74	20315.84
236.812	20292.27
236.884	20279.6
236.956	20266.3
237.028	20243.6
237.1	20212.32
237.172	20205.91
237.244	20208.27
237.316	20147.31
237.388	20113.62
237.46	20092.37
237.532	20081.33
237.604	20036.56
237.675	20037
237.747	20019.89
237.819	19989.43
237.891	19963.07
237.963	19932.81
238.035	19903.51
238.107	19845.58
238.178	19832.33
238.25	19792
238.322	19784.77
238.394	19742.74
238.466	19716.53
238.538	19693.11
238.609	19677.83
238.681	19636.58
238.753	19585.84
238.825	19563.43
238.897	19542.42
238.968	19533.36
239.04	19497.74
239.112	19499.29
239.184	19453.36
239.255	19421.46
239.327	19399.24
239.399	19385.41
239.471	19362.19
239.542	19335.3
239.614	19320.65
239.686	19264.22
239.758	19255.54
239.829	19223.88
239.901	19207.69
239.973	19176.08
240.044	19152.37
240.116	19129.14
240.188	19100.9
240.259	19081.38
240.331	19044.81
240.403	19019.75
240.474	18965.73
240.546	18931.85
240.618	18886.79
240.689	18865.4
240.761	18835.71
240.833	18825.4
240.904	18779.67
240.976	18754.66
241.048	18724.83
241.119	18697.26
241.191	18682.42
241.262	18659.58
241.334	18619.05
241.405	18584.69
241.477	18546.62
241.549	18513.9
241.62	18478.43
241.692	18455.06
241.763	18437.18
241.835	18407.93
241.906	18378.78
241.978	18337.96
242.049	18326.1
242.121	18309.91
242.192	18284.27
242.264	18234.73
242.335	18188.13
242.407	18169.05
242.478	18123.46
242.55	18094.11
242.621	18058.26
242.693	18021.54
242.764	17982.36
242.836	17947.28
242.907	17919.18
242.979	17898.36
243.05	17872.63
243.122	17849.78
243.193	17817.64
243.264	17761.21
243.336	17726.32
243.407	17703.86
243.479	17694.46
243.55	17650.13
243.622	17621.21
243.693	17588.54
243.764	17571.67
243.836	17523.28
243.907	17490.18
243.978	17468.06
244.05	17445.79
244.121	17390.99
244.192	17369.45
244.264	17331.28
244.335	17306.8
244.407	17258.56
244.478	17226.56
244.549	17187.62
244.62	17136.97
244.692	17095.42
244.763	17073.88
244.834	17036.34
244.906	16994.41
244.977	16965.2
245.048	16951.32
245.119	16898.12
245.191	16854.31
245.262	16797.87
245.333	16789.87
245.405	16751.75
245.476	16715.99
245.547	16685.29
245.618	16670.54
245.689	16638.25
245.761	16603.3
245.832	16570.19
245.903	16540.41
245.974	16505.27
246.045	16470.77
246.117	16453.8
246.188	16419.19
246.259	16380.35
246.33	16350.08
246.401	16308.73
246.473	16256.77
246.544	16222.89
246.615	16206.07
246.686	16161.24
246.757	16147.02
246.828	16101.28
246.899	16083.54
246.97	16033.66
247.042	15980.45
247.113	15953.55
247.184	15942.08
247.255	15906.75
247.326	15871.57
247.397	15844.14
247.468	15813.05
247.539	15784.9
247.61	15741.52
247.681	15722.34
247.752	15698.19
247.823	15657.56
247.894	15628.3
247.965	15593.64
248.037	15553.88
248.108	15512.38
248.179	15486.4
248.25	15455.93
248.321	15435.5
248.392	15398.09
248.463	15394.57
248.534	15379.34
248.605	15357.84
248.675	15316.25
248.746	15296.44
248.817	15275.9
248.888	15253.15
248.959	15207.6
249.03	15182.82
249.101	15156.75
249.172	15108.4
249.243	15064.39
249.314	15051.61
249.385	15027.03
249.456	15013.44
249.527	14987.07
249.598	14962.53
249.669	14935.68
249.739	14911
249.81	14888.64
249.881	14846.17
249.952	14812.62
250.023	14778.59
250.094	14729.76
250.165	14701.41
250.235	14672.01
250.306	14638.22
250.377	14603.03
250.448	14588.42
250.519	14541.47
250.59	14524.46
250.66	14501.08
250.731	14485.51
250.802	14456
250.873	14430.65
250.944	14398.88
251.014	14357.47
251.085	14344.84
251.156	14324.45
251.227	14311.1
251.297	14289.36
251.368	14275.52
251.439	14262.03
251.51	14244.29
251.58	14210.49
251.651	14162.67
251.722	14142.67
251.792	14096.29
251.863	14060.19
251.934	14043.99
252.005	14048.57
252.075	14022.97
252.146	14016.85
252.217	13998.1
252.287	13974.43
252.358	13948.11
252.429	13947.58
252.499	13917.5
252.57	13897.83
252.641	13882.88
252.711	13848.71
252.782	13810.43
252.852	13803.39
252.923	13771.29
252.994	13747.71
253.064	13743.23
253.135	13721.68
253.205	13690.93
253.276	13686.01
253.347	13680.9
253.417	13649.18
253.488	13613.84
253.558	13583.09
253.629	13551.42
253.699	13530.74
253.77	13521.05
253.841	13497.52
253.911	13466.72
253.982	13453.41
254.052	13434.76
254.123	13415.86
254.193	13403.86
254.264	13426.61
254.334	13394.5
254.405	13365.39
254.475	13333.38
254.546	13299.87
254.616	13293.61
254.687	13277.7
254.757	13261.5
254.827	13239.13
254.898	13221.25
254.968	13198.64
255.039	13175.07
255.109	13162.63
255.18	13134
255.25	13093.74
255.321	13075.67
255.391	13041.78
255.461	13035.17
255.532	12999.4
255.602	12971.78
255.673	12925.17
255.743	12880.53
255.813	12830.88
255.884	12817.62
255.954	12804.27
256.024	12792.31
256.095	12765.17
256.165	12731.43
256.235	12711.09
256.306	12678.16
256.376	12667.27
256.446	12656.71
256.517	12643.26
256.587	12624.8
256.657	12604.79
256.728	12587.97
256.798	12570.28
256.868	12544.97
256.938	12510.89
257.009	12490.31
257.079	12467.07
257.149	12470.98
257.219	12432.56
257.29	12424.61
257.36	12390.28
257.43	12376.88
257.5	12347.48
257.571	12324.58
257.641	12316.97
257.711	12284.82
257.781	12272.14
257.852	12254.93
257.922	12214.39
257.992	12195.83
258.062	12176.31
258.132	12164.26
258.202	12137.51
258.273	12114.08
258.343	12112.63
258.413	12086.94
258.483	12072.53
258.553	12045.83
258.623	12017.48
258.693	12002.45
258.764	11994.59
258.834	11989.86
258.904	11972.95
258.974	11945.71
259.044	11929.95
259.114	11904.98
259.184	11891.39
259.254	11871.39
259.324	11832.2
259.394	11823.77
259.464	11814.56
259.535	11786.17
259.605	11760.87
259.675	11732.72
259.745	11724.86
259.815	11697
259.885	11675.94
259.955	11682.35
260.025	11660.66
260.095	11642.68
260.165	11627.45
260.235	11627.26
260.305	11593.38
260.375	11560.07
260.445	11570.73
260.515	11560.75
260.585	11552.41
260.655	11536.51
260.725	11529.32
260.795	11518.38
260.865	11514.67
260.934	11486.96
261.004	11483.73
261.074	11468.98
261.144	11468.16
261.214	11455.49
261.284	11431.24
261.354	11429.22
261.424	11393.65
261.494	11387.09
261.564	11371.14
261.634	11364.01
261.703	11322.71
261.773	11316.2
261.843	11310.08
261.913	11281.93
261.983	11253.55
262.053	11245.4
262.123	11226.17
262.192	11193.64
262.262	11185.93
262.332	11156.25
262.402	11142.41
262.472	11123.96
262.541	11090.61
262.611	11081.69
262.681	11052.54
262.751	11041.02
262.821	11016.35
262.89	10984.98
262.96	10975.29
263.03	10977.02
263.1	10960.06
263.169	10945.41
263.239	10934.91
263.309	10931.34
263.379	10921.32
263.448	10900.64
263.518	10889.46
263.588	10872.12
263.657	10872.45
263.727	10861.08
263.797	10845.18
263.867	10831.69
263.936	10802
264.006	10804.08
264.076	10787.02
264.145	10770.06
264.215	10749.96
264.285	10745.15
264.354	10717.2
264.424	10693.54
264.494	10657.64
264.563	10639.86
264.633	10647.19
264.702	10637.84
264.772	10596.06
264.842	10575.49
264.911	10573.13
264.981	10541.9
265.05	10526.87
265.12	10504.75
265.19	10493.29
265.259	10495.89
265.329	10483.94
265.398	10463.46
265.468	10466.26
265.537	10445.93
265.607	10432.24
265.676	10425.06
265.746	10412.1
265.815	10402.9
265.885	10388.93
265.955	10369.81
266.024	10347.07
266.094	10309.82
266.163	10302.21
266.232	10312.57
266.302	10302.35
266.371	10284.82
266.441	10278.6
266.51	10277.35
266.58	10262.27
266.649	10240.01
266.719	10222.76
266.788	10211.25
266.858	10220.69
266.927	10185.96
266.996	10173.05
267.066	10172.37
267.135	10143.52
267.205	10140.82
267.274	10141.11
267.343	10139.47
267.413	10128.25
267.482	10134.41
267.552	10128.1
267.621	10102.09
267.69	10065.86
267.76	10051.8
267.829	10039.9
267.898	10020.49
267.968	9990.86
268.037	9985.23
268.106	9984.74
268.176	9963.02
268.245	9954.59
268.314	9932.48
268.384	9931.08
268.453	9925.06
268.522	9915.14
268.592	9920.96
268.661	9898.56
268.73	9885.03
268.799	9870.24
268.869	9868.8
268.938	9836.81
269.007	9812.54
269.076	9793.13
269.146	9793.85
269.215	9780.22
269.284	9788.6
269.353	9768.57
269.422	9756.82
269.492	9738.23
269.561	9699.55
269.63	9690.3
269.699	9667.91
269.768	9658.71
269.838	9643.82
269.907	9633.95
269.976	9605.39
270.045	9571.58
270.114	9557.86
270.183	9546.11
270.253	9535.61
270.322	9515.72
270.391	9504.06
270.46	9514.66
270.529	9521.4
270.598	9519.57
270.667	9506.67
270.736	9476.42
270.806	9471.41
270.875	9473.29
270.944	9454.9
271.013	9474.06
271.082	9464.62
271.151	9460.68
271.22	9437.32
271.289	9425.81
271.358	9413
271.427	9407.8
271.496	9404.72
271.565	9394.51
271.634	9382.19
271.703	9379.68
271.772	9374.58
271.841	9363.65
271.91	9341.11
271.979	9326.42
272.048	9306.44
272.117	9306.97
272.186	9297.53
272.255	9294.26
272.324	9290.02
272.393	9291.7
272.462	9272.44
272.531	9259.92
272.6	9244.27
272.669	9247.88
272.738	9236.57
272.807	9234.06
272.876	9209.03
272.945	9228.97
273.013	9236.72
273.082	9242.21
273.151	9219.19
273.22	9217.75
273.289	9204.03
273.358	9212.79
273.427	9207.3
273.496	9201.38
273.564	9198.68
273.633	9197.29
273.702	9183.57
273.771	9173.55
273.84	9168.21
273.909	9162.14
273.977	9163.73
274.046	9157.04
274.115	9157.52
274.184	9144.52
274.253	9134.36
274.322	9151.16
274.39	9125.4
274.459	9104.7
274.528	9076.44
274.597	9072.63
274.665	9066.33
274.734	9077.21
274.803	9062.23
274.872	9048.61
274.94	9030.22
275.009	9075.88
275.078	9066.83
275.147	9064.52
275.215	9059.61
275.284	9065.53
275.353	9054.74
275.421	9026.92
275.49	9035.35
275.559	9020.76
275.627	9011.33
275.696	9000.16
275.765	8999.24
275.833	8989.95
275.902	8986.82
275.971	8995.01
276.039	9004.83
276.108	9006.27
276.177	8999.44
276.245	8989.18
276.314	8985.86
276.383	9001.79
276.451	8941.21
276.52	8942.03
276.588	8946.84
276.657	8941.31
276.725	8926.96
276.794	8924.5
276.863	8944.38
276.931	8924.12
277	8933.99
277.068	8939.91
277.137	8953.63
277.205	8951.03
277.274	8963.98
277.342	8966
277.411	8948.38
277.48	8937.69
277.548	8922.14
277.617	8919.79
277.685	8911.99
277.754	8914.97
277.822	8899.62
277.89	8916.95
277.959	8906.26
278.027	8893.51
278.096	8891.24
278.164	8914.5
278.233	8909.68
278.301	8893.9
278.37	8902.46
278.438	8886.34
278.507	8900.97
278.575	8879.07
278.643	8871.41
278.712	8852.4
278.78	8842.92
278.849	8856.59
278.917	8862.65
278.985	8860.68
279.054	8867.8
279.122	8873.63
279.191	8865.97
279.259	8862.61
279.327	8836.7
279.396	8848.59
279.464	8845.66
279.532	8847.3
279.601	8841.18
279.669	8839.54
279.737	8850.04
279.806	8847.2
279.874	8853.26
279.942	8839.35
280.011	8835.4
280.079	8839.11
280.147	8856.63
280.215	8863.23
280.284	8855.91
280.352	8841.32
280.42	8849.6
280.488	8834.39
280.557	8830.49
280.625	8832.18
280.693	8831.07
280.761	8833.48
280.83	8818.03
280.898	8821.93
280.966	8803.78
281.034	8773.98
281.102	8755.98
281.171	8751.46
281.239	8757.52
281.307	8753.77
281.375	8742.75
281.443	8760.51
281.512	8755.55
281.58	8758.15
281.648	8742.32
281.716	8741.21
281.784	8742.46
281.852	8731.24
281.92	8733.17
281.989	8741.88
282.057	8724.56
282.125	8761.58
282.193	8755.9
282.261	8757.87
282.329	8757
282.397	8759.75
282.465	8762.06
282.533	8772.07
282.601	8762.06
282.67	8741.98
282.738	8734.76
282.806	8745.59
282.874	8734.43
282.942	8733.9
283.01	8725.28
283.078	8730.19
283.146	8722.44
283.214	8729.28
283.282	8732.16
283.35	8738.57
283.418	8733.42
283.486	8748.53
283.554	8710.98
283.622	8713.48
283.69	8709.58
283.758	8701.35
283.826	8708.57
283.894	8714.3
283.962	8737.93
284.03	8750.64
284.098	8752.95
284.165	8740.68
284.233	8737.4
284.301	8736.97
284.369	8731.39
284.437	8726.38
284.505	8723.4
284.573	8738.17
284.641	8724.75
284.709	8733.51
284.777	8718.39
284.845	8725.47
284.912	8724.51
284.98	8721.62
285.048	8712.23
285.116	8717.62
285.184	8729.22
285.252	8727.49
285.319	8719.69
285.387	8704
285.455	8688.12
285.523	8696.97
285.591	8704.43
285.659	8709.25
285.726	8720.61
285.794	8709.1
285.862	8700.25
285.93	8695.77
285.997	8692.4
286.065	8689.9
286.133	8677.05
286.201	8677.14
286.269	8666.84
286.336	8660.54
286.404	8665.69
286.472	8676.57
286.539	8656.84
286.607	8642.06
286.675	8644.9
286.743	8649.42
286.81	8646.73
286.878	8654.62
286.946	8643.21
287.013	8641.91
287.081	8635.13
287.149	8622.23
287.216	8639.12
287.284	8637.77
287.352	8637.29
287.419	8636.76
287.487	8654.47
287.555	8657.7
287.622	8657.84
287.69	8656.79
287.758	8660.39
287.825	8653.42
287.893	8638.64
287.96	8643.79
288.028	8651.68
288.096	8648.17
288.163	8649.56
288.231	8638.45
288.298	8643.36
288.366	8659
288.433	8653.32
288.501	8652.36
288.569	8649.66
288.636	8640.52
288.704	8656.45
288.771	8661.46
288.839	8644.56
288.906	8635.08
288.974	8642.73
289.041	8634.7
289.109	8632.77
289.176	8642.16
289.244	8647.36
289.311	8663.67
289.379	8675.13
289.446	8674.4
289.514	8674.69
289.581	8674.12
289.649	8678.35
289.716	8675.32
289.783	8661.5
289.851	8683.88
289.918	8686.67
289.986	8693.65
290.053	8701.11
290.121	8697.07
290.188	8702.51
290.255	8737.21
290.323	8733.7
290.39	8732.01
290.458	8742.55
290.525	8750.3
290.592	8749.05
290.66	8750.78
290.727	8742.6
290.794	8758.39
290.862	8762.24
290.929	8768.16
290.996	8769.27
291.064	8776.24
291.131	8792.08
291.198	8807.29
291.266	8803.83
291.333	8799.54
291.4	8806.04
291.468	8822.7
291.535	8819.09
291.602	8825.15
291.669	8815.57
291.737	8822.79
291.804	8822.5
291.871	8837.28
291.938	8835.55
292.006	8860.73
292.073	8871.65
292.14	8881.9
292.207	8871.56
292.275	8877.62
292.342	8883.54
292.409	8912.19
292.476	8940.73
292.543	8928.7
292.611	8925.23
292.678	8941.7
292.745	8969.66
292.812	8979.73
292.879	8970.43
292.946	8978.52
293.014	8988.58
293.081	8997.78
293.148	9005.67
293.215	9022.33
293.282	9016.89
293.349	9036.15
293.416	9011.54
293.484	9024.35
293.551	9040.38
293.618	9053.19
293.685	9072.4
293.752	9060.17
293.819	9051.79
293.886	9036.58
293.953	9045.05
294.02	9064.11
294.087	9069.22
294.154	9057.76
294.221	9069.89
294.288	9076.44
294.356	9094.3
294.423	9101.52
294.49	9093
294.557	9103.79
294.624	9090.98
294.691	9110.24
294.758	9112.89
294.825	9128.58
294.892	9118.04
294.959	9118.04
295.026	9126.89
295.093	9119.38
295.16	9132.67
295.226	9137.24
295.293	9165.84
295.36	9172.3
295.427	9177.98
295.494	9189.44
295.561	9201.04
295.628	9220.74
295.695	9229.02
295.762	9230.56
295.829	9237.06
295.896	9252.71
295.963	9264.89
296.03	9271.97
296.096	9286.27
296.163	9292.14
296.23	9305.48
296.297	9320.89
296.364	9317.13
296.431	9329.6
296.498	9333.21
296.564	9354.69
296.631	9353.24
296.698	9334.13
296.765	9347.37
296.832	9335.04
296.899	9327.34
296.965	9342.07
297.032	9325.84
297.099	9348.19
297.166	9351.75
297.233	9352.52
297.299	9344.43
297.366	9341.2
297.433	9347.17
297.5	9347.7
297.566	9352.81
297.633	9347.7
297.7	9350.06
297.767	9352.13
297.833	9349.39
297.9	9351.41
297.967	9333.89
298.033	9348.04
298.1	9377.03
298.167	9370.73
298.234	9382.81
298.3	9383.58
298.367	9378.14
298.434	9383.05
298.5	9371.11
298.567	9372.46
298.634	9365.96
298.7	9385.46
298.767	9392.1
298.834	9404.33
298.9	9393.93
298.967	9388.01
299.033	9397.45
299.1	9413.82
299.167	9428.6
299.233	9427.59
299.3	9436.16
299.366	9457.88
299.433	9478.01
299.5	9447.58
299.566	9456.44
299.633	9470.55
299.699	9483.16
299.766	9483.16
299.832	9490.34
299.899	9495.01
299.965	9502.14
300.032	9498.29
300.099	9502.23
300.165	9502.04
300.232	9500.5
300.298	9507.87
300.365	9519.14
300.431	9520
300.498	9517.45
300.564	9525.49
300.631	9539.7
300.697	9555.59
300.763	9550.92
300.83	9539.22
300.896	9556.02
300.963	9564.26
301.029	9568.02
301.096	9575.39
301.162	9584.2
301.229	9579.19
301.295	9574.37
301.361	9573.51
301.428	9583.38
301.494	9571.24
301.561	9581.16
301.627	9583.76
301.693	9584.92
301.76	9587.91
301.826	9581.02
301.892	9585.45
301.959	9591.61
302.025	9584.39
302.092	9575.96
302.158	9588.48
302.224	9591.9
302.291	9586.89
302.357	9579.62
302.423	9571.72
302.49	9566.09
302.556	9581.12
302.622	9585.31
302.688	9598.65
302.755	9612.9
302.821	9618.54
302.887	9629.71
302.954	9628.5
303.02	9637.85
303.086	9644.54
303.152	9642.04
303.219	9642.52
303.285	9646.56
303.351	9648.78
303.417	9654.08
303.483	9647.38
303.55	9635.54
303.616	9636.93
303.682	9633.71
303.748	9624.08
303.815	9639.2
303.881	9640.26
303.947	9625.04
304.013	9617.82
304.079	9608.71
304.145	9587.14
304.212	9587.43
304.278	9581.12
304.344	9577.99
304.41	9570.72
304.476	9563.54
304.542	9555.79
304.608	9559.83
304.674	9542.45
304.741	9534.45
304.807	9528.96
304.873	9535.27
304.939	9549.57
305.005	9532.09
305.071	9533.68
305.137	9539.36
305.203	9517.54
305.269	9517.11
305.335	9521.01
305.401	9519.66
305.467	9514.85
305.533	9526.89
305.599	9531.89
305.666	9533.58
305.732	9521.4
305.798	9525.3
305.864	9546.54
305.93	9549.09
305.996	9553.23
306.062	9556.94
306.128	9552.41
306.194	9545.33
306.259	9534.98
306.325	9526.84
306.391	9533.05
306.457	9539.7
306.523	9539.55
306.589	9554.68
306.655	9549.23
306.721	9532.14
306.787	9516.92
306.853	9529.59
306.919	9513.46
306.985	9503.58
307.051	9502.19
307.117	9503.15
307.183	9500.07
307.248	9468.52
307.314	9475.36
307.38	9467.85
307.446	9473.48
307.512	9466.93
307.578	9468.96
307.644	9469.39
307.709	9466.55
307.775	9460.34
307.841	9454.99
307.907	9453.69
307.973	9436.5
308.039	9432.55
308.104	9442.04
308.17	9448.34
308.236	9432.45
308.302	9435.39
308.368	9425.66
308.433	9427.88
308.499	9422.77
308.565	9409.19
308.631	9413
308.696	9392.72
308.762	9380.88
308.828	9372.79
308.894	9356.9
308.959	9338.65
309.025	9337.01
309.091	9331.43
309.156	9326.71
309.222	9323.87
309.288	9314.14
309.354	9292.18
309.419	9284.62
309.485	9269.12
309.551	9270.13
309.616	9256.7
309.682	9250.77
309.748	9245.53
309.813	9236.71
309.879	9224.44
309.945	9211.73
310.01	9207.3
310.076	9204.02
310.141	9201.47
310.207	9181.44
310.273	9183.41
310.338	9185.63
310.404	9162.76
310.469	9146.15
310.535	9137.19
310.601	9122.8
310.666	9127.71
310.732	9135.84
310.797	9129.49
310.863	9119.67
310.928	9108.21
310.994	9113.99
311.059	9113.17
311.125	9107.44
311.191	9116.64
311.256	9111.92
311.322	9116.78
311.387	9095.31
311.453	9353.38
311.518	9331.43
311.584	9330.51
311.649	9336.24
311.715	9330.8
311.78	9333.16
311.846	9331.86
311.911	9338.65
311.976	9334.99
312.042	9315.35
312.107	9304.13
312.173	9295.22
312.238	9293.97
312.304	9297
312.369	9284.63
312.434	9268.98
312.5	9260.95
312.565	9227.77
312.631	9227.44
312.696	9216.32
312.761	9214.2
312.827	8944.48
312.892	8973.8
312.958	8973.94
313.023	8967.4
313.088	8962.39
313.154	8943.91
313.219	8931.92
313.284	8919.26
313.35	8912.33
313.415	8906.02
313.48	8900.58
313.546	8896.35
313.611	8899.67
313.676	8888.83
313.741	8878.87
313.807	8887.01
313.872	8891.63
313.937	8897.98
314.003	8908.43
314.068	8911.99
314.133	8920.51
314.198	8911.8
314.264	8893.5
314.329	8885.13
314.394	8880.07
314.459	8871.41
314.525	8890.71
314.59	8885.22
314.655	8870.69
314.72	8877.86
314.785	8885.13
314.851	8875.6
314.916	8861.25
314.981	8844.98
315.046	8834.59
315.111	8823.37
315.176	8810.86
315.242	8812.59
315.307	8806.14
315.372	8786.11
315.437	8773.12
315.502	8768.16
315.567	8780.05
315.632	8766.43
315.698	8766.09
315.763	8754.39
315.828	8745.68
315.893	8739.47
315.958	8739.47
316.023	8734.18
316.088	8712.47
316.153	8685.14
316.218	8678.3
316.283	8663.14
316.348	8650.15
316.413	8650.1
316.479	8633.55
316.544	8601.02
316.609	8569.64
316.674	8538.56
316.739	8503.53
316.804	8474.18
316.869	8434.29
316.934	8393.96
316.999	8362.35
317.064	8309.82
317.129	8263.2
317.194	8231.49
317.259	8184.05
317.324	8132.53
317.389	8086.83
317.454	8049.5
317.518	8015.98
317.583	7986.87
317.648	7959.94
317.713	7916.75
317.778	7850.28
317.843	7825.22
317.908	7786.37
317.973	7745.63
318.038	7713.46
318.103	7676.25
318.168	7641.72
318.233	7611
318.297	7559.12
318.362	7522.73
318.427	7483.6
318.492	7458.56
318.557	7411.07
318.622	7384.24
318.687	7353.72
318.751	7312.35
318.816	7273.89
318.881	7236.79
318.946	7185.94
319.011	7142.88
319.075	7105.31
319.14	7067.79
319.205	7018.68
319.27	6984.33
319.335	6940.66
319.399	6894.92
319.464	6862.16
319.529	6809.86
319.594	6765.18
319.658	6737.9
319.723	6694.1
319.788	6665.48
319.853	6612.89
319.917	6582.93
319.982	6524.97
320.047	6489.77
320.112	6460.44
320.176	6413.82
320.241	6377.77
320.306	6344.6
320.37	6297.27
320.435	6262.9
320.5	6235.83
320.564	6196.58
320.629	6152.62
320.694	6120.09
320.758	6080.6
320.823	6041.73
320.888	6015.59
320.952	5971.02
321.017	5929.76
321.082	5890.14
321.146	5853.25
321.211	5822.03
321.275	5774.84
321.34	5734.81
321.405	5691.02
321.469	5645.62
321.534	5601.47
321.598	5552.81
321.663	5522.4
321.727	5491.87
321.792	5442.98
321.857	5400.17
321.921	5362.26
321.986	5322.35
322.05	5259.45
322.115	5224.76
322.179	5173.69
322.244	5117.17
322.308	5081.44
322.373	5032.34
322.437	4991.2
322.502	4961.02
322.566	4915.9
322.631	4881.71
322.695	4839.97
322.76	4793.25
322.824	4758.87
322.889	4715.28
322.953	4668.05
323.018	4599.7
323.082	4538.84
323.146	4490.58
323.211	4438.38
323.275	4389.87
323.34	4346.06
323.404	4313.45
323.468	4267.38
323.533	4230.47
323.597	4187.02
323.662	4136.24
323.726	4102.63
323.79	4056.31
323.855	3992.71
323.919	3942.81
323.983	3899.79
324.048	3833.04
324.112	3968.58
324.177	3836.83
324.241	3640.06
324.305	3446.25
324.37	3256.46
324.434	3071.58
324.498	3028.6
324.562	2979.97
324.627	2924.78
324.691	2868.87
324.755	2808.93
324.82	2731.89
324.884	2652.66
324.948	2580.77
325.012	2490.79
325.077	2368.86
