Data from 20250630_urea_2M_MAYP1162681_06-02-26-714.txt Node
Date: Tue Jul 01 06:02:26 BST 2025
User: adleo
Spectrometer: MAYP116268
Trigger mode: 0
Integration Time (sec): 1.000000E0
Scans to average: 1
Electric dark correction enabled: true
Nonlinearity correction enabled: true
Boxcar width: 10
XAxis mode: Wavelengths
Number of Pixels in Spectrum: 2068
>>>>>Begin Spectral Data<<<<<
179.565	1048.27
179.642	1095.67
179.718	1132.18
179.795	1162.96
179.871	1193.84
179.948	1206.7
180.024	1223.33
180.101	1242.77
180.177	1254.86
180.254	1273.97
180.33	1293.63
180.407	1334.07
180.483	1418.01
180.56	1496.02
180.636	1568.6
180.712	1556.39
180.789	1562.47
180.865	1574.06
180.942	1583.51
181.018	1595.24
181.095	1606.79
181.171	1609.16
181.248	1611.21
181.324	1625.7
181.4	1634.72
181.477	1642.47
181.553	1657.14
181.63	1677.19
181.706	1691.31
181.782	1699.76
181.859	1699.05
181.935	1704.23
182.011	1703.23
182.088	1718.05
182.164	1734.69
182.24	1747.71
182.317	1756.16
182.393	1756.07
182.469	1767
182.546	1779.07
182.622	1783.39
182.698	1780.54
182.775	1793.84
182.851	1805.25
182.927	1798.22
183.003	1792.56
183.08	1788.19
183.156	1795.18
183.232	1791.71
183.308	1782.72
183.385	1791.52
183.461	1807.39
183.537	1806.39
183.613	1816.89
183.69	1806.91
183.766	1798.17
183.842	1804.63
183.918	1810.19
183.995	1822.5
184.071	1828.35
184.147	1823.83
184.223	1813.81
184.299	1822.93
184.375	1812.19
184.452	1817.61
184.528	1867.86
184.604	1879.41
184.68	1888.58
184.756	1894.19
184.832	1897.71
184.908	1902.75
184.985	1899.52
185.061	1886.16
185.137	1896.33
185.213	1886.16
185.289	1890.53
185.365	1883.26
185.441	1881.69
185.517	1895.96
185.593	1894.06
185.669	1889.4
185.745	1898.29
185.822	1913.16
185.898	1909.12
185.974	1916.15
186.05	1910.35
186.126	1873.03
186.202	1865.38
186.278	1862.91
186.354	1856.35
186.43	1861.39
186.506	1859.2
186.582	1860.49
186.658	1863.43
186.734	1843.95
186.81	1847.7
186.886	1850.84
186.962	1863.2
187.038	1859.68
187.114	1849.36
187.19	1853.64
187.266	1845.51
187.341	1846.08
187.417	1837.95
187.493	1837.72
187.569	1840.9
187.645	1836.34
187.721	1825.78
187.797	1834.62
187.873	1837.71
187.949	1829.83
188.025	1825.55
188.101	1828.16
188.176	1831.39
188.252	1831.34
188.328	1840.94
188.404	1840.85
188.48	1833.96
188.556	1826.25
188.632	1825.78
188.707	1826.21
188.783	1824.88
188.859	1823.17
188.935	1813.33
189.011	1822.45
189.086	1814.56
189.162	1809
189.238	1807.48
189.314	1807.39
189.39	1801.21
189.465	1795.74
189.541	1814.47
189.617	1801.49
189.693	1797.93
189.768	1800.5
189.844	1823.56
189.92	1814.91
189.996	1819.86
190.071	1830.22
190.147	1830.55
190.223	1842.34
190.298	1834.69
190.374	1820.48
190.45	1828.93
190.526	1836.45
190.601	1829.84
190.677	1833.69
190.753	1857.94
190.828	1859.65
190.904	1875.48
190.98	1888.41
191.055	1896.83
191.131	1886.89
191.207	1902.72
191.282	1912.32
191.358	1904.95
191.433	1890.49
191.509	1903.23
191.585	1903.13
191.66	1906.75
191.736	1913.88
191.811	1904.32
191.887	1922.34
191.963	1944.73
192.038	1951.05
192.114	1952.95
192.189	1956.66
192.265	1950.91
192.34	1931.03
192.416	1932.22
192.491	1926.04
192.567	1926.7
192.642	1929.41
192.718	1928.42
192.793	1921.28
192.869	1915.58
192.944	1919.72
193.02	1925.75
193.095	1927.23
193.171	1930.6
193.246	1929.98
193.322	1928.8
193.397	1928.46
193.473	1911.54
193.548	1894.85
193.624	1899.46
193.699	1896.51
193.775	1910.68
193.85	1912.39
193.925	1919.86
194.001	1917.77
194.076	1908.12
194.152	1900.46
194.227	1894
194.302	1885.01
194.378	1884.92
194.453	1880.93
194.529	1889.2
194.604	1877.08
194.679	1873.61
194.755	1856.36
194.83	1864.63
194.905	1858.93
194.981	1865.97
195.056	1862.16
195.131	1869.34
195.207	1866.63
195.282	1856.22
195.357	1839.96
195.433	1857.26
195.508	1847.37
195.583	1854.03
195.659	1870.24
195.734	1877.9
195.809	1879.51
195.884	1890.06
195.96	1892.53
196.035	1906.37
196.11	1902.56
196.185	1912.36
196.261	1912.31
196.336	1939.17
196.411	1927.37
196.486	1934.36
196.561	1929.75
196.637	1934.64
196.712	1947.72
196.787	1950.34
196.862	1967.35
196.937	1975.06
197.013	1977.62
197.088	1984.76
197.163	2004.92
197.238	2021.25
197.313	2022.15
197.388	2031.66
197.464	2056.59
197.539	2065.53
197.614	2062.53
197.689	2073.8
197.764	2089.65
197.839	2111
197.914	2107.67
197.989	2127.22
198.065	2141.11
198.14	2183.99
198.215	2209.82
198.29	2223.05
198.365	2236.33
198.44	2244.08
198.515	2269.97
198.59	2283.91
198.665	2308.32
198.74	2313.04
198.815	2311.61
198.89	2328.93
198.965	2357.87
199.04	2356.16
199.115	2371.86
199.19	2408.99
199.265	2413.65
199.34	2423.22
199.415	2451.27
199.49	2472.35
199.565	2480.92
199.64	2501.63
199.715	2499.78
199.79	2507.16
199.865	2510.3
199.94	2508.68
200.015	2539.87
200.09	2544.92
200.165	2552.21
200.24	2558.78
200.315	2596.53
200.39	2608.48
200.464	2613.43
200.539	2617.34
200.614	2631.48
200.689	2651.77
200.764	2660.21
200.839	2673.2
200.914	2676.92
200.989	2668.2
201.063	2680.54
201.138	2667.69
201.213	2667.4
201.288	2650.3
201.363	2653.3
201.438	2656.3
201.512	2670.16
201.587	2654.01
201.662	2657.48
201.737	2668.63
201.812	2674.21
201.886	2642.41
201.961	2654.66
202.036	2646.8
202.111	2642.28
202.186	2616.48
202.26	2601.37
202.335	2577.6
202.41	2574.75
202.485	2557.75
202.559	2539.99
202.634	2514.09
202.709	2520.94
202.784	2503.37
202.858	2503.08
202.933	2489.61
203.008	2481.8
203.082	2463.76
203.157	2460.52
203.232	2419.97
203.306	2399.78
203.381	2376.35
203.456	2355.84
203.53	2333.83
203.605	2315.65
203.68	2295.03
203.754	2289.94
203.829	2276.57
203.904	2260.96
203.978	2249.01
204.053	2252.96
204.127	2241.97
204.202	2238.36
204.277	2224.41
204.351	2220.23
204.426	2211.42
204.5	2201.38
204.575	2169.94
204.65	2179.22
204.724	2171.65
204.799	2179.4
204.873	2174.83
204.948	2169.65
205.022	2161.47
205.097	2151.9
205.171	2164.74
205.246	2168.03
205.32	2164.03
205.395	2161.18
205.469	2153.52
205.544	2158
205.618	2142.39
205.693	2152.43
205.767	2143.54
205.842	2159.72
205.916	2153.01
205.991	2145.92
206.065	2150.54
206.14	2163.28
206.214	2158.56
206.289	2153.9
206.363	2168.55
206.438	2171.5
206.512	2178.02
206.586	2194.58
206.661	2203.43
206.735	2182.65
206.81	2185.17
206.884	2201.2
206.958	2191.78
207.033	2205.91
207.107	2214.95
207.181	2242.98
207.256	2237.18
207.33	2255.88
207.405	2266.97
207.479	2283.96
207.553	2292.38
207.628	2279.63
207.702	2293.34
207.776	2289.01
207.851	2291.91
207.925	2301.38
207.999	2297.86
208.073	2298.1
208.148	2299.96
208.222	2289.1
208.296	2315.64
208.371	2330.5
208.445	2341.59
208.519	2366.34
208.593	2375.52
208.668	2368.19
208.742	2373.34
208.816	2377.52
208.89	2390.33
208.965	2389.52
209.039	2397.33
209.113	2411.99
209.187	2430.12
209.261	2424.93
209.336	2442.12
209.41	2459.26
209.484	2462.4
209.558	2482.92
209.632	2494.78
209.707	2502.49
209.781	2520.24
209.855	2534.25
209.929	2549.64
210.003	2553.21
210.077	2555.93
210.151	2601.64
210.226	2636.85
210.3	2661.93
210.374	2681.35
210.448	2681.4
210.522	2690.02
210.596	2701.84
210.67	2711.89
210.744	2757.88
210.818	2788.16
210.892	2808.94
210.966	2803.7
211.041	2820.52
211.115	2819.71
211.189	2841.97
211.263	2865.03
211.337	2872.7
211.411	2890
211.485	2888
211.559	2899.91
211.633	2904.53
211.707	2876.77
211.781	2885.22
211.855	2852.9
211.929	2850.95
212.003	2839.61
212.077	2854.15
212.151	2864.07
212.225	2876.08
212.299	2869.07
212.373	2864.83
212.447	2868.26
212.52	2903.63
212.594	2912.21
212.668	2926.99
212.742	2922.31
212.816	2922.46
212.89	2929.94
212.964	2938.24
213.038	2950.93
213.112	2975.77
213.186	3001.99
213.26	2999.13
213.333	2974.62
213.407	2999.07
213.481	3022.57
213.555	3054.54
213.629	3064.37
213.703	3077.53
213.777	3097.04
213.85	3103.15
213.924	3157.79
213.998	3185.47
214.072	3208.33
214.146	3227.09
214.219	3257.48
214.293	3288.82
214.367	3323.9
214.441	3372.35
214.515	3405.34
214.588	3424.38
214.662	3438.75
214.736	3463.19
214.81	3511.99
214.883	3564.34
214.957	3605.39
215.031	3639.43
215.105	3674.46
215.178	3713.96
215.252	3759.49
215.326	3792.45
215.4	3836.34
215.473	3854.6
215.547	3892.99
215.621	3941.43
215.694	4002.86
215.768	4048.42
215.842	4099.62
215.915	4153.47
215.989	4195.8
216.063	4251.68
216.136	4322.47
216.21	4390.77
216.284	4472.31
216.357	4550.26
216.431	4621.51
216.504	4702.17
216.578	4799.69
216.652	4881.1
216.725	4965.16
216.799	5051.05
216.873	5141.05
216.946	5228.13
217.02	5308.17
217.093	5392.56
217.167	5453.77
217.24	5523.71
217.314	5605.48
217.387	5682.45
217.461	5765.32
217.535	5859.94
217.608	5933.95
217.682	6020.07
217.755	6119.68
217.829	6202.67
217.902	6292.62
217.976	6378.67
218.049	6462.45
218.123	6539.48
218.196	6638.92
218.27	6726.05
218.343	6807.33
218.417	6899.23
218.49	6991.76
218.563	7093.47
218.637	7193.2
218.71	7314.79
218.784	7419.09
218.857	7525.9
218.931	7634.29
219.004	7731.74
219.077	7834.51
219.151	7937.85
219.224	8031.25
219.298	8121.53
219.371	8227.09
219.444	8311.18
219.518	8406.18
219.591	8504.1
219.665	8624.71
219.738	8716.24
219.811	8795.84
219.885	8893.21
219.958	8986.06
220.031	9077.28
220.105	9169.86
220.178	9258.5
220.251	9340.51
220.325	9436.67
220.398	9527.98
220.471	9617.4
220.544	9717.48
220.618	9802.15
220.691	9894.44
220.764	9984.51
220.838	10076.17
220.911	10152.91
220.984	10260.39
221.057	10361.07
221.131	10441.19
221.204	10501.56
221.277	10598.16
221.35	10714.57
221.424	10797.4
221.497	10889.82
221.57	10969.66
221.643	11059.39
221.716	11144.3
221.79	11220.2
221.863	11296.88
221.936	11379.87
222.009	11462.67
222.082	11544.41
222.155	11616.27
222.229	11706.93
222.302	11794.36
222.375	11868.25
222.448	11953.18
222.521	12028.9
222.594	12098.41
222.667	12171.38
222.74	12243.39
222.814	12325.39
222.887	12393.93
222.96	12480.7
223.033	12557.01
223.106	12636.3
223.179	12716.9
223.252	12788.82
223.325	12858.19
223.398	12935.37
223.471	12999.1
223.544	13065.62
223.617	13136.48
223.69	13213.76
223.763	13277.77
223.837	13351.77
223.91	13420.03
223.983	13473.01
224.056	13515.53
224.129	13585.04
224.202	13662.17
224.275	13726.24
224.348	13762.78
224.42	13812.14
224.493	13850.85
224.566	13907.4
224.639	13971.94
224.712	14020.54
224.785	14075.3
224.858	14138.64
224.931	14191.57
225.004	14240.11
225.077	14297.67
225.15	14323.37
225.223	14378.17
225.296	14443.97
225.369	14475.21
225.442	14530.5
225.514	14587.96
225.587	14661.52
225.66	14723.37
225.733	14781.45
225.806	14847.78
225.879	14914.98
225.952	14958.17
226.025	15027.1
226.097	15096.75
226.17	15149.82
226.243	15181.25
226.316	15238.71
226.389	15284.55
226.461	15337.43
226.534	15400.76
226.607	15454.7
226.68	15538.62
226.753	15589.13
226.825	15622.25
226.898	15690.55
226.971	15730.84
227.044	15778.08
227.117	15826.23
227.189	15873.71
227.262	15922.58
227.335	15971.65
227.407	16009.58
227.48	16068.72
227.553	16118.66
227.626	16147.67
227.698	16185.51
227.771	16247.25
227.844	16287.25
227.916	16340.95
227.989	16377.67
228.062	16417.43
228.134	16482.4
228.207	16518.65
228.28	16556.48
228.352	16605.4
228.425	16647.33
228.498	16712.06
228.57	16760.25
228.643	16813.85
228.716	16845.27
228.788	16878.38
228.861	16908.16
228.934	16960.21
229.006	16997.57
229.079	17034.87
229.151	17072.84
229.224	17105.76
229.296	17149.91
229.369	17208.61
229.442	17255.5
229.514	17286.44
229.587	17336.8
229.659	17353.33
229.732	17393.48
229.804	17439.74
229.877	17493.86
229.949	17536.7
230.022	17588.75
230.094	17622
230.167	17653.52
230.239	17685.14
230.312	17726.82
230.384	17781.04
230.457	17819.49
230.529	17852.22
230.602	17882.53
230.674	17921.76
230.747	17966.96
230.819	18002.67
230.892	18005.95
230.964	18037.08
231.037	18076.64
231.109	18102.33
231.181	18138.96
231.254	18152.69
231.326	18177.03
231.399	18206.76
231.471	18228.69
231.544	18229.07
231.616	18255.82
231.688	18290.13
231.761	18315.38
231.833	18338.08
231.905	18346.85
231.978	18378.65
232.05	18399.62
232.122	18427.76
232.195	18451.42
232.267	18494.36
232.339	18518.31
232.412	18563.27
232.484	18584.23
232.556	18609.53
232.629	18657.92
232.701	18689.34
232.773	18722.73
232.846	18741.57
232.918	18756.56
232.99	18774.73
233.062	18802.29
233.135	18829.91
233.207	18831.54
233.279	18853.86
233.351	18876.36
233.424	18888.41
233.496	18887.83
233.568	18922.38
233.64	18927.97
233.713	18931.88
233.785	18928.84
233.857	18939.97
233.929	18932.21
234.001	18950.19
234.074	18959.49
234.146	18948.36
234.218	18960.84
234.29	18956.16
234.362	18957.03
234.434	18949.32
234.507	18954.77
234.579	18947.15
234.651	18947.49
234.723	18960.64
234.795	18971.78
234.867	18978.96
234.939	18998.91
235.012	19001.56
235.084	19004.98
235.156	19014.81
235.228	19021.65
235.3	19018.62
235.372	19025.27
235.444	19041.7
235.516	19035.39
235.588	19041.51
235.66	19036.54
235.732	19014.33
235.804	19068.3
235.876	19073.7
235.948	19092.25
236.02	19085.12
236.092	19080.64
236.164	19084.01
236.236	19077.65
236.308	19067.05
236.38	19056.54
236.452	19043.92
236.524	19052.25
236.596	19063.05
236.668	19070.61
236.74	19069.36
236.812	19072.06
236.884	19068.59
236.956	19062.81
237.028	19033.07
237.1	19017.51
237.172	19034.38
237.244	19051.1
237.316	19007.44
237.388	18996.69
237.46	18965.22
237.532	18978.33
237.604	18966.96
237.675	18970.04
237.747	18961.22
237.819	18952.6
237.891	18939.54
237.963	18924.65
238.035	18908.55
238.107	18863.69
238.178	18857.95
238.25	18831.21
238.322	18834.53
238.394	18807.79
238.466	18783.79
238.538	18783.64
238.609	18769.28
238.681	18726.11
238.753	18699.94
238.825	18689.1
238.897	18679.6
238.968	18685.38
239.04	18652.42
239.112	18656.37
239.184	18617.82
239.255	18602.93
239.327	18582.55
239.399	18567.66
239.471	18558.65
239.542	18539.8
239.614	18524.67
239.686	18484.38
239.758	18482.51
239.829	18452.48
239.901	18449.59
239.973	18427.95
240.044	18416.48
240.116	18400
240.188	18383.76
240.259	18359.52
240.331	18337.89
240.403	18316.44
240.474	18277.79
240.546	18249.22
240.618	18221.7
240.689	18199.63
240.761	18175.58
240.833	18168.06
240.904	18139.53
240.976	18108.5
241.048	18089.8
241.119	18081.08
241.191	18062.24
241.262	18052.45
241.334	18022.77
241.405	17986.77
241.477	17967.25
241.549	17937.86
241.62	17912.8
241.692	17890.05
241.763	17875.59
241.835	17837.81
241.906	17812.8
241.978	17779.31
242.049	17760.75
242.121	17736.56
242.192	17723.64
242.264	17680.37
242.335	17636.8
242.407	17619.5
242.478	17590.1
242.55	17560.8
242.621	17531.36
242.693	17496.32
242.764	17463.12
242.836	17434.49
242.907	17409.91
242.979	17383.07
243.05	17360.51
243.122	17342.15
243.193	17306.06
243.264	17258.3
243.336	17238.59
243.407	17216.51
243.479	17214.63
243.55	17193.81
243.622	17163.45
243.693	17134.15
243.764	17123.55
243.836	17089.38
243.907	17048.89
243.978	17021.18
244.05	16997.95
244.121	16945.66
244.192	16922.96
244.264	16877.8
244.335	16850.28
244.407	16809.41
244.478	16787.63
244.549	16750.37
244.62	16705.07
244.692	16685.89
244.763	16669.02
244.834	16627.91
244.906	16597.21
244.977	16560.1
245.048	16549.83
245.119	16519.76
245.191	16487.8
245.262	16442.98
245.333	16434.79
245.405	16409.44
245.476	16387.17
245.547	16360.9
245.618	16339.26
245.689	16313.52
245.761	16286.05
245.832	16261.57
245.903	16244.7
245.974	16215.1
246.045	16187.77
246.117	16177.85
246.188	16131.33
246.259	16084.63
246.33	16054.26
246.401	16014.98
246.473	15966.01
246.544	15924.51
246.615	15903.5
246.686	15862
246.757	15845.66
246.828	15795.39
246.899	15785.51
246.97	15741.74
247.042	15702.02
247.113	15682.36
247.184	15665.54
247.255	15630.93
247.326	15594.68
247.397	15558.96
247.468	15523.34
247.539	15497.85
247.61	15451.09
247.681	15429.98
247.752	15415.81
247.823	15384.28
247.894	15363.46
247.965	15327.55
248.037	15287.3
248.108	15239.1
248.179	15211.14
248.25	15173.49
248.321	15154.55
248.392	15118.3
248.463	15109.29
248.534	15082.3
248.605	15072.32
248.675	15035.01
248.746	15010.76
248.817	14993.31
248.888	14975.86
248.959	14939.95
249.03	14916.86
249.101	14894.4
249.172	14869.77
249.243	14824.5
249.314	14808.36
249.385	14779.05
249.456	14760.58
249.527	14729.83
249.598	14717.01
249.669	14689.43
249.739	14667.5
249.81	14645.09
249.881	14602.38
249.952	14573.02
250.023	14541.11
250.094	14501
250.165	14470.06
250.235	14442.14
250.306	14413.08
250.377	14367.57
250.448	14342.22
250.519	14289.82
250.59	14271.59
250.66	14239.87
250.731	14225.46
250.802	14195.77
250.873	14168.43
250.944	14146.69
251.014	14117.77
251.085	14107.36
251.156	14083.06
251.227	14070
251.297	14058.09
251.368	14045.46
251.439	14026.32
251.51	14001.64
251.58	13959.85
251.651	13926.68
251.722	13910.87
251.792	13872.54
251.863	13849.02
251.934	13841.21
252.005	13849.69
252.075	13829.06
252.146	13810.79
252.217	13802.16
252.287	13792.18
252.358	13764.9
252.429	13758.39
252.499	13725.27
252.57	13694.28
252.641	13687.53
252.711	13652.63
252.782	13605.72
252.852	13595.55
252.923	13565.95
252.994	13551.3
253.064	13539.24
253.135	13518.95
253.205	13492.92
253.276	13483.28
253.347	13474.21
253.417	13439.12
253.488	13407.5
253.558	13374.28
253.629	13350.61
253.699	13325.11
253.77	13306.12
253.841	13287.61
253.911	13260.13
253.982	13243.79
254.052	13225.37
254.123	13200.55
254.193	13191.48
254.264	13210.33
254.334	13170.08
254.405	13135.23
254.475	13102.93
254.546	13073.14
254.616	13053.28
254.687	13034.67
254.757	13017.99
254.827	12996.68
254.898	12983.04
254.968	12956.96
255.039	12931.56
255.109	12917.96
255.18	12884.99
255.25	12834.23
255.321	12817.45
255.391	12781.39
255.461	12778.65
255.532	12741.63
255.602	12717.67
255.673	12676.84
255.743	12644.1
255.813	12607.9
255.884	12601.35
255.954	12586.79
256.024	12589.97
256.095	12571.03
256.165	12535.98
256.235	12513.23
256.306	12476.93
256.376	12466.66
256.446	12455.91
256.517	12436.87
256.587	12418.07
256.657	12404.05
256.728	12391.9
256.798	12369.82
256.868	12347.7
256.938	12312.32
257.009	12298.43
257.079	12280.02
257.149	12281.95
257.219	12235.14
257.29	12227.57
257.36	12191.62
257.43	12186.65
257.5	12143.12
257.571	12120.95
257.641	12112.03
257.711	12084.8
257.781	12074.92
257.852	12054.96
257.922	12022.47
257.992	12006.04
258.062	11986.08
258.132	11973.89
258.202	11951.81
258.273	11925.83
258.343	11919.56
258.413	11898.74
258.483	11876.47
258.553	11843.22
258.623	11808.27
258.693	11798.53
258.764	11786.48
258.834	11780.94
258.904	11758.62
258.974	11734.48
259.044	11710.81
259.114	11686.86
259.184	11669.75
259.254	11655.43
259.324	11619.72
259.394	11605.3
259.464	11602.17
259.535	11580
259.605	11554.55
259.675	11527.22
259.745	11521.63
259.815	11499.61
259.885	11475.8
259.955	11478.35
260.025	11454.21
260.095	11436.81
260.165	11418.21
260.235	11409.29
260.305	11384.71
260.375	11351.41
260.445	11353.91
260.515	11351.89
260.585	11347.6
260.655	11326.39
260.725	11317.48
260.795	11308.08
260.865	11304.75
260.934	11280.03
261.004	11268.99
261.074	11252.75
261.144	11249.28
261.214	11235.45
261.284	11215.6
261.354	11208.61
261.424	11187.3
261.494	11189.76
261.564	11179.11
261.634	11179.79
261.703	11145.09
261.773	11133.52
261.843	11122.58
261.913	11098.58
261.983	11068.13
262.053	11058.59
262.123	11041.29
262.192	11005.29
262.262	10988.52
262.332	10954.4
262.402	10942.98
262.472	10922.06
262.541	10886.21
262.611	10884.38
262.681	10857.93
262.751	10850.99
262.821	10830.08
262.89	10795.38
262.96	10783.91
263.03	10781.4
263.1	10760.15
263.169	10750.32
263.239	10735.82
263.309	10738.9
263.379	10728.69
263.448	10716.55
263.518	10701.75
263.588	10687.78
263.657	10694.09
263.727	10688.07
263.797	10680.5
263.867	10658.14
263.936	10640.65
264.006	10638.73
264.076	10620.22
264.145	10604.71
264.215	10579.65
264.285	10577.92
264.354	10553.64
264.424	10526.85
264.494	10497.22
264.563	10475.63
264.633	10480.4
264.702	10468.69
264.772	10430.19
264.842	10409.96
264.911	10394.06
264.981	10364.24
265.05	10351.81
265.12	10326.66
265.19	10314.23
265.259	10306.23
265.329	10302.66
265.398	10282.86
265.468	10290.38
265.537	10265.18
265.607	10259.06
265.676	10253.96
265.746	10239.79
265.815	10232.71
265.885	10218.02
265.955	10197.5
266.024	10182.66
266.094	10144.07
266.163	10141.61
266.232	10142.24
266.302	10127.64
266.371	10116.95
266.441	10106.98
266.51	10099.46
266.58	10082.84
266.649	10057.89
266.719	10053.02
266.788	10038.72
266.858	10037.51
266.927	10003.65
266.996	9997.24
267.066	9981.82
267.135	9960.05
267.205	9953.36
267.274	9943.24
267.343	9943.67
267.413	9927.59
267.482	9923.73
267.552	9922.67
267.621	9893.34
267.69	9865.02
267.76	9851.05
267.829	9841.32
267.898	9831.54
267.968	9804.76
268.037	9801.29
268.106	9798.16
268.176	9769.55
268.245	9753.7
268.314	9739.11
268.384	9733.86
268.453	9723.75
268.522	9711.75
268.592	9707.23
268.661	9685.41
268.73	9677.36
268.799	9654.44
268.869	9659.98
268.938	9632.33
269.007	9613.07
269.076	9600.21
269.146	9602.19
269.215	9606.52
269.284	9613.26
269.353	9587.06
269.422	9577.82
269.492	9556.1
269.561	9520.66
269.63	9512.85
269.699	9500.53
269.768	9491.13
269.838	9487.04
269.907	9485.11
269.976	9464.5
270.045	9441.34
270.114	9435.08
270.183	9420.97
270.253	9414.47
270.322	9387.02
270.391	9377.68
270.46	9380
270.529	9383.41
270.598	9375.85
270.667	9358.28
270.736	9333.52
270.806	9336.99
270.875	9338.72
270.944	9329.62
271.013	9349.17
271.082	9342.67
271.151	9331.64
271.22	9306.94
271.289	9292.84
271.358	9273.14
271.427	9273.57
271.496	9261.49
271.565	9249.26
271.634	9238.57
271.703	9242.38
271.772	9242.62
271.841	9236.07
271.91	9217.19
271.979	9202.94
272.048	9179.4
272.117	9171.5
272.186	9155.66
272.255	9153.59
272.324	9146.22
272.393	9138.14
272.462	9114.35
272.531	9109.01
272.6	9096.78
272.669	9100.39
272.738	9083.92
272.807	9076.51
272.876	9054.6
272.945	9080.31
273.013	9078.92
273.082	9080.7
273.151	9056.24
273.22	9050.18
273.289	9039.59
273.358	9043.77
273.427	9032.65
273.496	9031.64
273.564	9025.91
273.633	9027.98
273.702	9002.37
273.771	8993.37
273.84	8990.72
273.909	8987.69
273.977	8977.92
274.046	8972.33
274.115	8971.27
274.184	8955.1
274.253	8945.62
274.322	8950.14
274.39	8916.1
274.459	8902
274.528	8876.39
274.597	8869.03
274.665	8869.27
274.734	8871.43
274.803	8861.85
274.872	8854.68
274.94	8839.9
275.009	8864.99
275.078	8847.32
275.147	8842.27
275.215	8835.97
275.284	8840.2
275.353	8834.71
275.421	8815.08
275.49	8823.69
275.559	8815.03
275.627	8815.08
275.696	8810.98
275.765	8813.1
275.833	8801.6
275.902	8799.29
275.971	8811.9
276.039	8831.78
276.108	8830
276.177	8830.48
276.245	8818.45
276.314	8810.6
276.383	8821.05
276.451	8791.29
276.52	8795.82
276.588	8807.42
276.657	8806.69
276.725	8796.54
276.794	8796.06
276.863	8802.36
276.931	8779.69
277	8784.5
277.068	8791.05
277.137	8805.54
277.205	8801.06
277.274	8821.66
277.342	8830.37
277.411	8811.36
277.48	8790.18
277.548	8785.9
277.617	8783.97
277.685	8777.33
277.754	8785.7
277.822	8775.36
277.89	8787.1
277.959	8779.26
278.027	8767.27
278.096	8755.87
278.164	8774.54
278.233	8765.69
278.301	8755.39
278.37	8759.91
278.438	8748.12
278.507	8750.05
278.575	8726.08
278.643	8721.84
278.712	8703.02
278.78	8691.66
278.849	8698.35
278.917	8706.92
278.985	8696.52
279.054	8693.34
279.122	8705.42
279.191	8699.07
279.259	8689.4
279.327	8660.42
279.396	8677.03
279.464	8668.46
279.532	8678.18
279.601	8679.82
279.669	8676.16
279.737	8685.88
279.806	8690.99
279.874	8696.57
279.942	8692.43
280.011	8688.34
280.079	8691.66
280.147	8705.18
280.215	8706.48
280.284	8703.4
280.352	8694.69
280.42	8699.36
280.488	8689.64
280.557	8678.62
280.625	8685.26
280.693	8688.15
280.761	8695.9
280.83	8677.85
280.898	8690.84
280.966	8669.23
281.034	8636.02
281.102	8620.67
281.171	8616.77
281.239	8623.03
281.307	8617.2
281.375	8602.72
281.443	8622.45
281.512	8615.04
281.58	8621.35
281.648	8606.43
281.716	8604.26
281.784	8601.09
281.852	8598.1
281.92	8603.01
281.989	8615.38
282.057	8594.4
282.125	8634.74
282.193	8635.02
282.261	8633.97
282.329	8626.84
282.397	8631.94
282.465	8636.08
282.533	8652.68
282.601	8644.6
282.67	8621.26
282.738	8618.8
282.806	8629.92
282.874	8619.28
282.942	8621.11
283.01	8609.51
283.078	8613.65
283.146	8613.84
283.214	8617.21
283.282	8614.27
283.35	8615.09
283.418	8606.19
283.486	8613.55
283.554	8574.12
283.622	8567.53
283.69	8571.81
283.758	8566.38
283.826	8574.6
283.894	8581.15
283.962	8594.58
284.03	8606.66
284.098	8609.59
284.165	8596.12
284.233	8597.9
284.301	8593.91
284.369	8592.51
284.437	8591.93
284.505	8589.19
284.573	8604.25
284.641	8590.06
284.709	8599.06
284.777	8587.8
284.845	8594.82
284.912	8594.82
284.98	8599.59
285.048	8596.7
285.116	8597.47
285.184	8611.28
285.252	8600.84
285.319	8589
285.387	8580.29
285.455	8559.74
285.523	8565.42
285.591	8564.99
285.659	8564.84
285.726	8570.09
285.794	8555.07
285.862	8542.9
285.93	8543.19
285.997	8533.47
286.065	8538.76
286.133	8523.55
286.201	8523.36
286.269	8504.93
286.336	8501.85
286.404	8491.12
286.472	8500.64
286.539	8479.38
286.607	8459.93
286.675	8466.91
286.743	8468.93
286.81	8463.64
286.878	8479.61
286.946	8473.84
287.013	8470.33
287.081	8471.77
287.149	8458.15
287.216	8475.33
287.284	8480.63
287.352	8480.77
287.419	8480.77
287.487	8492.56
287.555	8501.9
287.622	8497.9
287.69	8503.58
287.758	8513.06
287.825	8516.81
287.893	8502.23
287.96	8507.28
288.028	8521.87
288.096	8525.67
288.163	8526.73
288.231	8518.21
288.298	8519.8
288.366	8528.6
288.433	8532.6
288.501	8514.89
288.569	8525.81
288.636	8520.18
288.704	8528.46
288.771	8531.68
288.839	8521.53
288.906	8511.57
288.974	8520.18
289.041	8518.45
289.109	8515.13
289.176	8524.04
289.244	8522.11
289.311	8538.91
289.379	8551.37
289.446	8552.91
289.514	8554.55
289.581	8557.39
289.649	8556.81
289.716	8555.85
289.783	8548.34
289.851	8563.06
289.918	8573.55
289.986	8583.18
290.053	8587.51
290.121	8582.26
290.188	8584.24
290.255	8609.55
290.323	8609.94
290.39	8606.13
290.458	8617.01
290.525	8621.68
290.592	8614.31
290.66	8622.25
290.727	8614.7
290.794	8621.29
290.862	8617.97
290.929	8615.47
290.996	8615.13
291.064	8622.92
291.131	8633.13
291.198	8645.83
291.266	8645.83
291.333	8649.44
291.4	8649.06
291.468	8662.82
291.535	8660.47
291.602	8662.92
291.669	8661.52
291.737	8663.21
291.804	8655.08
291.871	8669.13
291.938	8680.49
292.006	8706.15
292.073	8716.01
292.14	8720.15
292.207	8716.3
292.275	8715.34
292.342	8728.86
292.409	8753.65
292.476	8778.15
292.543	8773.72
292.611	8772.43
292.678	8789.22
292.745	8811.41
292.812	8821.71
292.879	8820.85
292.946	8829.37
293.014	8847.85
293.081	8849.05
293.148	8862.34
293.215	8880.87
293.282	8879.38
293.349	8886.98
293.416	8869.07
293.484	8881.3
293.551	8895.45
293.618	8912.44
293.685	8944.7
293.752	8935.84
293.819	8935.07
293.886	8928.86
293.953	8936.27
294.02	8953.31
294.087	8964.19
294.154	8955.82
294.221	8969.2
294.288	8974.11
294.356	8992.65
294.423	8992.31
294.49	8991.49
294.557	9006.27
294.624	8996.64
294.691	9009.06
294.758	9008.87
294.825	9014.84
294.892	9006.32
294.959	9008.82
295.026	9016.24
295.093	9005.16
295.16	9010.12
295.226	9008.19
295.293	9030.25
295.36	9030.73
295.427	9037.42
295.494	9039.54
295.561	9047.05
295.628	9069.54
295.695	9079.94
295.762	9081.86
295.829	9094.28
295.896	9106.99
295.963	9112.53
296.03	9117.06
296.096	9125.77
296.163	9136.7
296.23	9152.44
296.297	9166.84
296.364	9168.23
296.431	9172.76
296.498	9172.95
296.564	9193.75
296.631	9197.12
296.698	9182.53
296.765	9200.68
296.832	9194.56
296.899	9182.86
296.965	9198.13
297.032	9174.48
297.099	9188.16
297.166	9200.53
297.233	9194.66
297.299	9195.14
297.366	9191.72
297.433	9203.23
297.5	9212.66
297.566	9212.57
297.633	9211.27
297.7	9215.55
297.767	9214.54
297.833	9223.5
297.9	9224.37
297.967	9209.68
298.033	9222.59
298.1	9247.19
298.167	9236.21
298.234	9236.31
298.3	9252.25
298.367	9250.22
298.434	9262.17
298.5	9255.67
298.567	9242.33
298.634	9245.41
298.7	9254.61
298.767	9259.9
298.834	9271.46
298.9	9266.45
298.967	9267.32
299.033	9276.18
299.1	9290.48
299.167	9303.96
299.233	9303.77
299.3	9315.13
299.366	9336.84
299.433	9345.9
299.5	9327.36
299.566	9339.15
299.633	9357.79
299.699	9362.17
299.766	9356.78
299.832	9357.65
299.899	9368.63
299.965	9384.13
300.032	9380.76
300.099	9390.54
300.165	9395.93
300.232	9399.54
300.298	9397.81
300.365	9412.73
300.431	9418.95
300.498	9410.09
300.564	9419.23
300.631	9428.14
300.697	9443.02
300.763	9443.94
300.83	9443.7
300.896	9460.17
300.963	9469.36
301.029	9472.45
301.096	9479.33
301.162	9496.14
301.229	9495.42
301.295	9475.53
301.361	9480.34
301.428	9481.36
301.494	9468.21
301.561	9472.11
301.627	9470.52
301.693	9472.69
301.76	9472.59
301.826	9464.12
301.892	9472.83
301.959	9476.59
302.025	9468.5
302.092	9460.6
302.158	9469.7
302.224	9477.36
302.291	9460.07
302.357	9453.96
302.423	9450.59
302.49	9441.68
302.556	9446.97
302.622	9443.41
302.688	9457.18
302.755	9462.53
302.821	9477.74
302.887	9484.53
302.954	9478.51
303.02	9487.47
303.086	9494.21
303.152	9487.62
303.219	9485.3
303.285	9490.41
303.351	9498.64
303.417	9497.3
303.483	9490.65
303.55	9477.17
303.616	9474.33
303.682	9476.4
303.748	9469.32
303.815	9480.59
303.881	9492.29
303.947	9479
304.013	9481.74
304.079	9477.41
304.145	9462.29
304.212	9452.46
304.278	9445.68
304.344	9438.6
304.41	9423.62
304.476	9417.46
304.542	9421.41
304.608	9425.26
304.674	9414.9
304.741	9406.67
304.807	9411.92
304.873	9418.08
304.939	9431.76
305.005	9408.84
305.071	9412.06
305.137	9416.49
305.203	9392.7
305.269	9387.55
305.335	9396.7
305.401	9391.4
305.467	9390.87
305.533	9402.28
305.599	9411.77
305.666	9422.6
305.732	9429.39
305.798	9438.3
305.864	9456.6
305.93	9456.27
305.996	9458.82
306.062	9460.89
306.128	9457.52
306.194	9450.87
306.259	9449.33
306.325	9443.5
306.391	9450
306.457	9451.98
306.523	9455.3
306.589	9475.14
306.655	9464.69
306.721	9450
306.787	9440.62
306.853	9455.88
306.919	9435.27
306.985	9423.19
307.051	9410.14
307.117	9403.15
307.183	9402.19
307.248	9378.69
307.314	9383.46
307.38	9380.14
307.446	9373.44
307.512	9367.81
307.578	9367.52
307.644	9360.15
307.709	9356.88
307.775	9360.2
307.841	9358.75
307.907	9355.91
307.973	9336.8
308.039	9340.02
308.104	9342.86
308.17	9340.07
308.236	9324.23
308.302	9324.66
308.368	9320.28
308.433	9321.77
308.499	9316.62
308.565	9296.25
308.631	9297.12
308.696	9272.42
308.762	9260.86
308.828	9262.79
308.894	9237.56
308.959	9219.79
309.025	9212.57
309.091	9210.21
309.156	9201.3
309.222	9197.26
309.288	9183.92
309.354	9162.74
309.419	9162.35
309.485	9149.79
309.551	9157.49
309.616	9139.68
309.682	9135.34
309.748	9119.99
309.813	9113.78
309.879	9104
309.945	9096.06
310.01	9087.97
310.076	9092.93
310.141	9085.66
310.207	9075.93
310.273	9079.01
310.338	9082.43
310.404	9066.26
310.469	9056.29
310.535	9047.05
310.601	9027.12
310.666	9031.16
310.732	9039.78
310.797	9022.54
310.863	9014.65
310.928	9008.15
310.994	9014.26
311.059	9015.27
311.125	9016.47
311.191	9021.63
311.256	9012.34
311.322	9027.84
311.387	9008.77
311.453	9261.83
311.518	9239.3
311.584	9235.31
311.649	9243.64
311.715	9228.42
311.78	9234.15
311.846	9215.86
311.911	9217.3
311.976	9222.07
312.042	9209.12
312.107	9197.04
312.173	9185.68
312.238	9181.1
312.304	9173.11
312.369	9158
312.434	9142.3
312.5	9137.97
312.565	9108.56
312.631	9116.45
312.696	9097.48
312.761	9096.09
312.827	8833.07
312.892	8872.16
312.958	8865.95
313.023	8858.87
313.088	8854.3
313.154	8842.36
313.219	8833.99
313.284	8828.4
313.35	8820.46
313.415	8811.27
313.48	8803.23
313.546	8811.08
313.611	8815.21
313.676	8806.89
313.741	8803.37
313.807	8813.24
313.872	8819.74
313.937	8829.8
314.003	8833.79
314.068	8836.3
314.133	8844.86
314.198	8832.25
314.264	8813.04
314.329	8803.61
314.394	8796.97
314.459	8798.65
314.525	8809.24
314.59	8804.57
314.655	8792.97
314.72	8794.42
314.785	8797.4
314.851	8796.92
314.916	8782
314.981	8771.5
315.046	8759.23
315.111	8746.09
315.176	8733.67
315.242	8731.46
315.307	8724.05
315.372	8710.14
315.437	8701.04
315.502	8690.35
315.567	8698.97
315.632	8682.85
315.698	8679.86
315.763	8672.21
315.828	8657.92
315.893	8657.43
315.958	8656.71
316.023	8647.14
316.088	8629.28
316.153	8604.59
316.218	8594.15
316.283	8566.53
316.348	8546.9
316.413	8543.73
316.479	8526.69
316.544	8493.16
316.609	8465.29
316.674	8434.84
316.739	8397.07
316.804	8363.29
316.869	8330.14
316.934	8291.74
316.999	8257.44
317.064	8202.12
317.129	8158.15
317.194	8128.33
317.259	8076.08
317.324	8026.54
317.389	7982.96
317.454	7944.67
317.518	7909.08
317.583	7880.56
317.648	7855.31
317.713	7823.13
317.778	7764.94
317.843	7734.45
317.908	7691.33
317.973	7646.46
318.038	7610.45
318.103	7573.96
318.168	7543.86
318.233	7513.81
318.297	7462.37
318.362	7426.65
318.427	7397.87
318.492	7374.55
318.557	7325.58
318.622	7294.04
318.687	7265.98
318.751	7220.91
318.816	7187.08
318.881	7154.16
318.946	7103.6
319.011	7064.1
319.075	7019.47
319.14	6983.49
319.205	6941.59
319.27	6911.52
319.335	6866.66
319.399	6824.63
319.464	6792.4
319.529	6735.92
319.594	6692.45
319.658	6661.38
319.723	6619.74
319.788	6583.01
319.853	6526.1
319.917	6496.1
319.982	6446.64
320.047	6408.33
320.112	6384.9
320.176	6331.91
320.241	6296.53
320.306	6259.28
320.37	6219.35
320.435	6189.21
320.5	6161.71
320.564	6121.73
320.629	6081
320.694	6048.42
320.758	6012.68
320.823	5968.35
320.888	5941.78
320.952	5892.61
321.017	5852.56
321.082	5809.25
321.146	5775.92
321.211	5746.67
321.275	5703.9
321.34	5658.11
321.405	5615.44
321.469	5567.98
321.534	5527
321.598	5476.72
321.663	5447.47
321.727	5411.38
321.792	5358.99
321.857	5311.06
321.921	5269.9
321.986	5225.3
322.05	5172.79
322.115	5131.83
322.179	5091.88
322.244	5035.95
322.308	5001.9
322.373	4951.28
322.437	4910.53
322.502	4879.63
322.566	4829.26
322.631	4790.15
322.695	4753.48
322.76	4707.3
322.824	4671.25
322.889	4630.11
322.953	4583.46
323.018	4523.49
323.082	4463.5
323.146	4411.32
323.211	4360.62
323.275	4313.6
323.34	4273.43
323.404	4235.71
323.468	4192.18
323.533	4144.37
323.597	4099.46
323.662	4046.54
323.726	4015.23
323.79	3969.25
323.855	3904.9
323.919	3860.85
323.983	3816.7
324.048	3750.47
324.112	3871.97
324.177	3742.76
324.241	3548.24
324.305	3357.54
324.37	3164.6
324.434	2982.59
324.498	2942.46
324.562	2893.79
324.627	2838.64
324.691	2780.14
324.755	2716.27
324.82	2640.27
324.884	2567.46
324.948	2499.17
325.012	2412.75
325.077	2291.91
