Data from 20250630_urea_2M_MAYP1162681_03-02-27-587.txt Node
Date: Tue Jul 01 03:02:27 BST 2025
User: adleo
Spectrometer: MAYP116268
Trigger mode: 0
Integration Time (sec): 1.000000E0
Scans to average: 1
Electric dark correction enabled: true
Nonlinearity correction enabled: true
Boxcar width: 10
XAxis mode: Wavelengths
Number of Pixels in Spectrum: 2068
>>>>>Begin Spectral Data<<<<<
179.565	1062.32
179.642	1110.88
179.718	1150.05
179.795	1185.54
179.871	1214.65
179.948	1229.45
180.024	1245.21
180.101	1268.31
180.177	1280.42
180.254	1301.64
180.33	1323.03
180.407	1365.98
180.483	1452.26
180.56	1530.31
180.636	1606.03
180.712	1593.58
180.789	1601.99
180.865	1613.39
180.942	1621.51
181.018	1631.15
181.095	1642.7
181.171	1646.12
181.248	1647.07
181.324	1660.47
181.4	1664.65
181.477	1674.44
181.553	1687.41
181.63	1708.69
181.706	1718.48
181.782	1724.27
181.859	1721.66
181.935	1725.04
182.011	1723.9
182.088	1737.82
182.164	1758.45
182.24	1771.66
182.317	1781.4
182.393	1779.26
182.469	1790.71
182.546	1802.98
182.622	1806.87
182.698	1803.88
182.775	1819.75
182.851	1833.34
182.927	1828.31
183.003	1828.07
183.08	1820.32
183.156	1826.83
183.232	1825.12
183.308	1817.71
183.385	1829.35
183.461	1845.27
183.537	1846.36
183.613	1855.44
183.69	1844.7
183.766	1832.15
183.842	1834.81
183.918	1839.42
183.995	1851.78
184.071	1855.58
184.147	1849.83
184.223	1841.47
184.299	1852.45
184.375	1839.81
184.452	1845.7
184.528	1894.39
184.604	1903.85
184.68	1916.39
184.756	1924.57
184.832	1925.81
184.908	1930.51
184.985	1928.18
185.061	1913.59
185.137	1921.63
185.213	1911.98
185.289	1915.83
185.365	1910.12
185.441	1910.74
185.517	1923.11
185.593	1920.21
185.669	1919.21
185.745	1930.48
185.822	1946.06
185.898	1937.84
185.974	1946.63
186.05	1935.69
186.126	1898.18
186.202	1888.77
186.278	1885.96
186.354	1876.22
186.43	1882.16
186.506	1879.17
186.582	1876.27
186.658	1882.49
186.734	1864.15
186.81	1865.91
186.886	1866.1
186.962	1880.17
187.038	1876.93
187.114	1866.42
187.19	1875.84
187.266	1865.81
187.341	1869
187.417	1862.06
187.493	1863.1
187.569	1867.62
187.645	1865.77
187.721	1858.21
187.797	1865.19
187.873	1866.81
187.949	1861.77
188.025	1855.73
188.101	1859.53
188.176	1866.14
188.252	1864.71
188.328	1872.84
188.404	1871.84
188.48	1870.89
188.556	1862.52
188.632	1861.19
188.707	1862.95
188.783	1859.19
188.859	1854.73
188.935	1842.7
189.011	1848.59
189.086	1844.93
189.162	1835.95
189.238	1833.48
189.314	1830.01
189.39	1826.35
189.465	1821.36
189.541	1836.33
189.617	1823.31
189.693	1820.08
189.768	1823.45
189.844	1844.95
189.92	1836.96
189.996	1846.14
190.071	1855.03
190.147	1853.89
190.223	1863.44
190.298	1855.17
190.374	1843.15
190.45	1854.45
190.526	1861.16
190.601	1856.74
190.677	1858.16
190.753	1883.13
190.828	1886.89
190.904	1900.77
190.98	1914.41
191.055	1925.73
191.131	1918.07
191.207	1939.66
191.282	1946.6
191.358	1939.85
191.433	1927.05
191.509	1940.5
191.585	1939.98
191.66	1940.55
191.736	1948.72
191.811	1943.3
191.887	1959.28
191.963	1978.92
192.038	1983.1
192.114	1985.33
192.189	1987.85
192.265	1982.15
192.34	1964.22
192.416	1963.55
192.491	1959.51
192.567	1962.46
192.642	1964.07
192.718	1962.84
192.793	1947.91
192.869	1944.01
192.944	1943.73
193.02	1949.91
193.095	1953.71
193.171	1956.04
193.246	1957.18
193.322	1952.33
193.397	1949.62
193.473	1938.88
193.548	1922
193.624	1928.89
193.699	1924.85
193.775	1940.02
193.85	1942.68
193.925	1949.2
194.001	1948.15
194.076	1939.17
194.152	1927.9
194.227	1920.43
194.302	1912.64
194.378	1918.1
194.453	1915.39
194.529	1926.71
194.604	1912.73
194.679	1905.55
194.755	1886.97
194.83	1896.67
194.905	1896.1
194.981	1904.47
195.056	1896.49
195.131	1902.62
195.207	1900
195.282	1893.16
195.357	1875.28
195.433	1889.59
195.508	1876.8
195.583	1882.79
195.659	1896.86
195.734	1903.75
195.809	1904.28
195.884	1914.59
195.96	1913.07
196.035	1927.52
196.11	1924.05
196.185	1936.32
196.261	1940.93
196.336	1971.07
196.411	1958.13
196.486	1964.03
196.561	1957.28
196.637	1966.92
196.712	1980.96
196.787	1984.28
196.862	1999.69
196.937	2008.68
197.013	2016.05
197.088	2026.08
197.163	2045.63
197.238	2061.91
197.313	2063.19
197.388	2073.27
197.464	2099.01
197.539	2109.99
197.614	2103.1
197.689	2114.37
197.764	2128.69
197.839	2146.72
197.914	2140.82
197.989	2159.42
198.065	2170.03
198.14	2216.87
198.215	2239.61
198.29	2253.23
198.365	2263.74
198.44	2271.5
198.515	2297.19
198.59	2307.14
198.665	2329.03
198.74	2335.46
198.815	2336.51
198.89	2354.07
198.965	2382.73
199.04	2378.2
199.115	2391.43
199.19	2432.32
199.265	2433.7
199.34	2443.27
199.415	2472.66
199.49	2494.08
199.565	2504.69
199.64	2530.22
199.715	2524.45
199.79	2531.73
199.865	2536.45
199.94	2537.93
200.015	2565.93
200.09	2569.26
200.165	2578.98
200.24	2584.6
200.315	2624.83
200.39	2639.93
200.464	2647.45
200.539	2649.69
200.614	2668.36
200.689	2690.56
200.764	2696.7
200.839	2715.41
200.914	2718.94
200.989	2709.31
201.063	2720.08
201.138	2704.23
201.213	2701.51
201.288	2683.98
201.363	2690.94
201.438	2689.84
201.512	2703.46
201.587	2690.36
201.662	2695.89
201.737	2702.37
201.812	2715.18
201.886	2685.86
201.961	2694.25
202.036	2681.96
202.111	2677.39
202.186	2648.4
202.26	2631.77
202.335	2608.71
202.41	2601.05
202.485	2585.67
202.559	2566.38
202.634	2544.71
202.709	2550.99
202.784	2533.61
202.858	2536.42
202.933	2516.66
203.008	2510.09
203.082	2494.14
203.157	2490.52
203.232	2452.63
203.306	2434.58
203.381	2403.53
203.456	2381.86
203.53	2359.09
203.605	2342.87
203.68	2321.82
203.754	2315.4
203.829	2301.93
203.904	2284.09
203.978	2275.76
204.053	2281.32
204.127	2270.95
204.202	2267
204.277	2254.87
204.351	2248.49
204.426	2239.73
204.5	2232.55
204.575	2202.11
204.65	2208.67
204.724	2202.34
204.799	2206.19
204.873	2203.58
204.948	2201.77
205.022	2189.21
205.097	2183.07
205.171	2197.01
205.246	2203.91
205.32	2203.62
205.395	2204.43
205.469	2198.54
205.544	2203.68
205.618	2185.59
205.693	2195.4
205.767	2185.79
205.842	2203.68
205.916	2197.16
205.991	2190.45
206.065	2197.26
206.14	2211.33
206.214	2205.38
206.289	2199.91
206.363	2215.61
206.438	2217.99
206.512	2222.89
206.586	2242.83
206.661	2250.16
206.735	2228.61
206.81	2229.33
206.884	2243.22
206.958	2231.42
207.033	2249.02
207.107	2255.45
207.181	2282.48
207.256	2278.96
207.33	2296.33
207.405	2309
207.479	2326.89
207.553	2336.21
207.628	2321.37
207.702	2333.89
207.776	2330.98
207.851	2332.84
207.925	2345.93
207.999	2340.84
208.073	2340.89
208.148	2340.6
208.222	2327.37
208.296	2355.68
208.371	2370.87
208.445	2380.58
208.519	2406.47
208.593	2415.46
208.668	2410.13
208.742	2414.56
208.816	2415.32
208.89	2424.56
208.965	2420.18
209.039	2428.03
209.113	2441.65
209.187	2458.64
209.261	2455.35
209.336	2474.06
209.41	2493.44
209.484	2492.92
209.558	2514.06
209.632	2524.96
209.707	2534.06
209.781	2555.48
209.855	2570.72
209.929	2589.84
210.003	2598.17
210.077	2598.75
210.151	2644.18
210.226	2675.2
210.3	2699.23
210.374	2723.37
210.448	2730.61
210.522	2741.19
210.596	2751.48
210.67	2761.01
210.744	2805.76
210.818	2836.05
210.892	2856.17
210.966	2851.97
211.041	2866.75
211.115	2866.51
211.189	2890.86
211.263	2910.3
211.337	2919.5
211.411	2936.13
211.485	2931.56
211.559	2942.47
211.633	2946.23
211.707	2918.57
211.781	2932.54
211.855	2905.18
211.929	2898.94
212.003	2885.51
212.077	2901.39
212.151	2917.69
212.225	2928.08
212.299	2924.46
212.373	2921.88
212.447	2926.7
212.52	2961.51
212.594	2975.19
212.668	2998.98
212.742	2999.17
212.816	3007.95
212.89	3015.81
212.964	3029.27
213.038	3048.45
213.112	3081.36
213.186	3118.6
213.26	3120.8
213.333	3097.57
213.407	3124.84
213.481	3155.59
213.555	3198.58
213.629	3216.38
213.703	3231.08
213.777	3265.44
213.85	3283.91
213.924	3348.22
213.998	3385.32
214.072	3418.75
214.146	3449.16
214.219	3492.14
214.293	3534.48
214.367	3586.26
214.441	3648.63
214.515	3689.72
214.588	3725.21
214.662	3748.29
214.736	3785.93
214.81	3853.31
214.883	3927.47
214.957	3986.28
215.031	4038.45
215.105	4081.88
215.178	4142.26
215.252	4209.92
215.326	4262.19
215.4	4320.57
215.473	4356.89
215.547	4420.49
215.621	4488.8
215.694	4573.09
215.768	4634.75
215.842	4708.93
215.915	4781.49
215.989	4839.44
216.063	4922.5
216.136	5014.14
216.21	5110.7
216.284	5217.94
216.357	5311.42
216.431	5407.72
216.504	5511.35
216.578	5635.87
216.652	5748.89
216.725	5849.14
216.799	5960.59
216.873	6066.51
216.946	6182.61
217.02	6285.86
217.093	6384.69
217.167	6477.82
217.24	6575.3
217.314	6683.52
217.387	6791.08
217.461	6897.62
217.535	7023.47
217.608	7122.11
217.682	7234.81
217.755	7351.4
217.829	7451.2
217.902	7570.85
217.976	7680.28
218.049	7785.58
218.123	7886.49
218.196	8008.94
218.27	8119.19
218.343	8221.62
218.417	8345.56
218.49	8456.03
218.563	8586.92
218.637	8711.18
218.71	8841.37
218.784	8967.68
218.857	9091.88
218.931	9211.4
219.004	9327.92
219.077	9450.76
219.151	9567.9
219.224	9683.49
219.298	9797.68
219.371	9923.29
219.444	10015.28
219.518	10131.7
219.591	10255.74
219.665	10384.38
219.738	10489.4
219.811	10594.96
219.885	10716.04
219.958	10817.28
220.031	10923.09
220.105	11034.6
220.178	11141.87
220.251	11236.28
220.325	11343.51
220.398	11450.93
220.471	11558.21
220.544	11666.61
220.618	11760.64
220.691	11865.23
220.764	11961.72
220.838	12070.71
220.911	12163.25
220.984	12293.92
221.057	12398.09
221.131	12490.16
221.204	12568.54
221.277	12682.68
221.35	12804.54
221.424	12887.7
221.497	12988.78
221.57	13081.43
221.643	13170.81
221.716	13270.5
221.79	13360.54
221.863	13445.92
221.936	13534.47
222.009	13627.08
222.082	13716.16
222.155	13798.74
222.229	13901.37
222.302	13985.01
222.375	14065.85
222.448	14153.63
222.521	14225.75
222.594	14302.3
222.667	14375.52
222.74	14461.52
222.814	14528.96
222.887	14599.05
222.96	14689.43
223.033	14775.18
223.106	14854.14
223.179	14936.62
223.252	15005.98
223.325	15085.13
223.398	15155.94
223.471	15228.54
223.544	15291.25
223.617	15361.43
223.69	15432.82
223.763	15478.32
223.837	15552.93
223.91	15608.99
223.983	15653.1
224.056	15692.72
224.129	15762.32
224.202	15835.63
224.275	15888.31
224.348	15943.6
224.42	15993.63
224.493	16045.49
224.566	16089.88
224.639	16153.17
224.712	16196.93
224.785	16253.17
224.858	16306.14
224.931	16354.15
225.004	16396.56
225.077	16449.96
225.15	16483.7
225.223	16537.44
225.296	16619.81
225.369	16651.86
225.442	16702.95
225.514	16762.95
225.587	16833.17
225.66	16878.76
225.733	16932.6
225.806	16991.97
225.879	17038.39
225.952	17068.8
226.025	17120.12
226.097	17177.67
226.17	17216.03
226.243	17242.34
226.316	17284.17
226.389	17327.79
226.461	17377.14
226.534	17432.61
226.607	17477.38
226.68	17542.44
226.753	17578.54
226.825	17595.64
226.898	17658.29
226.971	17699.64
227.044	17746.39
227.117	17785.95
227.189	17838.1
227.262	17876.6
227.335	17911.93
227.407	17943.97
227.48	17991.64
227.553	18035.06
227.626	18067.87
227.698	18108.45
227.771	18164.21
227.844	18190.33
227.916	18233.41
227.989	18256.78
228.062	18277.84
228.134	18333.74
228.207	18361.21
228.28	18390.12
228.352	18431.09
228.425	18460.24
228.498	18504.19
228.57	18528.48
228.643	18582.16
228.716	18599.65
228.788	18620.57
228.861	18645.15
228.934	18690.11
229.006	18725.53
229.079	18740.56
229.151	18772.85
229.224	18796.22
229.296	18824.17
229.369	18881.13
229.442	18922.24
229.514	18946.77
229.587	18991.34
229.659	18998.28
229.732	19031.63
229.804	19077.79
229.877	19126.95
229.949	19162.9
230.022	19206.03
230.094	19236.87
230.167	19257.88
230.239	19284.29
230.312	19317.54
230.384	19366.64
230.457	19401.39
230.529	19428.71
230.602	19463.07
230.674	19485.38
230.747	19520.9
230.819	19550.97
230.892	19550.58
230.964	19571.84
231.037	19603.59
231.109	19626.2
231.181	19658.58
231.254	19667.4
231.326	19685.42
231.399	19696.46
231.471	19703.59
231.544	19700.07
231.616	19728.89
231.688	19743.97
231.761	19756.45
231.833	19766.48
231.905	19757.32
231.978	19762.43
232.05	19775.92
232.122	19792.02
232.195	19802.43
232.267	19828.55
232.339	19837.9
232.412	19863.73
232.484	19867.87
232.556	19867.48
232.629	19895.24
232.701	19909.84
232.773	19925.27
232.846	19926.13
232.918	19942.76
232.99	19958.66
233.062	19972.88
233.135	19974.37
233.207	19974.42
233.279	19987.34
233.351	20004.88
233.424	20017.26
233.496	20016.15
233.568	20043.09
233.64	20036.88
233.713	20040.97
233.785	20040.59
233.857	20041.7
233.929	20023.91
234.001	20045.55
234.074	20070.37
234.146	20044.73
234.218	20045.07
234.29	20044.83
234.362	20037.79
234.434	20005.84
234.507	19987.53
234.579	19964.93
234.651	19963.19
234.723	19961.6
234.795	19962.52
234.867	19956.35
234.939	19966.28
235.012	19962.13
235.084	19949.27
235.156	19941.8
235.228	19933.12
235.3	19918.81
235.372	19921.31
235.444	19928.21
235.516	19896.83
235.588	19892.88
235.66	19892.64
235.732	19876.54
235.804	19910.95
235.876	19915.53
235.948	19925.36
236.02	19922.52
236.092	19915.15
236.164	19903.44
236.236	19893.94
236.308	19876.69
236.38	19864.45
236.452	19839.2
236.524	19833.61
236.596	19844.5
236.668	19853.37
236.74	19849.94
236.812	19834.62
236.884	19825.56
236.956	19816.26
237.028	19794.24
237.1	19763.83
237.172	19758.77
237.244	19757.71
237.316	19709.23
237.388	19679.83
237.46	19656.6
237.532	19648.12
237.604	19637.28
237.675	19636.8
237.747	19626.44
237.819	19605.67
237.891	19585.33
237.963	19561.48
238.035	19542.2
238.107	19481.67
238.178	19468.9
238.25	19440.23
238.322	19446.11
238.394	19396.04
238.466	19364.28
238.538	19353.68
238.609	19341.63
238.681	19307.66
238.753	19276.77
238.825	19262.12
238.897	19253.2
238.968	19252.67
239.04	19226.7
239.112	19236.53
239.184	19203.23
239.255	19179.04
239.327	19161.16
239.399	19133.16
239.471	19121.69
239.542	19106.76
239.614	19097.36
239.686	19054.57
239.758	19038.09
239.829	19003.53
239.901	18997.94
239.973	18979.25
240.044	18952.02
240.116	18928.98
240.188	18895.73
240.259	18864.02
240.331	18822.92
240.403	18797.52
240.474	18751.74
240.546	18711.46
240.618	18654.16
240.689	18622.26
240.761	18583.61
240.833	18567.9
240.904	18541.78
240.976	18512.05
241.048	18479.18
241.119	18459.76
241.191	18435.66
241.262	18414.61
241.334	18381.16
241.405	18359.04
241.477	18318.37
241.549	18290.52
241.62	18263.53
241.692	18246.28
241.763	18229.02
241.835	18206.28
241.906	18183.82
241.978	18144.79
242.049	18138.86
242.121	18116.74
242.192	18104.02
242.264	18061.8
242.335	18009.9
242.407	17990.24
242.478	17949.27
242.55	17918.96
242.621	17886.34
242.693	17841.86
242.764	17816.89
242.836	17784.17
242.907	17750.1
242.979	17729.09
243.05	17703.26
243.122	17674.73
243.193	17634.15
243.264	17588.71
243.336	17555.5
243.407	17525.96
243.479	17512.22
243.55	17478.06
243.622	17449.38
243.693	17401.82
243.764	17391.36
243.836	17356.9
243.907	17317.33
243.978	17291.5
244.05	17261.52
244.121	17214.2
244.192	17199.93
244.264	17145.91
244.335	17114.53
244.407	17067.35
244.478	17041.62
244.549	17005.18
244.62	16966.77
244.692	16935.93
244.763	16917.47
244.834	16875.87
244.906	16834.28
244.977	16804.16
245.048	16790.33
245.119	16749.85
245.191	16720.49
245.262	16668.44
245.333	16657.12
245.405	16622.51
245.476	16593.79
245.547	16568.58
245.618	16549.35
245.689	16511.47
245.761	16491.71
245.832	16458.6
245.903	16451.75
245.974	16429.53
246.045	16393.87
246.117	16372.85
246.188	16332.85
246.259	16282.19
246.33	16257.56
246.401	16226.76
246.473	16189.7
246.544	16147.38
246.615	16128.11
246.686	16087.57
246.757	16077.83
246.828	16031.23
246.899	16018.6
246.97	15973.58
247.042	15929.48
247.113	15887.59
247.184	15877.52
247.255	15842.24
247.326	15811.44
247.397	15767.24
247.468	15734.46
247.539	15704.14
247.61	15657.25
247.681	15635.12
247.752	15622.64
247.823	15577.23
247.894	15549.03
247.965	15500.35
248.037	15461.79
248.108	15418.36
248.179	15392.19
248.25	15356.23
248.321	15327.69
248.392	15282
248.463	15277.08
248.534	15260.45
248.605	15243.68
248.675	15205.94
248.746	15176
248.817	15148.96
248.888	15127.8
248.959	15078.92
249.03	15061.09
249.101	15033.27
249.172	15010.28
249.243	14956.44
249.314	14947.04
249.385	14913.63
249.456	14893.24
249.527	14871.6
249.598	14850.34
249.669	14819.68
249.739	14792.06
249.81	14776.78
249.881	14742.03
249.952	14704.72
250.023	14666.59
250.094	14625.95
250.165	14588.4
250.235	14553.45
250.306	14525.83
250.377	14482.2
250.448	14456.22
250.519	14404.35
250.59	14394.13
250.66	14356.72
250.731	14347.32
250.802	14321.29
250.873	14300.42
250.944	14284.51
251.014	14252.26
251.085	14248.65
251.156	14224.26
251.227	14216.45
251.297	14201.55
251.368	14185.26
251.439	14175.42
251.51	14158.84
251.58	14133
251.651	14104.08
251.722	14098.2
251.792	14055.78
251.863	14037.02
251.934	14028.44
252.005	14031.72
252.075	14000.92
252.146	13989.59
252.217	13974.84
252.287	13958.5
252.358	13929.38
252.429	13914.24
252.499	13875.05
252.57	13850.76
252.641	13840.87
252.711	13813.54
252.782	13771.17
252.852	13761.72
252.923	13730.09
252.994	13711.58
253.064	13693.89
253.135	13662.94
253.205	13622.93
253.276	13624.09
253.347	13612.66
253.417	13579.79
253.488	13553.95
253.558	13524.69
253.629	13496.44
253.699	13476.05
253.77	13453.97
253.841	13426.78
253.911	13408.7
253.982	13393.18
254.052	13370.38
254.123	13342.8
254.193	13313.73
254.264	13323.71
254.334	13293.63
254.405	13260.03
254.475	13229.85
254.546	13205.9
254.616	13200.64
254.687	13185.94
254.757	13158.46
254.827	13129.87
254.898	13109.92
254.968	13080.42
255.039	13051.64
255.109	13032.98
255.18	13002.08
255.25	12956.96
255.321	12942.98
255.391	12904.75
255.461	12900.99
255.532	12854.28
255.602	12831.96
255.673	12798.7
255.743	12769.15
255.813	12725.91
255.884	12722
255.954	12698.53
256.024	12697.85
256.095	12670.14
256.165	12638.22
256.235	12627.09
256.306	12601.3
256.376	12591.18
256.446	12575.41
256.517	12563.36
256.587	12556.37
256.657	12541.43
256.728	12531.93
256.798	12511.64
256.868	12487.34
256.938	12456.83
257.009	12449.55
257.079	12434.51
257.149	12438.03
257.219	12398.21
257.29	12386.12
257.36	12343.5
257.43	12336.66
257.5	12288.07
257.571	12264.16
257.641	12251.77
257.711	12216.63
257.781	12204.1
257.852	12186.99
257.922	12149.87
257.992	12129.19
258.062	12108.37
258.132	12095.84
258.202	12073.13
258.273	12057.95
258.343	12055.06
258.413	12035.92
258.483	12014.91
258.553	11983.86
258.623	11946.27
258.693	11931.95
258.764	11925.3
258.834	11920.91
258.904	11896.23
258.974	11872.62
259.044	11853.67
259.114	11846.97
259.184	11835.5
259.254	11812.75
259.324	11774.15
259.394	11762.63
259.464	11759.2
259.535	11733.51
259.605	11702.57
259.675	11667.58
259.745	11656.44
259.815	11620.1
259.885	11588.05
259.955	11590.32
260.025	11560.63
260.095	11544
260.165	11526.55
260.235	11519.47
260.305	11485.78
260.375	11456.09
260.445	11457.87
260.515	11453.68
260.585	11434.21
260.655	11412.91
260.725	11406.64
260.795	11393.53
260.865	11396.18
260.934	11368.04
261.004	11354.3
261.074	11341.09
261.144	11340.37
261.214	11328.47
261.284	11313.72
261.354	11309.09
261.424	11288.27
261.494	11299.55
261.564	11282.92
261.634	11269.91
261.703	11239.11
261.773	11229.62
261.843	11220.46
261.913	11198.29
261.983	11163.6
262.053	11152.46
262.123	11133.86
262.192	11100.95
262.262	11101.19
262.332	11069.14
262.402	11061.43
262.472	11047.45
262.541	11009.48
262.611	11009.1
262.681	10981.92
262.751	10975.99
262.821	10953.68
262.89	10915.37
262.96	10895.37
263.03	10897.25
263.1	10882.89
263.169	10862.99
263.239	10852.34
263.309	10852.34
263.379	10846.75
263.448	10833.21
263.518	10819.33
263.588	10800.2
263.657	10804.73
263.727	10790.27
263.797	10776.78
263.867	10751.63
263.936	10725.61
264.006	10724.35
264.076	10703.01
264.145	10686.38
264.215	10662.05
264.285	10662.15
264.354	10635.45
264.424	10616.61
264.494	10586.4
264.563	10567.7
264.633	10574.11
264.702	10562.26
264.772	10529.59
264.842	10509.6
264.911	10502.71
264.981	10480.54
265.05	10469.99
265.12	10447.54
265.19	10434.24
265.259	10425.57
265.329	10421.81
265.398	10402.1
265.468	10411.11
265.537	10386.73
265.607	10375.61
265.676	10372.81
265.746	10358.31
265.815	10354.26
265.885	10341.3
265.955	10315.82
266.024	10303.73
266.094	10270.48
266.163	10269.47
266.232	10269.28
266.302	10246.93
266.371	10235.85
266.441	10218.02
266.51	10206.89
266.58	10191.38
266.649	10167.53
266.719	10164.11
266.788	10152.02
266.858	10159.53
266.927	10124.75
266.996	10122.92
267.066	10109.77
267.135	10077.25
267.205	10068.82
267.274	10057.74
267.343	10048.98
267.413	10032.41
267.482	10029.9
267.552	10029.71
267.621	10002.73
267.69	9977.93
267.76	9973.11
267.829	9963.52
267.898	9952.4
267.968	9932.12
268.037	9923.4
268.106	9920.41
268.176	9895.7
268.245	9877.69
268.314	9855.91
268.384	9851.72
268.453	9835.39
268.522	9826.53
268.592	9829.61
268.661	9807.31
268.73	9798.45
268.799	9785.44
268.869	9795.7
268.938	9764.3
269.007	9741.32
269.076	9728.51
269.146	9718.35
269.215	9707.9
269.284	9707.75
269.353	9694.32
269.422	9683.24
269.492	9661.95
269.561	9621.07
269.63	9617.6
269.699	9602.67
269.768	9594.92
269.838	9587.5
269.907	9579.02
269.976	9553.98
270.045	9518.93
270.114	9515.7
270.183	9499.23
270.253	9486.47
270.322	9451.6
270.391	9441.64
270.46	9449.49
270.529	9445.68
270.598	9443.56
270.667	9433.3
270.736	9403.64
270.806	9394.06
270.875	9393.29
270.944	9382.26
271.013	9404.31
271.082	9391.55
271.151	9385.15
271.22	9357.56
271.289	9342.72
271.358	9333.67
271.427	9332.66
271.496	9331.22
271.565	9314.36
271.634	9308.78
271.703	9305.41
271.772	9311.66
271.841	9302.56
271.91	9275.31
271.979	9261.88
272.048	9237.46
272.117	9233.23
272.186	9223.6
272.255	9226.82
272.324	9221.38
272.393	9212.81
272.462	9194.27
272.531	9179.54
272.6	9168.75
272.669	9170.73
272.738	9162.11
272.807	9150.79
272.876	9127.98
272.945	9148.92
273.013	9148.92
273.082	9152.43
273.151	9135.73
273.22	9134.91
273.289	9122.92
273.358	9131.73
273.427	9115.89
273.496	9119.7
273.564	9117.43
273.633	9120.56
273.702	9093.6
273.771	9082.29
273.84	9081.9
273.909	9075.64
273.977	9077.52
274.046	9067.03
274.115	9072.13
274.184	9048.06
274.253	9041.76
274.322	9045.22
274.39	9016.09
274.459	9000.11
274.528	8969.35
274.597	8961.55
274.665	8959.63
274.734	8963.52
274.803	8949.13
274.872	8950.91
274.94	8938.78
275.009	8982.12
275.078	8966.96
275.147	8965.08
275.215	8960.17
275.284	8964.46
275.353	8954.49
275.421	8930.71
275.49	8941.69
275.559	8928.4
275.627	8928.07
275.696	8920.65
275.765	8924.55
275.833	8921.71
275.902	8919.35
275.971	8930.42
276.039	8938.27
276.108	8935.09
276.177	8936.44
276.245	8925.71
276.314	8924.98
276.383	8927.15
276.451	8869.55
276.52	8875.14
276.588	8883.18
276.657	8886.93
276.725	8874.18
276.794	8877.4
276.863	8893.24
276.931	8875.57
277	8881.63
277.068	8890.54
277.137	8903.05
277.205	8899.11
277.274	8910.23
277.342	8926.11
277.411	8903.78
277.48	8895.21
277.548	8886.07
277.617	8880.1
277.685	8881.06
277.754	8881.16
277.822	8867.2
277.89	8874.42
277.959	8863.88
278.027	8849.63
278.096	8833.22
278.164	8856.85
278.233	8843.67
278.301	8825.47
278.37	8826.63
278.438	8813.25
278.507	8813.87
278.575	8792.21
278.643	8789.37
278.712	8768.87
278.78	8748.84
278.849	8761.35
278.917	8766.5
278.985	8756.3
279.054	8765.78
279.122	8769.78
279.191	8763.9
279.259	8760.97
279.327	8742.05
279.396	8762.32
279.464	8758.56
279.532	8773.53
279.601	8770.93
279.669	8770.93
279.737	8787.2
279.806	8786.82
279.874	8792.5
279.942	8789.85
280.011	8784.99
280.079	8784.41
280.147	8803.95
280.215	8801.5
280.284	8802.51
280.352	8792.26
280.42	8798.32
280.488	8783.25
280.557	8773.19
280.625	8771.08
280.693	8773.1
280.761	8779.4
280.83	8753.55
280.898	8761.25
280.966	8736.8
281.034	8710.52
281.102	8693.29
281.171	8684.48
281.239	8696.66
281.307	8690.7
281.375	8680.49
281.443	8701.72
281.512	8699.79
281.58	8701.14
281.648	8687.52
281.716	8684.92
281.784	8679.48
281.852	8674.96
281.92	8675.06
281.989	8684.44
282.057	8670.82
282.125	8704.9
282.193	8696.91
282.261	8690.8
282.329	8688.54
282.397	8692.29
282.465	8692.44
282.533	8710.87
282.601	8700.47
282.67	8681.32
282.738	8671.26
282.806	8681.65
282.874	8670.77
282.942	8674.67
283.01	8670.24
283.078	8679.53
283.146	8675.78
283.214	8688.48
283.282	8689.21
283.35	8694.16
283.418	8683.43
283.486	8691.18
283.554	8653.15
283.622	8652.19
283.69	8656.04
283.758	8653.54
283.826	8660.22
283.894	8666.67
283.962	8689.4
284.03	8697.87
284.098	8692.62
284.165	8694.5
284.233	8689.44
284.301	8683.23
284.369	8673.32
284.437	8663.45
284.505	8655.7
284.573	8666.73
284.641	8658.21
284.709	8662.88
284.777	8652.19
284.845	8665.33
284.912	8667.21
284.98	8679.48
285.048	8674.09
285.116	8680.83
285.184	8686.7
285.252	8682.8
285.319	8664.71
285.387	8648.48
285.455	8642.37
285.523	8649.54
285.591	8641.22
285.659	8644.78
285.726	8657.2
285.794	8642.86
285.862	8640.02
285.93	8644.15
285.997	8636.5
286.065	8625.43
286.133	8618.89
286.201	8618.45
286.269	8604.69
286.336	8601.18
286.404	8590.88
286.472	8600.6
286.539	8580.44
286.607	8570.52
286.675	8568.55
286.743	8578.61
286.81	8574.27
286.878	8581.97
286.946	8574.27
287.013	8577.3
287.081	8574.61
287.149	8557.14
287.216	8576.1
287.284	8571.19
287.352	8571.72
287.419	8569.55
287.487	8584.33
287.555	8586.3
287.622	8579.37
287.69	8582.07
287.758	8591.02
287.825	8590.06
287.893	8581.35
287.96	8588.56
288.028	8599.2
288.096	8605.07
288.163	8606.03
288.231	8598.77
288.298	8598.62
288.366	8608.97
288.433	8604.49
288.501	8599.3
288.569	8600.64
288.636	8596.31
288.704	8610.56
288.771	8613.11
288.839	8606.85
288.906	8603.24
288.974	8609.16
289.041	8610.46
289.109	8603.05
289.176	8603.29
289.244	8608.06
289.311	8622.83
289.379	8635.49
289.446	8633.18
289.514	8628.85
289.581	8632.36
289.649	8631.69
289.716	8632.41
289.783	8624.37
289.851	8643.43
289.918	8642.8
289.986	8653.2
290.053	8657.43
290.121	8651.75
290.188	8658.44
290.255	8686.5
290.323	8682.27
290.39	8681.11
290.458	8685.06
290.525	8699.98
290.592	8699.11
290.66	8702.15
290.727	8685.64
290.794	8695.94
290.862	8696.95
290.929	8702.39
290.996	8702.39
291.064	8708.45
291.131	8719.14
291.198	8733.19
291.266	8732.9
291.333	8733.05
291.4	8737.23
291.468	8747.87
291.535	8745.51
291.602	8748.79
291.669	8739.5
291.737	8743.35
291.804	8740.6
291.871	8756.68
291.938	8765.82
292.006	8789.41
292.073	8793.79
292.14	8815.02
292.207	8800.29
292.275	8801.01
292.342	8808.57
292.409	8831.05
292.476	8853.53
292.543	8843.86
292.611	8844.24
292.678	8858.68
292.745	8882.07
292.812	8888.38
292.879	8883.9
292.946	8890.3
293.014	8896.66
293.081	8906.24
293.148	8917.89
293.215	8930.02
293.282	8927.27
293.349	8930.84
293.416	8916.83
293.484	8934.88
293.551	8945.04
293.618	8967.18
293.685	8991.54
293.752	8985.52
293.819	8986.15
293.886	8980.23
293.953	8987.59
294.02	8995.77
294.087	9000.68
294.154	8992.45
294.221	9013.16
294.288	9019.08
294.356	9037.08
294.423	9049.5
294.49	9037.56
294.557	9051.28
294.624	9046.52
294.691	9061.49
294.758	9060.62
294.825	9069
294.892	9061.35
294.959	9055.04
295.026	9059.56
295.093	9054.99
295.16	9062.5
295.226	9058.84
295.293	9075.02
295.36	9079.93
295.427	9092.06
295.494	9105.69
295.561	9118.78
295.628	9134.48
295.695	9146.76
295.762	9146.52
295.829	9151.57
295.896	9175.26
295.963	9183.01
296.03	9194.04
296.096	9195.96
296.163	9209.68
296.23	9221.58
296.297	9229.52
296.364	9232.46
296.431	9244.93
296.498	9239.39
296.564	9257.93
296.631	9257.88
296.698	9248.06
296.765	9265.39
296.832	9262.65
296.899	9252.97
296.965	9268.18
297.032	9256.33
297.099	9275.16
297.166	9283.25
297.233	9282.77
297.299	9272.8
297.366	9276.71
297.433	9280.17
297.5	9294.86
297.566	9292.88
297.633	9294.33
297.7	9298.95
297.767	9300.2
297.833	9298.66
297.9	9298.23
297.967	9282.44
298.033	9295.63
298.1	9323.03
298.167	9318.36
298.234	9326.4
298.3	9335.4
298.367	9323.17
298.434	9326.5
298.5	9315.57
298.567	9310.27
298.634	9310.46
298.7	9329
298.767	9329.19
298.834	9345.9
298.9	9337.33
298.967	9334.3
299.033	9340.6
299.1	9357.07
299.167	9372.14
299.233	9376.43
299.3	9395.31
299.366	9416.92
299.433	9435.61
299.5	9411
299.566	9414.85
299.633	9426.51
299.699	9436.04
299.766	9443.41
299.832	9442.88
299.899	9452.42
299.965	9470.62
300.032	9462.19
300.099	9464.36
300.165	9465.51
300.232	9459.21
300.298	9464.89
300.365	9480.88
300.431	9481.02
300.498	9477.6
300.564	9479.29
300.631	9492.39
300.697	9504.91
300.763	9507.36
300.83	9505.44
300.896	9519.55
300.963	9526.62
301.029	9526.43
301.096	9526.38
301.162	9532.74
301.229	9535.82
301.295	9526.82
301.361	9527.54
301.428	9536.16
301.494	9529.9
301.561	9536.06
301.627	9542.13
301.693	9544.59
301.76	9545.5
301.826	9547.19
301.892	9553.59
301.959	9559.51
302.025	9548.34
302.092	9540.59
302.158	9543.28
302.224	9545.02
302.291	9538.81
302.357	9532.16
302.423	9526
302.49	9523.15
302.556	9540.2
302.622	9534.14
302.688	9542.08
302.755	9553.69
302.821	9557.16
302.887	9563.99
302.954	9561.39
303.02	9567.56
303.086	9575.41
303.152	9572.04
303.219	9564.33
303.285	9564.19
303.351	9572.52
303.417	9575.6
303.483	9564.43
303.55	9553.93
303.616	9548.97
303.682	9540.3
303.748	9537.85
303.815	9551.33
303.881	9558.12
303.947	9543.72
304.013	9544.01
304.079	9541.6
304.145	9516.03
304.212	9524.03
304.278	9516.9
304.344	9514.11
304.41	9501.78
304.476	9489.5
304.542	9480.15
304.608	9482.71
304.674	9466.43
304.741	9459.78
304.807	9457.04
304.873	9467.83
304.939	9490.27
305.005	9475.58
305.071	9483.86
305.137	9484.2
305.203	9457.71
305.269	9449.86
305.335	9456.36
305.401	9454.34
305.467	9448.85
305.533	9463.25
305.599	9470.76
305.666	9479.29
305.732	9477.84
305.798	9483.09
305.864	9508.66
305.93	9517.24
305.996	9518.05
306.062	9524.89
306.128	9523.11
306.194	9513.05
306.259	9510.54
306.325	9499.8
306.391	9504.14
306.457	9505.19
306.523	9508.81
306.589	9533.32
306.655	9533.37
306.721	9513.29
306.787	9504.76
306.853	9516.42
306.919	9500.33
306.985	9486.17
307.051	9477.99
307.117	9463.93
307.183	9464.79
307.248	9434.16
307.314	9433.39
307.38	9436.72
307.446	9441.77
307.512	9435.27
307.578	9442.64
307.644	9434.21
307.709	9430.22
307.775	9425.5
307.841	9425.06
307.907	9424.87
307.973	9404.84
308.039	9398.48
308.104	9402.72
308.17	9405.12
308.236	9392.07
308.302	9392.51
308.368	9377.87
308.433	9371.75
308.499	9372.62
308.565	9355.77
308.631	9360.15
308.696	9343.58
308.762	9326.49
308.828	9318.06
308.894	9297.55
308.959	9272.85
309.025	9266.88
309.091	9261.63
309.156	9252.19
309.222	9245.79
309.288	9232.16
309.354	9211.22
309.419	9207.66
309.485	9192.11
309.551	9193.12
309.616	9179.54
309.682	9175.98
309.748	9171.74
309.813	9169.96
309.879	9160.62
309.945	9156.29
310.01	9149.78
310.076	9149.64
310.141	9150.56
310.207	9143.09
310.273	9145.21
310.338	9152.72
310.404	9138.08
310.469	9125.52
310.535	9119.84
310.601	9101.69
310.666	9108.14
310.732	9115.7
310.797	9103.52
310.863	9097.16
310.928	9086.66
310.994	9089.79
311.059	9088.16
311.125	9087.96
311.191	9090.85
311.256	9084.64
311.322	9085.17
311.387	9063.7
311.453	9408.29
311.518	9374.55
311.584	9370.21
311.649	9374.4
311.715	9362.66
311.78	9366.03
311.846	9354.76
311.911	9361.55
311.976	9365.45
312.042	9344.89
312.107	9334.35
312.173	9328.96
312.238	9328.24
312.304	9322.17
312.369	9308.98
312.434	9302.63
312.5	9295.4
312.565	9267.92
312.631	9269.65
312.696	9259.2
312.761	9263.92
312.827	8911.92
312.892	8950.09
312.958	8942.39
313.023	8935.31
313.088	8935.79
313.154	8922.41
313.219	8909.27
313.284	8897.76
313.35	8893.19
313.415	8885.06
313.48	8880.29
313.546	8880.97
313.611	8883.47
313.676	8876.68
313.741	8868.69
313.807	8865.85
313.872	8869.51
313.937	8874.95
314.003	8886.41
314.068	8892.42
314.133	8890.5
314.198	8874.85
314.264	8854.01
314.329	8846.02
314.394	8839.81
314.459	8836.82
314.525	8844.52
314.59	8850.68
314.655	8844.23
314.72	8848.37
314.785	8851.89
314.851	8845.77
314.916	8827.2
314.981	8815.45
315.046	8804.57
315.111	8795.48
315.176	8786.57
315.242	8779.83
315.307	8778.77
315.372	8753.98
315.437	8737.86
315.502	8729.96
315.567	8741.23
315.632	8726.5
315.698	8721.59
315.763	8722.89
315.828	8709.51
315.893	8707.54
315.958	8699.79
316.023	8686.22
316.088	8664.12
316.153	8642.81
316.218	8632.7
316.283	8613.94
316.348	8599.69
316.413	8597.09
316.479	8580.64
316.544	8543.35
316.609	8517.65
316.674	8478.05
316.739	8440.72
316.804	8408.38
316.869	8378.89
316.934	8340.2
316.999	8311.96
317.064	8264.47
317.129	8214.58
317.194	8171
317.259	8124.04
317.324	8072.91
317.389	8024.9
317.454	7986.81
317.518	7952.08
317.583	7922.64
317.648	7896.29
317.713	7857.18
317.778	7797.59
317.843	7769.31
317.908	7733.69
317.973	7693.67
318.038	7667.08
318.103	7632.14
318.168	7595.64
318.233	7559.68
318.297	7509.05
318.362	7470.64
318.427	7429.88
318.492	7403.3
318.557	7360.43
318.622	7332.79
318.687	7306.98
318.751	7263.26
318.816	7224.23
318.881	7187.04
318.946	7136.67
319.011	7094.62
319.075	7052.77
319.14	7012.66
319.205	6965.09
319.27	6929.93
319.335	6879.34
319.399	6837.5
319.464	6809.98
319.529	6760.03
319.594	6719.01
319.658	6691.25
319.723	6648.79
319.788	6623.77
319.853	6566.96
319.917	6536.77
319.982	6476.98
320.047	6437.99
320.112	6413.75
320.176	6367.14
320.241	6332.77
320.306	6297.83
320.37	6258.99
320.435	6230.82
320.5	6207.25
320.564	6166.08
320.629	6126.11
320.694	6098.62
320.758	6054.76
320.823	6009.9
320.888	5982.94
320.952	5933.73
321.017	5886.28
321.082	5847.38
321.146	5808.53
321.211	5774.67
321.275	5732.91
321.34	5694.22
321.405	5650.4
321.469	5606.14
321.534	5566.93
321.598	5516.07
321.663	5484.38
321.727	5449.96
321.792	5394.74
321.857	5350.11
321.921	5311.44
321.986	5269.32
322.05	5207
322.115	5172.03
322.179	5127.81
322.244	5071.39
322.308	5038.25
322.373	4993.52
322.437	4951.76
322.502	4925.41
322.566	4883.89
322.631	4851.52
322.695	4808.44
322.76	4766.13
322.824	4728.07
322.889	4684.14
322.953	4642.18
323.018	4577.09
323.082	4511.26
323.146	4463.28
323.211	4410.71
323.275	4363.4
323.34	4318.63
323.404	4285.89
323.468	4239.73
323.533	4198.32
323.597	4154.74
323.662	4103.2
323.726	4066.91
323.79	4016.58
323.855	3949.02
323.919	3902.32
323.983	3854.96
324.048	3791.54
324.112	3931.57
324.177	3802.08
324.241	3604.55
324.305	3409.93
324.37	3220.99
324.434	3039.51
324.498	2995.66
324.562	2947.46
324.627	2894.13
324.691	2837.65
324.755	2778.63
324.82	2704.45
324.884	2627.62
324.948	2559.11
325.012	2469.82
325.077	2354.9
