Data from 20250630_urea_2M_MAYP1162681_11-12-27-175.txt Node
Date: Tue Jul 01 11:12:27 BST 2025
User: adleo
Spectrometer: MAYP116268
Trigger mode: 0
Integration Time (sec): 1.000000E0
Scans to average: 1
Electric dark correction enabled: true
Nonlinearity correction enabled: true
Boxcar width: 10
XAxis mode: Wavelengths
Number of Pixels in Spectrum: 2068
>>>>>Begin Spectral Data<<<<<
179.565	1119.03
179.642	1174.14
179.718	1215.32
179.795	1252.55
179.871	1283.21
179.948	1301.5
180.024	1318.99
180.101	1336.86
180.177	1350.96
180.254	1372.63
180.33	1394.19
180.407	1441.04
180.483	1531.02
180.56	1615.02
180.636	1694.72
180.712	1685.22
180.789	1695.48
180.865	1707.26
180.942	1718.52
181.018	1727.6
181.095	1740.1
181.171	1742.85
181.248	1742.95
181.324	1757.06
181.4	1762.05
181.477	1771.65
181.553	1781.39
181.63	1804.59
181.706	1821.32
181.782	1829.49
181.859	1828.07
181.935	1831.77
182.011	1828.78
182.088	1845.04
182.164	1862.06
182.24	1874.65
182.317	1883.3
182.393	1882.21
182.469	1895.28
182.546	1904.08
182.622	1909.4
182.698	1902.93
182.775	1917.43
182.851	1932.03
182.927	1927.7
183.003	1925.37
183.08	1919.48
183.156	1928.8
183.232	1921.66
183.308	1911.49
183.385	1917.86
183.461	1934.26
183.537	1936.12
183.613	1947.76
183.69	1937.92
183.766	1927.08
183.842	1932.83
183.918	1939.39
183.995	1950.09
184.071	1951.42
184.147	1948.24
184.223	1938.35
184.299	1951.67
184.375	1940.63
184.452	1941.97
184.528	1991.38
184.604	1996.47
184.68	2008.31
184.756	2016.44
184.832	2023.24
184.908	2026.23
184.985	2023.62
185.061	2008.07
185.137	2015.63
185.213	2004.27
185.289	2005.75
185.365	2001.66
185.441	2001.23
185.517	2008.94
185.593	2006.56
185.669	2007.84
185.745	2016.69
185.822	2030.95
185.898	2023.34
185.974	2030.94
186.05	2025.52
186.126	1985.19
186.202	1983.43
186.278	1981.57
186.354	1971.63
186.43	1976.68
186.506	1976.82
186.582	1977.82
186.658	1986.23
186.734	1966.6
186.81	1971.02
186.886	1975.39
186.962	1985.76
187.038	1979.81
187.114	1974.68
187.19	1983.09
187.266	1973.58
187.341	1975.96
187.417	1969.45
187.493	1971.02
187.569	1975.82
187.645	1969.97
187.721	1960.65
187.797	1967.36
187.873	1969.21
187.949	1966.12
188.025	1958.13
188.101	1962.36
188.176	1970.16
188.252	1963.5
188.328	1970.96
188.404	1969.25
188.48	1964.45
188.556	1957.37
188.632	1960.03
188.707	1960.7
188.783	1956.79
188.859	1951.19
188.935	1939.35
189.011	1946.67
189.086	1939.58
189.162	1930.03
189.238	1928.79
189.314	1931.02
189.39	1927.08
189.465	1920.47
189.541	1936.88
189.617	1923.85
189.693	1920.14
189.768	1918.38
189.844	1942.64
189.92	1935.94
189.996	1943.21
190.071	1953.2
190.147	1952.63
190.223	1959.24
190.298	1950.87
190.374	1939.41
190.45	1951.53
190.526	1958.52
190.601	1954.29
190.677	1953.91
190.753	1980.08
190.828	1981.36
190.904	1989.87
190.98	2003.52
191.055	2014.17
191.131	2003.71
191.207	2021.35
191.282	2030
191.358	2022.82
191.433	2008.93
191.509	2023.05
191.585	2022.1
191.66	2019.15
191.736	2026.61
191.811	2016.34
191.887	2032.7
191.963	2056.06
192.038	2058.34
192.114	2059.15
192.189	2062.48
192.265	2060.86
192.34	2038.4
192.416	2041.26
192.491	2040.49
192.567	2043.49
192.642	2045.2
192.718	2044.16
192.793	2036.5
192.869	2031.89
192.944	2034.88
193.02	2040.26
193.095	2041.73
193.171	2046.06
193.246	2048.06
193.322	2046.44
193.397	2050.62
193.473	2036.83
193.548	2019.47
193.624	2025.08
193.699	2021.85
193.775	2037.16
193.85	2038.45
193.925	2051.2
194.001	2049.25
194.076	2041.83
194.152	2032.79
194.227	2025.32
194.302	2018.09
194.378	2023.47
194.453	2019.19
194.529	2030.65
194.604	2017.95
194.679	2012.63
194.755	1995.75
194.83	2009.07
194.905	2005.89
194.981	2013.45
195.056	2006.7
195.131	2011.55
195.207	2009.69
195.282	2000.76
195.357	1983.63
195.433	1998.47
195.508	1986.2
195.583	1990.71
195.659	2004.03
195.734	2007.79
195.809	2007.41
195.884	2015.59
195.96	2015.54
196.035	2032.04
196.11	2026.05
196.185	2040.93
196.261	2044.59
196.336	2076.22
196.411	2060.19
196.486	2065.13
196.561	2059.14
196.637	2066.51
196.712	2080.73
196.787	2087.06
196.862	2104.56
196.937	2112.79
197.013	2118.45
197.088	2126.58
197.163	2150.95
197.238	2166.56
197.313	2167.13
197.388	2179.02
197.464	2206.77
197.539	2215.81
197.614	2206.06
197.689	2222.14
197.764	2235.32
197.839	2254.97
197.914	2245.41
197.989	2269.25
198.065	2282.9
198.14	2333.33
198.215	2360.37
198.29	2371.32
198.365	2380.65
198.44	2391.16
198.515	2418.49
198.59	2432.96
198.665	2458.29
198.74	2465.38
198.815	2466.05
198.89	2486.9
198.965	2519.29
199.04	2514.72
199.115	2527.9
199.19	2570.27
199.265	2571.46
199.34	2581.28
199.415	2613.15
199.49	2635.48
199.565	2645.63
199.64	2666.91
199.715	2658.05
199.79	2661.95
199.865	2667.43
199.94	2667.05
200.015	2695.49
200.09	2700.11
200.165	2711.31
200.24	2719.08
200.315	2759.04
200.39	2773.24
200.464	2782.15
200.539	2785.53
200.614	2801.54
200.689	2824.98
200.764	2832.32
200.839	2849.47
200.914	2854.61
200.989	2846.18
201.063	2857.04
201.138	2839.71
201.213	2842.9
201.288	2826.41
201.363	2836.37
201.438	2838.37
201.512	2854.14
201.587	2838.03
201.662	2840.79
201.737	2848.23
201.812	2854.62
201.886	2819.09
201.961	2826.29
202.036	2815.61
202.111	2809.13
202.186	2780.51
202.26	2763.93
202.335	2743.29
202.41	2735.72
202.485	2718.33
202.559	2698.37
202.634	2676.03
202.709	2685.79
202.784	2667.83
202.858	2668.73
202.933	2649.82
203.008	2641.68
203.082	2622.86
203.157	2622.67
203.232	2583.11
203.306	2563.76
203.381	2532.47
203.456	2510.28
203.53	2489.74
203.605	2468.13
203.68	2446.5
203.754	2440.84
203.829	2428.31
203.904	2407.99
203.978	2398.99
204.053	2401.75
204.127	2389.8
204.202	2385.14
204.277	2364.67
204.351	2357.48
204.426	2348.82
204.5	2338.63
204.575	2310.36
204.65	2320.74
204.724	2311.84
204.799	2317.59
204.873	2309.83
204.948	2309.64
205.022	2301.17
205.097	2293.7
205.171	2308.16
205.246	2314.88
205.32	2314.16
205.395	2312.02
205.469	2304.36
205.544	2307.79
205.618	2292.42
205.693	2306.89
205.767	2297.99
205.842	2320.41
205.916	2315.46
205.991	2308.9
206.065	2316.13
206.14	2329.02
206.214	2323.83
206.289	2319.64
206.363	2333.01
206.438	2338.73
206.512	2343.34
206.586	2360.09
206.661	2366.38
206.735	2343.35
206.81	2343.54
206.884	2358.87
206.958	2345.4
207.033	2362.15
207.107	2368.2
207.181	2399.53
207.256	2389.62
207.33	2407.61
207.405	2417.52
207.479	2436.19
207.553	2445.99
207.628	2430.72
207.702	2441.66
207.776	2435.86
207.851	2437.52
207.925	2450.19
207.999	2446.71
208.073	2445.19
208.148	2448.62
208.222	2439
208.296	2471.74
208.371	2485.7
208.445	2496.27
208.519	2525.93
208.593	2536.17
208.668	2536.79
208.742	2540.22
208.816	2541.6
208.89	2553.27
208.965	2551.32
209.039	2554.75
209.113	2568.99
209.187	2589.78
209.261	2587.07
209.336	2606.02
209.41	2626.32
209.484	2626.17
209.558	2646.23
209.632	2660.66
209.707	2669.42
209.781	2689.28
209.855	2701.24
209.929	2717.5
210.003	2723.41
210.077	2719.31
210.151	2762.18
210.226	2792.55
210.3	2815.15
210.374	2838.68
210.448	2845.35
210.522	2857.89
210.596	2869.33
210.67	2875.24
210.744	2916.62
210.818	2945.06
210.892	2963.22
210.966	2956.36
211.041	2974.95
211.115	2971.42
211.189	2995.83
211.263	3013.66
211.337	3021.57
211.411	3035.69
211.485	3034.16
211.559	3045.65
211.633	3049.6
211.707	3023.6
211.781	3030.04
211.855	2999.91
211.929	2993.81
212.003	2976.37
212.077	2986.82
212.151	3003.13
212.225	3016.57
212.299	3011.08
212.373	3003.84
212.447	3002.45
212.52	3032.16
212.594	3036.93
212.668	3053.38
212.742	3044.08
212.816	3042.98
212.89	3042.84
212.964	3049.23
213.038	3057.72
213.112	3077.66
213.186	3100.45
213.26	3087.73
213.333	3055.68
213.407	3066.79
213.481	3077.56
213.555	3098.67
213.629	3096.33
213.703	3092.42
213.777	3102.48
213.85	3096.9
213.924	3141.33
213.998	3161.46
214.072	3172.01
214.146	3177.5
214.219	3195.63
214.293	3209.46
214.367	3232.65
214.441	3265.48
214.515	3276.41
214.588	3276.31
214.662	3268.58
214.736	3276.65
214.81	3310.93
214.883	3343.02
214.957	3363.87
215.031	3381.13
215.105	3390.57
215.178	3409.52
215.252	3436.59
215.326	3442.75
215.4	3463.12
215.473	3454.67
215.547	3470.14
215.621	3495.94
215.694	3536.64
215.768	3551.25
215.842	3578.08
215.915	3606.65
215.989	3622.18
216.063	3653.95
216.136	3698.19
216.21	3738.73
216.284	3789.9
216.357	3832.04
216.431	3877.38
216.504	3930.86
216.578	4007.34
216.652	4067.77
216.725	4118.4
216.799	4173.21
216.873	4229.14
216.946	4287.42
217.02	4336.37
217.093	4387.84
217.167	4420.71
217.24	4462.34
217.314	4514.19
217.387	4566.18
217.461	4617.35
217.535	4687.8
217.608	4732.26
217.682	4791.06
217.755	4865.08
217.829	4922.12
217.902	4988.16
217.976	5052.53
218.049	5106.27
218.123	5148.06
218.196	5214.74
218.27	5272.96
218.343	5324.82
218.417	5394.94
218.49	5457.49
218.563	5535.62
218.637	5603.03
218.71	5694.67
218.784	5768.1
218.857	5851.26
218.931	5924.96
219.004	5992.64
219.077	6061.84
219.151	6138.5
219.224	6207.13
219.298	6269.52
219.371	6349.55
219.444	6405.27
219.518	6470.51
219.591	6545.26
219.665	6642.09
219.738	6715.46
219.811	6779.03
219.885	6855.93
219.958	6933.18
220.031	7000.71
220.105	7079.56
220.178	7156.83
220.251	7214.36
220.325	7291.51
220.398	7364.91
220.471	7446.57
220.544	7527.48
220.618	7595.27
220.691	7669.01
220.764	7741.67
220.838	7822.8
220.911	7884.79
220.984	7984.53
221.057	8067.35
221.131	8142.53
221.204	8184.15
221.277	8273.97
221.35	8379.68
221.424	8450.98
221.497	8523.02
221.57	8603.23
221.643	8677.11
221.716	8757.83
221.79	8824.77
221.863	8893.22
221.936	8962.92
222.009	9030.27
222.082	9106.34
222.155	9173.73
222.229	9265.46
222.302	9340.18
222.375	9411.06
222.448	9487.68
222.521	9556.59
222.594	9621.27
222.667	9679.92
222.74	9760.87
222.814	9816.46
222.887	9873.73
222.96	9950.7
223.033	10027.49
223.106	10099.02
223.179	10172.58
223.252	10233.72
223.325	10308.82
223.398	10370.82
223.471	10438.18
223.544	10504.23
223.617	10565.56
223.69	10631.95
223.763	10676
223.837	10741.77
223.91	10806.05
223.983	10846.19
224.056	10891.48
224.129	10958.32
224.202	11030.79
224.275	11089.97
224.348	11144.33
224.42	11196.28
224.493	11234.06
224.566	11287.94
224.639	11343.8
224.712	11393.06
224.785	11446.94
224.858	11502.9
224.931	11564.2
225.004	11607.63
225.077	11669.32
225.15	11706.92
225.223	11776.03
225.296	11861.49
225.369	11905.02
225.442	11951.24
225.514	12019.74
225.587	12086.69
225.66	12151.09
225.733	12216.16
225.806	12278.97
225.879	12339.03
225.952	12385.11
226.025	12466.96
226.097	12534.16
226.17	12596.44
226.243	12636.54
226.316	12690.63
226.389	12749
226.461	12813.65
226.534	12880.41
226.607	12928.14
226.68	13008.16
226.753	13053.9
226.825	13084.9
226.898	13154.08
226.971	13208.79
227.044	13267.75
227.117	13320.87
227.189	13375.15
227.262	13439.17
227.335	13496.24
227.407	13545.42
227.48	13608.23
227.553	13658.36
227.626	13698.66
227.698	13750.58
227.771	13817.44
227.844	13869.7
227.916	13925.72
227.989	13959.17
228.062	14011.96
228.134	14091.01
228.207	14138.54
228.28	14185.98
228.352	14238.81
228.425	14291.69
228.498	14354.07
228.57	14395.58
228.643	14457.95
228.716	14510.26
228.788	14547.47
228.861	14591.72
228.934	14656.41
229.006	14706.5
229.079	14747.04
229.151	14792.73
229.224	14830.62
229.296	14877.77
229.369	14954.84
229.442	15013.46
229.514	15055.73
229.587	15108.13
229.659	15133.77
229.732	15181.3
229.804	15240.73
229.877	15310.05
229.949	15365.96
230.022	15428.67
230.094	15485.98
230.167	15537.8
230.239	15569.8
230.312	15615.4
230.384	15683.03
230.457	15728.48
230.529	15782.71
230.602	15838.52
230.674	15895.54
230.747	15946.63
230.819	16006.3
230.892	16016.67
230.964	16057.97
231.037	16117.89
231.109	16159.1
231.181	16218.57
231.254	16253.42
231.326	16288.85
231.399	16324.7
231.471	16356.75
231.544	16376.03
231.616	16419.17
231.688	16456.43
231.761	16488.38
231.833	16523.85
231.905	16541.16
231.978	16577.26
232.05	16612.53
232.122	16652.78
232.195	16684.78
232.267	16735.96
232.339	16762.09
232.412	16818.76
232.484	16860.07
232.556	16884.55
232.629	16935.83
232.701	16965.23
232.773	17004.07
232.846	17038.43
232.918	17070.63
232.99	17105.62
233.062	17144.56
233.135	17178.53
233.207	17199.74
233.279	17244.08
233.351	17285.04
233.424	17317.43
233.496	17339.26
233.568	17379.31
233.64	17392.95
233.713	17418.3
233.785	17438.97
233.857	17471.21
233.929	17474.83
234.001	17507.94
234.074	17543.45
234.146	17547.74
234.218	17566.3
234.29	17584.71
234.362	17600.75
234.434	17604.56
234.507	17614.49
234.579	17622.83
234.651	17635.84
234.723	17649.53
234.795	17670.3
234.867	17684.42
234.939	17703.11
235.012	17724.51
235.084	17741.09
235.156	17762.97
235.228	17766.58
235.3	17779.02
235.372	17779.93
235.444	17803.93
235.516	17785.86
235.588	17797.14
235.66	17811.35
235.732	17816.46
235.804	17879.64
235.876	17894.82
235.948	17926.58
236.02	17931.54
236.092	17938.38
236.164	17944.6
236.236	17950.19
236.308	17954.14
236.38	17968.5
236.452	17970.19
236.524	17977.03
236.596	18000.7
236.668	18009.85
236.74	18022.62
236.812	18031.88
236.884	18050.24
236.956	18062.43
237.028	18059.87
237.1	18054.81
237.172	18074.19
237.244	18087.49
237.316	18059.1
237.388	18058.33
237.46	18049.18
237.532	18064.5
237.604	18059.97
237.675	18081.03
237.747	18099.01
237.819	18103.58
237.891	18094.72
237.963	18082.91
238.035	18070.52
238.107	18029.37
238.178	18040.21
238.25	18034.72
238.322	18046.48
238.394	18026.48
238.466	18016.12
238.538	18019.2
238.609	18023.83
238.681	18010.05
238.753	18001.42
238.825	17988.94
238.897	17977.23
238.968	17990.19
239.04	17971.35
239.112	17987.64
239.184	17965.85
239.255	17948.12
239.327	17932.79
239.399	17915.3
239.471	17918.72
239.542	17923.3
239.614	17929.81
239.686	17893.57
239.758	17893.71
239.829	17866.29
239.901	17864.94
239.973	17841.18
240.044	17835.21
240.116	17817.14
240.188	17789.43
240.259	17777.67
240.331	17758.25
240.403	17756.27
240.474	17727.93
240.546	17714.1
240.618	17684.85
240.689	17661.24
240.761	17644.37
240.833	17638.3
240.904	17630.83
240.976	17615.12
241.048	17595.26
241.119	17580.95
241.191	17566.35
241.262	17551.79
241.334	17527.5
241.405	17507.36
241.477	17491.84
241.549	17470.59
241.62	17459.41
241.692	17449.53
241.763	17440.56
241.835	17423.26
241.906	17414.3
241.978	17373.86
242.049	17363.45
242.121	17352.56
242.192	17344.9
242.264	17313.96
242.335	17281.72
242.407	17272.08
242.478	17246.25
242.55	17231.74
242.621	17204.08
242.693	17180.42
242.764	17161.86
242.836	17146.1
242.907	17138.34
242.979	17115.11
243.05	17097.52
243.122	17070.68
243.193	17045.09
243.264	16988.46
243.336	16949.61
243.407	16923.4
243.479	16922.62
243.55	16894.19
243.622	16871.2
243.693	16847.05
243.764	16841.13
243.836	16809.8
243.907	16776.83
243.978	16746.86
244.05	16721.51
244.121	16672.25
244.192	16653.55
244.264	16616.25
244.335	16585.4
244.407	16538.26
244.478	16525.64
244.549	16496.82
244.62	16470.45
244.692	16448.18
244.763	16435.41
244.834	16415.6
244.906	16377.24
244.977	16347.55
245.048	16340.32
245.119	16303.16
245.191	16267.54
245.262	16209.9
245.333	16195.63
245.405	16163
245.476	16138.42
245.547	16113.31
245.618	16105.64
245.689	16087.81
245.761	16060.29
245.832	16035.03
245.903	16016.19
245.974	15995.32
246.045	15969.63
246.117	15950.73
246.188	15908.03
246.259	15874.77
246.33	15841.03
246.401	15814.71
246.473	15769.98
246.544	15729.45
246.615	15711.95
246.686	15679.95
246.757	15677.59
246.828	15643.56
246.899	15630.3
246.97	15580.17
247.042	15538.28
247.113	15517.94
247.184	15507.34
247.255	15467.24
247.326	15436.05
247.397	15407.13
247.468	15370.16
247.539	15340.08
247.61	15298.53
247.681	15278.38
247.752	15265.32
247.823	15233.46
247.894	15201.84
247.965	15167.61
248.037	15136.91
248.108	15089.43
248.179	15061.61
248.25	15021.94
248.321	14996.88
248.392	14954.17
248.463	14959.95
248.534	14931.66
248.605	14902.11
248.675	14864.8
248.746	14853.33
248.817	14836.02
248.888	14815.97
248.959	14777.36
249.03	14759.72
249.101	14741.06
249.172	14718.26
249.243	14668.56
249.314	14658.2
249.385	14636.12
249.456	14613.22
249.527	14592.93
249.598	14579.77
249.669	14552.92
249.739	14539.13
249.81	14515.66
249.881	14482.3
249.952	14452.41
250.023	14431.49
250.094	14391.05
250.165	14356.05
250.235	14323.42
250.306	14302.88
250.377	14258.72
250.448	14240.55
250.519	14192.83
250.59	14176.29
250.66	14138.45
250.731	14128.04
250.802	14104.37
250.873	14086.92
250.944	14065.9
251.014	14025.84
251.085	14017.02
251.156	13998.12
251.227	13980.67
251.297	13968.14
251.368	13953.43
251.439	13949.24
251.51	13931.26
251.58	13908.55
251.651	13881.37
251.722	13870.91
251.792	13824.39
251.863	13802.5
251.934	13789.2
252.005	13796.38
252.075	13772.28
252.146	13766.39
252.217	13756.8
252.287	13738.34
252.358	13705.89
252.429	13696.49
252.499	13671.33
252.57	13651.86
252.641	13638.31
252.711	13615.85
252.782	13575.4
252.852	13572.8
252.923	13541.17
252.994	13518.81
253.064	13504.39
253.135	13469.01
253.205	13431.17
253.276	13430.92
253.347	13426.06
253.417	13390.77
253.488	13354.42
253.558	13325.5
253.629	13298.65
253.699	13270.49
253.77	13248.56
253.841	13222.43
253.911	13207.54
253.982	13185.22
254.052	13166.7
254.123	13140.34
254.193	13109.05
254.264	13121.49
254.334	13082.83
254.405	13045.08
254.475	13014.57
254.546	12990.94
254.616	12986.08
254.687	12969.06
254.757	12949.68
254.827	12924.23
254.898	12914.06
254.968	12892.46
255.039	12859.87
255.109	12845.17
255.18	12824.01
255.25	12779.76
255.321	12769.58
255.391	12733.43
255.461	12734.97
255.532	12692.79
255.602	12673.12
255.673	12634.9
255.743	12608.63
255.813	12562.78
255.884	12552.95
255.954	12535.79
256.024	12527.98
256.095	12502.96
256.165	12476.5
256.235	12461.8
256.306	12434.27
256.376	12420.63
256.446	12409.78
256.517	12398.46
256.587	12381.97
256.657	12356.04
256.728	12343.99
256.798	12322.68
256.868	12304.46
256.938	12272.6
257.009	12256.5
257.079	12244.01
257.149	12255.19
257.219	12209.02
257.29	12201.93
257.36	12166.94
257.43	12162.26
257.5	12124.04
257.571	12104.08
257.641	12088.56
257.711	12053.85
257.781	12042.09
257.852	12022.86
257.922	11989.7
257.992	11962.99
258.062	11945.64
258.132	11943.86
258.202	11923.66
258.273	11906.6
258.343	11900.19
258.413	11869.73
258.483	11851.26
258.553	11814.2
258.623	11778.15
258.693	11763.88
258.764	11761.23
258.834	11754.62
258.904	11726.38
258.974	11699.63
259.044	11675.58
259.114	11663.39
259.184	11644.64
259.254	11615.43
259.324	11575.71
259.394	11559.9
259.464	11565.54
259.535	11540.77
259.605	11509.63
259.675	11481.25
259.745	11469.92
259.815	11434.01
259.885	11414.64
259.955	11424.23
260.025	11394.35
260.095	11377.87
260.165	11366.83
260.235	11354.3
260.305	11324.81
260.375	11300.08
260.445	11301.43
260.515	11298.16
260.585	11293.62
260.655	11275.55
260.725	11274.11
260.795	11269.33
260.865	11272.03
260.934	11246.68
261.004	11235.21
261.074	11218.54
261.144	11224.71
261.214	11206.87
261.284	11198.01
261.354	11192.61
261.424	11162.58
261.494	11172.75
261.564	11155.26
261.634	11144.22
261.703	11112.9
261.773	11104.08
261.843	11095.45
261.913	11084.32
261.983	11052.03
262.053	11035.79
262.123	11015.36
262.192	10979.41
262.262	10972.81
262.332	10937.2
262.402	10920.96
262.472	10903.41
262.541	10864.72
262.611	10850.6
262.681	10828.58
262.751	10814.94
262.821	10801.07
262.89	10775.04
262.96	10761.41
263.03	10768.01
263.1	10749.89
263.169	10737.55
263.239	10726.42
263.309	10729.89
263.379	10718.91
263.448	10704.69
263.518	10694
263.588	10684.7
263.657	10689.23
263.727	10674.77
263.797	10663.06
263.867	10642
263.936	10616.52
264.006	10618.97
264.076	10604.95
264.145	10583.51
264.215	10563.42
264.285	10555.04
264.354	10519.19
264.424	10495.68
264.494	10468.65
264.563	10457.18
264.633	10455.73
264.702	10450.87
264.772	10412.8
264.842	10390.54
264.911	10386.88
264.981	10353.01
265.05	10336.92
265.12	10318.66
265.19	10303.67
265.259	10297.41
265.329	10295.34
265.398	10284.45
265.468	10298.76
265.537	10272.65
265.607	10269.18
265.676	10262.39
265.746	10247.93
265.815	10248.18
265.885	10232.95
265.955	10205.69
266.024	10184.15
266.094	10150.67
266.163	10145.32
266.232	10150
266.302	10136.17
266.371	10123.31
266.441	10121.77
266.51	10112.95
266.58	10098.79
266.649	10078.46
266.719	10077.83
266.788	10069.26
266.858	10072.15
266.927	10033.37
266.996	10025.13
267.066	10012.17
267.135	9990.98
267.205	9990.64
267.274	9981.59
267.343	9982.79
267.413	9968.49
267.482	9969.02
267.552	9977.64
267.621	9945.41
267.69	9911.74
267.76	9895.13
267.829	9879.95
267.898	9861.31
267.968	9841.18
268.037	9833.18
268.106	9827.74
268.176	9798.65
268.245	9780
268.314	9758.71
268.384	9753.37
268.453	9744.12
268.522	9736.37
268.592	9732.32
268.661	9708
268.73	9697.83
268.799	9678.42
268.869	9685.07
268.938	9650.49
269.007	9624
269.076	9614.32
269.146	9617.84
269.215	9614.32
269.284	9625.45
269.353	9604.88
269.422	9592.8
269.492	9571.99
269.561	9542.09
269.63	9535.01
269.699	9521.19
269.768	9514.64
269.838	9507.03
269.907	9501.58
269.976	9476.78
270.045	9449.34
270.114	9450.25
270.183	9441.49
270.253	9434.41
270.322	9411.92
270.391	9408.6
270.46	9412.98
270.529	9407.15
270.598	9402.05
270.667	9387.6
270.736	9354.95
270.806	9355.53
270.875	9351.39
270.944	9337.52
271.013	9350.28
271.082	9340.7
271.151	9337.95
271.22	9316.77
271.289	9311.71
271.358	9299.63
271.427	9291.83
271.496	9286.48
271.565	9260.77
271.634	9251.48
271.703	9269.39
271.772	9269.34
271.841	9254.27
271.91	9234.44
271.979	9225.53
272.048	9199.53
272.117	9198.37
272.186	9185.47
272.255	9184.99
272.324	9189.37
272.393	9186.09
272.462	9174.78
272.531	9170.01
272.6	9154.46
272.669	9150.9
272.738	9137.61
272.807	9128.22
272.876	9115.13
272.945	9139.63
273.013	9144.35
273.082	9142.38
273.151	9098.56
273.22	9085.95
273.289	9079.59
273.358	9078.44
273.427	9067.94
273.496	9070.78
273.564	9060.19
273.633	9063.37
273.702	9040.79
273.771	9025.19
273.84	9023.46
273.909	9018.11
273.977	9010.03
274.046	9001.6
274.115	9002.37
274.184	8981.1
274.253	8972
274.322	8978.59
274.39	8947.01
274.459	8932.85
274.528	8905.85
274.597	8903.01
274.665	8908.31
274.734	8917.4
274.803	8912.93
274.872	8905.66
274.94	8885.2
275.009	8943.52
275.078	8929.08
275.147	8927.83
275.215	8923.16
275.284	8929.66
275.353	8920.32
275.421	8897.26
275.49	8909.78
275.559	8899.14
275.627	8893.9
275.696	8889.71
275.765	8884.8
275.833	8872.33
275.902	8868.1
275.971	8879.46
276.039	8893.61
276.108	8887.69
276.177	8878.54
276.245	8868.67
276.314	8869.97
276.383	8877.38
276.451	8811.94
276.52	8817.91
276.588	8821.95
276.657	8828.55
276.725	8816.61
276.794	8814.06
276.863	8825.94
276.931	8797.35
277	8802.17
277.068	8811.84
277.137	8831.43
277.205	8834.03
277.274	8850.3
277.342	8857.76
277.411	8840.87
277.48	8819.98
277.548	8812.61
277.617	8811.41
277.685	8809
277.754	8808.33
277.822	8801.11
277.89	8808.71
277.959	8797.98
278.027	8787.49
278.096	8768.72
278.164	8792.69
278.233	8785.9
278.301	8774.26
278.37	8780.22
278.438	8768.34
278.507	8765.88
278.575	8736.18
278.643	8722.27
278.712	8704.61
278.78	8689.69
278.849	8695.17
278.917	8708.84
278.985	8702.25
279.054	8711.92
279.122	8719.62
279.191	8717.84
279.259	8709.23
279.327	8688.58
279.396	8705.38
279.464	8697.92
279.532	8708.46
279.601	8706.29
279.669	8701.72
279.737	8713.22
279.806	8714.43
279.874	8722.27
279.942	8723.62
280.011	8720.69
280.079	8732.62
280.147	8751.34
280.215	8755.05
280.284	8751.83
280.352	8740.03
280.42	8745.38
280.488	8734.35
280.557	8724.39
280.625	8721.16
280.693	8724.68
280.761	8729.88
280.83	8716.35
280.898	8728.43
280.966	8707.35
281.034	8670.91
281.102	8654.17
281.171	8644.2
281.239	8653.35
281.307	8643.53
281.375	8630.49
281.443	8657.06
281.512	8647.72
281.58	8646.32
281.648	8633.09
281.716	8634.39
281.784	8628.66
281.852	8622.45
281.92	8617.83
281.989	8624.62
282.057	8611.62
282.125	8656.2
282.193	8657.98
282.261	8652.83
282.329	8647.06
282.397	8651.82
282.465	8656.73
282.533	8674.78
282.601	8666.11
282.67	8648.98
282.738	8643.88
282.806	8657.21
282.874	8634.83
282.942	8642.86
283.01	8642.58
283.078	8649.94
283.146	8642.43
283.214	8652.73
283.282	8654.75
283.35	8665.39
283.418	8659.37
283.486	8667.65
283.554	8620.95
283.622	8618.07
283.69	8618.6
283.758	8616.72
283.826	8621.29
283.894	8630.1
283.962	8648.25
284.03	8666.63
284.098	8670.43
284.165	8666.2
284.233	8661.58
284.301	8659.84
284.369	8650.31
284.437	8639.68
284.505	8630.53
284.573	8645.12
284.641	8632.7
284.709	8639.58
284.777	8623.51
284.845	8630.1
284.912	8628.75
284.98	8639.48
285.048	8630.49
285.116	8629.72
285.184	8635.25
285.252	8639.39
285.319	8624.81
285.387	8613.54
285.455	8593.96
285.523	8594.68
285.591	8593.04
285.659	8594.39
285.726	8605.65
285.794	8591.55
285.862	8583.42
285.93	8588.9
285.997	8588.47
286.065	8585.25
286.133	8580.29
286.201	8580.1
286.269	8566.48
286.336	8558.78
286.404	8550.6
286.472	8563.59
286.539	8548.05
286.607	8533.75
286.675	8530.24
286.743	8537.03
286.81	8526.34
286.878	8538.85
286.946	8531.63
287.013	8530.24
287.081	8531.3
287.149	8522.44
287.216	8542.12
287.284	8542.89
287.352	8542.08
287.419	8535.24
287.487	8550.4
287.555	8553.39
287.622	8549.87
287.69	8552.91
287.758	8567.05
287.825	8562.92
287.893	8549.01
287.96	8559.45
288.028	8566.71
288.096	8569.46
288.163	8570.04
288.231	8566.91
288.298	8573.74
288.366	8585.97
288.433	8581.25
288.501	8565.71
288.569	8561.14
288.636	8562.2
288.704	8577.55
288.771	8586.98
288.839	8574.42
288.906	8564.6
288.974	8565.61
289.041	8562.49
289.109	8559.7
289.176	8564.41
289.244	8560.08
289.311	8574.28
289.379	8577.84
289.446	8582.65
289.514	8580.58
289.581	8583.23
289.649	8581.11
289.716	8574.9
289.783	8567.78
289.851	8592.56
289.918	8598.53
289.986	8610.56
290.053	8604.11
290.121	8596.65
290.188	8594.29
290.255	8626.73
290.323	8633.04
290.39	8632.7
290.458	8638.81
290.525	8644.83
290.592	8639.24
290.66	8651.37
290.727	8648.48
290.794	8660.61
290.862	8658.25
290.929	8657.96
290.996	8658.4
291.064	8670.04
291.131	8681.74
291.198	8692.9
291.266	8685.69
291.333	8685.54
291.4	8690.64
291.468	8712.35
291.535	8711.87
291.602	8716.01
291.669	8707.25
291.737	8706.09
291.804	8705.28
291.871	8723.04
291.938	8731.27
292.006	8759.57
292.073	8768.57
292.14	8778.01
292.207	8774.35
292.275	8779.88
292.342	8788.6
292.409	8808.33
292.476	8828.45
292.543	8823.98
292.611	8822.29
292.678	8841.74
292.745	8866
292.812	8878.22
292.879	8869.27
292.946	8872.49
293.014	8880.58
293.081	8883.76
293.148	8893.29
293.215	8909.37
293.282	8903.97
293.349	8919.48
293.416	8900.99
293.484	8910.47
293.551	8914.61
293.618	8929.68
293.685	8956.06
293.752	8954.66
293.819	8961.65
293.886	8952.02
293.953	8950.72
294.02	8963.71
294.087	8969.97
294.154	8964.82
294.221	8983.12
294.288	8989.28
294.356	9005.31
294.423	9014.7
294.49	9014.79
294.557	9029.77
294.624	9025.1
294.691	9041.9
294.758	9038.33
294.825	9043.24
294.892	9038.29
294.959	9041.22
295.026	9049.26
295.093	9039.39
295.16	9040.4
295.226	9040.55
295.293	9056.87
295.36	9064.28
295.427	9077.33
295.494	9087.06
295.561	9097.45
295.628	9111.28
295.695	9126.92
295.762	9131.79
295.829	9147.05
295.896	9164.14
295.963	9171.94
296.03	9179.11
296.096	9185.37
296.163	9192.74
296.23	9211.76
296.297	9225.77
296.364	9226.06
296.431	9224.47
296.498	9223.12
296.564	9250.61
296.631	9248.68
296.698	9239.68
296.765	9264.91
296.832	9252.87
296.899	9241.56
296.965	9261.11
297.032	9240.64
297.099	9254.12
297.166	9258.79
297.233	9251.91
297.299	9244.64
297.366	9244.06
297.433	9248.01
297.5	9256.29
297.566	9260.48
297.633	9257.69
297.7	9260.96
297.767	9264.81
297.833	9279.59
297.9	9279.5
297.967	9262.69
298.033	9276.23
298.1	9307.82
298.167	9303
298.234	9306.66
298.3	9322.98
298.367	9316.87
298.434	9323.61
298.5	9313.35
298.567	9314.65
298.634	9320.19
298.7	9329.09
298.767	9330.68
298.834	9343.25
298.9	9341.04
298.967	9336.03
299.033	9340.03
299.1	9354.33
299.167	9360.54
299.233	9351.53
299.3	9369.45
299.366	9384.8
299.433	9397.81
299.5	9373.78
299.566	9370.65
299.633	9394.58
299.699	9396.12
299.766	9395.25
299.832	9399.16
299.899	9406.67
299.965	9418.23
300.032	9408.55
300.099	9424.39
300.165	9429.93
300.232	9423.81
300.298	9427.52
300.365	9441
300.431	9445.87
300.498	9439.61
300.564	9449.24
300.631	9464.6
300.697	9474.9
300.763	9479.29
300.83	9478.9
300.896	9494.36
300.963	9508.52
301.029	9510.44
301.096	9517.76
301.162	9524.46
301.229	9518.97
301.295	9512.37
301.361	9512.37
301.428	9522.24
301.494	9507.84
301.561	9507.31
301.627	9511.07
301.693	9513.57
301.76	9513.09
301.826	9510.35
301.892	9523.73
301.959	9541.84
302.025	9537.36
302.092	9537.75
302.158	9543.14
302.224	9543.19
302.291	9534.81
302.357	9529.32
302.423	9520.94
302.49	9504.62
302.556	9516.56
302.622	9520.27
302.688	9531.3
302.755	9540.45
302.821	9539.19
302.887	9546.95
302.954	9550.94
303.02	9556.19
303.086	9560.67
303.152	9561.25
303.219	9551.28
303.285	9549.36
303.351	9549.6
303.417	9549.16
303.483	9537.12
303.55	9525.47
303.616	9520.94
303.682	9518.05
303.748	9511.07
303.815	9523.35
303.881	9542.28
303.947	9529.76
304.013	9527.88
304.079	9516.8
304.145	9502.93
304.212	9502.45
304.278	9494.55
304.344	9493.16
304.41	9483.81
304.476	9473.22
304.542	9470.23
304.608	9482.22
304.674	9466.04
304.741	9456.17
304.807	9459.98
304.873	9466.38
304.939	9483.86
305.005	9468.55
305.071	9470.23
305.137	9470.38
305.203	9451.55
305.269	9440.95
305.335	9445.62
305.401	9442.3
305.467	9442.88
305.533	9447.55
305.599	9459.3
305.666	9470.04
305.732	9470.57
305.798	9481.64
305.864	9505.96
305.93	9506.83
305.996	9508.23
306.062	9515.84
306.128	9514.34
306.194	9498.88
306.259	9496.43
306.325	9485.3
306.391	9495.03
306.457	9503.6
306.523	9512.46
306.589	9527.49
306.655	9518.68
306.721	9501.73
306.787	9489.69
306.853	9503.46
306.919	9488.2
306.985	9474.86
307.051	9469.42
307.117	9457.33
307.183	9454.68
307.248	9429.11
307.314	9433.54
307.38	9430.07
307.446	9432.91
307.512	9421.12
307.578	9426.99
307.644	9421.21
307.709	9424.49
307.775	9422.03
307.841	9413.07
307.907	9408.06
307.973	9393.71
308.039	9397.76
308.104	9411.24
308.17	9414.47
308.236	9397.56
308.302	9401.17
308.368	9392.94
308.433	9391.06
308.499	9393.42
308.565	9370.98
308.631	9370.98
308.696	9349.89
308.762	9340.31
308.828	9334.53
308.894	9322.45
308.959	9305.11
309.025	9295.92
309.091	9286.96
309.156	9275.26
309.222	9272.71
309.288	9253.88
309.354	9230.48
309.419	9229.13
309.485	9206.98
309.551	9209.73
309.616	9191.1
309.682	9187.68
309.748	9181.61
309.813	9171.02
309.879	9160.09
309.945	9158.26
310.01	9146.66
310.076	9149.98
310.141	9142.71
310.207	9126.58
310.273	9120.51
310.338	9122.53
310.404	9107.71
310.469	9099.76
310.535	9085.7
310.601	9066.93
310.666	9081.23
310.732	9085.85
310.797	9068.66
310.863	9063.65
310.928	9058.02
310.994	9063.51
311.059	9059.46
311.125	9056.72
311.191	9064.28
311.256	9050.85
311.322	9053.3
311.387	9038.91
311.453	9396.51
311.518	9372.78
311.584	9368.79
311.649	9373.65
311.715	9361.28
311.78	9362.96
311.846	9351.65
311.911	9360.89
311.976	9359.16
312.042	9337.01
312.107	9326.85
312.173	9318.09
312.238	9314.19
312.304	9311.35
312.369	9303.7
312.434	9287.86
312.5	9282.09
312.565	9258.4
312.631	9262.73
312.696	9254.64
312.761	9257.15
312.827	8887.65
312.892	8923.71
312.958	8925.54
313.023	8923.66
313.088	8926.45
313.154	8911.53
313.219	8898.15
313.284	8891.75
313.35	8885.59
313.415	8876.35
313.48	8874.95
313.546	8881.16
313.611	8894.06
313.676	8881.02
313.741	8868.55
313.807	8880.01
313.872	8878.18
313.937	8882.85
314.003	8891.75
314.068	8891.9
314.133	8896.71
314.198	8888.19
314.264	8864.69
314.329	8847.37
314.394	8842.55
314.459	8834.66
314.525	8854.34
314.59	8850.98
314.655	8835.81
314.72	8843.95
314.785	8850.45
314.851	8846.69
314.916	8827.49
314.981	8805.68
315.046	8795.57
315.111	8784.75
315.176	8767.08
315.242	8772.18
315.307	8765.68
315.372	8746.86
315.437	8735.65
315.502	8724.38
315.567	8729.73
315.632	8714.76
315.698	8720.29
315.763	8721.02
315.828	8711.15
315.893	8703.98
315.958	8704.03
316.023	8694.98
316.088	8676.64
316.153	8651.04
316.218	8637.47
316.283	8622.79
316.348	8607.3
316.413	8605.42
316.479	8592.91
316.544	8561.11
316.609	8526.22
316.674	8490.47
316.739	8454.33
316.804	8422.43
316.869	8388.66
316.934	8350.02
316.999	8322.59
317.064	8271.59
317.129	8221.22
317.194	8178.17
317.259	8126.68
317.324	8074.4
317.389	8024.43
317.454	7984.31
317.518	7952.18
317.583	7926.44
317.648	7898.69
317.713	7860.98
317.778	7803.55
317.843	7773.3
317.908	7734.7
317.973	7693.73
318.038	7664.2
318.103	7630.5
318.168	7598.19
318.233	7565.69
318.297	7517.13
318.362	7481.89
318.427	7445.17
318.492	7417.86
318.557	7381.67
318.622	7355.57
318.687	7335.14
318.751	7303.33
318.816	7272.04
318.881	7235.23
318.946	7181.68
319.011	7141.7
319.075	7102.68
319.14	7064.73
319.205	7020.95
319.27	6990.4
319.335	6946.02
319.399	6906.48
319.464	6875.54
319.529	6826.31
319.594	6786.25
319.658	6760.26
319.723	6717.18
319.788	6684.86
319.853	6625.74
319.917	6594.92
319.982	6539.45
320.047	6496.29
320.112	6465.99
320.176	6415.34
320.241	6381.83
320.306	6346.93
320.37	6304.3
320.435	6267.92
320.5	6239.94
320.564	6203.13
320.629	6162.48
320.694	6135.61
320.758	6094.15
320.823	6049.29
320.888	6016.77
320.952	5965
321.017	5918.37
321.082	5875.35
321.146	5840.09
321.211	5814.67
321.275	5773.91
321.34	5732.77
321.405	5687.17
321.469	5642.87
321.534	5601.73
321.598	5550.44
321.663	5522.62
321.727	5487.29
321.792	5437.49
321.857	5390.23
321.921	5347.72
321.986	5308.23
322.05	5248.35
322.115	5210.88
322.179	5167.95
322.244	5115.22
322.308	5081.02
322.373	5038.54
322.437	4998.07
322.502	4974.01
322.566	4926.84
322.631	4887.29
322.695	4849.42
322.76	4809.69
322.824	4775.98
322.889	4730.23
322.953	4689.46
323.018	4620.2
323.082	4559.38
323.146	4509.4
323.211	4461.27
323.275	4417.06
323.34	4370.19
323.404	4338.2
323.468	4292.18
323.533	4247.67
323.597	4203.65
323.662	4159.51
323.726	4120.88
323.79	4077.23
323.855	4009.08
323.919	3959.04
323.983	3917.94
324.048	3851.07
324.112	3969.77
324.177	3837.62
324.241	3639.76
324.305	3440.5
324.37	3250.51
324.434	3064.63
324.498	3024.97
324.562	2974.79
324.627	2916.42
324.691	2860.27
324.755	2795.28
324.82	2720.89
324.884	2645.33
324.948	2573.89
325.012	2475.41
325.077	2355.29
