Data from 20250630_urea_2M_MAYP1162681_05-22-26-893.txt Node
Date: Tue Jul 01 05:22:26 BST 2025
User: adleo
Spectrometer: MAYP116268
Trigger mode: 0
Integration Time (sec): 1.000000E0
Scans to average: 1
Electric dark correction enabled: true
Nonlinearity correction enabled: true
Boxcar width: 10
XAxis mode: Wavelengths
Number of Pixels in Spectrum: 2068
>>>>>Begin Spectral Data<<<<<
179.565	1045
179.642	1095.08
179.718	1135.01
179.795	1167.23
179.871	1194.63
179.948	1211.5
180.024	1228.49
180.101	1248.58
180.177	1261
180.254	1279.75
180.33	1300.13
180.407	1342.52
180.483	1426.46
180.56	1503.38
180.636	1574.49
180.712	1562.66
180.789	1572.87
180.865	1580.57
180.942	1590.87
181.018	1600.7
181.095	1614.91
181.171	1619.99
181.248	1622.56
181.324	1637
181.4	1644.99
181.477	1656.1
181.553	1665.7
181.63	1683.94
181.706	1699
181.782	1703.9
181.859	1703.52
181.935	1707.46
182.011	1702.52
182.088	1717.91
182.164	1733.27
182.24	1746.57
182.317	1754.93
182.393	1751.93
182.469	1766.81
182.546	1778.55
182.622	1781.06
182.698	1776.17
182.775	1787.05
182.851	1800.03
182.927	1790.43
183.003	1784.44
183.08	1776.69
183.156	1786.29
183.232	1786.06
183.308	1773.51
183.385	1784.77
183.461	1801.5
183.537	1803.88
183.613	1816.61
183.69	1806.87
183.766	1799.83
183.842	1809.39
183.918	1813.9
183.995	1824.31
184.071	1827.73
184.147	1821.13
184.223	1813.48
184.299	1824.93
184.375	1816.52
184.452	1819.47
184.528	1871.48
184.604	1881.84
184.68	1896.48
184.756	1901.85
184.832	1904.23
184.908	1909.98
184.985	1907.6
185.061	1893.29
185.137	1901.14
185.213	1891.54
185.289	1892.39
185.365	1888.02
185.441	1883.93
185.517	1895.25
185.593	1895.34
185.669	1892.35
185.745	1902.19
185.822	1915.44
185.898	1907.13
185.974	1915.39
186.05	1909.02
186.126	1871.22
186.202	1863.57
186.278	1855.07
186.354	1848.74
186.43	1855.54
186.506	1854.54
186.582	1854.35
186.658	1859.63
186.734	1837.86
186.81	1838.67
186.886	1841
186.962	1849.98
187.038	1848.41
187.114	1839.47
187.19	1844.18
187.266	1834.91
187.341	1835.39
187.417	1829.92
187.493	1832.44
187.569	1832.25
187.645	1823.84
187.721	1814.09
187.797	1823.36
187.873	1830.49
187.949	1824.84
188.025	1819.56
188.101	1819.18
188.176	1821.98
188.252	1816.85
188.328	1825.59
188.404	1825.16
188.48	1821.12
188.556	1815.94
188.632	1815.56
188.707	1817.46
188.783	1815.28
188.859	1811.33
188.935	1801.83
189.011	1811.28
189.086	1807.06
189.162	1803.16
189.238	1803.68
189.314	1802.11
189.39	1795.17
189.465	1789.42
189.541	1799.93
189.617	1783.67
189.693	1781.01
189.768	1782.82
189.844	1806.11
189.92	1801.08
189.996	1809.68
190.071	1820.71
190.147	1819.47
190.223	1826.46
190.298	1818.28
190.374	1804.69
190.45	1814.96
190.526	1821.32
190.601	1813.81
190.677	1813.77
190.753	1836.83
190.828	1841.63
190.904	1854.33
190.98	1869.92
191.055	1879.38
191.131	1874.29
191.207	1893.68
191.282	1902.14
191.358	1895.77
191.433	1881.46
191.509	1890.96
191.585	1886.54
191.66	1888.63
191.736	1895.67
191.811	1888.3
191.887	1903.42
191.963	1926.67
192.038	1931.28
192.114	1933.89
192.189	1938.07
192.265	1935.13
192.34	1914.63
192.416	1908.69
192.491	1904.93
192.567	1906.5
192.642	1908.21
192.718	1911.4
192.793	1901.94
192.869	1900.7
192.944	1905.22
193.02	1914.35
193.095	1917.96
193.171	1926.04
193.246	1924.9
193.322	1922.43
193.397	1921.33
193.473	1911.16
193.548	1894.8
193.624	1902.08
193.699	1899.56
193.775	1915.01
193.85	1915.96
193.925	1925.42
194.001	1928.56
194.076	1922.43
194.152	1915.06
194.227	1906.55
194.302	1895.9
194.378	1899.18
194.453	1895.62
194.529	1905.51
194.604	1891.62
194.679	1887.25
194.755	1870.28
194.83	1879.18
194.905	1877.04
194.981	1884.6
195.056	1877.13
195.131	1882.12
195.207	1880.08
195.282	1873.14
195.357	1853.93
195.433	1868.67
195.508	1855.55
195.583	1861.91
195.659	1873.75
195.734	1878.32
195.809	1879.6
195.884	1888.63
195.96	1888.63
196.035	1903.75
196.11	1901.04
196.185	1911.5
196.261	1914.73
196.336	1943.11
196.411	1932.13
196.486	1937.55
196.561	1932.93
196.637	1942.16
196.712	1957.52
196.787	1961.51
196.862	1971.45
196.937	1981.71
197.013	1985.42
197.088	1994.84
197.163	2012.86
197.238	2029.47
197.313	2029.71
197.388	2042.6
197.464	2068.48
197.539	2076.37
197.614	2068.62
197.689	2079.56
197.764	2095.69
197.839	2113.57
197.914	2106.19
197.989	2124.56
198.065	2137.06
198.14	2182.85
198.215	2206.02
198.29	2217.3
198.365	2227.29
198.44	2239.61
198.515	2265.64
198.59	2279.54
198.665	2304.52
198.74	2311.76
198.815	2312.04
198.89	2331.46
198.965	2359.21
199.04	2355.21
199.115	2369.35
199.19	2408.99
199.265	2412.75
199.34	2421.75
199.415	2451.94
199.49	2472.55
199.565	2483.74
199.64	2507.83
199.715	2504.64
199.79	2512.73
199.865	2516.64
199.94	2515.16
200.015	2545.02
200.09	2550.21
200.165	2555.4
200.24	2561.12
200.315	2601.82
200.39	2616.35
200.464	2620.82
200.539	2621.21
200.614	2638.21
200.689	2661.54
200.764	2667.17
200.839	2679.35
200.914	2682.26
200.989	2675.11
201.063	2687.11
201.138	2669.31
201.213	2667.69
201.288	2651.93
201.363	2655.93
201.438	2658.93
201.512	2672.26
201.587	2653.59
201.662	2655.59
201.737	2665.73
201.812	2674.93
201.886	2641.75
201.961	2651.42
202.036	2641.9
202.111	2638.9
202.186	2612.38
202.26	2597.66
202.335	2577.7
202.41	2574.46
202.485	2558.28
202.559	2538.42
202.634	2515.04
202.709	2528.03
202.784	2510.32
202.858	2511.6
202.933	2494.22
203.008	2484.84
203.082	2467.85
203.157	2468.99
203.232	2427.59
203.306	2410.11
203.381	2378.12
203.456	2356.51
203.53	2333.73
203.605	2319.41
203.68	2296.75
203.754	2287.29
203.829	2269.91
203.904	2250.5
203.978	2236.79
204.053	2242.12
204.127	2229.56
204.202	2229.28
204.277	2211.81
204.351	2206.77
204.426	2194.11
204.5	2182.93
204.575	2154.2
204.65	2161.91
204.724	2153.34
204.799	2165.7
204.873	2160.51
204.948	2164.03
205.022	2155.81
205.097	2149.76
205.171	2158.61
205.246	2167.36
205.32	2168.03
205.395	2168.6
205.469	2159.9
205.544	2166.9
205.618	2150.82
205.693	2164.57
205.767	2150.49
205.842	2171.14
205.916	2164.48
205.991	2156.82
206.065	2164.67
206.14	2177.7
206.214	2177.46
206.289	2172.75
206.363	2183.79
206.438	2188.93
206.512	2191.92
206.586	2209.86
206.661	2214.43
206.735	2195.03
206.81	2196.41
206.884	2211.77
206.958	2203.07
207.033	2218.38
207.107	2224.95
207.181	2253.27
207.256	2247.46
207.33	2266.11
207.405	2275.44
207.479	2293.05
207.553	2302.28
207.628	2289.82
207.702	2299.57
207.776	2291.86
207.851	2295.33
207.925	2309.29
207.999	2305.05
208.073	2303.29
208.148	2304.91
208.222	2296.43
208.296	2326.5
208.371	2340.07
208.445	2346.12
208.519	2371.34
208.593	2383
208.668	2379.43
208.742	2383.19
208.816	2383.95
208.89	2396.67
208.965	2396.81
209.039	2403.05
209.113	2419.56
209.187	2436.64
209.261	2435.26
209.336	2453.11
209.41	2470.73
209.484	2467.78
209.558	2487.35
209.632	2497.34
209.707	2505.3
209.781	2525.58
209.855	2540.58
209.929	2554.69
210.003	2562.59
210.077	2562.83
210.151	2605.49
210.226	2637.99
210.3	2661.01
210.374	2683.06
210.448	2686.34
210.522	2691.54
210.596	2699.49
210.67	2707.97
210.744	2750.86
210.818	2778.1
210.892	2796.01
210.966	2792.63
211.041	2811.26
211.115	2810.36
211.189	2835.13
211.263	2853.14
211.337	2859.15
211.411	2872.92
211.485	2871.54
211.559	2884.12
211.633	2886.88
211.707	2865.04
211.781	2870.9
211.855	2843.59
211.929	2836.49
212.003	2822.54
212.077	2836.27
212.151	2854.81
212.225	2865.92
212.299	2861.72
212.373	2860.25
212.447	2864.39
212.52	2898.38
212.594	2910.21
212.668	2929.94
212.742	2926.89
212.816	2935.47
212.89	2943.82
212.964	2954.45
213.038	2972.53
213.112	2996.9
213.186	3026.22
213.26	3022.45
213.333	3000.76
213.407	3027.93
213.481	3055.24
213.555	3092.69
213.629	3106.81
213.703	3117.36
213.777	3145.36
213.85	3154.57
213.924	3210.88
213.998	3244.1
214.072	3265.01
214.146	3284.44
214.219	3316.46
214.293	3353.73
214.367	3387.76
214.441	3438.03
214.515	3470.98
214.588	3491.46
214.662	3509.17
214.736	3540.35
214.81	3594.46
214.883	3652.16
214.957	3686.48
215.031	3725.92
215.105	3759.86
215.178	3801.71
215.252	3853.65
215.326	3891.16
215.4	3936.4
215.473	3957.73
215.547	4000.52
215.621	4056.81
215.694	4126.16
215.768	4169.62
215.842	4225.96
215.915	4288.05
215.989	4329.63
216.063	4390.07
216.136	4463.13
216.21	4538.3
216.284	4620
216.357	4699.6
216.431	4772.79
216.504	4860.06
216.578	4967.54
216.652	5060.52
216.725	5145.84
216.799	5233.78
216.873	5320.16
216.946	5416.23
217.02	5498.31
217.093	5581.63
217.167	5650.81
217.24	5724.82
217.314	5814.37
217.387	5895.75
217.461	5979.04
217.535	6086.12
217.608	6171.48
217.682	6261.76
217.755	6365.63
217.829	6457
217.902	6553.61
217.976	6655.31
218.049	6748.86
218.123	6824.72
218.196	6919.25
218.27	7010.97
218.343	7097.66
218.417	7195.5
218.49	7290.94
218.563	7404.27
218.637	7509.5
218.71	7628.2
218.784	7733.75
218.857	7843.42
218.931	7949.34
219.004	8048.95
219.077	8154.02
219.151	8258.5
219.224	8358.04
219.298	8452.35
219.371	8560.82
219.444	8650.38
219.518	8747.88
219.591	8844.38
219.665	8963.67
219.738	9062.05
219.811	9147.83
219.885	9246.57
219.958	9348.12
220.031	9436.9
220.105	9538.47
220.178	9643.94
220.251	9729.48
220.325	9829.04
220.398	9933.37
220.471	10033.26
220.544	10135.14
220.618	10217.71
220.691	10317.58
220.764	10407.72
220.838	10506.77
220.911	10588.69
220.984	10691.12
221.057	10785.61
221.131	10884.05
221.204	10944.81
221.277	11053.48
221.35	11171.49
221.424	11258.77
221.497	11347.68
221.57	11436.98
221.643	11523.59
221.716	11611.65
221.79	11692.86
221.863	11776.43
221.936	11845.45
222.009	11923.83
222.082	12011.5
222.155	12091.71
222.229	12183.2
222.302	12268.51
222.375	12345.35
222.448	12433.56
222.521	12509.53
222.594	12580
222.667	12639.68
222.74	12729.72
222.814	12801.6
222.887	12873.33
222.96	12966.99
223.033	13051.93
223.106	13133.98
223.179	13208.65
223.252	13270.78
223.325	13345.94
223.398	13414.44
223.471	13496.1
223.544	13565.23
223.617	13634.89
223.69	13705.75
223.763	13758.34
223.837	13829.88
223.91	13905.9
223.983	13956.42
224.056	14010.46
224.129	14082.34
224.202	14159.13
224.275	14218.37
224.348	14266.05
224.42	14314.74
224.493	14353.01
224.566	14398.04
224.639	14456.8
224.712	14508.28
224.785	14567.09
224.858	14622.48
224.931	14675.16
225.004	14716.38
225.077	14781.02
225.15	14813.32
225.223	14864.03
225.296	14940.14
225.369	14973.16
225.442	15012.98
225.514	15064.41
225.587	15122.93
225.66	15184.05
225.733	15245.22
225.806	15297.23
225.879	15352.95
225.952	15397.97
226.025	15463.62
226.097	15534.23
226.17	15587.4
226.243	15622.73
226.316	15674.5
226.389	15732.63
226.461	15789.74
226.534	15847.25
226.607	15895.16
226.68	15963.02
226.753	16019.75
226.825	16052.96
226.898	16122.13
226.971	16161.94
227.044	16212.64
227.117	16265.95
227.189	16311.93
227.262	16359.84
227.335	16412.23
227.407	16456.38
227.48	16506.45
227.553	16550.84
227.626	16588.29
227.698	16635.52
227.771	16688.54
227.844	16722.66
227.916	16764.25
227.989	16797.46
228.062	16838.86
228.134	16899.2
228.207	16942.14
228.28	16972.5
228.352	17012.07
228.425	17058.63
228.498	17114.68
228.57	17148.8
228.643	17204.85
228.716	17243.64
228.788	17278.01
228.861	17317.28
228.934	17359.45
229.006	17403.45
229.079	17441.77
229.151	17475.31
229.224	17502.68
229.296	17551.21
229.369	17618.2
229.442	17662.82
229.514	17691.31
229.587	17739.35
229.659	17755.55
229.732	17798.48
229.804	17846.24
229.877	17901.32
229.949	17934.53
230.022	17986.04
230.094	18027.63
230.167	18054.86
230.239	18079.29
230.312	18104.98
230.384	18155.72
230.457	18197.51
230.529	18226.76
230.602	18259.96
230.674	18293.41
230.747	18334.46
230.819	18373.84
230.892	18374.7
230.964	18409.21
231.037	18445.35
231.109	18464.19
231.181	18501.25
231.254	18521.92
231.326	18548.14
231.399	18561.25
231.471	18581.68
231.544	18590.64
231.616	18626.88
231.688	18655.46
231.761	18677.24
231.833	18700.71
231.905	18703.75
231.978	18726.39
232.05	18749.62
232.122	18774.63
232.195	18788.13
232.267	18817.62
232.339	18826
232.412	18854.48
232.484	18866.29
232.556	18878.38
232.629	18925.08
232.701	18948.12
232.773	18963.63
232.846	18973.56
232.918	18987
232.99	19010.95
233.062	19029.03
233.135	19040.11
233.207	19038.76
233.279	19059.34
233.351	19088.25
233.424	19102.71
233.496	19104.83
233.568	19134.71
233.64	19131.33
233.713	19142.75
233.785	19151.33
233.857	19169.64
233.929	19171.67
234.001	19195.76
234.074	19222.17
234.146	19207.52
234.218	19216.15
234.29	19219.66
234.362	19217.25
234.434	19206.22
234.507	19206.61
234.579	19196.05
234.651	19199.67
234.723	19220.53
234.795	19229.88
234.867	19228.53
234.939	19232.58
235.012	19234.8
235.084	19239.37
235.156	19247.33
235.228	19249.59
235.3	19247.42
235.372	19245.35
235.444	19248.43
235.516	19227.52
235.588	19229.4
235.66	19232.24
235.732	19221.3
235.804	19267.47
235.876	19277.88
235.948	19301.25
236.02	19285.35
236.092	19290.41
236.164	19287.52
236.236	19274.75
236.308	19269.49
236.38	19270.84
236.452	19258.46
236.524	19252.63
236.596	19250.75
236.668	19253.83
236.74	19250.22
236.812	19238.31
236.884	19240.19
236.956	19242.99
237.028	19222.94
237.1	19211.62
237.172	19214.75
237.244	19226.41
237.316	19185.98
237.388	19174.32
237.46	19151.91
237.532	19156.97
237.604	19136.78
237.675	19133.16
237.747	19133.16
237.819	19111.82
237.891	19089.41
237.963	19073.51
238.035	19055.82
238.107	19013.8
238.178	19009.46
238.25	18984.4
238.322	18994.67
238.394	18951.87
238.466	18926.62
238.538	18926.19
238.609	18906.62
238.681	18873.23
238.753	18843.69
238.825	18828.36
238.897	18815.74
238.968	18818.58
239.04	18796.9
239.112	18804.7
239.184	18775.21
239.255	18747.31
239.327	18723.65
239.399	18706.88
239.471	18694.35
239.542	18677.05
239.614	18673.72
239.686	18625.87
239.758	18623.99
239.829	18593.87
239.901	18597.39
239.973	18585.34
240.044	18572.19
240.116	18551.85
240.188	18526.12
240.259	18498.6
240.331	18462.99
240.403	18441.83
240.474	18405.83
240.546	18379.86
240.618	18336.54
240.689	18317.26
240.761	18288.35
240.833	18291.58
240.904	18268.11
240.976	18247.63
241.048	18239.14
241.119	18223.67
241.191	18215.15
241.262	18194.04
241.334	18157.08
241.405	18122.38
241.477	18084.74
241.549	18050.62
241.62	18025.66
241.692	18012.55
241.763	18000.5
241.835	17979.83
241.906	17952.46
241.978	17907.16
242.049	17886.82
242.121	17868.51
242.192	17856.17
242.264	17822.39
242.335	17764.22
242.407	17748.03
242.478	17714.34
242.55	17680.32
242.621	17645.38
242.693	17606.34
242.764	17581.09
242.836	17555.12
242.907	17529.72
242.979	17502.3
243.05	17476.71
243.122	17462.25
243.193	17426.88
243.264	17372.8
243.336	17339.16
243.407	17317.81
243.479	17311.45
243.55	17285.48
243.622	17268.9
243.693	17230.44
243.764	17215.07
243.836	17186.44
243.907	17150.44
243.978	17126
244.05	17101.86
244.121	17050.82
244.192	17038.43
244.264	16984.7
244.335	16956.65
244.407	16913.66
244.478	16891.2
244.549	16860.64
244.62	16809.61
244.692	16774.86
244.763	16753.7
244.834	16716.64
244.906	16681.26
244.977	16653.07
245.048	16635.72
245.119	16583.42
245.191	16547.95
245.262	16503.37
245.333	16486.84
245.405	16456.14
245.476	16426.59
245.547	16398.74
245.618	16380.61
245.689	16347.26
245.761	16330.63
245.832	16295.16
245.903	16271.25
245.974	16241.32
246.045	16205.56
246.117	16193.8
246.188	16157.46
246.259	16116.73
246.33	16083.95
246.401	16052.72
246.473	16008.48
246.544	15971.17
246.615	15951.6
246.686	15910.2
246.757	15895.83
246.828	15850.86
246.899	15832.21
246.97	15783.24
247.042	15743.47
247.113	15717.49
247.184	15705.11
247.255	15657.44
247.326	15630.35
247.397	15602.49
247.468	15580.99
247.539	15559.54
247.61	15509.56
247.681	15491.43
247.752	15472.78
247.823	15437.54
247.894	15411.18
247.965	15373.44
248.037	15340.66
248.108	15305.04
248.179	15280.84
248.25	15244.69
248.321	15224.06
248.392	15181.59
248.463	15178.8
248.534	15154.84
248.605	15136.72
248.675	15107.51
248.746	15097.53
248.817	15076.7
248.888	15056.89
248.959	15007.05
249.03	14981.12
249.101	14954.8
249.172	14923.37
249.243	14880.71
249.314	14871.69
249.385	14838.72
249.456	14820.6
249.527	14793.41
249.598	14770.27
249.669	14743.47
249.739	14722.45
249.81	14705.82
249.881	14662.82
249.952	14632.02
250.023	14606.38
250.094	14562.56
250.165	14519.22
250.235	14484.66
250.306	14457.38
250.377	14417.17
250.448	14397.07
250.519	14353.35
250.59	14347.52
250.66	14311.32
250.731	14301.58
250.802	14273.96
250.873	14244.31
250.944	14216.4
251.014	14176.48
251.085	14162.26
251.156	14136.76
251.227	14117.53
251.297	14103.6
251.368	14095.4
251.439	14078.87
251.51	14060.26
251.58	14028.73
251.651	13995.66
251.722	13982.6
251.792	13939.02
251.863	13904.89
251.934	13888.4
252.005	13881.99
252.075	13851.82
252.146	13844.1
252.217	13828.48
252.287	13802.16
252.358	13791.22
252.429	13775.75
252.499	13752.7
252.57	13735.35
252.641	13724.5
252.711	13691.91
252.782	13650.79
252.852	13642.6
252.923	13618.11
252.994	13590.83
253.064	13583.4
253.135	13554.48
253.205	13524.01
253.276	13520.93
253.347	13521.02
253.417	13496.15
253.488	13466.26
253.558	13439.31
253.629	13412.17
253.699	13389.03
253.77	13374.28
253.841	13346.18
253.911	13328.77
253.982	13309.97
254.052	13292.72
254.123	13269.05
254.193	13248.03
254.264	13260.9
254.334	13226.62
254.405	13190.66
254.475	13153.59
254.546	13122.69
254.616	13113.82
254.687	13097.34
254.757	13070.73
254.827	13046.19
254.898	13020.78
254.968	13001.41
255.039	12969.11
255.109	12955.42
255.18	12922.73
255.25	12884.65
255.321	12870.72
255.391	12842.52
255.461	12836.2
255.532	12789.78
255.602	12765.82
255.673	12726.1
255.743	12681.61
255.813	12636.15
255.884	12628.58
255.954	12617.64
256.024	12616.05
256.095	12593.2
256.165	12559.94
256.235	12544.22
256.306	12507.73
256.376	12504.02
256.446	12488.93
256.517	12477.03
256.587	12457.31
256.657	12444.35
256.728	12431.57
256.798	12400.05
256.868	12369.77
256.938	12342.83
257.009	12332.46
257.079	12318.34
257.149	12331.98
257.219	12299.54
257.29	12289.32
257.36	12241.07
257.43	12232.64
257.5	12190.6
257.571	12155.61
257.641	12135.7
257.711	12110.54
257.781	12103.36
257.852	12085.04
257.922	12052.84
257.992	12027.25
258.062	12006.23
258.132	11995.1
258.202	11966.42
258.273	11956.39
258.343	11958.03
258.413	11934.75
258.483	11914.6
258.553	11882.16
258.623	11849.96
258.693	11839.74
258.764	11834.06
258.834	11836.56
258.904	11808.27
258.974	11780.27
259.044	11763.3
259.114	11750
259.184	11727.63
259.254	11709.7
259.324	11666.13
259.394	11654.81
259.464	11655.91
259.535	11632.06
259.605	11604.39
259.675	11582.17
259.745	11561.49
259.815	11533.54
259.885	11503.32
259.955	11508.91
260.025	11476.67
260.095	11452.28
260.165	11431.37
260.235	11430.11
260.305	11403.85
260.375	11377.39
260.445	11381.82
260.515	11384.37
260.585	11385.24
260.655	11364.66
260.725	11350.35
260.795	11343.41
260.865	11337.91
260.934	11310.15
261.004	11303.84
261.074	11281.29
261.144	11277.48
261.214	11266.78
261.284	11245.82
261.354	11239.5
261.424	11209.86
261.494	11215.07
261.564	11200.41
261.634	11196.99
261.703	11157.09
261.773	11137.77
261.843	11128.37
261.913	11103.21
261.983	11065.38
262.053	11052.42
262.123	11032.61
262.192	11004.95
262.262	10995.17
262.332	10960.14
262.402	10943.56
262.472	10922.74
262.541	10892.58
262.611	10884.48
262.681	10861.11
262.751	10847.28
262.821	10823.81
262.89	10792.87
262.96	10779.38
263.03	10788.87
263.1	10772.06
263.169	10757.46
263.239	10752.11
263.309	10756.3
263.379	10748.83
263.448	10733.36
263.518	10709.94
263.588	10695.59
263.657	10696.36
263.727	10690.24
263.797	10681.08
263.867	10674.24
263.936	10645.91
264.006	10641.52
264.076	10624.42
264.145	10606.83
264.215	10581.1
264.285	10578.55
264.354	10547.72
264.424	10529.31
264.494	10487.77
264.563	10468.02
264.633	10471.58
264.702	10460.84
264.772	10424.75
264.842	10408.61
264.911	10403.41
264.981	10383.07
265.05	10377.24
265.12	10356.09
265.19	10341.83
265.259	10329.74
265.329	10315.14
265.398	10301.6
265.468	10312.78
265.537	10290.67
265.607	10282.38
265.676	10280.6
265.746	10268.51
265.815	10261.42
265.885	10243.7
265.955	10224.19
266.024	10202.32
266.094	10170.09
266.163	10170.47
266.232	10174.42
266.302	10156.79
266.371	10147.59
266.441	10132.61
266.51	10117.05
266.58	10102.88
266.649	10079.71
266.719	10081.06
266.788	10070.36
266.858	10077.4
266.927	10034.38
266.996	10027.4
267.066	10023.25
267.135	10001.14
267.205	9996.18
267.274	9990.07
267.343	9986.6
267.413	9979.52
267.482	9978.75
267.552	9976.43
267.621	9945.94
267.69	9910.92
267.76	9902.88
267.829	9892.81
267.898	9884.72
267.968	9868.97
268.037	9857.94
268.106	9855.19
268.176	9827.45
268.245	9811.17
268.314	9795.32
268.384	9799.85
268.453	9788.58
268.522	9776.34
268.592	9781.93
268.661	9759.48
268.73	9749.9
268.799	9732.08
268.869	9730.25
268.938	9705.97
269.007	9684.73
269.076	9672.98
269.146	9671.39
269.215	9658.92
269.284	9660.41
269.353	9635.27
269.422	9619.91
269.492	9601.8
269.561	9561.88
269.63	9555.09
269.699	9543.58
269.768	9530.91
269.838	9523.5
269.907	9513.96
269.976	9482.52
270.045	9443.32
270.114	9437.64
270.183	9424.44
270.253	9419.77
270.322	9386.93
270.391	9371.67
270.46	9369.64
270.529	9367.67
270.598	9366.18
270.667	9356.11
270.736	9334.68
270.806	9335.55
270.875	9336.22
270.944	9327.36
271.013	9346.33
271.082	9335.4
271.151	9328.85
271.22	9301.7
271.289	9290.14
271.358	9280.17
271.427	9278.44
271.496	9271.75
271.565	9260.58
271.634	9247.05
271.703	9241.27
271.772	9248.06
271.841	9241.08
271.91	9217.44
271.979	9208.87
272.048	9181.18
272.117	9181.76
272.186	9165.29
272.255	9158.94
272.324	9156.91
272.393	9145.99
272.462	9126.58
272.531	9121.14
272.6	9105.4
272.669	9106.6
272.738	9093.74
272.807	9083.97
272.876	9061.64
272.945	9084.84
273.013	9076.37
273.082	9091.39
273.151	9069.44
273.22	9064.77
273.289	9056.73
273.358	9070.83
273.427	9055.14
273.496	9060.91
273.564	9050.56
273.633	9048.25
273.702	9030.44
273.771	9017.78
273.84	9014.02
273.909	9009.64
273.977	9001.36
274.046	8994.38
274.115	8998.33
274.184	8983.6
274.253	8976.76
274.322	8984.75
274.39	8953.85
274.459	8943.54
274.528	8905.8
274.597	8899.11
274.665	8889.97
274.734	8899.21
274.803	8888.18
274.872	8881.73
274.94	8864.98
275.009	8889.2
275.078	8876.98
275.147	8871.34
275.215	8862.97
275.284	8875.15
275.353	8866.63
275.421	8846.07
275.49	8854.5
275.559	8845.93
275.627	8837.75
275.696	8830.91
275.765	8834.43
275.833	8830.19
275.902	8832.79
275.971	8852.72
276.039	8865.19
276.108	8871.92
276.177	8868.6
276.245	8861.19
276.314	8858.49
276.383	8863.74
276.451	8834.03
276.52	8839.57
276.588	8845.3
276.657	8859.06
276.725	8844.57
276.794	8848.62
276.863	8860.07
276.931	8838.22
277	8839.47
277.068	8848.04
277.137	8861.51
277.205	8855.83
277.274	8871.04
277.342	8879.08
277.411	8853.19
277.48	8841.3
277.548	8830.04
277.617	8823.97
277.685	8816.75
277.754	8818.05
277.822	8812.13
277.89	8821.33
277.959	8810.88
278.027	8802.6
278.096	8783.97
278.164	8802.89
278.233	8792.02
278.301	8780.13
278.37	8788.26
278.438	8774.01
278.507	8767.28
278.575	8745.81
278.643	8736.09
278.712	8715.15
278.78	8693.83
278.849	8708.31
278.917	8722.9
278.985	8713.08
279.054	8713.27
279.122	8720.97
279.191	8719.58
279.259	8713.99
279.327	8693.01
279.396	8706.77
279.464	8701.28
279.532	8703.11
279.601	8699.21
279.669	8697.58
279.737	8709.13
279.806	8705.13
279.874	8718.9
279.942	8725.83
280.011	8724.58
280.079	8735.99
280.147	8756.39
280.215	8763.18
280.284	8754.76
280.352	8733.72
280.42	8745.27
280.488	8741.66
280.557	8732.95
280.625	8731.7
280.693	8733.14
280.761	8736.08
280.83	8718.18
280.898	8729.24
280.966	8717.36
281.034	8689.1
281.102	8677.12
281.171	8667.16
281.239	8679
281.307	8664.03
281.375	8649.79
281.443	8669.42
281.512	8669.09
281.58	8672.55
281.648	8658.26
281.716	8657.73
281.784	8656.62
281.852	8647.77
281.92	8646.8
281.989	8656.82
282.057	8640.79
282.125	8681.9
282.193	8674.88
282.261	8677.04
282.329	8671.03
282.397	8671.89
282.465	8675.31
282.533	8688.83
282.601	8683.2
282.67	8661.16
282.738	8655.91
282.806	8664.28
282.874	8648.64
282.942	8644.79
283.01	8639.16
283.078	8642.33
283.146	8636.46
283.214	8643.35
283.282	8648.06
283.35	8655.67
283.418	8647.2
283.486	8653.55
283.554	8603.34
283.622	8601.94
283.69	8602.33
283.758	8594.1
283.826	8602.52
283.894	8602.67
283.962	8614.56
284.03	8627.6
284.098	8623.56
284.165	8619.9
284.233	8618.98
284.301	8616.1
284.369	8608.93
284.437	8594.15
284.505	8593.76
284.573	8612.05
284.641	8606.85
284.709	8611.19
284.777	8591.02
284.845	8594.92
284.912	8601.46
284.98	8603.73
285.048	8602.04
285.116	8599.73
285.184	8617.06
285.252	8608.44
285.319	8601.42
285.387	8594.15
285.455	8578.99
285.523	8592.51
285.591	8590.64
285.659	8594.1
285.726	8604.83
285.794	8591.65
285.862	8589.44
285.93	8588.57
285.997	8575.14
286.065	8565.76
286.133	8554.98
286.201	8552.96
286.269	8538.33
286.336	8528.75
286.404	8525.96
286.472	8531.25
286.539	8514.56
286.607	8492.71
286.675	8496.99
286.743	8501.56
286.81	8495.11
286.878	8506.13
286.946	8495.54
287.013	8493.57
287.081	8489.43
287.149	8474.51
287.216	8487.41
287.284	8486.49
287.352	8487.84
287.419	8491.4
287.487	8505.74
287.555	8503.77
287.622	8502.28
287.69	8509.59
287.758	8520.18
287.825	8518.35
287.893	8508.78
287.96	8514.16
288.028	8523.36
288.096	8526.72
288.163	8530.33
288.231	8520.13
288.298	8524.22
288.366	8534.09
288.433	8536.54
288.501	8531.63
288.569	8537.17
288.636	8536.64
288.704	8547.18
288.771	8548.33
288.839	8539.62
288.906	8539.82
288.974	8553.05
289.041	8550.98
289.109	8543.52
289.176	8548.1
289.244	8555.27
289.311	8570.43
289.379	8581.3
289.446	8584.33
289.514	8582.65
289.581	8584.38
289.649	8586.59
289.716	8581.4
289.783	8572.68
289.851	8586.35
289.918	8588.18
289.986	8594.87
290.053	8597.9
290.121	8596.7
290.188	8598.82
290.255	8621.48
290.323	8610.32
290.39	8604.88
290.458	8614.99
290.525	8628.6
290.592	8622.49
290.66	8623.94
290.727	8614.74
290.794	8630.72
290.862	8629.57
290.929	8631.97
290.996	8632.94
291.064	8644
291.131	8659.46
291.198	8667.93
291.266	8670.14
291.333	8672.31
291.4	8673.17
291.468	8692.52
291.535	8687.57
291.602	8693.87
291.669	8690.89
291.737	8696.85
291.804	8697.72
291.871	8709.8
291.938	8721.83
292.006	8753.51
292.073	8765.93
292.14	8775.75
292.207	8772.81
292.275	8780.8
292.342	8788.93
292.409	8816.47
292.476	8837.26
292.543	8824.32
292.611	8832.79
292.678	8846.26
292.745	8868.21
292.812	8880.44
292.879	8874.13
292.946	8881.45
293.014	8897.62
293.081	8910.67
293.148	8925.3
293.215	8939.79
293.282	8935.89
293.349	8937.86
293.416	8918.61
293.484	8931.36
293.551	8942.63
293.618	8948.98
293.685	8964.1
293.752	8955.39
293.819	8943.78
293.886	8934.68
293.953	8938.78
294.02	8947.06
294.087	8955.53
294.154	8950.76
294.221	8967.04
294.288	8967.33
294.356	8986.24
294.423	8991.3
294.49	8975.51
294.557	8988.94
294.624	8981.77
294.691	9001.17
294.758	9000.01
294.825	9010.22
294.892	8997.61
294.959	8996.45
295.026	9008.05
295.093	9006.9
295.16	9014.41
295.226	9021.44
295.293	9042.62
295.36	9052.01
295.427	9061.35
295.494	9072.52
295.561	9078.92
295.628	9100.5
295.695	9112.82
295.762	9109.93
295.829	9113.88
295.896	9132.51
295.963	9143.01
296.03	9154.95
296.096	9161.35
296.163	9179.89
296.23	9193.22
296.297	9212.43
296.364	9208.15
296.431	9210.6
296.498	9206.9
296.564	9226.25
296.631	9228.08
296.698	9213.44
296.765	9234.05
296.832	9225.43
296.899	9208.63
296.965	9224.56
297.032	9199.09
297.099	9218.45
297.166	9231.3
297.233	9234.72
297.299	9230.15
297.366	9224.8
297.433	9226.15
297.5	9234.34
297.566	9228.89
297.633	9224.42
297.7	9225.09
297.767	9232.5
297.833	9240.74
297.9	9243.72
297.967	9232.55
298.033	9244.93
298.1	9273.72
298.167	9264.38
298.234	9273.82
298.3	9284.27
298.367	9280.51
298.434	9290.77
298.5	9278.05
298.567	9272.32
298.634	9268.38
298.7	9284.26
298.767	9286.14
298.834	9302.9
298.9	9301.02
298.967	9297.22
299.033	9305.64
299.1	9325.34
299.167	9336.56
299.233	9328.9
299.3	9345.42
299.366	9360.63
299.433	9372.29
299.5	9346.96
299.566	9352.21
299.633	9365.5
299.699	9372
299.766	9368.48
299.832	9373.39
299.899	9381.58
299.965	9398.53
300.032	9391.36
300.099	9398.48
300.165	9406.57
300.232	9397.66
300.298	9397.42
300.365	9403.78
300.431	9406.81
300.498	9396.36
300.564	9407.63
300.631	9420.44
300.697	9433.35
300.763	9434.94
300.83	9435.08
300.896	9449.62
300.963	9459.78
301.029	9465.61
301.096	9475.63
301.162	9494.79
301.229	9486.03
301.295	9482.03
301.361	9486.12
301.428	9493.35
301.494	9484
301.561	9484.82
301.627	9491.32
301.693	9491.42
301.76	9501.24
301.826	9496.67
301.892	9505.05
301.959	9511.26
302.025	9509.86
302.092	9498.84
302.158	9506.54
302.224	9510.54
302.291	9504.66
302.357	9498.07
302.423	9491.56
302.49	9481.5
302.556	9485.98
302.622	9486.51
302.688	9496.57
302.755	9500.86
302.821	9513.19
302.887	9514.58
302.954	9516.41
303.02	9520.8
303.086	9526.09
303.152	9523.3
303.219	9520.7
303.285	9525.56
303.351	9528.26
303.417	9526.19
303.483	9522.82
303.55	9515.36
303.616	9511.84
303.682	9505.53
303.748	9499.75
303.815	9508.23
303.881	9522.05
303.947	9505.29
304.013	9511.12
304.079	9496.62
304.145	9479.29
304.212	9471.15
304.278	9471.1
304.344	9467.92
304.41	9453.67
304.476	9443.6
304.542	9441.2
304.608	9443.17
304.674	9423.67
304.741	9410.86
304.807	9414.66
304.873	9419.38
304.939	9436.04
305.005	9415.38
305.071	9420.97
305.137	9422.51
305.203	9405.9
305.269	9397.18
305.335	9410.04
305.401	9402.48
305.467	9404.07
305.533	9411.29
305.599	9413.21
305.666	9416.87
305.732	9421.59
305.798	9436.81
305.864	9456.12
305.93	9459.35
305.996	9455.69
306.062	9463.54
306.128	9461.56
306.194	9449.52
306.259	9441.34
306.325	9430.07
306.391	9441.53
306.457	9442.88
306.523	9444.9
306.589	9458.43
306.655	9452.17
306.721	9435.37
306.787	9421.4
306.853	9436.86
306.919	9420.73
306.985	9418.9
307.051	9413.51
307.117	9397.42
307.183	9387.89
307.248	9367.9
307.314	9370.41
307.38	9372.53
307.446	9373.06
307.512	9364.24
307.578	9369.88
307.644	9375.46
307.709	9371.76
307.775	9364.87
307.841	9361.69
307.907	9360.78
307.973	9344.07
308.039	9344.31
308.104	9349.41
308.17	9355.24
308.236	9334.48
308.302	9338.91
308.368	9330.92
308.433	9329.09
308.499	9325.19
308.565	9316.62
308.631	9312.14
308.696	9294.18
308.762	9284.74
308.828	9282.48
308.894	9265.68
308.959	9245.41
309.025	9231.15
309.091	9224.85
309.156	9215.22
309.222	9218.68
309.288	9207.32
309.354	9187.63
309.419	9182.53
309.485	9168.9
309.551	9178.82
309.616	9162.88
309.682	9154.26
309.748	9146.27
309.813	9140.01
309.879	9131.11
309.945	9121.48
310.01	9120.13
310.076	9113.97
310.141	9112.57
310.207	9097.4
310.273	9099.71
310.338	9102.84
310.404	9086.96
310.469	9080.89
310.535	9074.68
310.601	9047.82
310.666	9050.18
310.732	9064.04
310.797	9056.96
310.863	9047.14
310.928	9032.99
310.994	9035.25
311.059	9030.67
311.125	9031.64
311.191	9035.15
311.256	9026.58
311.322	9027.84
311.387	9006.9
311.453	9345.55
311.518	9319.41
311.584	9317.92
311.649	9323.02
311.715	9312.24
311.78	9310.84
311.846	9296.64
311.911	9298.76
311.976	9305.6
312.042	9289.37
312.107	9270.5
312.173	9256.25
312.238	9252.74
312.304	9247.88
312.369	9244.22
312.434	9239.02
312.5	9229.73
312.565	9206.67
312.631	9212.97
312.696	9201.9
312.761	9205.13
312.827	8857.57
312.892	8891.17
312.958	8884.62
313.023	8881.25
313.088	8881.73
313.154	8870.18
313.219	8861.57
313.284	8851.75
313.35	8847.41
313.415	8844.09
313.48	8838.22
313.546	8845.73
313.611	8847.99
313.676	8838.03
313.741	8832.68
313.807	8837.74
313.872	8843.32
313.937	8843.13
314.003	8850.02
314.068	8853.72
314.133	8854.68
314.198	8844.58
314.264	8824.4
314.329	8816.37
314.394	8810.3
314.459	8806.21
314.525	8822.62
314.59	8821.03
314.655	8813.52
314.72	8815.88
314.785	8818.1
314.851	8814.68
314.916	8795.19
314.981	8782.77
315.046	8770.25
315.111	8759.96
315.176	8752.06
315.242	8748.45
315.307	8749.12
315.372	8726.31
315.437	8719.62
315.502	8713.17
315.567	8721.64
315.632	8706
315.698	8701.86
315.763	8695.46
315.828	8684.19
315.893	8682.65
315.958	8678.51
316.023	8668.6
316.088	8648.1
316.153	8624.08
316.218	8618.45
316.283	8601.37
316.348	8581.02
316.413	8578.66
316.479	8560.71
316.544	8521.4
316.609	8487.52
316.674	8454.9
316.739	8419.59
316.804	8382.44
316.869	8347.22
316.934	8309.36
316.999	8280.34
317.064	8234.78
317.129	8193.74
317.194	8156.7
317.259	8102.34
317.324	8052.27
317.389	8010.08
317.454	7968.19
317.518	7935.29
317.583	7903.2
317.648	7877.76
317.713	7846.98
317.778	7786.58
317.843	7753.92
317.908	7719.21
317.973	7679.25
318.038	7640.54
318.103	7608.24
318.168	7574.49
318.233	7541.07
318.297	7489.64
318.362	7447.38
318.427	7405.66
318.492	7379.94
318.557	7332.5
318.622	7306.07
318.687	7279.59
318.751	7237.4
318.816	7201.64
318.881	7162.04
318.946	7108.17
319.011	7058.58
319.075	7014.76
319.14	6981.71
319.205	6939.19
319.27	6900.9
319.335	6857.96
319.399	6820.3
319.464	6784.95
319.529	6736.06
319.594	6693.98
319.658	6664.69
319.723	6618.78
319.788	6590.79
319.853	6532.34
319.917	6498.16
319.982	6441.03
320.047	6401.51
320.112	6373.33
320.176	6325.81
320.241	6288.18
320.306	6256.02
320.37	6216.38
320.435	6183.74
320.5	6153.46
320.564	6112.96
320.629	6075.29
320.694	6042.66
320.758	6004.23
320.823	5959.81
320.888	5931.27
320.952	5885.32
321.017	5840.71
321.082	5808.82
321.146	5771.02
321.211	5737.69
321.275	5699.15
321.34	5658.73
321.405	5615.49
321.469	5566.2
321.534	5526.56
321.598	5479.69
321.663	5449.86
321.727	5415.4
321.792	5364.21
321.857	5323.37
321.921	5286.81
321.986	5239.91
322.05	5177.59
322.115	5143.9
322.179	5102.52
322.244	5042.52
322.308	5009.37
322.373	4969.67
322.437	4923.37
322.502	4894
322.566	4849.71
322.631	4817.01
322.695	4777.81
322.76	4734.3
322.824	4700.12
322.889	4659.54
322.953	4615.91
323.018	4549.91
323.082	4489.49
323.146	4446.34
323.211	4389.08
323.275	4338.81
323.34	4294.05
323.404	4263.36
323.468	4210.36
323.533	4169.15
323.597	4127.48
323.662	4074.51
323.726	4035.17
323.79	3991.44
323.855	3925.41
323.919	3876.53
323.983	3827.69
324.048	3763.04
324.112	3903.58
324.177	3772.57
324.241	3574.56
324.305	3381.14
324.37	3192.49
324.434	3010.96
324.498	2963.33
324.562	2917.81
324.627	2862.83
324.691	2810.71
324.755	2749.62
324.82	2677.79
324.884	2601.21
324.948	2534.06
325.012	2447.61
325.077	2331.77
