Data from 20250630_urea_2M_MAYP1162681_23-22-26-634.txt Node
Date: Mon Jun 30 23:22:26 BST 2025
User: adleo
Spectrometer: MAYP116268
Trigger mode: 0
Integration Time (sec): 1.000000E0
Scans to average: 1
Electric dark correction enabled: true
Nonlinearity correction enabled: true
Boxcar width: 10
XAxis mode: Wavelengths
Number of Pixels in Spectrum: 2068
>>>>>Begin Spectral Data<<<<<
179.565	1111.41
179.642	1157.01
179.718	1195.14
179.795	1226.47
179.871	1255.54
179.948	1269.58
180.024	1289.94
180.101	1313.42
180.177	1326.76
180.254	1346.45
180.33	1367.54
180.407	1415.05
180.483	1502.85
180.56	1585.8
180.636	1662.28
180.712	1648.73
180.789	1658.99
180.865	1669.49
180.942	1675.67
181.018	1686.55
181.095	1696.05
181.171	1700.85
181.248	1702.99
181.324	1717.96
181.4	1727.65
181.477	1736.54
181.553	1750.36
181.63	1770.04
181.706	1783.54
181.782	1790.76
181.859	1792.52
181.935	1798.74
182.011	1794.13
182.088	1811.29
182.164	1829.88
182.24	1842.05
182.317	1853.83
182.393	1854.69
182.469	1868.24
182.546	1884.02
182.622	1889.25
182.698	1887.39
182.775	1902.18
182.851	1915.15
182.927	1908.64
183.003	1903.17
183.08	1899.61
183.156	1909.12
183.232	1905.6
183.308	1895
183.385	1902.6
183.461	1918.96
183.537	1920.33
183.613	1932.55
183.69	1923.66
183.766	1913.06
183.842	1922.99
183.918	1924.13
183.995	1932.98
184.071	1935.4
184.147	1927.6
184.223	1916.91
184.299	1927.18
184.375	1912.64
184.452	1920.77
184.528	1973.27
184.604	1982.26
184.68	1992.05
184.756	1998.85
184.832	2001.51
184.908	2006.98
184.985	2007.5
185.061	1990.05
185.137	1995.9
185.213	1985.06
185.289	1986.3
185.365	1977.69
185.441	1973.84
185.517	1988.87
185.593	1985.4
185.669	1980.74
185.745	1991.58
185.822	2005.7
185.898	1997.33
185.974	2007.6
186.05	2001.37
186.126	1963.13
186.202	1957.37
186.278	1955.57
186.354	1946.15
186.43	1950.34
186.506	1946.49
186.582	1946.3
186.658	1954.9
186.734	1936.79
186.81	1939.26
186.886	1939.26
186.962	1951.38
187.038	1948.81
187.114	1938.78
187.19	1947.53
187.266	1941.39
187.341	1944.96
187.417	1940.49
187.493	1940.16
187.569	1942.4
187.645	1936.93
187.721	1925.66
187.797	1935.02
187.873	1937.97
187.949	1931.93
188.025	1930.79
188.101	1933.45
188.176	1936.4
188.252	1931.51
188.328	1942.2
188.404	1943.29
188.48	1940.11
188.556	1934.4
188.632	1934.97
188.707	1937.11
188.783	1933.17
188.859	1928.84
188.935	1915.72
189.011	1922.99
189.086	1918.76
189.162	1912.1
189.238	1911.53
189.314	1910.34
189.39	1903.88
189.465	1897.98
189.541	1914.67
189.617	1898.22
189.693	1896.51
189.768	1901.89
189.844	1925.09
189.92	1916.06
189.996	1922.06
190.071	1934.32
190.147	1935.41
190.223	1942.41
190.298	1934.8
190.374	1922.82
190.45	1931.85
190.526	1938.27
190.601	1931.75
190.677	1932.47
190.753	1958.11
190.828	1958.34
190.904	1973.32
190.98	1987.54
191.055	1997.58
191.131	1991.63
191.207	2010.31
191.282	2016.97
191.358	2004.7
191.433	1992.67
191.509	2006.55
191.585	2001.89
191.66	2001.22
191.736	2006.69
191.811	1997.94
191.887	2014.02
191.963	2036.89
192.038	2042.5
192.114	2045.26
192.189	2049.49
192.265	2044.98
192.34	2023.19
192.416	2021.81
192.491	2018.24
192.567	2018.81
192.642	2019.71
192.718	2017.19
192.793	2008.06
192.869	2004.45
192.944	2009.73
193.02	2016.2
193.095	2015.81
193.171	2022.8
193.246	2022.19
193.322	2019.67
193.397	2021.09
193.473	2007.25
193.548	1990.6
193.624	1996.69
193.699	1994.55
193.775	2009.87
193.85	2013.34
193.925	2020.95
194.001	2020.42
194.076	2011.34
194.152	2003.54
194.227	1997.88
194.302	1987.76
194.378	1989.94
194.453	1987
194.529	1998.03
194.604	1981.39
194.679	1975.54
194.755	1957.43
194.83	1968.42
194.905	1965.56
194.981	1975.36
195.056	1969.94
195.131	1975.51
195.207	1974.84
195.282	1966.38
195.357	1945.78
195.433	1960.19
195.508	1948.3
195.583	1955.91
195.659	1969.22
195.734	1976.31
195.809	1977.17
195.884	1985.87
195.96	1987.67
196.035	2002.17
196.11	1999.37
196.185	2012.16
196.261	2015.2
196.336	2047.11
196.411	2033.03
196.486	2037.55
196.561	2031.84
196.637	2038.11
196.712	2052.29
196.787	2052.39
196.862	2067.13
196.937	2075.73
197.013	2081.3
197.088	2096.23
197.163	2117.69
197.238	2134.88
197.313	2133.26
197.388	2141.87
197.464	2172.51
197.539	2179.84
197.614	2175.56
197.689	2187.07
197.764	2202.97
197.839	2224.23
197.914	2217.43
197.989	2239.6
198.065	2253.02
198.14	2297.39
198.215	2322.33
198.29	2334.85
198.365	2352.08
198.44	2360.45
198.515	2387.72
198.59	2402.67
198.665	2423.76
198.74	2431.1
198.815	2431.71
198.89	2455.04
198.965	2485.28
199.04	2483.47
199.115	2498.46
199.19	2537.4
199.265	2538.17
199.34	2547.45
199.415	2578.04
199.49	2596.22
199.565	2606.8
199.64	2631.37
199.715	2630.61
199.79	2640.32
199.865	2647.71
199.94	2639.28
200.015	2666.96
200.09	2673.87
200.165	2675.25
200.24	2684.16
200.315	2718.48
200.39	2731.63
200.464	2735.16
200.539	2735.25
200.614	2748.64
200.689	2771.8
200.764	2779.18
200.839	2797.28
200.914	2802.19
200.989	2791.13
201.063	2805.8
201.138	2788.42
201.213	2788.42
201.288	2769.7
201.363	2771.75
201.438	2770.22
201.512	2789.51
201.587	2777.12
201.662	2780.41
201.737	2796.18
201.812	2801.52
201.886	2772.86
201.961	2781.49
202.036	2770.96
202.111	2770.01
202.186	2740.87
202.26	2727.76
202.335	2704.36
202.41	2699.84
202.485	2682.22
202.559	2666.07
202.634	2642.25
202.709	2651.58
202.784	2631.34
202.858	2633.82
202.933	2619.62
203.008	2611.76
203.082	2591.62
203.157	2594.38
203.232	2553.4
203.306	2531.43
203.381	2499.52
203.456	2478.28
203.53	2456.41
203.605	2436.81
203.68	2414.71
203.754	2408
203.829	2392.29
203.904	2375.34
203.978	2363.06
204.053	2368.58
204.127	2352.63
204.202	2351.35
204.277	2335.12
204.351	2328.74
204.426	2318.22
204.5	2306.13
204.575	2273.35
204.65	2283.82
204.724	2273.06
204.799	2281.86
204.873	2280.14
204.948	2280.95
205.022	2271.34
205.097	2264.72
205.171	2280.99
205.246	2287.37
205.32	2287.37
205.395	2285.37
205.469	2275.53
205.544	2279.67
205.618	2263.3
205.693	2277.77
205.767	2263.68
205.842	2282.87
205.916	2281.1
205.991	2270.11
206.065	2279.15
206.14	2296.32
206.214	2291.28
206.289	2285.61
206.363	2298.98
206.438	2302.46
206.512	2307.41
206.586	2323.97
206.661	2333.06
206.735	2311.89
206.81	2313.42
206.884	2329.07
206.958	2317.94
207.033	2335.97
207.107	2343.25
207.181	2372.77
207.256	2366.92
207.33	2385.81
207.405	2395.43
207.479	2409.9
207.553	2416.52
207.628	2398.82
207.702	2408.34
207.776	2406.72
207.851	2405.91
207.925	2417.34
207.999	2413.2
208.073	2411.77
208.148	2415.63
208.222	2405.2
208.296	2435.27
208.371	2453.47
208.445	2461.14
208.519	2485.55
208.593	2497.6
208.668	2496.55
208.742	2496.65
208.816	2498.41
208.89	2509.79
208.965	2510.41
209.039	2520.56
209.113	2541.41
209.187	2562.11
209.261	2561.54
209.336	2578.59
209.41	2598.55
209.484	2597.78
209.558	2617.74
209.632	2633.55
209.707	2642.79
209.781	2661.6
209.855	2676.95
209.929	2689.39
210.003	2695.54
210.077	2700.2
210.151	2742.36
210.226	2773.58
210.3	2801.67
210.374	2823.34
210.448	2831.1
210.522	2839.64
210.596	2848.21
210.67	2854.5
210.744	2902.51
210.818	2932.81
210.892	2953.55
210.966	2949.17
211.041	2968.19
211.115	2966.95
211.189	2989.02
211.263	3006.27
211.337	3014.8
211.411	3030.64
211.485	3030.16
211.559	3047.79
211.633	3053.27
211.707	3031.71
211.781	3042.02
211.855	3017.5
211.929	3016.55
212.003	3004.93
212.077	3027.01
212.151	3049.05
212.225	3069.41
212.299	3067.45
212.373	3068.64
212.447	3075.47
212.52	3118.3
212.594	3136.28
212.668	3167.62
212.742	3173.87
212.816	3190.42
212.89	3206.93
212.964	3229.74
213.038	3261.87
213.112	3299.43
213.186	3342.47
213.26	3355.49
213.333	3345.94
213.407	3384.44
213.481	3422.61
213.555	3474.45
213.629	3502.44
213.703	3530
213.777	3576.24
213.85	3609.43
213.924	3689.8
213.998	3747.77
214.072	3794.51
214.146	3844.55
214.219	3901.81
214.293	3968.57
214.367	4036.79
214.441	4116.92
214.515	4177.85
214.588	4229.56
214.662	4277.15
214.736	4341
214.81	4433.24
214.883	4529.69
214.957	4607.72
215.031	4692.83
215.105	4766.65
215.178	4856.82
215.252	4958.68
215.326	5039.92
215.4	5129.05
215.473	5195.68
215.547	5288.05
215.621	5396.7
215.694	5518.84
215.768	5617.28
215.842	5723.89
215.915	5834.32
215.989	5940.56
216.063	6061.21
216.136	6192.75
216.21	6318.66
216.284	6458.56
216.357	6595.37
216.431	6731.56
216.504	6876.65
216.578	7038.31
216.652	7194.08
216.725	7336.98
216.799	7481.54
216.873	7630.07
216.946	7783.28
217.02	7922.89
217.093	8071.75
217.167	8198.12
217.24	8322.3
217.314	8463.58
217.387	8602.38
217.461	8746.76
217.535	8905.21
217.608	9042.54
217.682	9186.58
217.755	9348.63
217.829	9488.42
217.902	9632.31
217.976	9785.36
218.049	9925.41
218.123	10053.35
218.196	10199.59
218.27	10336.17
218.343	10465.82
218.417	10615.37
218.49	10752.11
218.563	10919.88
218.637	11070.81
218.71	11236.39
218.784	11394.56
218.857	11549.15
218.931	11697.01
219.004	11836.73
219.077	11979.78
219.151	12129.34
219.224	12276.69
219.298	12421.88
219.371	12569.67
219.444	12696.92
219.518	12828.47
219.591	12971.59
219.665	13134.28
219.738	13274.31
219.811	13401.14
219.885	13550.14
219.958	13687.57
220.031	13817.78
220.105	13942.72
220.178	14060.39
220.251	14173.68
220.325	14307.69
220.398	14441.45
220.471	14569.63
220.544	14699.88
220.618	14811.08
220.691	14930.53
220.764	15038.36
220.838	15151.83
220.911	15255.71
220.984	15386.96
221.057	15497.25
221.131	15613.85
221.204	15694.2
221.277	15816
221.35	15954.14
221.424	16051.74
221.497	16152.38
221.57	16254.8
221.643	16359.39
221.716	16459.93
221.79	16548.47
221.863	16632.04
221.936	16717.59
222.009	16809.64
222.082	16899.53
222.155	16982.47
222.229	17076.79
222.302	17171.06
222.375	17254.43
222.448	17343.83
222.521	17415.98
222.594	17498
222.667	17551.21
222.74	17639.93
222.814	17709.66
222.887	17771.49
222.96	17849.66
223.033	17919.63
223.106	17994.52
223.179	18068.26
223.252	18137.84
223.325	18208.78
223.398	18276.83
223.471	18346.56
223.544	18416.77
223.617	18478.94
223.69	18542.11
223.763	18593.92
223.837	18652.9
223.91	18707.65
223.983	18747.89
224.056	18789.18
224.129	18845.9
224.202	18916.12
224.275	18959.1
224.348	18992.98
224.42	19026.81
224.493	19059.63
224.566	19105.02
224.639	19160.29
224.712	19195.23
224.785	19238.8
224.858	19290.89
224.931	19338.26
225.004	19368.09
225.077	19402.55
225.15	19431.94
225.223	19467.31
225.296	19519.7
225.369	19546.54
225.442	19585.04
225.514	19635.83
225.587	19687.01
225.66	19730.53
225.733	19767.63
225.806	19810.67
225.879	19838.43
225.952	19867.63
226.025	19923.39
226.097	19969.51
226.17	19995.43
226.243	20009.31
226.316	20041.22
226.389	20073.41
226.461	20101.94
226.534	20138.32
226.607	20173.55
226.68	20219.72
226.753	20256.44
226.825	20275.72
226.898	20314.37
226.971	20337.16
227.044	20372.29
227.117	20391.76
227.189	20418.32
227.262	20459.57
227.335	20484.82
227.407	20511.57
227.48	20539.52
227.553	20556
227.626	20573.21
227.698	20591.33
227.771	20634.75
227.844	20651.86
227.916	20674.85
227.989	20676.87
228.062	20683.96
228.134	20724.15
228.207	20742.18
228.28	20759.53
228.352	20775.34
228.425	20794.13
228.498	20818.18
228.57	20812.54
228.643	20853.85
228.716	20862.18
228.788	20871.97
228.861	20887.15
228.934	20924.5
229.006	20943.49
229.079	20955.83
229.151	20960.07
229.224	20969.61
229.296	20983.49
229.369	21034.48
229.442	21055.16
229.514	21064.8
229.587	21105.14
229.659	21098.05
229.732	21112.56
229.804	21133.19
229.877	21170.16
229.949	21185.82
230.022	21218.69
230.094	21242.02
230.167	21254.36
230.239	21268.63
230.312	21272.34
230.384	21302.85
230.457	21319.91
230.529	21330.66
230.602	21345.89
230.674	21363.43
230.747	21388.01
230.819	21405.84
230.892	21367
230.964	21381.55
231.037	21407.96
231.109	21402.71
231.181	21408.74
231.254	21405.89
231.326	21407
231.399	21400.3
231.471	21398.47
231.544	21380.97
231.616	21403.05
231.688	21401.55
231.761	21389.89
231.833	21394.76
231.905	21374.56
231.978	21363.52
232.05	21368.3
232.122	21364.63
232.195	21374.95
232.267	21392.01
232.339	21380.63
232.412	21403
232.484	21403.87
232.556	21392.88
232.629	21414.47
232.701	21427.97
232.773	21422.57
232.846	21417.8
232.918	21418.23
232.99	21416.54
233.062	21420.5
233.135	21411.43
233.207	21399.14
233.279	21404.54
233.351	21401.26
233.424	21391.19
233.496	21383.72
233.568	21393.65
233.64	21374.52
233.713	21350.32
233.785	21330.75
233.857	21325.54
233.929	21303.81
234.001	21293.01
234.074	21293.54
234.146	21253.54
234.218	21229.68
234.29	21221.44
234.362	21204.52
234.434	21176.37
234.507	21150.78
234.579	21126.87
234.651	21102.2
234.723	21095.21
234.795	21088.27
234.867	21066.68
234.939	21070.53
235.012	21055.83
235.084	21041.32
235.156	21042.24
235.228	21020.26
235.3	21001.13
235.372	20986
235.444	20977.61
235.516	20934.96
235.588	20920.4
235.66	20911.44
235.732	20890.09
235.804	20923.2
235.876	20907.15
235.948	20900.5
236.02	20892.35
236.092	20872.45
236.164	20852.88
236.236	20827.92
236.308	20800.64
236.38	20779.87
236.452	20746.76
236.524	20725.07
236.596	20719.58
236.668	20699.19
236.74	20683.24
236.812	20660.93
236.884	20639.72
236.956	20616.83
237.028	20590.23
237.1	20555.04
237.172	20548.2
237.244	20536.59
237.316	20476.34
237.388	20460.82
237.46	20429.02
237.532	20408.87
237.604	20373.35
237.675	20370.46
237.747	20352.15
237.819	20324
237.891	20319.38
237.963	20294.61
238.035	20257.5
238.107	20192.44
238.178	20179.04
238.25	20141.89
238.322	20132.3
238.394	20092.49
238.466	20062.76
238.538	20051
238.609	20024.45
238.681	19975.39
238.753	19943.77
238.825	19913.89
238.897	19879.68
238.968	19871.29
239.04	19841.22
239.112	19843.15
239.184	19790.81
239.255	19755.15
239.327	19728.65
239.399	19683.93
239.471	19650.53
239.542	19635.4
239.614	19620.27
239.686	19562.05
239.758	19547.89
239.829	19502.73
239.901	19485.14
239.973	19445.96
240.044	19408.42
240.116	19379.8
240.188	19339.61
240.259	19300.09
240.331	19256.24
240.403	19221.54
240.474	19165.26
240.546	19125.5
240.618	19068.35
240.689	19036.88
240.761	19007.15
240.833	18985.37
240.904	18951.73
240.976	18919.3
241.048	18889.66
241.119	18862.58
241.191	18838.1
241.262	18817.23
241.334	18791.31
241.405	18747.89
241.477	18709
241.549	18674.01
241.62	18644.52
241.692	18636.33
241.763	18615.61
241.835	18590.35
241.906	18568.81
241.978	18529.59
242.049	18504.58
242.121	18483.85
242.192	18464
242.264	18417.69
242.335	18367.62
242.407	18332.68
242.478	18298.9
242.55	18275.19
242.621	18234.37
242.693	18194.23
242.764	18153.36
242.836	18108.5
242.907	18095.54
242.979	18079.15
243.05	18051.2
243.122	18018.33
243.193	17976.41
243.264	17922
243.336	17879.59
243.407	17849.28
243.479	17828.56
243.55	17800.46
243.622	17770.92
243.693	17733.91
243.764	17711.26
243.836	17663.06
243.907	17633.23
243.978	17598.05
244.05	17560.8
244.121	17512.03
244.192	17489.48
244.264	17442.44
244.335	17411.02
244.407	17352.37
244.478	17325.86
244.549	17293.67
244.62	17252.99
244.692	17215.84
244.763	17194.68
244.834	17157.28
244.906	17120.03
244.977	17087.69
245.048	17062.77
245.119	17023.06
245.191	16979.16
245.262	16927.2
245.333	16923.64
245.405	16882.67
245.476	16858.72
245.547	16828.6
245.618	16804.69
245.689	16771.39
245.761	16744.25
245.832	16709.55
245.903	16684.06
245.974	16646.47
246.045	16609.98
246.117	16591.28
246.188	16550.89
246.259	16502.89
246.33	16471.17
246.401	16433.68
246.473	16387.94
246.544	16346.01
246.615	16321.04
246.686	16286.68
246.757	16269.37
246.828	16219.29
246.899	16200.21
246.97	16142.66
247.042	16095.81
247.113	16073.06
247.184	16051.42
247.255	16010.02
247.326	15979.56
247.397	15949.05
247.468	15919.45
247.539	15892.03
247.61	15843.78
247.681	15820.35
247.752	15808.5
247.823	15769.12
247.894	15738.22
247.965	15704.34
248.037	15671.03
248.108	15620.61
248.179	15587.88
248.25	15558.82
248.321	15533.18
248.392	15491.87
248.463	15487.24
248.534	15457.4
248.605	15435.81
248.675	15408.09
248.746	15392.53
248.817	15370.21
248.888	15346.25
248.959	15294.39
249.03	15270.24
249.101	15244.11
249.172	15216.68
249.243	15161.35
249.314	15149.88
249.385	15118.64
249.456	15100.08
249.527	15067.06
249.598	15052.75
249.669	15031.73
249.739	15004.83
249.81	14988.83
249.881	14961.11
249.952	14929.49
250.023	14900.57
250.094	14849.18
250.165	14803.34
250.235	14767.29
250.306	14736.77
250.377	14693.68
250.448	14672.61
250.519	14621.32
250.59	14613.03
250.66	14574.61
250.731	14561.69
250.802	14530.99
250.873	14508.28
250.944	14476.71
251.014	14445.9
251.085	14430.29
251.156	14402.86
251.227	14386.18
251.297	14371.72
251.368	14346.41
251.439	14330.6
251.51	14311.46
251.58	14289.62
251.651	14265.86
251.722	14248.74
251.792	14202.76
251.863	14173.93
251.934	14169.45
252.005	14169.64
252.075	14140.57
252.146	14123.75
252.217	14110.78
252.287	14098.82
252.358	14074.05
252.429	14072.41
252.499	14041.99
252.57	14023.04
252.641	14010.37
252.711	13980.19
252.782	13935.55
252.852	13932.9
252.923	13909.47
252.994	13891.15
253.064	13868.16
253.135	13834.51
253.205	13814.99
253.276	13809.97
253.347	13809.68
253.417	13767.07
253.488	13740.89
253.558	13713.99
253.629	13692.54
253.699	13673.93
253.77	13656.63
253.841	13634.16
253.911	13606.64
253.982	13591.6
254.052	13567.59
254.123	13547.87
254.193	13526.81
254.264	13539.78
254.334	13506.99
254.405	13466.69
254.475	13429.77
254.546	13406
254.616	13394.38
254.687	13366.95
254.757	13350.81
254.827	13321.74
254.898	13315.81
254.968	13298.45
255.039	13271.89
255.109	13257.91
255.18	13226.19
255.25	13179.29
255.321	13159.96
255.391	13124.77
255.461	13118.16
255.532	13079.84
255.602	13040.65
255.673	13003.57
255.743	12968.09
255.813	12921.67
255.884	12919.21
255.954	12911.36
256.024	12910.59
256.095	12889.76
256.165	12852.98
256.235	12838.18
256.306	12805.59
256.376	12785.15
256.446	12764.81
256.517	12741.67
256.587	12721.14
256.657	12703.01
256.728	12682.57
256.798	12655.92
256.868	12624.39
256.938	12598.79
257.009	12586.02
257.079	12581.68
257.149	12587.18
257.219	12543.26
257.29	12531.21
257.36	12486.09
257.43	12470.86
257.5	12419.71
257.571	12405.83
257.641	12401.98
257.711	12371.94
257.781	12367.89
257.852	12358.3
257.922	12316.65
257.992	12291.44
258.062	12272.36
258.132	12257.22
258.202	12239.82
258.273	12231.87
258.343	12236.69
258.413	12200.58
258.483	12178.22
258.553	12142.98
258.623	12111.98
258.693	12102.97
258.764	12091.79
258.834	12088.17
258.904	12064.65
258.974	12041.76
259.044	12015.92
259.114	11998.37
259.184	11979.29
259.254	11948.92
259.324	11903.56
259.394	11890.98
259.464	11889.49
259.535	11861.58
259.605	11840.81
259.675	11820.85
259.745	11797.76
259.815	11761.42
259.885	11742.43
259.955	11744.5
260.025	11720.89
260.095	11696.3
260.165	11681.84
260.235	11681.75
260.305	11651.72
260.375	11620.97
260.445	11631.14
260.515	11625.11
260.585	11620.1
260.655	11600.49
260.725	11592.73
260.795	11581.21
260.865	11584.1
260.934	11560.05
261.004	11554.17
261.074	11537.01
261.144	11529.83
261.214	11524
261.284	11507.47
261.354	11501.73
261.424	11477.1
261.494	11479.08
261.564	11464.67
261.634	11455.56
261.703	11418.83
261.773	11412.04
261.843	11403.55
261.913	11384.95
261.983	11349.62
262.053	11331.26
262.123	11311.36
262.192	11285.72
262.262	11285.04
262.332	11249.23
262.402	11241.14
262.472	11224.13
262.541	11183.41
262.611	11171.21
262.681	11142.49
262.751	11130.59
262.821	11110.92
262.89	11076.66
262.96	11062.44
263.03	11069.91
263.1	11051.26
263.169	11038.15
263.239	11027.41
263.309	11031.12
263.379	11012.47
263.448	10998.83
263.518	10983.07
263.588	10966.5
263.657	10964.18
263.727	10948.42
263.797	10934.93
263.867	10917.34
263.936	10887.8
264.006	10886.16
264.076	10865.97
264.145	10846.56
264.215	10827.14
264.285	10816.97
264.354	10794.85
264.424	10768.64
264.494	10728.93
264.563	10706.96
264.633	10709.61
264.702	10693.08
264.772	10657.37
264.842	10641.91
264.911	10627.07
264.981	10600.85
265.05	10587.89
265.12	10566.3
265.19	10557.1
265.259	10549.25
265.329	10534.17
265.398	10529.11
265.468	10541.1
265.537	10523.61
265.607	10520.58
265.676	10517.64
265.746	10506.75
265.815	10502.22
265.885	10491.91
265.955	10470.71
266.024	10451.2
266.094	10415.31
266.163	10419.26
266.232	10420.75
266.302	10402.83
266.371	10396.76
266.441	10389.1
266.51	10385.73
266.58	10372.14
266.649	10348.53
266.719	10347.47
266.788	10337.35
266.858	10337.16
266.927	10301.99
266.996	10292.74
267.066	10281.27
267.135	10253.33
267.205	10247.79
267.274	10238.25
267.343	10229.68
267.413	10219.56
267.482	10224.57
267.552	10223.8
267.621	10188.25
267.69	10153.18
267.76	10138.97
267.829	10131.16
267.898	10111.12
267.968	10086.07
268.037	10077.35
268.106	10069.16
268.176	10044.21
268.245	10029.71
268.314	10006.82
268.384	10007.69
268.453	9995.94
268.522	9983.51
268.592	9981.87
268.661	9958.75
268.73	9947.91
268.799	9927.39
268.869	9928.6
268.938	9898.97
269.007	9883.56
269.076	9876.77
269.146	9876.14
269.215	9878.55
269.284	9877.25
269.353	9860.1
269.422	9844.16
269.492	9825.42
269.561	9784.92
269.63	9773.55
269.699	9761.46
269.768	9750.48
269.838	9738.34
269.907	9729.09
269.976	9703.28
270.045	9674.87
270.114	9671.88
270.183	9654.83
270.253	9651.8
270.322	9626.51
270.391	9616.49
270.46	9611.53
270.529	9610.67
270.598	9611.2
270.667	9592.37
270.736	9570.93
270.806	9567.61
270.875	9573.39
270.944	9561.88
271.013	9582.15
271.082	9579.99
271.151	9568.76
271.22	9542.09
271.289	9532.02
271.358	9520.13
271.427	9517.86
271.496	9509.34
271.565	9493.45
271.634	9479.63
271.703	9480.21
271.772	9483.1
271.841	9469.95
271.91	9450.88
271.979	9437.2
272.048	9405.13
272.117	9401.47
272.186	9384.14
272.255	9385.19
272.324	9377.97
272.393	9372.53
272.462	9353.07
272.531	9339.73
272.6	9329.62
272.669	9335.59
272.738	9319.61
272.807	9322.3
272.876	9303.19
272.945	9331.65
273.013	9328.8
273.082	9338
273.151	9320.18
273.22	9313.88
273.289	9307.67
273.358	9315.85
273.427	9305.88
273.496	9306.7
273.564	9303.28
273.633	9302.27
273.702	9279.06
273.771	9264.76
273.84	9256.24
273.909	9258.17
273.977	9252.63
274.046	9246.8
274.115	9243.77
274.184	9226.34
274.253	9212.24
274.322	9212.91
274.39	9175.93
274.459	9163.6
274.528	9133.9
274.597	9121.38
274.665	9116.47
274.734	9119.74
274.803	9107.51
274.872	9101.4
274.94	9087.25
275.009	9133.77
275.078	9126.07
275.147	9121.59
275.215	9118.42
275.284	9129.25
275.353	9114.18
275.421	9095.36
275.49	9104.12
275.559	9100.46
275.627	9093.67
275.696	9084.19
275.765	9087.99
275.833	9084.05
275.902	9079.23
275.971	9091.27
276.039	9108.07
276.108	9106.96
276.177	9103.74
276.245	9094.88
276.314	9090.69
276.383	9099.11
276.451	9038.28
276.52	9035.69
276.588	9047.62
276.657	9050.61
276.725	9040.02
276.794	9039.1
276.863	9050.37
276.931	9026.87
277	9034.05
277.068	9044.88
277.137	9059.71
277.205	9052.1
277.274	9067.12
277.342	9075.45
277.411	9057.44
277.48	9041.17
277.548	9030.63
277.617	9028.94
277.685	9017.97
277.754	9015.27
277.822	9004.59
277.89	9013.3
277.959	9004.59
278.027	8989.18
278.096	8978.59
278.164	8997.51
278.233	8988.75
278.301	8975.32
278.37	8980.47
278.438	8958.86
278.507	8956.59
278.575	8927.81
278.643	8923.14
278.712	8907.01
278.78	8895.26
278.849	8901.91
278.917	8909.9
278.985	8905.32
279.054	8905.47
279.122	8915.05
279.191	8917.89
279.259	8911.78
279.327	8896.56
279.396	8911.63
279.464	8909.51
279.532	8910.72
279.601	8906.72
279.669	8898.78
279.737	8910.38
279.806	8911.24
279.874	8919.81
279.942	8920.29
280.011	8918.66
280.079	8931.56
280.147	8946.39
280.215	8947.45
280.284	8942.82
280.352	8932.09
280.42	8940.66
280.488	8927.76
280.557	8921.84
280.625	8912.93
280.693	8916.06
280.761	8915.1
280.83	8894.69
280.898	8894.54
280.966	8882.07
281.034	8851.17
281.102	8842.07
281.171	8834.27
281.239	8837.07
281.307	8825.95
281.375	8810.06
281.443	8831.87
281.512	8820.94
281.58	8826.91
281.648	8818.39
281.716	8818.68
281.784	8807.03
281.852	8798.61
281.92	8799.71
281.989	8807.37
282.057	8796.73
282.125	8834.38
282.193	8831.06
282.261	8834.86
282.329	8835.54
282.397	8833.8
282.465	8839.05
282.533	8854.74
282.601	8849.35
282.67	8826.2
282.738	8824.17
282.806	8837.07
282.874	8825.66
282.942	8828.31
283.01	8817.14
283.078	8818.92
283.146	8813.05
283.214	8828.89
283.282	8831.73
283.35	8840.2
283.418	8834.81
283.486	8837.98
283.554	8796.29
283.622	8798.26
283.69	8797.3
283.758	8791.57
283.826	8799.13
283.894	8806.83
283.962	8824.12
284.03	8832.68
284.098	8836.29
284.165	8825.85
284.233	8825.71
284.301	8820.03
284.369	8810.98
284.437	8802.31
284.505	8796.49
284.573	8817.09
284.641	8803.76
284.709	8807.32
284.777	8794.56
284.845	8800.1
284.912	8803.37
284.98	8809.48
285.048	8804.72
285.116	8807.17
285.184	8818.48
285.252	8815.07
285.319	8795.48
285.387	8786.81
285.455	8766.36
285.523	8773.43
285.591	8770.26
285.659	8772.33
285.726	8785.8
285.794	8771.17
285.862	8771.17
285.93	8766.94
285.997	8757.17
286.065	8749.27
286.133	8739.93
286.201	8735.65
286.269	8722.41
286.336	8718.61
286.404	8708.84
286.472	8717.26
286.539	8694.6
286.607	8682.13
286.675	8687.72
286.743	8699.31
286.81	8693.54
286.878	8712.74
286.946	8711.01
287.013	8716.01
287.081	8707.45
287.149	8689.15
287.216	8710.67
287.284	8701.76
287.352	8705.42
287.419	8699.65
287.487	8719.04
287.555	8722.12
287.622	8719.62
287.69	8723.18
287.758	8730.69
287.825	8733.82
287.893	8717.98
287.96	8724.82
288.028	8731.56
288.096	8728.91
288.163	8726.26
288.231	8716.39
288.298	8710.71
288.366	8716.54
288.433	8715.72
288.501	8709.08
288.569	8712.83
288.636	8701.23
288.704	8715.14
288.771	8716.54
288.839	8704.22
288.906	8693.72
288.974	8701.23
289.041	8702.1
289.109	8697.24
289.176	8704.65
289.244	8710.48
289.311	8722.85
289.379	8736.37
289.446	8736.95
289.514	8735.26
289.581	8735.5
289.649	8736.47
289.716	8740.22
289.783	8729.82
289.851	8744.6
289.918	8744.84
289.986	8753.22
290.053	8756.3
290.121	8752.44
290.188	8764.14
290.255	8792.83
290.323	8791.05
290.39	8784.5
290.458	8792.3
290.525	8800.62
290.592	8797.69
290.66	8791.81
290.727	8789.17
290.794	8796.34
290.862	8790.61
290.929	8792.1
290.996	8791.14
291.064	8802.26
291.131	8814.1
291.198	8827.63
291.266	8824.74
291.333	8827.48
291.4	8825.46
291.468	8844.72
291.535	8840.53
291.602	8847.17
291.669	8844.19
291.737	8850.69
291.804	8852.08
291.871	8858.63
291.938	8867.73
292.006	8892.67
292.073	8907.3
292.14	8915.29
292.207	8907.44
292.275	8915.53
292.342	8930.31
292.409	8955.01
292.476	8977.73
292.543	8967.43
292.611	8976.43
292.678	8991.64
292.745	9020
292.812	9040.41
292.879	9036.99
292.946	9045.65
293.014	9055.43
293.081	9061.83
293.148	9078.15
293.215	9093.32
293.282	9099.38
293.349	9107.9
293.416	9087.73
293.484	9098.18
293.551	9110.89
293.618	9134.09
293.685	9159.65
293.752	9153.44
293.819	9150.99
293.886	9135.53
293.953	9143.28
294.02	9154.31
294.087	9161.63
294.154	9159.65
294.221	9165.1
294.288	9165.82
294.356	9184.35
294.423	9187
294.49	9179.92
294.557	9182.38
294.624	9171.69
294.691	9191
294.758	9192.25
294.825	9204.58
294.892	9198.12
294.959	9194.13
295.026	9204.91
295.093	9193.89
295.16	9193.12
295.226	9195.86
295.293	9220.76
295.36	9221.72
295.427	9224.71
295.494	9235.54
295.561	9235.3
295.628	9260.58
295.695	9272.33
295.762	9272.81
295.829	9283.02
295.896	9300.26
295.963	9311.62
296.03	9321.73
296.096	9322.98
296.163	9335.89
296.23	9348.7
296.297	9363.38
296.364	9369.26
296.431	9362.9
296.498	9360.73
296.564	9384.52
296.631	9389.91
296.698	9376.91
296.765	9406.38
296.832	9395.74
296.899	9386.93
296.965	9405.18
297.032	9382.59
297.099	9401.9
297.166	9406.67
297.233	9401.18
297.299	9395.88
297.366	9395.11
297.433	9402.14
297.5	9413.84
297.566	9410.09
297.633	9405.99
297.7	9411.05
297.767	9409.8
297.833	9428.63
297.9	9434.65
297.967	9419.48
298.033	9424.63
298.1	9450.4
298.167	9437.44
298.234	9443.36
298.3	9447.02
298.367	9448.76
298.434	9455.55
298.5	9446.59
298.567	9444.9
298.634	9448.52
298.7	9467.25
298.767	9476.11
298.834	9492.39
298.9	9482.08
298.967	9477.6
299.033	9484.92
299.1	9500.43
299.167	9513.38
299.233	9497.73
299.3	9515.55
299.366	9526.29
299.433	9547.14
299.5	9521.47
299.566	9527.59
299.633	9548.78
299.699	9566.6
299.766	9558.75
299.832	9561.2
299.899	9566.6
299.965	9579.6
300.032	9571.08
300.099	9575.8
300.165	9578.16
300.232	9567.47
300.298	9567.37
300.365	9581.91
300.431	9589.91
300.498	9582.54
300.564	9587.11
300.631	9602.77
300.697	9613.17
300.763	9615.29
300.83	9603.1
300.896	9623.18
300.963	9622.99
301.029	9622.41
301.096	9626.89
301.162	9637.97
301.229	9638.35
301.295	9628.87
301.361	9635.42
301.428	9643.89
301.494	9629.01
301.561	9630.46
301.627	9636.33
301.693	9643.94
301.76	9651.65
301.826	9643.65
301.892	9650.49
301.959	9661.23
302.025	9655.11
302.092	9640.23
302.158	9649.19
302.224	9656.7
302.291	9643.56
302.357	9648.66
302.423	9645.34
302.49	9631.66
302.556	9644.04
302.622	9649.91
302.688	9664.65
302.755	9672.55
302.821	9678.33
302.887	9688.59
302.954	9686.23
303.02	9691.09
303.086	9695.76
303.152	9689.16
303.219	9684.78
303.285	9690.22
303.351	9694.85
303.417	9697.06
303.483	9697.35
303.55	9690.18
303.616	9692.01
303.682	9694.56
303.748	9687.67
303.815	9696.29
303.881	9704.63
303.947	9689.45
304.013	9677.03
304.079	9667.4
304.145	9644.52
304.212	9642.06
304.278	9633.97
304.344	9629.83
304.41	9620.15
304.476	9607.05
304.542	9604.35
304.608	9608.21
304.674	9590.68
304.741	9580.51
304.807	9581.86
304.873	9591.2
304.939	9607.05
305.005	9590.53
305.071	9587.5
305.137	9586.58
305.203	9560.86
305.269	9562.74
305.335	9572.61
305.401	9576.76
305.467	9570.16
305.533	9576.13
305.599	9586.82
305.666	9594.53
305.732	9595.35
305.798	9607.43
305.864	9633.78
305.93	9629.93
305.996	9633.44
306.062	9634.41
306.128	9633.83
306.194	9623.38
306.259	9613.84
306.325	9601.71
306.391	9609.27
306.457	9614.52
306.523	9613.79
306.589	9638.84
306.655	9629.2
306.721	9610.28
306.787	9596.22
306.853	9619
306.919	9604.45
306.985	9593.38
307.051	9585.33
307.117	9576.57
307.183	9567.27
307.248	9538.14
307.314	9543.29
307.38	9541.12
307.446	9551.24
307.512	9543.58
307.578	9546.27
307.644	9537.12
307.709	9541.46
307.775	9533.71
307.841	9530.43
307.907	9534.33
307.973	9515.55
308.039	9514.83
308.104	9521.18
308.17	9526.43
308.236	9502.88
308.302	9507.31
308.368	9499.65
308.433	9503.31
308.499	9502.3
308.565	9489.69
308.631	9492.57
308.696	9467.78
308.762	9455.3
308.828	9444.32
308.894	9418.22
308.959	9397.33
309.025	9394.29
309.091	9385.34
309.156	9374.84
309.222	9373.35
309.288	9362.41
309.354	9342.53
309.419	9337.47
309.485	9323.75
309.551	9326.11
309.616	9317.49
309.682	9314.7
309.748	9305.36
309.813	9292.74
309.879	9283.98
309.945	9276.13
310.01	9272.66
310.076	9280.32
310.141	9278.29
310.207	9264.95
310.273	9275.45
310.338	9282.09
310.404	9262.98
310.469	9252
310.535	9249.59
310.601	9231.88
310.666	9230.38
310.732	9241.31
310.797	9229.42
310.863	9219.93
310.928	9211.6
310.994	9213.43
311.059	9212.28
311.125	9202.75
311.191	9214.98
311.256	9198.37
311.322	9199.38
311.387	9178.43
311.453	9518.02
311.518	9484.61
311.584	9479.22
311.649	9480.66
311.715	9467.18
311.78	9478.54
311.846	9467.28
311.911	9469.64
311.976	9468.53
312.042	9454.28
312.107	9438.53
312.173	9429.1
312.238	9424.62
312.304	9417.74
312.369	9400.84
312.434	9380.42
312.5	9370.89
312.565	9340.51
312.631	9350.62
312.696	9344.03
312.761	9347.97
312.827	8997.99
312.892	9036.7
312.958	9032.94
313.023	9028.51
313.088	9028.32
313.154	9008.1
313.219	9002.66
313.284	8988.51
313.35	8983.07
313.415	8971.8
313.48	8964.68
313.546	8967.52
313.611	8973.25
313.676	8960.54
313.741	8961.16
313.807	8972.38
313.872	8975.89
313.937	8977.87
314.003	8983.98
314.068	8985.52
314.133	8986.97
314.198	8973.3
314.264	8955.82
314.329	8951.97
314.394	8943.83
314.459	8939.74
314.525	8956.15
314.59	8945.85
314.655	8937.67
314.72	8940.08
314.785	8940.99
314.851	8933.29
314.916	8917.02
314.981	8904.12
315.046	8899.88
315.111	8887.08
315.176	8876.25
315.242	8884.91
315.307	8878.99
315.372	8855.74
315.437	8841.88
315.502	8829.94
315.567	8836
315.632	8820.36
315.698	8816.56
315.763	8810.2
315.828	8802.55
315.893	8796.05
315.958	8796.39
316.023	8783.78
316.088	8765.82
316.153	8744.02
316.218	8737.19
316.283	8713.56
316.348	8691.47
316.413	8684.98
316.479	8667.03
316.544	8630.41
316.609	8595.75
316.674	8561.64
316.739	8527.28
316.804	8497.16
316.869	8463.91
316.934	8426.09
316.999	8391.64
317.064	8337.36
317.129	8291.85
317.194	8253.36
317.259	8213.8
317.324	8158.29
317.389	8112.4
317.454	8071.08
317.518	8039.09
317.583	8011.28
317.648	7991.18
317.713	7960.34
317.778	7896.13
317.843	7861.31
317.908	7826.79
317.973	7788.89
318.038	7759.51
318.103	7725.71
318.168	7694.93
318.233	7662.47
318.297	7615.64
318.362	7580.16
318.427	7544.25
318.492	7521.41
318.557	7474.88
318.622	7434.06
318.687	7410.32
318.751	7369.14
318.816	7334.34
318.881	7300.12
318.946	7241.67
319.011	7193.37
319.075	7145.12
319.14	7112.12
319.205	7072.43
319.27	7035.63
319.335	6992.77
319.399	6952.31
319.464	6919.69
319.529	6863.68
319.594	6816.51
319.658	6788.02
319.723	6741.91
319.788	6711.56
319.853	6653.2
319.917	6624.87
319.982	6571.61
320.047	6536.99
320.112	6514.43
320.176	6465.79
320.241	6424.69
320.306	6397.14
320.37	6353.84
320.435	6322.21
320.5	6293.84
320.564	6250.31
320.629	6206.69
320.694	6170.46
320.758	6127.08
320.823	6081.92
320.888	6055.73
320.952	6012.36
321.017	5965.05
321.082	5922.75
321.146	5884.23
321.211	5849.6
321.275	5805.76
321.34	5763.42
321.405	5715.03
321.469	5667.7
321.534	5626.13
321.598	5577.57
321.663	5541.12
321.727	5513.08
321.792	5463.32
321.857	5422.09
321.921	5385.67
321.986	5345.42
322.05	5286.87
322.115	5250.4
322.179	5208.91
322.244	5151.81
322.308	5116.31
322.373	5073.4
322.437	5033.93
322.502	5005.33
322.566	4959.83
322.631	4925.4
322.695	4885.42
322.76	4844.87
322.824	4803.89
322.889	4761.15
322.953	4716.36
323.018	4654.14
323.082	4588.2
323.146	4541.99
323.211	4488.82
323.275	4443.32
323.34	4398.79
323.404	4366.41
323.468	4320.11
323.533	4275.2
323.597	4229.65
323.662	4179.54
323.726	4140.14
323.79	4096.97
323.855	4034.89
323.919	3988.05
323.983	3938.33
324.048	3872.05
324.112	4008.97
324.177	3882.66
324.241	3681.11
324.305	3484.72
324.37	3292.87
324.434	3107.28
324.498	3062.52
324.562	3012.05
324.627	2953.9
324.691	2898.01
324.755	2832.62
324.82	2758.38
324.884	2682.35
324.948	2613.06
325.012	2521.52
325.077	2404.41
