Data from 20250630_urea_2M_MAYP1162681_05-42-26-807.txt Node
Date: Tue Jul 01 05:42:26 BST 2025
User: adleo
Spectrometer: MAYP116268
Trigger mode: 0
Integration Time (sec): 1.000000E0
Scans to average: 1
Electric dark correction enabled: true
Nonlinearity correction enabled: true
Boxcar width: 10
XAxis mode: Wavelengths
Number of Pixels in Spectrum: 2068
>>>>>Begin Spectral Data<<<<<
179.565	1044.77
179.642	1096.17
179.718	1134.97
179.795	1167.3
179.871	1196.13
179.948	1211.19
180.024	1226.35
180.101	1245.7
180.177	1258.71
180.254	1280.3
180.33	1301.82
180.407	1342.97
180.483	1427.58
180.56	1503.93
180.636	1575.89
180.712	1565.4
180.789	1575.27
180.865	1584.91
180.942	1595.31
181.018	1604.1
181.095	1614.98
181.171	1618.02
181.248	1617.64
181.324	1630.99
181.4	1638.12
181.477	1648.1
181.553	1657.93
181.63	1677.31
181.706	1692.18
181.782	1698.55
181.859	1693.42
181.935	1695.41
182.011	1692.23
182.088	1708.15
182.164	1728.3
182.24	1742.18
182.317	1751.72
182.393	1750.96
182.469	1766.03
182.546	1774.87
182.622	1780.14
182.698	1774.96
182.775	1785.41
182.851	1797.96
182.927	1790.97
183.003	1786.65
183.08	1781.42
183.156	1791.78
183.232	1789.21
183.308	1777.33
183.385	1785.46
183.461	1805.18
183.537	1807.99
183.613	1820.91
183.69	1809.93
183.766	1797.38
183.842	1801.76
183.918	1808.22
183.995	1819.67
184.071	1823
184.147	1821.29
184.223	1812.69
184.299	1822.72
184.375	1814.98
184.452	1820.4
184.528	1870.93
184.604	1881.77
184.68	1892.13
184.756	1899.02
184.832	1904.25
184.908	1909.29
184.985	1908.57
185.061	1892.7
185.137	1897.98
185.213	1886.76
185.289	1891.7
185.365	1885.9
185.441	1886.14
185.517	1894.03
185.593	1891.04
185.669	1886.76
185.745	1893.99
185.822	1906.96
185.898	1899.21
185.974	1907.81
186.05	1900.11
186.126	1863.98
186.202	1856.94
186.278	1851.1
186.354	1842.73
186.43	1848.48
186.506	1847.34
186.582	1845.82
186.658	1851.81
186.734	1835.08
186.81	1836.55
186.886	1836.13
186.962	1848.91
187.038	1843.97
187.114	1838.93
187.19	1847.1
187.266	1839.59
187.341	1840.93
187.417	1835.65
187.493	1839.12
187.569	1842.69
187.645	1837.93
187.721	1826.71
187.797	1837.08
187.873	1842.68
187.949	1836.17
188.025	1830.61
188.101	1833.22
188.176	1839.02
188.252	1835.55
188.328	1841.82
188.404	1841.97
188.48	1837.59
188.556	1828.47
188.632	1830.37
188.707	1827.37
188.783	1823.33
188.859	1819.25
188.935	1808.36
189.011	1816.06
189.086	1807.51
189.162	1798.71
189.238	1797.33
189.314	1797.67
189.39	1788.54
189.465	1783.41
189.541	1799.95
189.617	1786.36
189.693	1781.27
189.768	1784.7
189.844	1807.85
189.92	1803.2
189.996	1811.61
190.071	1822.45
190.147	1821.73
190.223	1829.72
190.298	1824.63
190.374	1811.52
190.45	1821.97
190.526	1829.48
190.601	1824.39
190.677	1827.82
190.753	1852.4
190.828	1855.11
190.904	1867.71
190.98	1881.21
191.055	1888.1
191.131	1878.88
191.207	1898.6
191.282	1907.3
191.358	1896.51
191.433	1880.34
191.509	1889.99
191.585	1886.66
191.66	1886.8
191.736	1894.55
191.811	1885.95
191.887	1904.39
191.963	1926.5
192.038	1931.83
192.114	1932.68
192.189	1936.67
192.265	1933.97
192.34	1913.61
192.416	1911.52
192.491	1908.62
192.567	1911.09
192.642	1914.8
192.718	1915.37
192.793	1903.29
192.869	1898.59
192.944	1900.87
193.02	1908.33
193.095	1910.81
193.171	1916.27
193.246	1917.51
193.322	1915.7
193.397	1916.89
193.473	1900.58
193.548	1883.27
193.624	1886.7
193.699	1884.89
193.775	1898.63
193.85	1897.83
193.925	1908.33
194.001	1908.33
194.076	1897.35
194.152	1886.18
194.227	1879.24
194.302	1869.21
194.378	1873.54
194.453	1874.11
194.529	1886.56
194.604	1875.15
194.679	1871.78
194.755	1854.1
194.83	1863.61
194.905	1863.61
194.981	1870.03
195.056	1867.65
195.131	1874.78
195.207	1873.97
195.282	1864.47
195.357	1847.02
195.433	1861.94
195.508	1848.44
195.583	1855.1
195.659	1871.83
195.734	1879.63
195.809	1880.2
195.884	1889.51
195.96	1889.56
196.035	1901.92
196.11	1896.93
196.185	1907.67
196.261	1907.86
196.336	1938.19
196.411	1924.26
196.486	1927.35
196.561	1921.98
196.637	1927.25
196.712	1939.9
196.787	1943.14
196.862	1960.58
196.937	1971.9
197.013	1977.7
197.088	1989.92
197.163	2010.13
197.238	2024.03
197.313	2024.84
197.388	2037.35
197.464	2062.37
197.539	2071.97
197.614	2066.22
197.689	2081.25
197.764	2094.47
197.839	2116.3
197.914	2109.21
197.989	2128.9
198.065	2141.22
198.14	2186.96
198.215	2213.27
198.29	2226.46
198.365	2238.78
198.44	2246.53
198.515	2268.95
198.59	2283.13
198.665	2306.73
198.74	2315.97
198.815	2314.59
198.89	2333.67
198.965	2359.09
199.04	2357.33
199.115	2371.41
199.19	2410.63
199.265	2412.53
199.34	2420.48
199.415	2448.15
199.49	2469.43
199.565	2480.19
199.64	2504.18
199.715	2501.13
199.79	2504.7
199.865	2506.94
199.94	2503.94
200.015	2533.99
200.09	2539.66
200.165	2543.28
200.24	2547.9
200.315	2583.36
200.39	2597.7
200.464	2606.89
200.539	2607.08
200.614	2620.98
200.689	2640.94
200.764	2647.94
200.839	2663.18
200.914	2671.66
200.989	2664.32
201.063	2675.42
201.138	2657.95
201.213	2654.09
201.288	2637.71
201.363	2641.99
201.438	2641.9
201.512	2657.37
201.587	2642.98
201.662	2646.94
201.737	2657.08
201.812	2665.28
201.886	2634.34
201.961	2642.72
202.036	2629.11
202.111	2627.06
202.186	2601.69
202.26	2587.54
202.335	2568.77
202.41	2562.67
202.485	2546.39
202.559	2528.1
202.634	2504.01
202.709	2512.77
202.784	2497.86
202.858	2496.96
202.933	2481.06
203.008	2474.63
203.082	2456.11
203.157	2453.25
203.232	2414.13
203.306	2393.94
203.381	2364.85
203.456	2342.24
203.53	2321.28
203.605	2306.01
203.68	2284.35
203.754	2279.07
203.829	2264.22
203.904	2243.99
203.978	2233.95
204.053	2236.57
204.127	2225.43
204.202	2222.77
204.277	2208.5
204.351	2203.07
204.426	2196.65
204.5	2188.56
204.575	2161.16
204.65	2168.63
204.724	2161.97
204.799	2168.91
204.873	2169.19
204.948	2169.43
205.022	2159.45
205.097	2154.35
205.171	2166.86
205.246	2176.19
205.32	2178.14
205.395	2176.9
205.469	2169.39
205.544	2174.39
205.618	2160.12
205.693	2171.82
205.767	2163.21
205.842	2184.29
205.916	2178.49
205.991	2170.78
206.065	2176.25
206.14	2191.32
206.214	2188.28
206.289	2179.57
206.363	2192.65
206.438	2193.03
206.512	2195.13
206.586	2211.2
206.661	2218.49
206.735	2195.18
206.81	2195.56
206.884	2207.12
206.958	2195.9
207.033	2211.55
207.107	2216.64
207.181	2243.53
207.256	2235.78
207.33	2251.86
207.405	2260
207.479	2277.99
207.553	2282.08
207.628	2267.1
207.702	2273.95
207.776	2268.33
207.851	2275.09
207.925	2291.18
207.999	2288.8
208.073	2293.23
208.148	2298.99
208.222	2288.23
208.296	2319.82
208.371	2338.58
208.445	2347.58
208.519	2373.13
208.593	2381.41
208.668	2380.46
208.742	2383.37
208.816	2386.84
208.89	2400.27
208.965	2400.6
209.039	2406.55
209.113	2424.5
209.187	2448.14
209.261	2447.43
209.336	2467.9
209.41	2481.75
209.484	2475.13
209.558	2497.89
209.632	2505.46
209.707	2515.03
209.781	2532.51
209.855	2553.61
209.929	2566.67
210.003	2570.53
210.077	2572.24
210.151	2618.1
210.226	2645.54
210.3	2670.14
210.374	2691.56
210.448	2693.95
210.522	2702.71
210.596	2713.34
210.67	2723.48
210.744	2763.33
210.818	2792.61
210.892	2811.34
210.966	2808.58
211.041	2830.5
211.115	2829.74
211.189	2854.42
211.263	2869.09
211.337	2878.67
211.411	2884.15
211.485	2878.76
211.559	2893.1
211.633	2896.44
211.707	2866.63
211.781	2881.66
211.855	2853.16
211.929	2849.01
212.003	2835.49
212.077	2849.6
212.151	2864.76
212.225	2875.72
212.299	2871.53
212.373	2868.48
212.447	2870.1
212.52	2904.56
212.594	2910.09
212.668	2926.39
212.742	2919.91
212.816	2926.3
212.89	2930.21
212.964	2939.22
213.038	2957.87
213.112	2984.15
213.186	3013.08
213.26	3012.37
213.333	2985.95
213.407	3008.97
213.481	3032.89
213.555	3066.39
213.629	3076.94
213.703	3084.42
213.777	3109.71
213.85	3117.3
213.924	3171.27
213.998	3199.19
214.072	3221.29
214.146	3242.04
214.219	3271.58
214.293	3306.32
214.367	3344.4
214.441	3392.27
214.515	3426.36
214.588	3445.79
214.662	3454.24
214.736	3481.88
214.81	3534.17
214.883	3591.87
214.957	3634.36
215.031	3671.98
215.105	3701.86
215.178	3744.13
215.252	3793.38
215.326	3828.55
215.4	3868.24
215.473	3887.41
215.547	3933.35
215.621	3983.47
215.694	4051.08
215.768	4098.27
215.842	4155.74
215.915	4213.05
215.989	4259.26
216.063	4319.07
216.136	4386.38
216.21	4464.01
216.284	4548.14
216.357	4623.66
216.431	4694.74
216.504	4781.78
216.578	4884.31
216.652	4980.8
216.725	5066.36
216.799	5157.49
216.873	5243.24
216.946	5337.66
217.02	5420.34
217.093	5499.91
217.167	5564.66
217.24	5638.13
217.314	5721.78
217.387	5800.03
217.461	5882.29
217.535	5988.12
217.608	6067.9
217.682	6161.9
217.755	6258.02
217.829	6337.85
217.902	6434.82
217.976	6525.79
218.049	6609.3
218.123	6686.74
218.196	6786.3
218.27	6874.84
218.343	6953.64
218.417	7047.67
218.49	7140.83
218.563	7249.58
218.637	7355.56
218.71	7472.46
218.784	7576.64
218.857	7681
218.931	7782.68
219.004	7883.71
219.077	7985.16
219.151	8087.6
219.224	8185.69
219.298	8281.71
219.371	8391.6
219.444	8475.85
219.518	8573.91
219.591	8666.35
219.665	8788.33
219.738	8879.93
219.811	8968.49
219.885	9078.87
219.958	9180.94
220.031	9269.51
220.105	9367.41
220.178	9457.45
220.251	9545.05
220.325	9641.71
220.398	9739.52
220.471	9842.2
220.544	9939.25
220.618	10018.5
220.691	10116.18
220.764	10200.97
220.838	10300.93
220.911	10385.39
220.984	10495.52
221.057	10588.36
221.131	10679.95
221.204	10737.82
221.277	10845.71
221.35	10948.93
221.424	11026.7
221.497	11112.53
221.57	11210.59
221.643	11303.37
221.716	11399.32
221.79	11487.81
221.863	11569.21
221.936	11654.86
222.009	11734.28
222.082	11821.43
222.155	11901.58
222.229	11989.6
222.302	12072.45
222.375	12150.92
222.448	12231.18
222.521	12305.75
222.594	12379.4
222.667	12451.61
222.74	12536.69
222.814	12602.54
222.887	12677.98
222.96	12771.44
223.033	12848.38
223.106	12917.99
223.179	12989.38
223.252	13056.34
223.325	13127.35
223.398	13202.36
223.471	13273.27
223.544	13341.57
223.617	13404.73
223.69	13475.25
223.763	13530.59
223.837	13601.89
223.91	13668.22
223.983	13720.67
224.056	13772.64
224.129	13846.54
224.202	13924
224.275	13980.94
224.348	14028.18
224.42	14072.38
224.493	14106.27
224.566	14160.02
224.639	14220.47
224.712	14274.61
224.785	14329.56
224.858	14379.55
224.931	14429.06
225.004	14480.78
225.077	14536.17
225.15	14569.09
225.223	14615.99
225.296	14694.42
225.369	14737.23
225.442	14783.17
225.514	14842.31
225.587	14899.34
225.66	14954.96
225.733	15003.74
225.806	15062.46
225.879	15117.5
225.952	15165.27
226.025	15233.67
226.097	15293.92
226.17	15354.18
226.243	15380.35
226.316	15434.19
226.389	15490.97
226.461	15543.7
226.534	15596.34
226.607	15637.94
226.68	15708.41
226.753	15772.37
226.825	15804.23
226.898	15872.14
226.971	15916.63
227.044	15968.73
227.117	16017.13
227.189	16066.48
227.262	16124.17
227.335	16178.83
227.407	16223.27
227.48	16284.87
227.553	16336.68
227.626	16391.09
227.698	16433.65
227.771	16495.58
227.844	16530.77
227.916	16576.36
227.989	16608.85
228.062	16646.15
228.134	16720.71
228.207	16765.82
228.28	16795.85
228.352	16836.91
228.425	16867.61
228.498	16925.59
228.57	16951.03
228.643	17015.42
228.716	17048.48
228.788	17086.07
228.861	17120.15
228.934	17177.98
229.006	17215.52
229.079	17248.15
229.151	17278.85
229.224	17296.44
229.296	17338.03
229.369	17408.78
229.442	17469.11
229.514	17506.51
229.587	17555.04
229.659	17570.46
229.732	17609.06
229.804	17665.35
229.877	17721.21
229.949	17770.56
230.022	17815.81
230.094	17870.36
230.167	17888.96
230.239	17912.24
230.312	17937.01
230.384	17990.79
230.457	18026.69
230.529	18056.86
230.602	18083.7
230.674	18120.95
230.747	18181
230.819	18225.43
230.892	18225.29
230.964	18247.79
231.037	18281.77
231.109	18310.01
231.181	18338.1
231.254	18356.46
231.326	18375.74
231.399	18399.79
231.471	18428.6
231.544	18434.92
231.616	18463.98
231.688	18498
231.761	18529.42
231.833	18556.65
231.905	18558.91
231.978	18575.39
232.05	18603.68
232.122	18642.38
232.195	18661.36
232.267	18693.12
232.339	18708.3
232.412	18740.39
232.484	18756.44
232.556	18770.17
232.629	18809.74
232.701	18848.1
232.773	18878.94
232.846	18894.26
232.918	18908.72
232.99	18927.08
233.062	18950.79
233.135	18966.4
233.207	18969.82
233.279	18989.1
233.351	19016.28
233.424	19023.94
233.496	19021.39
233.568	19053.39
233.64	19050.35
233.713	19051.22
233.785	19053.63
233.857	19067.22
233.929	19063.65
234.001	19083.17
234.074	19119.07
234.146	19101.38
234.218	19106.39
234.29	19113.86
234.362	19111.79
234.434	19109.04
234.507	19104.52
234.579	19101
234.651	19106.73
234.723	19123.6
234.795	19134.87
234.867	19129.62
234.939	19152.37
235.012	19166.34
235.084	19167.31
235.156	19170.78
235.228	19176.12
235.3	19171.31
235.372	19173.86
235.444	19191.79
235.516	19174.15
235.588	19172.94
235.66	19179.74
235.732	19159.31
235.804	19197.76
235.876	19207.88
235.948	19213.52
236.02	19212.36
236.092	19210.92
236.164	19205.67
236.236	19197.52
236.308	19192.32
236.38	19189.62
236.452	19175.21
236.524	19183.35
236.596	19183.69
236.668	19187.55
236.74	19178.44
236.812	19174.92
236.884	19165.28
236.956	19149.72
237.028	19137.48
237.1	19114.97
237.172	19124.61
237.244	19138.63
237.316	19091.17
237.388	19077.05
237.46	19060.76
237.532	19064.28
237.604	19045.34
237.675	19050.16
237.747	19045.72
237.819	19022.93
237.891	19008.42
237.963	18991.03
238.035	18961.15
238.107	18919.27
238.178	18910.65
238.25	18898.07
238.322	18905.25
238.394	18878.99
238.466	18865.35
238.538	18846.65
238.609	18838.89
238.681	18796.92
238.753	18770.51
238.825	18758.18
238.897	18740.3
238.968	18736.25
239.04	18702.9
239.112	18708.83
239.184	18678.13
239.255	18654.37
239.327	18640.69
239.399	18627.48
239.471	18613.85
239.542	18598.72
239.614	18594.38
239.686	18549.75
239.758	18540.94
239.829	18506.58
239.901	18498
239.973	18480.17
240.044	18479.25
240.116	18459.25
240.188	18438.97
240.259	18416.7
240.331	18387.5
240.403	18374.82
240.474	18341.96
240.546	18315.94
240.618	18276.32
240.689	18245.67
240.761	18223.02
240.833	18210.69
240.904	18175.51
240.976	18154.45
241.048	18132.52
241.119	18104.81
241.191	18095.95
241.262	18082.07
241.334	18057.54
241.405	18024.86
241.477	17990.5
241.549	17954.22
241.62	17931.42
241.692	17912.48
241.763	17892.97
241.835	17869.35
241.906	17836.34
241.978	17798.41
242.049	17775.28
242.121	17759.19
242.192	17759.62
242.264	17721.6
242.335	17673.5
242.407	17659.86
242.478	17622.32
242.55	17602.9
242.621	17572.34
242.693	17543.19
242.764	17512.88
242.836	17477.41
242.907	17456.06
242.979	17431.19
243.05	17402.51
243.122	17370.8
243.193	17343.43
243.264	17303.43
243.336	17275.24
243.407	17257.74
243.479	17251.33
243.55	17233.84
243.622	17209.31
243.693	17171.09
243.764	17162.32
243.836	17127.04
243.907	17089.16
243.978	17058.12
244.05	17031.18
244.121	16991.95
244.192	16971.66
244.264	16926.02
244.335	16899.22
244.407	16860.96
244.478	16842.26
244.549	16814.21
244.62	16772.76
244.692	16741.53
244.763	16723.17
244.834	16693.04
244.906	16659.74
244.977	16628.61
245.048	16610.78
245.119	16578.29
245.191	16534.58
245.262	16482.57
245.333	16475.39
245.405	16444.74
245.476	16427.63
245.547	16401.12
245.618	16386.13
245.689	16352.88
245.761	16329.31
245.832	16291.47
245.903	16265.06
245.974	16231.03
246.045	16196.09
246.117	16186.45
246.188	16140.37
246.259	16093.38
246.33	16066.96
246.401	16030.09
246.473	15983.53
246.544	15943.09
246.615	15912.05
246.686	15880.48
246.757	15861.69
246.828	15820.43
246.899	15815.41
246.97	15765.57
247.042	15727.88
247.113	15702.19
247.184	15687.44
247.255	15647.05
247.326	15617.5
247.397	15588.39
247.468	15558.7
247.539	15536.04
247.61	15488.81
247.681	15474.44
247.752	15463.5
247.823	15410.33
247.894	15389.66
247.965	15350.08
248.037	15315.62
248.108	15279.51
248.179	15250.16
248.25	15220.95
248.321	15205.23
248.392	15160.5
248.463	15154.77
248.534	15118.23
248.605	15094.18
248.675	15062.41
248.746	15038.89
248.817	15025.73
248.888	14998.11
248.959	14958
249.03	14931.78
249.101	14905.32
249.172	14874.85
249.243	14822.74
249.314	14820.77
249.385	14788.04
249.456	14767.36
249.527	14734.24
249.598	14702.91
249.669	14673.12
249.739	14647.81
249.81	14621.06
249.881	14582.78
249.952	14549.09
250.023	14520.26
250.094	14477.74
250.165	14442.12
250.235	14413.39
250.306	14389.77
250.377	14360.46
250.448	14335.88
250.519	14291.48
250.59	14276.78
250.66	14248.34
250.731	14236.14
250.802	14202.54
250.873	14177.42
250.944	14159.11
251.014	14131.15
251.085	14127.92
251.156	14106.56
251.227	14096.39
251.297	14082.27
251.368	14065.01
251.439	14053.05
251.51	14039.07
251.58	14006.15
251.651	13974.57
251.722	13962.09
251.792	13913.98
251.863	13883.95
251.934	13872.81
252.005	13879.94
252.075	13850.83
252.146	13833.33
252.217	13823.11
252.287	13808.26
252.358	13779.96
252.429	13769.21
252.499	13744.05
252.57	13727.61
252.641	13704.76
252.711	13675.36
252.782	13631.54
252.852	13627.39
252.923	13601.36
252.994	13585.93
253.064	13574.41
253.135	13541.49
253.205	13508.66
253.276	13499.02
253.347	13491.26
253.417	13458.96
253.488	13421.84
253.558	13399.23
253.629	13371.32
253.699	13349.14
253.77	13331.98
253.841	13307.73
253.911	13291.05
253.982	13268.16
254.052	13249.84
254.123	13241.69
254.193	13215.08
254.264	13230.94
254.334	13190.78
254.405	13155.35
254.475	13110.33
254.546	13084.73
254.616	13081.6
254.687	13061.49
254.757	13041.63
254.827	13017.24
254.898	12996.37
254.968	12979.54
255.039	12950.57
255.109	12942.43
255.18	12905.26
255.25	12864.81
255.321	12854.84
255.391	12811.93
255.461	12803.88
255.532	12756.54
255.602	12723.72
255.673	12690.89
255.743	12657
255.813	12617.13
255.884	12603.88
255.954	12600.6
256.024	12601.28
256.095	12571.82
256.165	12544.44
256.235	12532.2
256.306	12503.71
256.376	12494.65
256.446	12480.91
256.517	12466.54
256.587	12452.61
256.657	12446.83
256.728	12431.21
256.798	12404.17
256.868	12382.04
256.938	12350.9
257.009	12337.41
257.079	12314.41
257.149	12310.36
257.219	12266.69
257.29	12255.99
257.36	12221.57
257.43	12207.69
257.5	12159.34
257.571	12140.93
257.641	12127.77
257.711	12093.4
257.781	12073.69
257.852	12058.79
257.922	12021.82
257.992	11997.77
258.062	11967.5
258.132	11949.23
258.202	11920.84
258.273	11909.85
258.343	11903.1
258.413	11882.33
258.483	11868.21
258.553	11850.47
258.623	11822.8
258.693	11812.25
258.764	11801.45
258.834	11797.21
258.904	11779.52
258.974	11756.24
259.044	11735.99
259.114	11723.7
259.184	11711.89
259.254	11694.5
259.324	11652.18
259.394	11641.96
259.464	11637.67
259.535	11617.23
259.605	11596.65
259.675	11576.6
259.745	11559.11
259.815	11535.06
259.885	11515.2
259.955	11516.89
260.025	11485.51
260.095	11469.99
260.165	11453.51
260.235	11452.98
260.305	11425.85
260.375	11390.37
260.445	11396.11
260.515	11389.22
260.585	11378.28
260.655	11352.49
260.725	11342.03
260.795	11334.42
260.865	11332.3
260.934	11308.11
261.004	11303.24
261.074	11283.33
261.144	11281.65
261.214	11269.26
261.284	11248.25
261.354	11234.95
261.424	11206.32
261.494	11208.1
261.564	11187.76
261.634	11173.93
261.703	11137.98
261.773	11125.93
261.843	11122.46
261.913	11097.74
261.983	11058.71
262.053	11048.49
262.123	11035.29
262.192	11008.73
262.262	11001.27
262.332	10967
262.402	10960.74
262.472	10941.8
262.541	10899.35
262.611	10887.3
262.681	10858.63
262.751	10851.69
262.821	10839.54
262.89	10807.4
262.96	10796.46
263.03	10804.8
263.1	10794.01
263.169	10783.21
263.239	10774.11
263.309	10775.98
263.379	10771.74
263.448	10761.87
263.518	10745.1
263.588	10733.2
263.657	10732.28
263.727	10726.02
263.797	10705.2
263.867	10682.7
263.936	10657.06
264.006	10660.44
264.076	10637.26
264.145	10621.41
264.215	10595
264.285	10585.03
264.354	10560.89
264.424	10542.49
264.494	10495.89
264.563	10475.22
264.633	10470.6
264.702	10457.06
264.772	10421.21
264.842	10395.63
264.911	10384.54
264.981	10357.42
265.05	10338.63
265.12	10319.5
265.19	10304.95
265.259	10301.77
265.329	10291.12
265.398	10278.55
265.468	10287.94
265.537	10273.3
265.607	10264.39
265.676	10263.28
265.746	10250.27
265.815	10239.38
265.885	10219.73
265.955	10201.33
266.024	10180.56
266.094	10146.22
266.163	10148.29
266.232	10138.7
266.302	10129.4
266.371	10120.4
266.441	10108.64
266.51	10103.05
266.58	10084.65
266.649	10059.46
266.719	10053.72
266.788	10040.91
266.858	10036.52
266.927	9998.85
266.996	9988.69
267.066	9978
267.135	9955.55
267.205	9950.35
267.274	9941.15
267.343	9939.03
267.413	9932.53
267.482	9938.69
267.552	9941.1
267.621	9909.45
267.69	9892.78
267.76	9875.64
267.829	9861.43
267.898	9843.51
267.968	9821.4
268.037	9818.46
268.106	9813.7
268.176	9786.72
268.245	9777.67
268.314	9763.5
268.384	9762.64
268.453	9748.57
268.522	9744.91
268.592	9740.43
268.661	9719.15
268.73	9711.2
268.799	9688.76
268.869	9694.49
268.938	9659.86
269.007	9637.56
269.076	9631.35
269.146	9619.31
269.215	9610.45
269.284	9619.64
269.353	9604.19
269.422	9593.64
269.492	9581.74
269.561	9554.34
269.63	9553.09
269.699	9536.23
269.768	9523.33
269.838	9516.58
269.907	9513.84
269.976	9486.44
270.045	9456.58
270.114	9453.45
270.183	9444.88
270.253	9434.96
270.322	9403.66
270.391	9392.64
270.46	9398.13
270.529	9389.46
270.598	9389.22
270.667	9377.76
270.736	9352.38
270.806	9349.29
270.875	9343.66
270.944	9320.07
271.013	9329.89
271.082	9315.64
271.151	9303.31
271.22	9275.63
271.289	9263.35
271.358	9248.95
271.427	9241.87
271.496	9239.61
271.565	9216.26
271.634	9202.2
271.703	9205.52
271.772	9208.79
271.841	9199.65
271.91	9180.48
271.979	9168.2
272.048	9142.73
272.117	9138.98
272.186	9123.43
272.255	9121.98
272.324	9118.47
272.393	9116.35
272.462	9099.45
272.531	9098.44
272.6	9089.39
272.669	9097.38
272.738	9079.9
272.807	9079.27
272.876	9066.13
272.945	9086.5
273.013	9093.67
273.082	9097.91
273.151	9077.35
273.22	9072.87
273.289	9065.03
273.358	9068.11
273.427	9058.24
273.496	9059.83
273.564	9059.01
273.633	9059.93
273.702	9038.36
273.771	9030.85
273.84	9026.42
273.909	9025.21
273.977	9015.39
274.046	9009.66
274.115	9010
274.184	8999.36
274.253	8987.52
274.322	8993.92
274.39	8964.6
274.459	8949.54
274.528	8920.12
274.597	8913.19
274.665	8905.44
274.734	8921.67
274.803	8910.45
274.872	8905.44
274.94	8890.52
275.009	8936.95
275.078	8924.33
275.147	8921.11
275.215	8914.18
275.284	8924.19
275.353	8911.82
275.421	8893.96
275.49	8903.64
275.559	8889
275.627	8878.95
275.696	8868.74
275.765	8863.98
275.833	8850.21
275.902	8847.8
275.971	8859.35
276.039	8871.34
276.108	8877.5
276.177	8864.89
276.245	8858.49
276.314	8852.95
276.383	8856.37
276.451	8798.15
276.52	8798.92
276.588	8810.66
276.657	8814.18
276.725	8795.5
276.794	8796.46
276.863	8806.19
276.931	8785.78
277	8795.98
277.068	8803.25
277.137	8821.93
277.205	8817.74
277.274	8835.98
277.342	8842.67
277.411	8823.61
277.48	8810.23
277.548	8798.63
277.617	8801.04
277.685	8790.83
277.754	8792.76
277.822	8783.23
277.89	8793.92
277.959	8787.47
278.027	8769.13
278.096	8756.37
278.164	8781.31
278.233	8771.1
278.301	8758.3
278.37	8758.69
278.438	8746.94
278.507	8750.46
278.575	8721.91
278.643	8718.35
278.712	8699.77
278.78	8684.27
278.849	8692.89
278.917	8700.83
278.985	8695.78
279.054	8694.33
279.122	8706.51
279.191	8704.63
279.259	8701.36
279.327	8685.86
279.396	8698.18
279.464	8697.17
279.532	8701.26
279.601	8695.53
279.669	8692.35
279.737	8702.65
279.806	8707.28
279.874	8712.33
279.942	8706.22
280.011	8708.24
280.079	8714.69
280.147	8728.4
280.215	8731.34
280.284	8729.7
280.352	8717.67
280.42	8720.32
280.488	8714.06
280.557	8702.32
280.625	8699.48
280.693	8705.83
280.761	8702.17
280.83	8682.29
280.898	8686.34
280.966	8667.42
281.034	8638.69
281.102	8624.88
281.171	8619.63
281.239	8621.8
281.307	8608.18
281.375	8605.19
281.443	8630.27
281.512	8627.48
281.58	8637.83
281.648	8626.95
281.716	8624.74
281.784	8625.51
281.852	8620.26
281.92	8618.15
281.989	8627.82
282.057	8621.18
282.125	8650.35
282.193	8649.72
282.261	8655.45
282.329	8650.11
282.397	8655.79
282.465	8656.8
282.533	8671.47
282.601	8661.85
282.67	8641.92
282.738	8640.24
282.806	8646.5
282.874	8628.78
282.942	8627.05
283.01	8616.94
283.078	8622.23
283.146	8616.36
283.214	8624.83
283.282	8624.16
283.35	8636.92
283.418	8632.39
283.486	8632.39
283.554	8598.84
283.622	8596.29
283.69	8591.67
283.758	8589.12
283.826	8596.87
283.894	8607.02
283.962	8623.2
284.03	8631.86
284.098	8641.72
284.165	8633.3
284.233	8631.38
284.301	8623.2
284.369	8618.91
284.437	8606.11
284.505	8599.76
284.573	8617.03
284.641	8602.45
284.709	8617.23
284.777	8593.07
284.845	8595.71
284.912	8595.43
284.98	8598.36
285.048	8591.24
285.116	8599.8
285.184	8614.97
285.252	8608.28
285.319	8594.99
285.387	8585.75
285.455	8570.11
285.523	8565.92
285.591	8565.35
285.659	8564.67
285.726	8576.95
285.794	8562.32
285.862	8560.58
285.93	8559.19
285.997	8553.75
286.065	8545.67
286.133	8529.78
286.201	8527.52
286.269	8512.12
286.336	8508.47
286.404	8498.5
286.472	8511.55
286.539	8492.78
286.607	8476.66
286.675	8479.35
286.743	8487.82
286.81	8483.1
286.878	8496.53
286.946	8495.52
287.013	8492.78
287.081	8494.65
287.149	8482.48
287.216	8496.53
287.284	8494.94
287.352	8497.44
287.419	8493.55
287.487	8511.78
287.555	8513.04
287.622	8516.55
287.69	8525.59
287.758	8534.06
287.825	8531.47
287.893	8518.28
287.96	8524.2
288.028	8533.24
288.096	8536.95
288.163	8537
288.231	8530.26
288.298	8526.75
288.366	8535.56
288.433	8540.08
288.501	8532.47
288.569	8527.9
288.636	8524.73
288.704	8532.09
288.771	8540.9
288.839	8526.99
288.906	8514.29
288.974	8521.46
289.041	8517.94
289.109	8512.55
289.176	8520.64
289.244	8524.87
289.311	8541.33
289.379	8547.35
289.446	8547.2
289.514	8541.53
289.581	8540.37
289.649	8542.05
289.716	8541.14
289.783	8536.62
289.851	8552.64
289.918	8554.04
289.986	8568.38
290.053	8568.91
290.121	8572.9
290.188	8567.66
290.255	8601.54
290.323	8603.17
290.39	8607.84
290.458	8612.46
290.525	8617.8
290.592	8610.05
290.66	8616.45
290.727	8602.35
290.794	8615.88
290.862	8619.92
290.929	8627.86
290.996	8627.72
291.064	8635.9
291.131	8652.89
291.198	8662.61
291.266	8657.99
291.333	8657.41
291.4	8660.97
291.468	8678.69
291.535	8674.74
291.602	8685.91
291.669	8677.53
291.737	8678.93
291.804	8674.26
291.871	8688.12
291.938	8696.44
292.006	8722.63
292.073	8729.08
292.14	8740.44
292.207	8735.58
292.275	8733.02
292.342	8741.16
292.409	8764.17
292.476	8774.47
292.543	8766.09
292.611	8771.63
292.678	8792.52
292.745	8820.39
292.812	8824.05
292.879	8820.19
292.946	8825.34
293.014	8835.26
293.081	8841.18
293.148	8857.06
293.215	8874.54
293.282	8874.59
293.349	8891.05
293.416	8880.17
293.484	8898.22
293.551	8904.38
293.618	8920.7
293.685	8941.11
293.752	8937.4
293.819	8933.17
293.886	8929.65
293.953	8938.99
294.02	8940.77
294.087	8950.45
294.154	8940.97
294.221	8964.32
294.288	8969.76
294.356	8983.62
294.423	8988
294.49	8982.27
294.557	8993.3
294.624	8980.39
294.691	8994.55
294.758	8988.91
294.825	8993.92
294.892	8985.98
294.959	8991.66
295.026	8994.74
295.093	8998.4
295.16	9002.44
295.226	9004.9
295.293	9029.4
295.36	9033.35
295.427	9046.73
295.494	9049.38
295.561	9061.13
295.628	9077.5
295.695	9087.95
295.762	9095.36
295.829	9107.02
295.896	9128.05
295.963	9135.9
296.03	9150.73
296.096	9164.45
296.163	9178.17
296.23	9190.74
296.297	9200.03
296.364	9198.01
296.431	9203.11
296.498	9197.82
296.564	9217.89
296.631	9223.86
296.698	9207.54
296.765	9228.48
296.832	9221.17
296.899	9214.71
296.965	9225.64
297.032	9208.93
297.099	9231.57
297.166	9237.01
297.233	9235.37
297.299	9223.19
297.366	9228.2
297.433	9230.41
297.5	9229.01
297.566	9225.31
297.633	9224.34
297.7	9232.29
297.767	9229.45
297.833	9239.51
297.9	9240.62
297.967	9226.9
298.033	9240.14
298.1	9271.63
298.167	9261.23
298.234	9268.21
298.3	9275.77
298.367	9273.94
298.434	9278.32
298.5	9260.6
298.567	9255.98
298.634	9247.79
298.7	9266.43
298.767	9263.87
298.834	9272.83
298.9	9268.26
298.967	9264.21
299.033	9272.69
299.1	9288.53
299.167	9309.52
299.233	9302.39
299.3	9320.98
299.366	9338.17
299.433	9352.95
299.5	9324.4
299.566	9332.59
299.633	9343.32
299.699	9353.39
299.766	9351.51
299.832	9348.43
299.899	9362.44
299.965	9378.96
300.032	9382.52
300.099	9392.34
300.165	9394.85
300.232	9400.77
300.298	9396.73
300.365	9413.82
300.431	9415.7
300.498	9412.23
300.564	9419.89
300.631	9428.8
300.697	9436.07
300.763	9435.63
300.83	9428.89
300.896	9450.03
300.963	9456.34
301.029	9465.15
301.096	9465.87
301.162	9473.72
301.229	9478.35
301.295	9463.51
301.361	9463.51
301.428	9468.47
301.494	9457.16
301.561	9470.16
301.627	9469.05
301.693	9478.92
301.76	9481.23
301.826	9474.93
301.892	9479.64
301.959	9485.47
302.025	9491.4
302.092	9488.31
302.158	9493.37
302.224	9498.23
302.291	9491.59
302.357	9486.1
302.423	9476.71
302.49	9474.44
302.556	9481.52
302.622	9483.35
302.688	9493.66
302.755	9503.63
302.821	9510.71
302.887	9509.69
302.954	9502.52
303.02	9502.52
303.086	9511.52
303.152	9507.14
303.219	9508.3
303.285	9507.48
303.351	9512.78
303.417	9507.29
303.483	9497.75
303.55	9492.21
303.616	9488.55
303.682	9485.13
303.748	9478.92
303.815	9496.98
303.881	9502.23
303.947	9499.25
304.013	9497.47
304.079	9491.16
304.145	9473.96
304.212	9473.19
304.278	9469.92
304.344	9466.12
304.41	9457.69
304.476	9449.41
304.542	9442.71
304.608	9445.7
304.674	9430.58
304.741	9424.32
304.807	9426.68
304.873	9431.39
304.939	9443.29
305.005	9424.7
305.071	9421.04
305.137	9421.62
305.203	9396.19
305.269	9391.33
305.335	9398.74
305.401	9399.95
305.467	9398.84
305.533	9407.89
305.599	9415.02
305.666	9426.72
305.732	9427.01
305.798	9439.87
305.864	9461.54
305.93	9466.02
305.996	9464.96
306.062	9465.06
306.128	9459.08
306.194	9444.64
306.259	9436.6
306.325	9428.8
306.391	9441.36
306.457	9449.5
306.523	9450.37
306.589	9468.28
306.655	9459.66
306.721	9441.65
306.787	9427.3
306.853	9440.79
306.919	9422.44
306.985	9410.83
307.051	9396.1
307.117	9388.64
307.183	9381.17
307.248	9353.72
307.314	9360.9
307.38	9361.43
307.446	9367.54
307.512	9361.67
307.578	9368.26
307.644	9369.66
307.709	9364.65
307.775	9353.91
307.841	9351.94
307.907	9352.37
307.973	9338.99
308.039	9336.29
308.104	9342.16
308.17	9343.7
308.236	9326.46
308.302	9329.69
308.368	9317.89
308.433	9322.04
308.499	9320.78
308.565	9305.62
308.631	9308.26
308.696	9281.49
308.762	9272.68
308.828	9270.8
308.894	9250.29
308.959	9225.07
309.025	9211.78
309.091	9211.97
309.156	9210.09
309.222	9209.51
309.288	9201.76
309.354	9178.07
309.419	9178.07
309.485	9161.99
309.551	9160.4
309.616	9146.59
309.682	9141.48
309.748	9136.81
309.813	9134.79
309.879	9118.95
309.945	9110.57
310.01	9103.88
310.076	9110.09
310.141	9102.87
310.207	9087.13
310.273	9090.25
310.338	9096.66
310.404	9087.65
310.469	9077.83
310.535	9063.39
310.601	9039.94
310.666	9044.81
310.732	9062.72
310.797	9048.99
310.863	9037.49
310.928	9032.38
310.994	9038.26
311.059	9036.57
311.125	9034.02
311.191	9040.57
311.256	9035.42
311.322	9035.71
311.387	9013.85
311.453	9289.71
311.518	9264.68
311.584	9263.62
311.649	9264.72
311.715	9256.97
311.78	9258.76
311.846	9248.12
311.911	9255
311.976	9254.66
312.042	9236.08
312.107	9211.72
312.173	9208.06
312.238	9208.83
312.304	9198.87
312.369	9189.48
312.434	9178.02
312.5	9167.63
312.565	9133.98
312.631	9139.13
312.696	9133.11
312.761	9139.8
312.827	8853.84
312.892	8886.47
312.958	8879.93
313.023	8874.92
313.088	8869.92
313.154	8855.33
313.219	8845.46
313.284	8838.63
313.35	8834.49
313.415	8826.21
313.48	8822.02
313.546	8823.9
313.611	8826.69
313.676	8826.79
313.741	8816.78
313.807	8821.54
313.872	8827.56
313.937	8834.34
314.003	8842.43
314.068	8844.12
314.133	8844.41
314.198	8830.06
314.264	8811.09
314.329	8805.75
314.394	8804.64
314.459	8804.31
314.525	8818.31
314.59	8809.79
314.655	8796.99
314.72	8805.13
314.785	8806.52
314.851	8800.51
314.916	8777.07
314.981	8762.82
315.046	8751.94
315.111	8743.9
315.176	8733.22
315.242	8732.26
315.307	8732.54
315.372	8714.54
315.437	8703.91
315.502	8697.17
315.567	8707.71
315.632	8692.69
315.698	8692.02
315.763	8684.12
315.828	8677.24
315.893	8669.63
315.958	8670.21
316.023	8661.89
316.088	8641.33
316.153	8616.6
316.218	8606.93
316.283	8591.77
316.348	8572.72
316.413	8562.42
316.479	8543.22
316.544	8512.57
316.609	8484.66
316.674	8449.58
316.739	8414.46
316.804	8381.12
316.869	8341.23
316.934	8301.15
316.999	8270.65
317.064	8216.53
317.129	8167.41
317.194	8129.26
317.259	8086.15
317.324	8032.43
317.389	7983.66
317.454	7934.69
317.518	7902.37
317.583	7880.87
317.648	7857.5
317.713	7825.42
317.778	7769.78
317.843	7735.2
317.908	7692.27
317.973	7651.05
318.038	7614.27
318.103	7575.47
318.168	7541.63
318.233	7509.99
318.297	7461.73
318.362	7421.63
318.427	7383.62
318.492	7366.36
318.557	7323.06
318.622	7290.51
318.687	7264.9
318.751	7225.79
318.816	7197.92
318.881	7162.5
318.946	7104.73
319.011	7053.85
319.075	7009.02
319.14	6971.88
319.205	6932.15
319.27	6894.26
319.335	6848.38
319.399	6805.97
319.464	6776.52
319.529	6726
319.594	6684.84
319.658	6654.11
319.723	6614.1
319.788	6586.69
319.853	6530.64
319.917	6496.69
319.982	6440.61
320.047	6406.23
320.112	6382.42
320.176	6332.4
320.241	6301.2
320.306	6264.91
320.37	6226.67
320.435	6194.56
320.5	6165.33
320.564	6129.34
320.629	6093.02
320.694	6059.15
320.758	6023.84
320.823	5978.07
320.888	5952.6
320.952	5905.35
321.017	5860.27
321.082	5814.95
321.146	5780.84
321.211	5744.59
321.275	5704.11
321.34	5661.93
321.405	5616.33
321.469	5564.26
321.534	5528.41
321.598	5475.05
321.663	5444.94
321.727	5413.74
321.792	5365.96
321.857	5319.23
321.921	5269.97
321.986	5228.53
322.05	5174.11
322.115	5130.76
322.179	5087.89
322.244	5031.66
322.308	5000.58
322.373	4957.81
322.437	4923.15
322.502	4891.53
322.566	4845.84
322.631	4805.29
322.695	4767.29
322.76	4720.58
322.824	4687.79
322.889	4637.98
322.953	4590.8
323.018	4529.45
323.082	4466.5
323.146	4420.19
323.211	4371.5
323.275	4331.65
323.34	4287.47
323.404	4253.23
323.468	4207.23
323.533	4163.34
323.597	4118.18
323.662	4068.31
323.726	4032.7
323.79	3982.52
323.855	3915.44
323.919	3868.42
323.983	3826.27
324.048	3759.9
324.112	3888.56
324.177	3757.45
324.241	3564.27
324.305	3373.14
324.37	3183.58
324.434	3002.92
324.498	2956.11
324.562	2907.55
324.627	2851.02
324.691	2794.04
324.755	2729.63
324.82	2659.97
324.884	2584.73
324.948	2515.89
325.012	2421.2
325.077	2302.37
