Data from 20250630_urea_2M_MAYP1162681_16-52-27-514.txt Node
Date: Mon Jun 30 16:52:27 BST 2025
User: adleo
Spectrometer: MAYP116268
Trigger mode: 0
Integration Time (sec): 1.000000E0
Scans to average: 1
Electric dark correction enabled: true
Nonlinearity correction enabled: true
Boxcar width: 10
XAxis mode: Wavelengths
Number of Pixels in Spectrum: 2068
>>>>>Begin Spectral Data<<<<<
179.565	1030.41
179.642	1080.38
179.718	1120.05
179.795	1153.56
179.871	1181
179.948	1197.54
180.024	1214.53
180.101	1234.24
180.177	1247.3
180.254	1267.13
180.33	1287.69
180.407	1327.37
180.483	1408.51
180.56	1484.62
180.636	1557.96
180.712	1546.94
180.789	1553.97
180.865	1563.66
180.942	1575.72
181.018	1587.36
181.095	1599.28
181.171	1607.17
181.248	1606.22
181.324	1619.14
181.4	1623.94
181.477	1635.2
181.553	1646.6
181.63	1665.89
181.706	1679.24
181.782	1686.55
181.859	1688.4
181.935	1689.59
182.011	1687.12
182.088	1703.7
182.164	1720.96
182.24	1730.88
182.317	1740.15
182.393	1740.1
182.469	1753.59
182.546	1763.15
182.622	1765.19
182.698	1759.72
182.775	1767.75
182.851	1781.11
182.927	1773.6
183.003	1772.32
183.08	1764.24
183.156	1770.84
183.232	1768.89
183.308	1758.44
183.385	1765.09
183.461	1777.16
183.537	1779.92
183.613	1792.04
183.69	1782.2
183.766	1771.74
183.842	1777.97
183.918	1782.48
183.995	1792.13
184.071	1792.75
184.147	1789.71
184.223	1782.2
184.299	1794.61
184.375	1783.06
184.452	1788.96
184.528	1838.82
184.604	1845.9
184.68	1857.26
184.756	1863.87
184.832	1865.53
184.908	1870.71
184.985	1869.71
185.061	1853.51
185.137	1861.54
185.213	1851.04
185.289	1853.79
185.365	1849.66
185.441	1849.42
185.517	1860.79
185.593	1861.5
185.669	1861.31
185.745	1871.34
185.822	1885.02
185.898	1874.94
185.974	1886.3
186.05	1878.79
186.126	1842.23
186.202	1835.15
186.278	1830.73
186.354	1822.51
186.43	1828.74
186.506	1827.07
186.582	1822.65
186.658	1827.74
186.734	1809.49
186.81	1813.58
186.886	1815.62
186.962	1824.22
187.038	1819.94
187.114	1811.48
187.19	1816.38
187.266	1804.26
187.341	1806.49
187.417	1799.08
187.493	1798.84
187.569	1799.94
187.645	1791.57
187.721	1781.64
187.797	1791.85
187.873	1797.08
187.949	1791.29
188.025	1785.39
188.101	1788.34
188.176	1797.41
188.252	1798.55
188.328	1806.82
188.404	1806.3
188.48	1802.21
188.556	1796.98
188.632	1797.93
188.707	1800.4
188.783	1797.98
188.859	1797.74
188.935	1785.76
189.011	1795.93
189.086	1790.61
189.162	1783.58
189.238	1784.53
189.314	1782.67
189.39	1773.79
189.465	1768.13
189.541	1784.1
189.617	1771.79
189.693	1767.47
189.768	1770.13
189.844	1791.43
189.92	1782.98
189.996	1789.87
190.071	1801.04
190.147	1800.04
190.223	1809.17
190.298	1801.89
190.374	1790.58
190.45	1800.13
190.526	1808.88
190.601	1803.08
190.677	1808.4
190.753	1831.61
190.828	1834.03
190.904	1845.77
190.98	1862.5
191.055	1872.25
191.131	1863.64
191.207	1879.85
191.282	1889.31
191.358	1883.17
191.433	1869.29
191.509	1880.4
191.585	1877.17
191.66	1874.51
191.736	1880.97
191.811	1873.41
191.887	1887.73
191.963	1909.98
192.038	1915.58
192.114	1912.54
192.189	1914.68
192.265	1908.55
192.34	1890.29
192.416	1888.96
192.491	1885.92
192.567	1886.44
192.642	1886.91
192.718	1886.96
192.793	1876.74
192.869	1872.61
192.944	1870.52
193.02	1876.55
193.095	1879.45
193.171	1884.3
193.246	1887.3
193.322	1886.49
193.397	1883.4
193.473	1870.8
193.548	1854.44
193.624	1858.15
193.699	1859.96
193.775	1875.7
193.85	1879.31
193.925	1887.77
194.001	1888.44
194.076	1880.97
194.152	1870.85
194.227	1865.38
194.302	1857.92
194.378	1861.48
194.453	1858.3
194.529	1870.56
194.604	1857.35
194.679	1852.31
194.755	1834.11
194.83	1842.67
194.905	1840.82
194.981	1850.99
195.056	1844.43
195.131	1847.9
195.207	1845.52
195.282	1835.21
195.357	1816.57
195.433	1831.12
195.508	1819.42
195.583	1825.17
195.659	1840.05
195.734	1849.37
195.809	1843.76
195.884	1851.18
195.96	1852.32
196.035	1864.58
196.11	1861.73
196.185	1872.61
196.261	1877.32
196.336	1906.12
196.411	1895.66
196.486	1900.13
196.561	1895.71
196.637	1904.55
196.712	1918.39
196.787	1923.05
196.862	1937.64
196.937	1947.29
197.013	1951.86
197.088	1961.6
197.163	1982.58
197.238	1995.61
197.313	1993.66
197.388	2009.16
197.464	2035.18
197.539	2045.36
197.614	2042.03
197.689	2052.87
197.764	2066.52
197.839	2082.88
197.914	2078.22
197.989	2095.96
198.065	2107.9
198.14	2150.11
198.215	2171.95
198.29	2185.18
198.365	2196.88
198.44	2204.49
198.515	2230.33
198.59	2242.13
198.665	2265.73
198.74	2270.44
198.815	2271.4
198.89	2291.86
198.965	2317.56
199.04	2313.46
199.115	2326.93
199.19	2363.29
199.265	2366.1
199.34	2375.14
199.415	2404.47
199.49	2424.65
199.565	2436.6
199.64	2458.73
199.715	2456.68
199.79	2465.49
199.865	2470.11
199.94	2468.02
200.015	2497.25
200.09	2499.06
200.165	2507.35
200.24	2509.87
200.315	2549.09
200.39	2564.81
200.464	2570.04
200.539	2573.9
200.614	2593.33
200.689	2616.1
200.764	2620
200.839	2636.33
200.914	2642.86
200.989	2632.99
201.063	2646
201.138	2627.48
201.213	2630.44
201.288	2614.29
201.363	2618.2
201.438	2616.86
201.512	2631.91
201.587	2616.24
201.662	2621.43
201.737	2631.62
201.812	2645.2
201.886	2615.74
201.961	2624.27
202.036	2616.56
202.111	2612.65
202.186	2580.71
202.26	2566.42
202.335	2549.32
202.41	2539.18
202.485	2523.8
202.559	2509.09
202.634	2482.62
202.709	2491.94
202.784	2473.42
202.858	2472.71
202.933	2454.05
203.008	2449.57
203.082	2432
203.157	2431.91
203.232	2393.46
203.306	2371.65
203.381	2341.41
203.456	2315.71
203.53	2293.04
203.605	2272.44
203.68	2255.16
203.754	2251.3
203.829	2233.31
203.904	2217.09
203.978	2210.47
204.053	2213.09
204.127	2200.58
204.202	2200.67
204.277	2183.78
204.351	2176.03
204.426	2167.46
204.5	2161.9
204.575	2129.32
204.65	2138.12
204.724	2130.27
204.799	2137.54
204.873	2135.16
204.948	2133.5
205.022	2127.36
205.097	2120.7
205.171	2132.16
205.246	2132.97
205.32	2133.92
205.395	2135.01
205.469	2122.99
205.544	2127.55
205.618	2110.81
205.693	2123.56
205.767	2111.1
205.842	2132.6
205.916	2128.7
205.991	2122.9
206.065	2127.61
206.14	2144.39
206.214	2137.3
206.289	2130.88
206.363	2142.48
206.438	2145.96
206.512	2151.9
206.586	2167.03
206.661	2177.88
206.735	2160.29
206.81	2166.19
206.884	2177.27
206.958	2168
207.033	2185.64
207.107	2192.68
207.181	2222.71
207.256	2216.91
207.33	2233.75
207.405	2243.37
207.479	2258.83
207.553	2264.97
207.628	2251.03
207.702	2257.88
207.776	2256.69
207.851	2259.83
207.925	2273.4
207.999	2268.88
208.073	2269.69
208.148	2274.11
208.222	2262.02
208.296	2291.8
208.371	2306.9
208.445	2317.65
208.519	2342.4
208.593	2350.49
208.668	2346.87
208.742	2350.73
208.816	2349.63
208.89	2361.01
208.965	2359.63
209.039	2367.63
209.113	2384.43
209.187	2402.7
209.261	2398.84
209.336	2415.7
209.41	2433.64
209.484	2432.6
209.558	2454.78
209.632	2464.16
209.707	2476.35
209.781	2493.63
209.855	2507.4
209.929	2521.93
210.003	2531.84
210.077	2531.79
210.151	2575.35
210.226	2609.03
210.3	2630.86
210.374	2653.33
210.448	2662.52
210.522	2673.34
210.596	2683.68
210.67	2692.16
210.744	2733.32
210.818	2766.46
210.892	2787.81
210.966	2787.19
211.041	2805.34
211.115	2805.54
211.189	2831.41
211.263	2848.85
211.337	2860.57
211.411	2874.68
211.485	2872.77
211.559	2884.02
211.633	2892.73
211.707	2876.66
211.781	2888.59
211.855	2868.8
211.929	2871.38
212.003	2860.37
212.077	2877.83
212.151	2901.52
212.225	2923.36
212.299	2927.13
212.373	2930.37
212.447	2940.62
212.52	2982.77
212.594	3004.86
212.668	3033.7
212.742	3041.14
212.816	3056.4
212.89	3077.67
212.964	3107.5
213.038	3140.85
213.112	3185.71
213.186	3232.02
213.26	3248.9
213.333	3248.28
213.407	3292.98
213.481	3340.25
213.555	3403.5
213.629	3444.61
213.703	3477.7
213.777	3531.53
213.85	3576.14
213.924	3668.88
213.998	3730.85
214.072	3795.92
214.146	3854.8
214.219	3927.98
214.293	4000.95
214.367	4085.47
214.441	4175.75
214.515	4253.15
214.588	4321.79
214.662	4385.76
214.736	4464.36
214.81	4567.67
214.883	4679.9
214.957	4774.8
215.031	4873.21
215.105	4956.06
215.178	5055.92
215.252	5171.23
215.326	5268.46
215.4	5372.09
215.473	5454.09
215.547	5560.34
215.621	5674.19
215.694	5812.98
215.768	5925.43
215.842	6057.37
215.915	6186.98
215.989	6309.35
216.063	6445.78
216.136	6590.11
216.21	6739.46
216.284	6899.04
216.357	7051.47
216.431	7192.84
216.504	7356.24
216.578	7536.27
216.652	7708.76
216.725	7874.61
216.799	8044.21
216.873	8209.04
216.946	8384.13
217.02	8545.72
217.093	8719.96
217.167	8860.1
217.24	9015.7
217.314	9184.45
217.387	9340.09
217.461	9500.43
217.535	9677.02
217.608	9829.1
217.682	9997.87
217.755	10173.1
217.829	10336.7
217.902	10503.77
217.976	10674.89
218.049	10834.42
218.123	10993.01
218.196	11165.86
218.27	11326
218.343	11483.35
218.417	11647.74
218.49	11812.33
218.563	11995.43
218.637	12158.48
218.71	12353.93
218.784	12522.06
218.857	12688.64
218.931	12858.12
219.004	13019.89
219.077	13192.61
219.151	13360.07
219.224	13519.34
219.298	13674.99
219.371	13833.97
219.444	13982.25
219.518	14139.25
219.591	14300.69
219.665	14468.34
219.738	14619.37
219.811	14757.23
219.885	14912.11
219.958	15071.32
220.031	15208.85
220.105	15344.44
220.178	15490.3
220.251	15614.7
220.325	15759.49
220.398	15893.15
220.471	16029.08
220.544	16171.55
220.618	16284.14
220.691	16419.82
220.764	16543.83
220.838	16670.49
220.911	16796.96
220.984	16940
221.057	17066.32
221.131	17188.2
221.204	17282.32
221.277	17411.68
221.35	17561.61
221.424	17664.11
221.497	17762.37
221.57	17871.24
221.643	17985.75
221.716	18099.91
221.79	18205.93
221.863	18302.07
221.936	18407.03
222.009	18505.39
222.082	18598.3
222.155	18696.42
222.229	18805.66
222.302	18906.53
222.375	18991.39
222.448	19081.99
222.521	19163.24
222.594	19232.82
222.667	19296.43
222.74	19381.25
222.814	19459.17
222.887	19522.83
222.96	19609.28
223.033	19702.44
223.106	19780.26
223.179	19848.89
223.252	19916.89
223.325	19981.32
223.398	20033.6
223.471	20100.45
223.544	20175
223.617	20241.02
223.69	20301.45
223.763	20337.98
223.837	20391.09
223.91	20460.54
223.983	20497.12
224.056	20538.51
224.129	20602.08
224.202	20664.63
224.275	20710.66
224.348	20747
224.42	20782.61
224.493	20811.77
224.566	20833.51
224.639	20885.56
224.712	20920.79
224.785	20943.78
224.858	20977.76
224.931	21018.48
225.004	21047.4
225.077	21079.06
225.15	21104.41
225.223	21141.04
225.296	21200.33
225.369	21220.96
225.442	21248.14
225.514	21270.6
225.587	21314.36
225.66	21342.99
225.733	21379.77
225.806	21415.39
225.879	21436.84
225.952	21450.77
226.025	21483.54
226.097	21524.37
226.17	21543.65
226.243	21556.71
226.316	21587.8
226.389	21615.9
226.461	21636.48
226.534	21652.63
226.607	21659.52
226.68	21678.41
226.753	21684.87
226.825	21672.92
226.898	21693.4
226.971	21690.08
227.044	21715.58
227.117	21720.93
227.189	21739.44
227.262	21755.73
227.335	21762.86
227.407	21767.83
227.48	21788.8
227.553	21803.26
227.626	21807.64
227.698	21804.56
227.771	21817.91
227.844	21812.94
227.916	21821.19
227.989	21819.98
228.062	21826.2
228.134	21855.32
228.207	21855.65
228.28	21858.83
228.352	21874.11
228.425	21879.51
228.498	21895.81
228.57	21899.61
228.643	21914.65
228.716	21915.09
228.788	21904.43
228.861	21909.54
228.934	21932.1
229.006	21932.73
229.079	21925.26
229.151	21918.9
229.224	21913.74
229.296	21919.33
229.369	21947.91
229.442	21963.15
229.514	21957.12
229.587	21976.93
229.659	21960.88
229.732	21975.87
229.804	21986.57
229.877	22001.76
229.949	22015.45
230.022	22031.89
230.094	22017.38
230.167	22010.2
230.239	22000.6
230.312	21998.34
230.384	22003.45
230.457	21991.69
230.529	21988.6
230.602	21989.71
230.674	21992.22
230.747	22007.26
230.819	22011.74
230.892	21977.56
230.964	21965.9
231.037	21977.32
231.109	21969.9
231.181	21969.22
231.254	21954.42
231.326	21937.26
231.399	21919.19
231.471	21904.68
231.544	21869.87
231.616	21882.4
231.688	21877.05
231.761	21864.38
231.833	21846.64
231.905	21813.19
231.978	21801.38
232.05	21787.83
232.122	21781.76
232.195	21763.2
232.267	21758.28
232.339	21739
232.412	21738.33
232.484	21714.08
232.556	21694.56
232.629	21692.05
232.701	21680.68
232.773	21664.44
232.846	21655.37
232.918	21655.52
232.99	21648.58
233.062	21652.24
233.135	21632.33
233.207	21604.57
233.279	21592.81
233.351	21594.74
233.424	21578.45
233.496	21560.18
233.568	21556.52
233.64	21521.91
233.713	21511.64
233.785	21484.31
233.857	21467.54
233.929	21430.86
234.001	21434.96
234.074	21428.55
234.146	21392.93
234.218	21378.37
234.29	21356.88
234.362	21331.86
234.434	21286.84
234.507	21250.89
234.579	21212.28
234.651	21200.28
234.723	21194.59
234.795	21182.64
234.867	21156.13
234.939	21154.2
235.012	21130.3
235.084	21126.2
235.156	21117.19
235.228	21085.67
235.3	21062.82
235.372	21054.15
235.444	21054
235.516	21021.76
235.588	20995.44
235.66	20983.54
235.732	20946.81
235.804	20977.66
235.876	20962.43
235.948	20956.74
236.02	20930.72
236.092	20908.98
236.164	20875.01
236.236	20843.82
236.308	20815
236.38	20796.45
236.452	20764.54
236.524	20747.05
236.596	20732.11
236.668	20715.58
236.74	20693.46
236.812	20675.1
236.884	20653.02
236.956	20625.46
237.028	20586.71
237.1	20554.18
237.172	20530.56
237.244	20521.07
237.316	20456
237.388	20428.15
237.46	20394.32
237.532	20387.23
237.604	20352.53
237.675	20342.7
237.747	20324.05
237.819	20286.22
237.891	20252.68
237.963	20221.5
238.035	20192.44
238.107	20127.57
238.178	20108.88
238.25	20082.66
238.322	20074.52
238.394	20011.48
238.466	19979.29
238.538	19950.28
238.609	19933.7
238.681	19888.55
238.753	19851.87
238.825	19822.86
238.897	19786.72
238.968	19774.14
239.04	19733.85
239.112	19729.28
239.184	19683.98
239.255	19648.32
239.327	19625.33
239.399	19595.6
239.471	19574.54
239.542	19543.55
239.614	19528.51
239.686	19470.2
239.758	19446.25
239.829	19399.36
239.901	19394.02
239.973	19365.58
240.044	19343.85
240.116	19310.89
240.188	19279.28
240.259	19252.63
240.331	19215.62
240.403	19194.65
240.474	19147.24
240.546	19112.83
240.618	19071.29
240.689	19032.06
240.761	19003.73
240.833	18987.29
240.904	18947.78
240.976	18917.71
241.048	18888.12
241.119	18850.29
241.191	18827.16
241.262	18816.12
241.334	18788.41
241.405	18750.83
241.477	18717
241.549	18675.94
241.62	18639.51
241.692	18611.61
241.763	18586.45
241.835	18555.32
241.906	18522.6
241.978	18470.36
242.049	18443.33
242.121	18411.91
242.192	18402.36
242.264	18352.2
242.335	18304.97
242.407	18281.26
242.478	18233.41
242.55	18199.19
242.621	18168.01
242.693	18125.32
242.764	18075.54
242.836	18036.55
242.907	18011.59
242.979	17977.66
243.05	17947.06
243.122	17917.28
243.193	17879.64
243.264	17818.39
243.336	17775.69
243.407	17747.74
243.479	17731.64
243.55	17702.97
243.622	17678.1
243.693	17638.78
243.764	17622.3
243.836	17580.66
243.907	17545.43
243.978	17508.61
244.05	17484.27
244.121	17434.92
244.192	17415.74
244.264	17369.14
244.335	17327.65
244.407	17270.58
244.478	17242.34
244.549	17213.67
244.62	17169.86
244.692	17143.11
244.763	17127.45
244.834	17096.36
244.906	17058.68
244.977	17024.27
245.048	17006
245.119	16965.76
245.191	16917.9
245.262	16865.71
245.333	16847.34
245.405	16818.62
245.476	16795.77
245.547	16763.29
245.618	16747.58
245.689	16717.12
245.761	16688.59
245.832	16663.86
245.903	16655.91
245.974	16629.26
246.045	16589.55
246.117	16568.48
246.188	16517.01
246.259	16472.48
246.33	16442.45
246.401	16403.75
246.473	16365.33
246.544	16323.07
246.615	16296.12
246.686	16269.32
246.757	16250.77
246.828	16205.7
246.899	16186.13
246.97	16139.14
247.042	16095.14
247.113	16054.7
247.184	16043.76
247.255	16006.11
247.326	15966.83
247.397	15925.96
247.468	15890.73
247.539	15866.67
247.61	15825.42
247.681	15812.64
247.752	15793.31
247.823	15747.76
247.894	15725.74
247.965	15687.95
248.037	15649.1
248.108	15605.67
248.179	15577.67
248.25	15550
248.321	15533.22
248.392	15488.45
248.463	15480.69
248.534	15451.48
248.605	15437.3
248.675	15394.36
248.746	15370.45
248.817	15353.15
248.888	15329
248.959	15286.43
249.03	15257.03
249.101	15230.04
249.172	15190.22
249.243	15144.53
249.314	15136.52
249.385	15108.66
249.456	15085.28
249.527	15053.04
249.598	15028.89
249.669	14996.4
249.739	14971.96
249.81	14945.06
249.881	14908.62
249.952	14882.93
250.023	14859.64
250.094	14816.02
250.165	14777.5
250.235	14753.16
250.306	14722.84
250.377	14684.91
250.448	14664.85
250.519	14626.91
250.59	14612.07
250.66	14585.89
250.731	14576.15
250.802	14552.49
250.873	14527.95
250.944	14506.69
251.014	14483.65
251.085	14480.13
251.156	14454.53
251.227	14439.54
251.297	14430.72
251.368	14417.9
251.439	14401.8
251.51	14395.19
251.58	14363.86
251.651	14339.28
251.722	14321.01
251.792	14273.81
251.863	14242.91
251.934	14230.86
252.005	14231.92
252.075	14206.71
252.146	14189.26
252.217	14170.46
252.287	14145.58
252.358	14114.39
252.429	14105.33
252.499	14070.57
252.57	14042.62
252.641	14030.9
252.711	14003.42
252.782	13956.38
252.852	13952.08
252.923	13927.11
252.994	13901.32
253.064	13893.76
253.135	13868.16
253.205	13836.49
253.276	13838.75
253.347	13831.67
253.417	13799.99
253.488	13761.96
253.558	13734.53
253.629	13709.94
253.699	13689.41
253.77	13677.36
253.841	13648.87
253.911	13620.28
253.982	13599.45
254.052	13579.02
254.123	13550.81
254.193	13519.77
254.264	13535.92
254.334	13497.3
254.405	13454.26
254.475	13409.95
254.546	13379.97
254.616	13366.62
254.687	13354.61
254.757	13336.15
254.827	13311.28
254.898	13294.07
254.968	13276.71
255.039	13252.75
255.109	13245.23
255.18	13219.68
255.25	13175.29
255.321	13162.51
255.391	13131.75
255.461	13130.84
255.532	13089.19
255.602	13072.36
255.673	13042.62
255.743	13009.21
255.813	12964.05
255.884	12960.14
255.954	12951.42
256.024	12945.63
256.095	12927.65
256.165	12895.98
256.235	12876.36
256.306	12844.59
256.376	12832.25
256.446	12821.02
256.517	12800.92
256.587	12781.25
256.657	12765.49
256.728	12754.25
256.798	12736.51
256.868	12719.88
256.938	12696.31
257.009	12689.03
257.079	12672.26
257.149	12674.14
257.219	12632.34
257.29	12627.09
257.36	12581.63
257.43	12570.74
257.5	12531.16
257.571	12500.5
257.641	12482.33
257.711	12449.75
257.781	12440.1
257.852	12418.7
257.922	12371.9
257.992	12346.44
258.062	12323.6
258.132	12304.17
258.202	12276.65
258.273	12260.06
258.343	12251.82
258.413	12220.1
258.483	12195.52
258.553	12162.16
258.623	12129.43
258.693	12115.7
258.764	12103.45
258.834	12100.66
258.904	12083.16
258.974	12051.2
259.044	12029.95
259.114	12016.79
259.184	11998.13
259.254	11980.44
259.324	11937.54
259.394	11930.56
259.464	11927.47
259.535	11911.71
259.605	11888.23
259.675	11860.42
259.745	11847.99
259.815	11818.87
259.885	11799.35
259.955	11805.72
260.025	11780.99
260.095	11759.54
260.165	11745.61
260.235	11744.74
260.305	11721.61
260.375	11687.39
260.445	11699.15
260.515	11699.63
260.585	11687.15
260.655	11670.28
260.725	11657.17
260.795	11651.96
260.865	11652.06
260.934	11633.45
261.004	11618.22
261.074	11592.29
261.144	11587.91
261.214	11577.35
261.284	11559.37
261.354	11550.55
261.424	11522.79
261.494	11527.51
261.564	11509.97
261.634	11498.79
261.703	11460.09
261.773	11446.98
261.843	11436.28
261.913	11410.93
261.983	11373.77
262.053	11370.83
262.123	11351.94
262.192	11323.65
262.262	11316.13
262.332	11284.95
262.402	11267.84
262.472	11250.54
262.541	11220.42
262.611	11213.48
262.681	11180.13
262.751	11170.68
262.821	11147.5
262.89	11114.34
262.96	11096.71
263.03	11098.2
263.1	11080.85
263.169	11065.62
263.239	11054.44
263.309	11048.13
263.379	11037.91
263.448	11024.85
263.518	11001.67
263.588	10987.7
263.657	10984.61
263.727	10971.46
263.797	10953.87
263.867	10938.83
263.936	10910.21
264.006	10912.52
264.076	10890.45
264.145	10874.74
264.215	10852.29
264.285	10848.09
264.354	10822.51
264.424	10803.76
264.494	10777.36
264.563	10755.62
264.633	10760.01
264.702	10748.15
264.772	10722.52
264.842	10701.08
264.911	10691.2
264.981	10666.14
265.05	10652.65
265.12	10636.84
265.19	10621.23
265.259	10618.15
265.329	10605.28
265.398	10588.23
265.468	10591.99
265.537	10579.36
265.607	10571.8
265.676	10566.5
265.746	10552.04
265.815	10553.01
265.885	10533.73
265.955	10508.1
266.024	10492.68
266.094	10455.34
266.163	10453.85
266.232	10451.92
266.302	10442.48
266.371	10429.66
266.441	10416.46
266.51	10409.77
266.58	10390.25
266.649	10376.38
266.719	10373.05
266.788	10369.49
266.858	10369.58
266.927	10338.56
266.996	10323.67
267.066	10311.34
267.135	10282.24
267.205	10281.9
267.274	10263.83
267.343	10266.63
267.413	10253.86
267.482	10247.74
267.552	10246.97
267.621	10215.66
267.69	10182.8
267.76	10172.11
267.829	10160.88
267.898	10146.34
267.968	10121.91
268.037	10117.38
268.106	10111.8
268.176	10080.92
268.245	10053.94
268.314	10036.88
268.384	10031.49
268.453	10022.05
268.522	10013.76
268.592	10012.46
268.661	9988.13
268.73	9983.89
268.799	9958.56
268.869	9960.87
268.938	9932.21
269.007	9912.36
269.076	9900.71
269.146	9901.91
269.215	9890.93
269.284	9897.67
269.353	9878.94
269.422	9865.69
269.492	9847.34
269.561	9810.49
269.63	9804.95
269.699	9792.43
269.768	9782.99
269.838	9772.15
269.907	9767.58
269.976	9746.05
270.045	9712.72
270.114	9698.71
270.183	9683.58
270.253	9672.84
270.322	9645.82
270.391	9642.4
270.46	9643.13
270.529	9643.9
270.598	9635.9
270.667	9617.55
270.736	9590.87
270.806	9592.46
270.875	9596.17
270.944	9582.59
271.013	9602.81
271.082	9588.9
271.151	9586.87
271.22	9562.7
271.289	9554.32
271.358	9540.88
271.427	9530.53
271.496	9528.17
271.565	9522.49
271.634	9512.37
271.703	9515.94
271.772	9516.66
271.841	9505.39
271.91	9485.07
271.979	9470.52
272.048	9451.74
272.117	9447.26
272.186	9433.59
272.255	9424.97
272.324	9416.83
272.393	9412.74
272.462	9396.46
272.531	9388.8
272.6	9377.44
272.669	9380.13
272.738	9362.75
272.807	9350.61
272.876	9332.03
272.945	9354.71
273.013	9351.48
273.082	9348.06
273.151	9330.97
273.22	9327.21
273.289	9317.54
273.358	9323.84
273.427	9309.06
273.496	9304.87
273.564	9305.11
273.633	9302.71
273.702	9282.82
273.771	9270.21
273.84	9259.66
273.909	9250.46
273.977	9250.66
274.046	9236.65
274.115	9239.53
274.184	9227.07
274.253	9222.64
274.322	9230.15
274.39	9200.2
274.459	9183.01
274.528	9161.24
274.597	9148.68
274.665	9142.47
274.734	9148.58
274.803	9138.13
274.872	9137.51
274.94	9123.88
275.009	9146.71
275.078	9134.05
275.147	9130.68
275.215	9126.01
275.284	9134
275.353	9121.53
275.421	9099.38
275.49	9114.84
275.559	9107.95
275.627	9106.99
275.696	9095.49
275.765	9092.6
275.833	9081.29
275.902	9082.06
275.971	9092.98
276.039	9107.09
276.108	9107.09
276.177	9105.4
276.245	9098.18
276.314	9092.02
276.383	9094.09
276.451	9062.07
276.52	9060.86
276.588	9073.33
276.657	9079.25
276.725	9067.36
276.794	9065.77
276.863	9072.66
276.931	9044.3
277	9046.27
277.068	9047.72
277.137	9065.24
277.205	9063.99
277.274	9078.96
277.342	9087.1
277.411	9065.05
277.48	9054.75
277.548	9046.47
277.617	9043.63
277.685	9035.3
277.754	9036.31
277.822	9032.07
277.89	9044.79
277.959	9040.41
278.027	9019.51
278.096	9008.34
278.164	9035.6
278.233	9029.19
278.301	9015.76
278.37	9022.84
278.438	9004.59
278.507	9008.49
278.575	8981.82
278.643	8973.78
278.712	8954.24
278.78	8940.04
278.849	8951.16
278.917	8958.81
278.985	8953.61
279.054	8961.07
279.122	8964.83
279.191	8957.99
279.259	8947.65
279.327	8918.61
279.396	8930.41
279.464	8931.56
279.532	8935.8
279.601	8925.01
279.669	8917.26
279.737	8934.26
279.806	8932.96
279.874	8946.15
279.942	8941.48
280.011	8935.22
280.079	8943.21
280.147	8963.81
280.215	8964.06
280.284	8961.36
280.352	8948.55
280.42	8953.56
280.488	8937.09
280.557	8929.83
280.625	8929.92
280.693	8935.22
280.761	8943.59
280.83	8926.74
280.898	8942.05
280.966	8923.86
281.034	8894.92
281.102	8884.1
281.171	8869.75
281.239	8882.46
281.307	8870.47
281.375	8857.29
281.443	8887.08
281.512	8881.02
281.58	8881.59
281.648	8866
281.716	8859.21
281.784	8858.68
281.852	8853.34
281.92	8848.43
281.989	8853.34
282.057	8839.24
282.125	8883.87
282.193	8875.74
282.261	8878.09
282.329	8861.39
282.397	8864.42
282.465	8871.45
282.533	8886.95
282.601	8887.19
282.67	8866.39
282.738	8860.33
282.806	8875.63
282.874	8862.78
282.942	8862.25
283.01	8864.18
283.078	8874.67
283.146	8873.32
283.214	8881.22
283.282	8881.89
283.35	8892.53
283.418	8892
283.486	8899.51
283.554	8853.33
283.622	8851.31
283.69	8848.66
283.758	8849.48
283.826	8850.44
283.894	8850.59
283.962	8874.23
284.03	8882.07
284.098	8878.27
284.165	8870.67
284.233	8864.84
284.301	8855.99
284.369	8850.35
284.437	8830.47
284.505	8822
284.573	8833.74
284.641	8817.04
284.709	8816.51
284.777	8801.83
284.845	8805.49
284.912	8810.3
284.98	8810.54
285.048	8810.88
285.116	8818.1
285.184	8829.8
285.252	8828.3
285.319	8815.07
285.387	8799.08
285.455	8781.37
285.523	8788.74
285.591	8791.43
285.659	8784.45
285.726	8791.91
285.794	8780.99
285.862	8782.91
285.93	8788.54
285.997	8786.76
286.065	8781.37
286.133	8772.9
286.201	8766.79
286.269	8756.1
286.336	8747.05
286.404	8741.47
286.472	8746.81
286.539	8729.2
286.607	8712.54
286.675	8714.42
286.743	8727.08
286.81	8719.67
286.878	8736.9
286.946	8728.23
287.013	8723.85
287.081	8724.58
287.149	8711.58
287.216	8733.19
287.284	8723.71
287.352	8716.35
287.419	8706.77
287.487	8723.76
287.555	8729.68
287.622	8730.69
287.69	8738.44
287.758	8747.15
287.825	8743.59
287.893	8734.88
287.96	8738.68
288.028	8747.29
288.096	8754.32
288.163	8754.18
288.231	8743.11
288.298	8737.19
288.366	8745.47
288.433	8741.28
288.501	8735.36
288.569	8740.7
288.636	8732.86
288.704	8750.47
288.771	8763.52
288.839	8760.87
288.906	8755.86
288.974	8763.95
289.041	8768.91
289.109	8753.65
289.176	8765.2
289.244	8772.37
289.311	8786.43
289.379	8789.37
289.446	8789.65
289.514	8784.79
289.581	8779.83
289.649	8780.46
289.716	8781.62
289.783	8777.67
289.851	8798.8
289.918	8802.65
289.986	8805.87
290.053	8807.17
290.121	8803.32
290.188	8796.97
290.255	8824.89
290.323	8817.38
290.39	8810.69
290.458	8810.78
290.525	8827.82
290.592	8819.73
290.66	8823.1
290.727	8814.44
290.794	8832.59
290.862	8832.39
290.929	8833.07
290.996	8840.19
291.064	8853.81
291.131	8864.64
291.198	8875.38
291.266	8875.47
291.333	8877.78
291.4	8885.1
291.468	8903.15
291.535	8901.9
291.602	8911.92
291.669	8903.97
291.737	8905.22
291.804	8903.35
291.871	8912.92
291.938	8913.5
292.006	8939.12
292.073	8951.58
292.14	8964.29
292.207	8958.23
292.275	8965.16
292.342	8977.77
292.409	8994.86
292.476	9013.78
292.543	9008.39
292.611	9007.96
292.678	9025.87
292.745	9050.27
292.812	9061.64
292.879	9055.09
292.946	9061.78
293.014	9069.39
293.081	9074.73
293.148	9091.63
293.215	9109.34
293.282	9113.05
293.349	9125.66
293.416	9104.91
293.484	9114.01
293.551	9126
293.618	9139.24
293.685	9161.05
293.752	9154.74
293.819	9153.4
293.886	9146.17
293.953	9152.14
294.02	9166.83
294.087	9166.39
294.154	9159.46
294.221	9172.51
294.288	9173.18
294.356	9188.25
294.423	9196.3
294.49	9196.15
294.557	9212.47
294.624	9212.18
294.691	9225.95
294.758	9230.77
294.825	9242.66
294.892	9233.75
294.959	9229.18
295.026	9239.68
295.093	9230.96
295.16	9232.65
295.226	9237.8
295.293	9261.73
295.36	9265.34
295.427	9274.06
295.494	9291.2
295.561	9301.65
295.628	9322.02
295.695	9338.59
295.762	9340.32
295.829	9354.91
295.896	9370.9
295.963	9379.95
296.03	9385.34
296.096	9399.02
296.163	9403.69
296.23	9416.84
296.297	9435.28
296.364	9433.4
296.431	9436.48
296.498	9436.53
296.564	9465.13
296.631	9465.08
296.698	9451.98
296.765	9474.42
296.832	9463.88
296.899	9446.59
296.965	9460.46
297.032	9437.87
297.099	9457.71
297.166	9464.74
297.233	9459.88
297.299	9454.58
297.366	9452.51
297.433	9452.42
297.5	9452.27
297.566	9456.46
297.633	9462.58
297.7	9461.33
297.767	9465.18
297.833	9469.46
297.9	9473.89
297.967	9454.82
298.033	9469.03
298.1	9489.21
298.167	9480.69
298.234	9493.54
298.3	9509.72
298.367	9504.33
298.434	9521.09
298.5	9503.7
298.567	9500.67
298.634	9501.15
298.7	9513.09
298.767	9509.63
298.834	9525.85
298.9	9525.08
298.967	9520.89
299.033	9524.41
299.1	9541.65
299.167	9560.53
299.233	9560.62
299.3	9576.28
299.366	9594.57
299.433	9608.83
299.5	9589.42
299.566	9592.79
299.633	9602.04
299.699	9604.45
299.766	9604.21
299.832	9607.92
299.899	9620.82
299.965	9630.46
300.032	9622.17
300.099	9628.63
300.165	9641.39
300.232	9636.72
300.298	9634.5
300.365	9648.18
300.431	9650.97
300.498	9641.73
300.564	9638.35
300.631	9647.75
300.697	9654.15
300.763	9657.14
300.83	9650.15
300.896	9669.08
300.963	9682.86
301.029	9688.06
301.096	9699.66
301.162	9710.5
301.229	9699.66
301.295	9686.32
301.361	9690.99
301.428	9700.67
301.494	9692.53
301.561	9691.23
301.627	9694.65
301.693	9697.3
301.76	9701.35
301.826	9691.57
301.892	9701.54
301.959	9708.72
302.025	9701.93
302.092	9693.06
302.158	9696.43
302.224	9705.06
302.291	9692.92
302.357	9684.54
302.423	9682.23
302.49	9670.57
302.556	9683.87
302.622	9681.99
302.688	9694.85
302.755	9706.6
302.821	9710.69
302.887	9720.86
302.954	9718.5
303.02	9727.6
303.086	9742.53
303.152	9739.06
303.219	9737.86
303.285	9742.87
303.351	9747.35
303.417	9753.85
303.483	9747.11
303.55	9741.81
303.616	9736.94
303.682	9739.54
303.748	9730.73
303.815	9740.27
303.881	9748.21
303.947	9732.32
304.013	9738.82
304.079	9730.2
304.145	9709.1
304.212	9706.79
304.278	9686.13
304.344	9679.87
304.41	9666.19
304.476	9650.93
304.542	9643.46
304.608	9648.76
304.674	9634.26
304.741	9632.38
304.807	9628.48
304.873	9637.29
304.939	9649.48
305.005	9635.03
305.071	9633.2
305.137	9643.46
305.203	9620.53
305.269	9618.94
305.335	9624.19
305.401	9623.09
305.467	9620
305.533	9627.76
305.599	9642.01
305.666	9660.46
305.732	9664.6
305.798	9680.59
305.864	9701.88
305.93	9702.26
305.996	9702.84
306.062	9695.67
306.128	9689.65
306.194	9685.31
306.259	9685.31
306.325	9670.24
306.391	9675.15
306.457	9674.76
306.523	9671.78
306.589	9689.74
306.655	9681.03
306.721	9668.02
306.787	9649.72
306.853	9659.02
306.919	9640.86
306.985	9619.38
307.051	9606.47
307.117	9597.42
307.183	9583.31
307.248	9559.03
307.314	9564.38
307.38	9560.43
307.446	9568.09
307.512	9559.95
307.578	9558.74
307.644	9550.7
307.709	9555.37
307.775	9549.26
307.841	9548.78
307.907	9553.59
307.973	9533.36
308.039	9534.71
308.104	9536.06
308.17	9539.19
308.236	9531
308.302	9537.46
308.368	9533.36
308.433	9528.93
308.499	9522.96
308.565	9512.51
308.631	9513.72
308.696	9494.21
308.762	9479.24
308.828	9477.65
308.894	9463.78
308.959	9443.31
309.025	9435.7
309.091	9430.12
309.156	9421.88
309.222	9420.2
309.288	9399.68
309.354	9380.09
309.419	9375.13
309.485	9362.17
309.551	9364.68
309.616	9350.66
309.682	9349.7
309.748	9343.35
309.813	9337.09
309.879	9326.97
309.945	9317.2
310.01	9305.11
310.076	9309.78
310.141	9305.26
310.207	9291.25
310.273	9289.61
310.338	9292.93
310.404	9278.63
310.469	9264.18
310.535	9251.86
310.601	9227.59
310.666	9235.1
310.732	9245.31
310.797	9227.49
310.863	9220.42
310.928	9212.95
310.994	9209.73
311.059	9198.65
311.125	9192.39
311.191	9206.07
311.256	9196.68
311.322	9198.7
311.387	9181.23
311.453	9421.52
311.518	9399.42
311.584	9399.66
311.649	9399.28
311.715	9387.44
311.78	9380.55
311.846	9376.6
311.911	9385.9
311.976	9389.46
312.042	9367.65
312.107	9352.96
312.173	9348.15
312.238	9346.95
312.304	9343.77
312.369	9336.59
312.434	9322.39
312.5	9313.29
312.565	9281.71
312.631	9293.31
312.696	9285.8
312.761	9287.1
312.827	9031.16
312.892	9069.34
312.958	9062.12
313.023	9061.25
313.088	9059.32
313.154	9051.57
313.219	9039.83
313.284	9029.28
313.35	9025.34
313.415	9023.6
313.48	9019.08
313.546	9018.31
313.611	9019.56
313.676	9006.9
313.741	8998.62
313.807	9014.46
313.872	9016.96
313.937	9022.69
314.003	9020.47
314.068	9022.01
314.133	9025.77
314.198	9017.63
314.264	8995.82
314.329	8981.38
314.394	8974.3
314.459	8966.84
314.525	8985.23
314.59	8977.29
314.655	8969.73
314.72	8975.46
314.785	8971.66
314.851	8965.16
314.916	8946.77
314.981	8931.32
315.046	8924.87
315.111	8913.03
315.176	8892.86
315.242	8892.86
315.307	8886.74
315.372	8871.63
315.437	8854.54
315.502	8845.25
315.567	8850.93
315.632	8837.45
315.698	8840.43
315.763	8834.94
315.828	8828.3
315.893	8820.07
315.958	8812.71
316.023	8800.87
316.088	8775.35
316.153	8756.63
316.218	8747.15
316.283	8732.86
316.348	8719.53
316.413	8714.09
316.479	8697.97
316.544	8667.12
316.609	8632.52
316.674	8592.92
316.739	8555.44
316.804	8531.14
316.869	8497.02
316.934	8456.4
316.999	8421.61
317.064	8372.73
317.129	8331.68
317.194	8292.57
317.259	8237.86
317.324	8188.07
317.389	8139.39
317.454	8103.89
317.518	8064.01
317.583	8036.68
317.648	8009.31
317.713	7967.47
317.778	7904.07
317.843	7875.45
317.908	7840.01
317.973	7804.42
318.038	7779.17
318.103	7743.16
318.168	7703.87
318.233	7669.88
318.297	7618.43
318.362	7576.26
318.427	7537.38
318.492	7504.82
318.557	7459.64
318.622	7429.02
318.687	7403.88
318.751	7366.4
318.816	7331.55
318.881	7297.9
318.946	7241.24
319.011	7195.24
319.075	7151.51
319.14	7120.23
319.205	7070.07
319.27	7029.56
319.335	6976.72
319.399	6933.48
319.464	6899.23
319.529	6847.21
319.594	6807.71
319.658	6775.63
319.723	6731.83
319.788	6697.4
319.853	6639.09
319.917	6599.73
319.982	6549.78
320.047	6515.5
320.112	6483.57
320.176	6430.7
320.241	6392.44
320.306	6364.59
320.37	6323.31
320.435	6287.07
320.5	6251.36
320.564	6211.29
320.629	6170.11
320.694	6145.11
320.758	6101.74
320.823	6054.38
320.888	6026.94
320.952	5972.39
321.017	5932.09
321.082	5890.22
321.146	5853
321.211	5818.18
321.275	5779.44
321.34	5737.34
321.405	5690.1
321.469	5646.9
321.534	5604.57
321.598	5552.98
321.663	5515
321.727	5484.17
321.792	5438.11
321.857	5395.21
321.921	5352.89
321.986	5305.51
322.05	5250.93
322.115	5210.92
322.179	5170.87
322.244	5108.75
322.308	5074.8
322.373	5026.76
322.437	4986.63
322.502	4956.3
322.566	4911.38
322.631	4878.78
322.695	4836.22
322.76	4789.73
322.824	4748.32
322.889	4703.58
322.953	4660.18
323.018	4590.07
323.082	4520.64
323.146	4468.84
323.211	4408.56
323.275	4367.7
323.34	4328.15
323.404	4286.69
323.468	4239.54
323.533	4189.71
323.597	4150.29
323.662	4098.27
323.726	4057.88
323.79	4012.18
323.855	3945.1
323.919	3897.7
323.983	3848.18
324.048	3782.52
324.112	3913.66
324.177	3781.88
324.241	3583.73
324.305	3387.82
324.37	3203.32
324.434	3021.37
324.498	2978.27
324.562	2934.43
324.627	2873.18
324.691	2814
324.755	2750.11
324.82	2677.7
324.884	2606.85
324.948	2533.5
325.012	2444.67
325.077	2331.39
