Data from 20250630_urea_2M_MAYP1162681_20-42-27-411.txt Node
Date: Mon Jun 30 20:42:27 BST 2025
User: adleo
Spectrometer: MAYP116268
Trigger mode: 0
Integration Time (sec): 1.000000E0
Scans to average: 1
Electric dark correction enabled: true
Nonlinearity correction enabled: true
Boxcar width: 10
XAxis mode: Wavelengths
Number of Pixels in Spectrum: 2068
>>>>>Begin Spectral Data<<<<<
179.565	1135.16
179.642	1185.37
179.718	1227.62
179.795	1263.9
179.871	1294.82
179.948	1311.15
180.024	1331.25
180.101	1352.88
180.177	1367.04
180.254	1386.77
180.33	1408.13
180.407	1456.03
180.483	1547.34
180.56	1631.24
180.636	1711
180.712	1697.26
180.789	1708.86
180.865	1718.12
180.942	1730.19
181.018	1740.73
181.095	1752.57
181.171	1758.56
181.248	1759.89
181.324	1774.34
181.4	1782.13
181.477	1793.83
181.553	1804.75
181.63	1824.43
181.706	1839.98
181.782	1847.01
181.859	1848.24
181.935	1851.67
182.011	1850.38
182.088	1866.22
182.164	1885.62
182.24	1896.97
182.317	1908.43
182.393	1906.62
182.469	1921.83
182.546	1932.91
182.622	1936.52
182.698	1932.81
182.775	1942.61
182.851	1955.11
182.927	1947.6
183.003	1940.94
183.08	1933.15
183.156	1944.61
183.232	1939.56
183.308	1927.25
183.385	1935.71
183.461	1953.88
183.537	1955.83
183.613	1966
183.69	1954.59
183.766	1941.42
183.842	1948.36
183.918	1950.64
183.995	1963.05
184.071	1968.14
184.147	1962.34
184.223	1952.5
184.299	1962.82
184.375	1952.17
184.452	1961.4
184.528	2014.39
184.604	2026.6
184.68	2037.73
184.756	2041.44
184.832	2046.72
184.908	2055.7
184.985	2054.89
185.061	2037.25
185.137	2045
185.213	2034.35
185.289	2035.54
185.365	2031.26
185.441	2033.69
185.517	2047.96
185.593	2045.15
185.669	2039.54
185.745	2049.29
185.822	2066.12
185.898	2057.7
185.974	2066.35
186.05	2055.55
186.126	2015.5
186.202	2009.08
186.278	2004.99
186.354	1999.86
186.43	2003.47
186.506	2001.14
186.582	2000.29
186.658	2007.42
186.734	1988.69
186.81	1990.54
186.886	1994.58
186.962	2004.76
187.038	1999.76
187.114	1990.25
187.19	1996.67
187.266	1987.73
187.341	1988.54
187.417	1978.84
187.493	1979.31
187.569	1981.31
187.645	1976.98
187.721	1966.95
187.797	1973.51
187.873	1979.6
187.949	1971.71
188.025	1969.95
188.101	1968.71
188.176	1975.27
188.252	1969.19
188.328	1977.93
188.404	1978.98
188.48	1975.03
188.556	1969.18
188.632	1966.95
188.707	1966.57
188.783	1961
188.859	1959.77
188.935	1949.54
189.011	1960.38
189.086	1953.21
189.162	1948.93
189.238	1947.88
189.314	1946.83
189.39	1938.89
189.465	1933.09
189.541	1948.31
189.617	1930.39
189.693	1927.39
189.768	1927.68
189.844	1954.69
189.92	1945.47
189.996	1953.94
190.071	1964.49
190.147	1963.4
190.223	1970.77
190.298	1966.54
190.374	1956.7
190.45	1967.77
190.526	1977.43
190.601	1970.1
190.677	1973
190.753	1998.41
190.828	2002.03
190.904	2013.53
190.98	2033.37
191.055	2041.5
191.131	2034.79
191.207	2056.24
191.282	2066.93
191.358	2059.28
191.433	2044.24
191.509	2058.6
191.585	2056.03
191.66	2056.7
191.736	2064.07
191.811	2058.22
191.887	2074.82
191.963	2096.22
192.038	2101.64
192.114	2099.5
192.189	2104.78
192.265	2101.31
192.34	2078.61
192.416	2076.57
192.491	2074.81
192.567	2074.43
192.642	2076.28
192.718	2079.19
192.793	2069.48
192.869	2063.11
192.944	2066.01
193.02	2071.96
193.095	2075.62
193.171	2079.95
193.246	2079.23
193.322	2077.38
193.397	2075.67
193.473	2060.39
193.548	2045.27
193.624	2049.12
193.699	2051.41
193.775	2065.87
193.85	2069.58
193.925	2080.47
194.001	2080.61
194.076	2072.96
194.152	2062.54
194.227	2056.54
194.302	2043.28
194.378	2043.42
194.453	2040.57
194.529	2051.94
194.604	2041.14
194.679	2033.44
194.755	2016.7
194.83	2028.12
194.905	2024.89
194.981	2035.16
195.056	2028.69
195.131	2035.59
195.207	2035.16
195.282	2023.46
195.357	2005.43
195.433	2020.75
195.508	2003.77
195.583	2011.04
195.659	2025.41
195.734	2033.26
195.809	2033.26
195.884	2042.81
195.96	2043.86
196.035	2057.46
196.11	2055.46
196.185	2066.49
196.261	2071.82
196.336	2101.02
196.411	2088.56
196.486	2095.74
196.561	2088.37
196.637	2097.26
196.712	2110.34
196.787	2111.49
196.862	2126.37
196.937	2135.08
197.013	2139.07
197.088	2153.39
197.163	2172.9
197.238	2189.61
197.313	2187.75
197.388	2198.74
197.464	2227.87
197.539	2239.86
197.614	2236.57
197.689	2247.19
197.764	2262.99
197.839	2279.64
197.914	2269.55
197.989	2289.59
198.065	2300.58
198.14	2350.2
198.215	2373
198.29	2385.85
198.365	2400.37
198.44	2409.65
198.515	2434.93
198.59	2449.55
198.665	2473.97
198.74	2483.16
198.815	2483.21
198.89	2505.35
198.965	2532.4
199.04	2527.68
199.115	2542.82
199.19	2583.63
199.265	2585.25
199.34	2593.78
199.415	2628.46
199.49	2652.36
199.565	2664.89
199.64	2691.66
199.715	2687.99
199.79	2696.47
199.865	2700.38
199.94	2696.42
200.015	2727.3
200.09	2732.78
200.165	2740.97
200.24	2748.21
200.315	2788.13
200.39	2803.9
200.464	2810.86
200.539	2815.24
200.614	2832.06
200.689	2853.51
200.764	2860.75
200.839	2878.38
200.914	2881.81
200.989	2872.08
201.063	2884.47
201.138	2865.47
201.213	2862.51
201.288	2842.69
201.363	2847.93
201.438	2848.55
201.512	2864.99
201.587	2846.21
201.662	2852.07
201.737	2860.6
201.812	2867.23
201.886	2833.31
201.961	2840.28
202.036	2826.37
202.111	2823.84
202.186	2793.79
202.26	2778.73
202.335	2754.14
202.41	2749.61
202.485	2735.61
202.559	2717.26
202.634	2693.06
202.709	2700.77
202.784	2685.62
202.858	2684.2
202.933	2668
203.008	2664.52
203.082	2643.42
203.157	2642.95
203.232	2602
203.306	2583.36
203.381	2553.16
203.456	2532.73
203.53	2509.81
203.605	2491.91
203.68	2468.62
203.754	2463.34
203.829	2446.53
203.904	2428.15
203.978	2411.87
204.053	2412.96
204.127	2401.63
204.202	2398.44
204.277	2381.83
204.351	2373.4
204.426	2366.98
204.5	2357.79
204.575	2322.52
204.65	2336.71
204.724	2330.81
204.799	2338.51
204.873	2333.66
204.948	2331.04
205.022	2318.38
205.097	2310.24
205.171	2323.94
205.246	2330.75
205.32	2332.75
205.395	2333.04
205.469	2326.09
205.544	2336.9
205.618	2318.24
205.693	2328
205.767	2318.58
205.842	2340.33
205.916	2333.53
205.991	2329.67
206.065	2334
206.14	2347.75
206.214	2340.56
206.289	2335.7
206.363	2344.27
206.438	2348.79
206.512	2358.88
206.586	2376.64
206.661	2386.92
206.735	2367.51
206.81	2368.84
206.884	2383.07
206.958	2371.46
207.033	2388.78
207.107	2394.17
207.181	2427.3
207.256	2421.5
207.33	2439.2
207.405	2450.83
207.479	2469.97
207.553	2473.16
207.628	2460.16
207.702	2470.16
207.776	2464.54
207.851	2469.16
207.925	2487.21
207.999	2480.16
208.073	2477.26
208.148	2483.16
208.222	2471.16
208.296	2502
208.371	2517.11
208.445	2525.63
208.519	2553.67
208.593	2564.58
208.668	2559.67
208.742	2563.06
208.816	2564.53
208.89	2576.68
208.965	2571.53
209.039	2580.39
209.113	2597.59
209.187	2617.1
209.261	2617.1
209.336	2635.87
209.41	2652.01
209.484	2649.3
209.558	2674.5
209.632	2684.45
209.707	2692.36
209.781	2712.51
209.855	2728.81
209.929	2744.26
210.003	2750.88
210.077	2750.45
210.151	2796.57
210.226	2830.23
210.3	2856.37
210.374	2880.18
210.448	2884.62
210.522	2899.73
210.596	2908.88
210.67	2917.7
210.744	2959.6
210.818	2989.05
210.892	3010.27
210.966	3008.22
211.041	3029
211.115	3025.57
211.189	3054.13
211.263	3072.82
211.337	3082.3
211.411	3098.52
211.485	3100.14
211.559	3115.78
211.633	3123.16
211.707	3099.3
211.781	3112.76
211.855	3085.77
211.929	3084.81
212.003	3077
212.077	3095.27
212.151	3119.46
212.225	3143.02
212.299	3147.36
212.373	3152.42
212.447	3163.92
212.52	3207.57
212.594	3228.43
212.668	3263.26
212.742	3268.12
212.816	3288.88
212.89	3311.02
212.964	3337.19
213.038	3366.83
213.112	3415.4
213.186	3464.31
213.26	3478.82
213.333	3479.2
213.407	3524.58
213.481	3572.88
213.555	3634.34
213.629	3675.82
213.703	3713.23
213.777	3765.94
213.85	3808.52
213.924	3905.33
213.998	3973.37
214.072	4033.01
214.146	4091.63
214.219	4162.89
214.293	4240.25
214.367	4323.25
214.441	4418.35
214.515	4495.7
214.588	4571.79
214.662	4629.66
214.736	4710.89
214.81	4822.72
214.883	4935.01
214.957	5034.07
215.031	5133.38
215.105	5219.23
215.178	5313.87
215.252	5424.77
215.326	5525.11
215.4	5628.93
215.473	5712.85
215.547	5824.83
215.621	5945.05
215.694	6084.66
215.768	6202.35
215.842	6332.75
215.915	6460.34
215.989	6579.2
216.063	6718.08
216.136	6867.1
216.21	7022.17
216.284	7182.52
216.357	7336.75
216.431	7486.49
216.504	7652.01
216.578	7831.8
216.652	8011.75
216.725	8183.61
216.799	8358.06
216.873	8523.08
216.946	8700.9
217.02	8860.28
217.093	9022.64
217.167	9168.59
217.24	9318.42
217.314	9487.32
217.387	9649.78
217.461	9812.17
217.535	9998.03
217.608	10152.98
217.682	10319.18
217.755	10489.43
217.829	10651.27
217.902	10817.83
217.976	10986.95
218.049	11142.89
218.123	11298.11
218.196	11462.83
218.27	11618.55
218.343	11767.76
218.417	11935.63
218.49	12094.45
218.563	12271.24
218.637	12436.38
218.71	12623.49
218.784	12798.28
218.857	12958.22
218.931	13128.9
219.004	13290.68
219.077	13450.48
219.151	13611.72
219.224	13764.39
219.298	13922.64
219.371	14087.36
219.444	14226.14
219.518	14372.3
219.591	14528.19
219.665	14705.14
219.738	14846.48
219.811	14978.94
219.885	15129.48
219.958	15271.44
220.031	15402.93
220.105	15545.42
220.178	15686.64
220.251	15806.57
220.325	15936.32
220.398	16068.58
220.471	16189.75
220.544	16321.43
220.618	16433.87
220.691	16559.04
220.764	16679.72
220.838	16806.19
220.911	16913.18
220.984	17051.88
221.057	17164.95
221.131	17277.97
221.204	17356.38
221.277	17490.16
221.35	17632.09
221.424	17729.49
221.497	17836.81
221.57	17951.03
221.643	18054.11
221.716	18156.03
221.79	18244.75
221.863	18339.3
221.936	18434.57
222.009	18531.92
222.082	18622.76
222.155	18699.82
222.229	18807.28
222.302	18906.65
222.375	18985
222.448	19064.57
222.521	19127.98
222.594	19216.51
222.667	19278.43
222.74	19367.49
222.814	19437.32
222.887	19497.41
222.96	19571.29
223.033	19653.79
223.106	19719.18
223.179	19793.73
223.252	19857.83
223.325	19929.58
223.398	19996.09
223.471	20061.05
223.544	20122.54
223.617	20184.08
223.69	20247.16
223.763	20273.91
223.837	20321.28
223.91	20374.06
223.983	20414.68
224.056	20464.22
224.129	20508.56
224.202	20565.67
224.275	20605.57
224.348	20630.34
224.42	20668.27
224.493	20709.28
224.566	20735.12
224.639	20773.91
224.712	20806.54
224.785	20844.47
224.858	20881.49
224.931	20900.38
225.004	20921.54
225.077	20950.74
225.15	20955.95
225.223	20989.35
225.296	21055.09
225.369	21065.98
225.442	21082.03
225.514	21120.49
225.587	21150.71
225.66	21189.8
225.733	21226.04
225.806	21261.18
225.879	21295.93
225.952	21313.76
226.025	21346.59
226.097	21390.06
226.17	21412.47
226.243	21405.24
226.316	21414.74
226.389	21435.42
226.461	21463.08
226.534	21481.25
226.607	21499.86
226.68	21549.89
226.753	21574.09
226.825	21572.21
226.898	21615.63
226.971	21639.59
227.044	21657.18
227.117	21682.15
227.189	21698.3
227.262	21711.17
227.335	21721.87
227.407	21718.11
227.48	21733
227.553	21745.78
227.626	21751.42
227.698	21772.82
227.771	21796.34
227.844	21809.74
227.916	21823.77
227.989	21824.1
228.062	21837.65
228.134	21860.26
228.207	21854.76
228.28	21849.36
228.352	21848.54
228.425	21852.59
228.498	21875.78
228.57	21869.32
228.643	21890
228.716	21891.3
228.788	21896.36
228.861	21892.75
228.934	21921.38
229.006	21926.49
229.079	21924.61
229.151	21922.49
229.224	21912.12
229.296	21924.75
229.369	21951.12
229.442	21975.51
229.514	21984.33
229.587	22008.1
229.659	22004.15
229.732	22017.88
229.804	22039.48
229.877	22081.95
229.949	22097.76
230.022	22114.49
230.094	22129.29
230.167	22120.85
230.239	22110.83
230.312	22104.75
230.384	22136.09
230.457	22139.12
230.529	22150.98
230.602	22157.49
230.674	22158.55
230.747	22171.23
230.819	22179.13
230.892	22150.02
230.964	22137.48
231.037	22134.5
231.109	22119.41
231.181	22115.98
231.254	22105.33
231.326	22101.72
231.399	22086.14
231.471	22066.77
231.544	22032.15
231.616	22045.17
231.688	22045.22
231.761	22037.74
231.833	22041.17
231.905	22001.88
231.978	21988.48
232.05	21967.65
232.122	21966.83
232.195	21948.28
232.267	21951.8
232.339	21931.89
232.412	21923.84
232.484	21912.27
232.556	21907.88
232.629	21920.22
232.701	21919.84
232.773	21919.74
232.846	21909.81
232.918	21891.44
232.99	21880.89
233.062	21888.99
233.135	21868.79
233.207	21839.91
233.279	21836.97
233.351	21824.01
233.424	21806.08
233.496	21785.21
233.568	21793.98
233.64	21759.51
233.713	21752.57
233.785	21734.69
233.857	21733.68
233.929	21719.85
234.001	21720.28
234.074	21703.41
234.146	21667.93
234.218	21642.39
234.29	21614.96
234.362	21592.79
234.434	21561.12
234.507	21534.22
234.579	21491.71
234.651	21469.15
234.723	21469.68
234.795	21454.02
234.867	21440.52
234.939	21446.21
235.012	21430.11
235.084	21408.47
235.156	21404.9
235.228	21377.77
235.3	21337.86
235.372	21307.21
235.444	21295.45
235.516	21247.97
235.588	21233.41
235.66	21221.08
235.732	21190.04
235.804	21215.73
235.876	21192.26
235.948	21182.42
236.02	21150.08
236.092	21124.4
236.164	21091.77
236.236	21051.57
236.308	21023.67
236.38	20989.98
236.452	20942.65
236.524	20918.31
236.596	20912.19
236.668	20890.89
236.74	20865.39
236.812	20847.8
236.884	20828.47
236.956	20802.26
237.028	20778.74
237.1	20740.13
237.172	20719.12
237.244	20713.58
237.316	20652.46
237.388	20615.64
237.46	20587.16
237.532	20581.52
237.604	20545.19
237.675	20535.4
237.747	20517.33
237.819	20492.17
237.891	20465.28
237.963	20428.8
238.035	20388.27
238.107	20321.62
238.178	20300.51
238.25	20265.77
238.322	20265.91
238.394	20219.4
238.466	20185.77
238.538	20164.8
238.609	20138.25
238.681	20093.91
238.753	20047.41
238.825	20014.78
238.897	19987.51
238.968	19957.53
239.04	19916.81
239.112	19912.86
239.184	19865.68
239.255	19828.96
239.327	19789.87
239.399	19764.43
239.471	19739.61
239.542	19729.01
239.614	19712.96
239.686	19655.13
239.758	19643.62
239.829	19589.64
239.901	19572.49
239.973	19544.73
240.044	19518.13
240.116	19493.55
240.188	19457.7
240.259	19432.93
240.331	19391.97
240.403	19367.78
240.474	19324.07
240.546	19282.53
240.618	19223.59
240.689	19189.38
240.761	19151.89
240.833	19134.15
240.904	19098.54
240.976	19069.87
241.048	19033.39
241.119	19009.34
241.191	18983.61
241.262	18956.19
241.334	18921.64
241.405	18881.44
241.477	18833.64
241.549	18788.05
241.62	18755.62
241.692	18726.95
241.763	18703.14
241.835	18673.84
241.906	18642.04
241.978	18603.92
242.049	18589.08
242.121	18578.48
242.192	18558.24
242.264	18516.84
242.335	18463.11
242.407	18436.94
242.478	18401.67
242.55	18372.41
242.621	18323.4
242.693	18286.73
242.764	18249.77
242.836	18211.17
242.907	18185.34
242.979	18161.34
243.05	18131.08
243.122	18102.6
243.193	18063.22
243.264	18008.77
243.336	17972.38
243.407	17941.69
243.479	17915.66
243.55	17872.92
243.622	17833.3
243.693	17800.73
243.764	17786.46
243.836	17744.49
243.907	17695.96
243.978	17664.25
244.05	17630.75
244.121	17582.13
244.192	17559.09
244.264	17505.74
244.335	17474.51
244.407	17422.66
244.478	17396.87
244.549	17357.31
244.62	17309.26
244.692	17277.5
244.763	17251.19
244.834	17206.08
244.906	17165.55
244.977	17144.49
245.048	17132.44
245.119	17095.09
245.191	17052.48
245.262	16994.94
245.333	16982.02
245.405	16954.26
245.476	16920.38
245.547	16885.2
245.618	16866.5
245.689	16830.84
245.761	16808.38
245.832	16774.5
245.903	16750.88
245.974	16721.1
246.045	16682.78
246.117	16664.56
246.188	16616.41
246.259	16576.89
246.33	16546.48
246.401	16507.92
246.473	16459.39
246.544	16415.63
246.615	16400.4
246.686	16354.51
246.757	16340.58
246.828	16287.28
246.899	16269.35
246.97	16218.06
247.042	16178.3
247.113	16154.2
247.184	16143.5
247.255	16097.04
247.326	16071.93
247.397	16027.54
247.468	15980.3
247.539	15953.36
247.61	15905.3
247.681	15890.75
247.752	15872.91
247.823	15842.5
247.894	15819.8
247.965	15779.74
248.037	15744.51
248.108	15689.13
248.179	15663.29
248.25	15634.66
248.321	15623.14
248.392	15581.02
248.463	15581.83
248.534	15548.77
248.605	15517.29
248.675	15482.35
248.746	15459.65
248.817	15431.3
248.888	15413.18
248.959	15377.85
249.03	15355.34
249.101	15331.38
249.172	15288.82
249.243	15229.63
249.314	15205.96
249.385	15176.65
249.456	15147.58
249.527	15111.96
249.598	15086.42
249.669	15058.46
249.739	15031.51
249.81	15000.32
249.881	14957.47
249.952	14923.34
250.023	14899.72
250.094	14862.51
250.165	14819.13
250.235	14791.65
250.306	14759.93
250.377	14727.88
250.448	14702.91
250.519	14652.97
250.59	14633.54
250.66	14606.5
250.731	14608.19
250.802	14580.95
250.873	14554.39
250.944	14533.9
251.014	14503.63
251.085	14506.96
251.156	14488.78
251.227	14471.67
251.297	14460.25
251.368	14445.3
251.439	14427.56
251.51	14406.35
251.58	14373.57
251.651	14339.93
251.722	14326.81
251.792	14284.39
251.863	14253.4
251.934	14239.08
252.005	14251.95
252.075	14234.31
252.146	14222.4
252.217	14208.23
252.287	14190.78
252.358	14164.94
252.429	14154.67
252.499	14123.38
252.57	14101.07
252.641	14088.92
252.711	14062.4
252.782	14025.77
252.852	14024.51
252.923	13996.6
252.994	13976.84
253.064	13965.41
253.135	13929.6
253.205	13892
253.276	13887.18
253.347	13879.9
253.417	13858.97
253.488	13824.51
253.558	13788.45
253.629	13759.62
253.699	13735.47
253.77	13711.9
253.841	13683.12
253.911	13661.62
253.982	13642.58
254.052	13623.39
254.123	13593.74
254.193	13567.71
254.264	13583.33
254.334	13544.96
254.405	13509.67
254.475	13474.72
254.546	13448.98
254.616	13448.74
254.687	13430.13
254.757	13416.53
254.827	13388.91
254.898	13364.52
254.968	13344.22
255.039	13315.83
255.109	13303.92
255.18	13272.54
255.25	13235.66
255.321	13226.26
255.391	13188.61
255.461	13183.75
255.532	13135.97
255.602	13107.97
255.673	13069.16
255.743	13028.23
255.813	12987.59
255.884	12982.58
255.954	12969.37
256.024	12970
256.095	12950.67
256.165	12921.84
256.235	12906.95
256.306	12884.43
256.376	12874.65
256.446	12855.65
256.517	12847.07
256.587	12840.18
256.657	12820.13
256.728	12803.01
256.798	12782.33
256.868	12761.51
256.938	12733.84
257.009	12722.9
257.079	12709.01
257.149	12717.31
257.219	12674.4
257.29	12662.93
257.36	12619.16
257.43	12614.24
257.5	12565.36
257.571	12537.21
257.641	12526.51
257.711	12483.51
257.781	12466.21
257.852	12449.82
257.922	12416.46
257.992	12388.02
258.062	12360.06
258.132	12342.47
258.202	12321.55
258.273	12290.74
258.343	12291.42
258.413	12269.2
258.483	12245.19
258.553	12217.57
258.623	12182.77
258.693	12170.48
258.764	12164.45
258.834	12161.13
258.904	12136.11
258.974	12107.86
259.044	12086.8
259.114	12069.21
259.184	12058.02
259.254	12033.87
259.324	11988.81
259.394	11968.66
259.464	11966.97
259.535	11938.87
259.605	11915.73
259.675	11892.21
259.745	11884.16
259.815	11849.22
259.885	11820.3
259.955	11835.82
260.025	11808.01
260.095	11786.75
260.165	11770.65
260.235	11761.54
260.305	11737.59
260.375	11708.23
260.445	11711.66
260.515	11707.08
260.585	11701.63
260.655	11684.52
260.725	11682.45
260.795	11677.19
260.865	11680.37
260.934	11653.38
261.004	11650.01
261.074	11637.77
261.144	11631.65
261.214	11622.15
261.284	11603.64
261.354	11595.84
261.424	11561.32
261.494	11563.15
261.564	11550.86
261.634	11542.62
261.703	11504.36
261.773	11483.44
261.843	11474.67
261.913	11454.23
261.983	11419.87
262.053	11408.93
262.123	11392.2
262.192	11356.54
262.262	11353.46
262.332	11320.64
262.402	11312.1
262.472	11288.73
262.541	11249.55
262.611	11247.29
262.681	11226.42
262.751	11219.38
262.821	11205.69
262.89	11175.09
262.96	11162.08
263.03	11160.58
263.1	11144.97
263.169	11132.05
263.239	11127.57
263.309	11124.68
263.379	11116.63
263.448	11106.9
263.518	11092.25
263.588	11070.9
263.657	11070.71
263.727	11062.47
263.797	11051.86
263.867	11037.31
263.936	11008.01
264.006	11006.37
264.076	10987.05
264.145	10959.58
264.215	10940.16
264.285	10930.57
264.354	10899.64
264.424	10885.32
264.494	10855.25
264.563	10834.97
264.633	10840.7
264.702	10827.64
264.772	10789.43
264.842	10771.74
264.911	10760.18
264.981	10729.77
265.05	10713.92
265.12	10698.16
265.19	10679.85
265.259	10671.13
265.329	10653.2
265.398	10647.57
265.468	10661.11
265.537	10634.99
265.607	10627.38
265.676	10618.9
265.746	10607.43
265.815	10602.85
265.885	10581.85
265.955	10559.25
266.024	10536.03
266.094	10503.6
266.163	10497.14
266.232	10498.49
266.302	10483.31
266.371	10470.06
266.441	10455.42
266.51	10449.59
266.58	10432
266.649	10406.75
266.719	10396.54
266.788	10390.52
266.858	10391.48
266.927	10344.07
266.996	10334.63
267.066	10330.82
267.135	10301.58
267.205	10292.38
267.274	10279.42
267.343	10273.49
267.413	10260.15
267.482	10264
267.552	10261.5
267.621	10240.16
267.69	10204.41
267.76	10194.97
267.829	10185.81
267.898	10174.35
267.968	10152.62
268.037	10149.64
268.106	10149.59
268.176	10126.08
268.245	10107.68
268.314	10080.94
268.384	10086.33
268.453	10078.1
268.522	10068.12
268.592	10071.25
268.661	10047.65
268.73	10045.1
268.799	10021.01
268.869	10027.08
268.938	10000.64
269.007	9974.87
269.076	9963.11
269.146	9967.69
269.215	9953.62
269.284	9957.43
269.353	9934.31
269.422	9922.46
269.492	9896.64
269.561	9854.5
269.63	9845.06
269.699	9832.15
269.768	9822.85
269.838	9808.64
269.907	9806.14
269.976	9784.12
270.045	9752.72
270.114	9751.32
270.183	9732.01
270.253	9731.38
270.322	9696.32
270.391	9681.68
270.46	9687.7
270.529	9685.05
270.598	9682.93
270.667	9667.38
270.736	9637.42
270.806	9639.01
270.875	9637.56
270.944	9632.22
271.013	9653.6
271.082	9647.77
271.151	9638.57
271.22	9613.68
271.289	9605.34
271.358	9585.74
271.427	9576.98
271.496	9568.12
271.565	9545.05
271.634	9538.89
271.703	9539.94
271.772	9537.54
271.841	9523.77
271.91	9497.13
271.979	9482.2
272.048	9454.75
272.117	9455.77
272.186	9443.2
272.255	9436.84
272.324	9435.78
272.393	9427.31
272.462	9407.37
272.531	9395.62
272.6	9379.63
272.669	9386.71
272.738	9377.03
272.807	9373.32
272.876	9353.96
272.945	9379.97
273.013	9386.95
273.082	9382.71
273.151	9358.2
273.22	9357.53
273.289	9358.39
273.358	9371.39
273.427	9358.88
273.496	9357.91
273.564	9350.11
273.633	9351.7
273.702	9336.58
273.771	9325.02
273.84	9312.75
273.909	9304.9
273.977	9305.23
274.046	9297.87
274.115	9301.09
274.184	9277.07
274.253	9266.91
274.322	9271.87
274.39	9236.04
274.459	9218.76
274.528	9193.24
274.597	9188.76
274.665	9186.5
274.734	9189.2
274.803	9179.85
274.872	9174.51
274.94	9164.4
275.009	9189.06
275.078	9176.49
275.147	9169.7
275.215	9162.77
275.284	9177.7
275.353	9174.28
275.421	9147.89
275.49	9163.45
275.559	9146.93
275.627	9144.33
275.696	9134.17
275.765	9133.5
275.833	9129.22
275.902	9135.52
275.971	9144.14
276.039	9155.07
276.108	9153.87
276.177	9147.9
276.245	9127.96
276.314	9125.41
276.383	9131.86
276.451	9100.9
276.52	9100.18
276.588	9108.99
276.657	9114.52
276.725	9102.49
276.794	9093.1
276.863	9106.19
276.931	9080.53
277	9085.25
277.068	9095.6
277.137	9113.41
277.205	9113.84
277.274	9128.33
277.342	9129.68
277.411	9107.4
277.48	9092.57
277.548	9082.79
277.617	9082.75
277.685	9081.64
277.754	9086.45
277.822	9072.25
277.89	9081.06
277.959	9074.18
278.027	9055.4
278.096	9040.24
278.164	9063.64
278.233	9059.98
278.301	9046.89
278.37	9049.49
278.438	9035
278.507	9028.64
278.575	9002.69
278.643	8992.68
278.712	8969.14
278.78	8952.48
278.849	8967.16
278.917	8974.77
278.985	8969.14
279.054	8973.37
279.122	8979.05
279.191	8969.33
279.259	8970.1
279.327	8947.66
279.396	8961.87
279.464	8965.14
279.532	8973.85
279.601	8966.87
279.669	8969.08
279.737	8977.41
279.806	8978.09
279.874	8992.53
279.942	8993.2
280.011	8988.1
280.079	8987.33
280.147	9012.12
280.215	9013.9
280.284	9013.85
280.352	8999.17
280.42	9005.38
280.488	8991.9
280.557	8988.53
280.625	8994.4
280.693	8985.21
280.761	8988.05
280.83	8971.06
280.898	8979.96
280.966	8957.63
281.034	8926.53
281.102	8913.63
281.171	8912.66
281.239	8922.2
281.307	8909.53
281.375	8898.17
281.443	8921.04
281.512	8922.48
281.58	8922.53
281.648	8908.67
281.716	8907.51
281.784	8905.69
281.852	8901.02
281.92	8901.55
281.989	8907.47
282.057	8885.57
282.125	8932.75
282.193	8925.53
282.261	8916.82
282.329	8912.53
282.397	8922.3
282.465	8919.94
282.533	8926.92
282.601	8910.56
282.67	8887.74
282.738	8875.42
282.806	8882.73
282.874	8872.48
282.942	8881.77
283.01	8871.23
283.078	8882.97
283.146	8876.71
283.214	8891.45
283.282	8891.88
283.35	8900.74
283.418	8898.81
283.486	8909.93
283.554	8870.06
283.622	8869.34
283.69	8876.75
283.758	8867.37
283.826	8865.92
283.894	8879.98
283.962	8899.52
284.03	8915.75
284.098	8916.71
284.165	8919.21
284.233	8921.62
284.301	8915.26
284.369	8903.9
284.437	8897.31
284.505	8886
284.573	8898.41
284.641	8879.54
284.709	8889.7
284.777	8872.71
284.845	8881.18
284.912	8877.38
284.98	8878.05
285.048	8877.67
285.116	8885.47
285.184	8895.09
285.252	8896.73
285.319	8878.39
285.387	8862.89
285.455	8846.76
285.523	8853.41
285.591	8847.92
285.659	8844.45
285.726	8850.33
285.794	8837.47
285.862	8834.92
285.93	8833.29
285.997	8825.59
286.065	8822.41
286.133	8810.18
286.201	8804.5
286.269	8786.35
286.336	8781.06
286.404	8776.97
286.472	8777.3
286.539	8751.6
286.607	8736.34
286.675	8735.14
286.743	8745.34
286.81	8743.37
286.878	8757.33
286.946	8750.35
287.013	8755.45
287.081	8754.63
287.149	8744.52
287.216	8754.49
287.284	8749
287.352	8751.26
287.419	8750.73
287.487	8766.67
287.555	8769.46
287.622	8772.92
287.69	8776.63
287.758	8792.66
287.825	8787.17
287.893	8780
287.96	8783.8
288.028	8793.14
288.096	8789.14
288.163	8788.52
288.231	8776.25
288.298	8775.43
288.366	8786.93
288.433	8778.7
288.501	8772.64
288.569	8774.47
288.636	8774.18
288.704	8788.52
288.771	8798.87
288.839	8785.01
288.906	8773.5
288.974	8783.33
289.041	8775.91
289.109	8766.34
289.176	8768.45
289.244	8767.3
289.311	8777.45
289.379	8791.75
289.446	8796.51
289.514	8799.26
289.581	8795.98
289.649	8799.07
289.716	8798.49
289.783	8791.07
289.851	8815.86
289.918	8819.33
289.986	8823.37
290.053	8825.49
290.121	8821.25
290.188	8824.48
290.255	8859.09
290.323	8858.85
290.39	8852.16
290.458	8861.64
290.525	8874.73
290.592	8864.67
290.66	8866.88
290.727	8858.31
290.794	8864.52
290.862	8863.27
290.929	8869.34
290.996	8870.88
291.064	8878.15
291.131	8888.3
291.198	8899.91
291.266	8897.59
291.333	8902.07
291.4	8912.23
291.468	8929.8
291.535	8925.37
291.602	8921.33
291.669	8907.85
291.737	8909.87
291.804	8904.91
291.871	8922.87
291.938	8930.43
292.006	8964.85
292.073	8980.69
292.14	8997.58
292.207	9001.1
292.275	9000.86
292.342	9008.22
292.409	9033.93
292.476	9061.57
292.543	9056.56
292.611	9053.86
292.678	9067.44
292.745	9087.76
292.812	9099.94
292.879	9089.97
292.946	9096.9
293.014	9109.81
293.081	9119.77
293.148	9133.97
293.215	9152.07
293.282	9147.45
293.349	9153.81
293.416	9134.88
293.484	9152.31
293.551	9162.33
293.618	9172.53
293.685	9199.35
293.752	9194.63
293.819	9192.47
293.886	9174.94
293.953	9180.62
294.02	9198.77
294.087	9203.3
294.154	9198.44
294.221	9208.98
294.288	9219.62
294.356	9240.52
294.423	9247.74
294.49	9246.01
294.557	9254.72
294.624	9244.37
294.691	9266.91
294.758	9263.92
294.825	9268.59
294.892	9256.41
294.959	9257.47
295.026	9266.09
295.093	9260.98
295.16	9260.41
295.226	9262.28
295.293	9288.29
295.36	9291.7
295.427	9298.3
295.494	9307.69
295.561	9313.61
295.628	9331.1
295.695	9339.09
295.762	9340.54
295.829	9347.57
295.896	9358.98
295.963	9373.47
296.03	9387.58
296.096	9386.86
296.163	9402.27
296.23	9418.25
296.297	9429.66
296.364	9427.4
296.431	9431.35
296.498	9423.36
296.564	9449.55
296.631	9451.28
296.698	9436.55
296.765	9453.5
296.832	9445.75
296.899	9434.09
296.965	9449.45
297.032	9429.13
297.099	9445.02
297.166	9452.25
297.233	9453.79
297.299	9442.66
297.366	9438.67
297.433	9437.61
297.5	9443.24
297.566	9442.28
297.633	9441.03
297.7	9449.45
297.767	9447.29
297.833	9449.84
297.9	9452.39
297.967	9438.19
298.033	9451.86
298.1	9482.16
298.167	9475.08
298.234	9478.06
298.3	9493.33
298.367	9488.8
298.434	9498.63
298.5	9490.2
298.567	9486.97
298.634	9482.83
298.7	9508.01
298.767	9512.16
298.834	9531.8
298.9	9529.06
298.967	9526.55
299.033	9540.96
299.1	9566.96
299.167	9587.24
299.233	9590.61
299.3	9609.82
299.366	9625.28
299.433	9637.27
299.5	9611.07
299.566	9618.73
299.633	9639.58
299.699	9642.96
299.766	9640.98
299.832	9644.4
299.899	9655.62
299.965	9664.97
300.032	9666.36
300.099	9668
300.165	9674.6
300.232	9670.7
300.298	9673.49
300.365	9685.58
300.431	9680.86
300.498	9659.38
300.564	9660.29
300.631	9667.08
300.697	9675.13
300.763	9674.69
300.83	9673.63
300.896	9686.25
300.963	9695.98
301.029	9694.68
301.096	9702.82
301.162	9710.33
301.229	9707.25
301.295	9693.81
301.361	9691.64
301.428	9698.87
301.494	9688.37
301.561	9691.88
301.627	9692.27
301.693	9695.79
301.76	9699.88
301.826	9692.9
301.892	9701.9
301.959	9709.66
302.025	9706.29
302.092	9704.21
302.158	9711.2
302.224	9709.17
302.291	9706.19
302.357	9696.84
302.423	9689.81
302.49	9678.54
302.556	9691.93
302.622	9687.93
302.688	9702.14
302.755	9721.89
302.821	9722.76
302.887	9736.87
302.954	9730.7
303.02	9735.91
303.086	9737.83
303.152	9736.82
303.219	9738.27
303.285	9743.56
303.351	9748.43
303.417	9747.61
303.483	9736.48
303.55	9726.85
303.616	9727.09
303.682	9721.31
303.748	9717.12
303.815	9729.02
303.881	9735.04
303.947	9722.23
304.013	9723.96
304.079	9714.33
304.145	9694.34
304.212	9695.45
304.278	9686.49
304.344	9681
304.41	9665.59
304.476	9650.42
304.542	9643.29
304.608	9641.22
304.674	9622.49
304.741	9624.94
304.807	9630.58
304.873	9640.06
304.939	9660.49
305.005	9641.65
305.071	9641.27
305.137	9643.2
305.203	9620.8
305.269	9619.4
305.335	9629.42
305.401	9626.39
305.467	9616.85
305.533	9614.25
305.599	9616.71
305.666	9615.79
305.732	9614.73
305.798	9633.76
305.864	9665.16
305.93	9671.04
305.996	9678.21
306.062	9682.64
306.128	9670.6
306.194	9656.3
306.259	9650.57
306.325	9636.93
306.391	9650.52
306.457	9656.58
306.523	9664.19
306.589	9685.63
306.655	9676.28
306.721	9653.26
306.787	9642.91
306.853	9657.4
306.919	9649.03
306.985	9643.2
307.051	9642.86
307.117	9639.3
307.183	9627.98
307.248	9596.82
307.314	9599.32
307.38	9598.21
307.446	9600.62
307.512	9587.67
307.578	9589.69
307.644	9587.71
307.709	9586.17
307.775	9579.82
307.841	9577.17
307.907	9564.12
307.973	9540.71
308.039	9544.08
308.104	9558.33
308.17	9562.14
308.236	9552.99
308.302	9554.34
308.368	9542.35
308.433	9539.31
308.499	9531.8
308.565	9524.53
308.631	9530.11
308.696	9506.04
308.762	9495.83
308.828	9488.79
308.894	9476.52
308.959	9456.2
309.025	9442.66
309.091	9438.86
309.156	9426.82
309.222	9427.4
309.288	9425.23
309.354	9407.03
309.419	9403.95
309.485	9383.63
309.551	9387.05
309.616	9368.99
309.682	9366.1
309.748	9359.7
309.813	9352.09
309.879	9349.2
309.945	9332.01
310.01	9319.68
310.076	9322.47
310.141	9314.24
310.207	9301.67
310.273	9300.66
310.338	9306.1
310.404	9290.16
310.469	9277.84
310.535	9272.93
310.601	9243.79
310.666	9246.44
310.732	9260.94
310.797	9247.02
310.863	9241.34
310.928	9231.08
310.994	9240.04
311.059	9233.68
311.125	9232.86
311.191	9242.59
311.256	9231.95
311.322	9236.23
311.387	9221.84
311.453	9542.92
311.518	9519.09
311.584	9521.54
311.649	9527.37
311.715	9518.89
311.78	9526.31
311.846	9516.82
311.911	9517.64
311.976	9524.77
312.042	9505.12
312.107	9486.01
312.173	9472.05
312.238	9463.91
312.304	9455.2
312.369	9439.69
312.434	9426.88
312.5	9418.99
312.565	9382.3
312.631	9381.44
312.696	9371.37
312.761	9374.02
312.827	9035.76
312.892	9073.21
312.958	9060.99
313.023	9053.71
313.088	9046.83
313.154	9029.4
313.219	9016.94
313.284	9008.17
313.35	9007.84
313.415	8999.94
313.48	8998.5
313.546	9008.51
313.611	9017.61
313.676	9008.75
313.741	8999.94
313.807	9008.7
313.872	9015.49
313.937	9028.97
314.003	9042.79
314.068	9047.7
314.133	9049.77
314.198	9046.59
314.264	9017.12
314.329	9009.61
314.394	9010.34
314.459	9008.22
314.525	9023.67
314.59	9019.82
314.655	9006.77
314.72	9008.6
314.785	9010.82
314.851	9001.62
314.916	8982.22
314.981	8964.75
315.046	8960.61
315.111	8947.71
315.176	8936.69
315.242	8928.98
315.307	8922.34
315.372	8897.98
315.437	8889.27
315.502	8881.42
315.567	8885.51
315.632	8877.81
315.698	8880.6
315.763	8870.49
315.828	8859.33
315.893	8853.98
315.958	8852.35
316.023	8847.34
316.088	8824.81
316.153	8802.72
316.218	8791.41
316.283	8770.67
316.348	8754.98
316.413	8750.17
316.479	8740.74
316.544	8707.82
316.609	8673.36
316.674	8633.47
316.739	8599.16
316.804	8565.76
316.869	8527.99
316.934	8489.82
316.999	8451.66
317.064	8397.48
317.129	8351.77
317.194	8316.55
317.259	8265.36
317.324	8218.07
317.389	8169.91
317.454	8128.49
317.518	8088.13
317.583	8063.02
317.648	8038.97
317.713	8001.16
317.778	7937.42
317.843	7902.12
317.908	7859.7
317.973	7826.76
318.038	7802.86
318.103	7766.07
318.168	7730.53
318.233	7699.04
318.297	7649.61
318.362	7615.28
318.427	7578.98
318.492	7554.6
318.557	7511.29
318.622	7482.64
318.687	7452.83
318.751	7412.08
318.816	7378.38
318.881	7346.9
318.946	7293.88
319.011	7250.19
319.075	7205.79
319.14	7172.49
319.205	7127.03
319.27	7091.43
319.335	7044.2
319.399	7001.19
319.464	6970.59
319.529	6918.56
319.594	6874.22
319.658	6837.67
319.723	6794.58
319.788	6762.12
319.853	6704.81
319.917	6670.04
319.982	6619.56
320.047	6579.27
320.112	6550.27
320.176	6501.54
320.241	6467.2
320.306	6435.18
320.37	6396.43
320.435	6367.2
320.5	6337
320.564	6297.31
320.629	6257.72
320.694	6231.51
320.758	6188.66
320.823	6144.94
320.888	6115.43
320.952	6068.7
321.017	6030.42
321.082	5988.49
321.146	5955.05
321.211	5924.3
321.275	5882.09
321.34	5835.62
321.405	5792.84
321.469	5747.38
321.534	5701.65
321.598	5650.34
321.663	5622.85
321.727	5581.14
321.792	5530.71
321.857	5484.06
321.921	5445.42
321.986	5403.3
322.05	5337.41
322.115	5298.84
322.179	5250.87
322.244	5194.78
322.308	5160.38
322.373	5112.77
322.437	5072.77
322.502	5043.63
322.566	4994.15
322.631	4960.68
322.695	4919.22
322.76	4876.08
322.824	4839.49
322.889	4800.34
322.953	4754.35
323.018	4685.93
323.082	4626.36
323.146	4579.08
323.211	4530.04
323.275	4485.58
323.34	4439.52
323.404	4408.57
323.468	4363.36
323.533	4321.76
323.597	4277.64
323.662	4226.56
323.726	4190.94
323.79	4146.62
323.855	4079.32
323.919	4033.29
323.983	3987.25
324.048	3924.39
324.112	4039.56
324.177	3909.78
324.241	3705.89
324.305	3507.39
324.37	3309.28
324.434	3120.88
324.498	3075.23
324.562	3023.25
324.627	2961.82
324.691	2906.15
324.755	2839.06
324.82	2761.76
324.884	2683.73
324.948	2610.53
325.012	2516.09
325.077	2396.28
