Data from 20250630_urea_2M_MAYP1162681_19-52-26-630.txt Node
Date: Mon Jun 30 19:52:26 BST 2025
User: adleo
Spectrometer: MAYP116268
Trigger mode: 0
Integration Time (sec): 1.000000E0
Scans to average: 1
Electric dark correction enabled: true
Nonlinearity correction enabled: true
Boxcar width: 10
XAxis mode: Wavelengths
Number of Pixels in Spectrum: 2068
>>>>>Begin Spectral Data<<<<<
179.565	1129.81
179.642	1178.04
179.718	1218.77
179.795	1256.68
179.871	1288
179.948	1305.61
180.024	1322.86
180.101	1344.12
180.177	1359.62
180.254	1379.76
180.33	1402.41
180.407	1450.78
180.483	1540.42
180.56	1623.52
180.636	1702.37
180.712	1691.11
180.789	1700.47
180.865	1712.2
180.942	1718.09
181.018	1729.12
181.095	1742.81
181.171	1744.61
181.248	1745.28
181.324	1760.11
181.4	1766.09
181.477	1774.79
181.553	1785.58
181.63	1806.11
181.706	1820.18
181.782	1825.79
181.859	1824.83
181.935	1828.26
182.011	1825.64
182.088	1843.47
182.164	1863.25
182.24	1876.37
182.317	1887.3
182.393	1885.49
182.469	1896.95
182.546	1909.88
182.622	1915.11
182.698	1910.54
182.775	1925.57
182.851	1940.35
182.927	1932.88
183.003	1928.42
183.08	1922.1
183.156	1931.89
183.232	1930.65
183.308	1921.57
183.385	1929.27
183.461	1947.53
183.537	1950.1
183.613	1962.55
183.69	1951.62
183.766	1942.48
183.842	1949.05
183.918	1950.38
183.995	1963.5
184.071	1967.3
184.147	1962.6
184.223	1950.81
184.299	1961.46
184.375	1949.43
184.452	1957.14
184.528	2015.13
184.604	2024.93
184.68	2037.38
184.756	2044.99
184.832	2046.99
184.908	2050.08
184.985	2050.17
185.061	2034.39
185.137	2039.29
185.213	2026.88
185.289	2028.59
185.365	2018.51
185.441	2016.32
185.517	2031.26
185.593	2028.78
185.669	2025.08
185.745	2034.82
185.822	2049.37
185.898	2044.04
185.974	2055.31
186.05	2044.75
186.126	2002.78
186.202	1997.6
186.278	1992.51
186.354	1983.14
186.43	1989.8
186.506	1987.47
186.582	1988.23
186.658	1995.32
186.734	1977.97
186.81	1979.39
186.886	1985.95
186.962	2000.31
187.038	1997.93
187.114	1988.28
187.19	1998.55
187.266	1989.9
187.341	1992.42
187.417	1986.71
187.493	1986.14
187.569	1989
187.645	1985.53
187.721	1971.88
187.797	1977.01
187.873	1982.53
187.949	1977.3
188.025	1971.21
188.101	1975.82
188.176	1979.77
188.252	1976.44
188.328	1985.04
188.404	1987.7
188.48	1978.67
188.556	1968.92
188.632	1967.92
188.707	1968.3
188.783	1961.69
188.859	1957.41
188.935	1946.95
189.011	1956.08
189.086	1951.42
189.162	1942.48
189.238	1941.67
189.314	1941.82
189.39	1936.63
189.465	1930.21
189.541	1942.53
189.617	1929.46
189.693	1925.61
189.768	1929.98
189.844	1952.67
189.92	1944.02
189.996	1951.15
190.071	1964.94
190.147	1968.51
190.223	1976.93
190.298	1971.03
190.374	1957.86
190.45	1968.6
190.526	1975.93
190.601	1971.65
190.677	1970.79
190.753	1999.91
190.828	2003.52
190.904	2018.65
190.98	2033.01
191.055	2043.85
191.131	2040
191.207	2059.73
191.282	2069.81
191.358	2056.64
191.433	2041.99
191.509	2055.96
191.585	2050.68
191.66	2049.87
191.736	2054.39
191.811	2046.21
191.887	2061.96
191.963	2086.4
192.038	2090.73
192.114	2089.83
192.189	2092.11
192.265	2089.45
192.34	2067.84
192.416	2064.7
192.491	2057.04
192.567	2061.04
192.642	2063.75
192.718	2061
192.793	2050.39
192.869	2043.73
192.944	2048.96
193.02	2054.53
193.095	2055.29
193.171	2062.37
193.246	2061.71
193.322	2063.32
193.397	2060.76
193.473	2048.77
193.548	2030.79
193.624	2037.88
193.699	2036.54
193.775	2051.67
193.85	2052.43
193.925	2058
194.001	2060.04
194.076	2054.72
194.152	2044.87
194.227	2037.45
194.302	2028.84
194.378	2028.56
194.453	2025.09
194.529	2036.69
194.604	2022.86
194.679	2019.95
194.755	2002.98
194.83	2013.73
194.905	2008.55
194.981	2020.2
195.056	2009.22
195.131	2014.83
195.207	2009.98
195.282	2003.37
195.357	1984.48
195.433	2001.27
195.508	1990.76
195.583	1994.37
195.659	2008.41
195.734	2014.3
195.809	2012.64
195.884	2023.34
195.96	2026.66
196.035	2041.17
196.11	2039.03
196.185	2051.34
196.261	2052.06
196.336	2080.83
196.411	2066.32
196.486	2069.32
196.561	2062.56
196.637	2073.78
196.712	2089.01
196.787	2095.33
196.862	2108.65
196.937	2120.3
197.013	2121.4
197.088	2128.53
197.163	2152.42
197.238	2169.94
197.313	2171.03
197.388	2183.88
197.464	2211.24
197.539	2219.81
197.614	2214.62
197.689	2222.38
197.764	2237.75
197.839	2257.97
197.914	2251.16
197.989	2273.48
198.065	2287.61
198.14	2337.14
198.215	2362.79
198.29	2371.65
198.365	2384.45
198.44	2390.26
198.515	2417.35
198.59	2435.58
198.665	2461.9
198.74	2467.05
198.815	2467.86
198.89	2489.57
198.965	2519.48
199.04	2514.67
199.115	2530.62
199.19	2570.7
199.265	2577.42
199.34	2589.32
199.415	2620.96
199.49	2644.29
199.565	2654.67
199.64	2678.63
199.715	2674.77
199.79	2681.68
199.865	2692.44
199.94	2688.21
200.015	2723.7
200.09	2728.61
200.165	2733.99
200.24	2741.33
200.315	2780.95
200.39	2793.2
200.464	2801.15
200.539	2802.35
200.614	2817.78
200.689	2842.23
200.764	2851.33
200.839	2867.34
200.914	2871.87
200.989	2864.28
201.063	2875.15
201.138	2860.05
201.213	2861.44
201.288	2845.04
201.363	2853.29
201.438	2848.76
201.512	2865.24
201.587	2846.03
201.662	2847.65
201.737	2859.14
201.812	2870.58
201.886	2837.86
201.961	2848.02
202.036	2833.16
202.111	2832.63
202.186	2805.25
202.26	2788.9
202.335	2765.22
202.41	2758.31
202.485	2743.44
202.559	2725.15
202.634	2702.61
202.709	2709.8
202.784	2691.7
202.858	2687.84
202.933	2665.69
203.008	2661.93
203.082	2644.97
203.157	2646.12
203.232	2605.88
203.306	2583.97
203.381	2549.47
203.456	2528.85
203.53	2504.88
203.605	2488.46
203.68	2464.07
203.754	2458.6
203.829	2443.69
203.904	2426.27
203.978	2415.5
204.053	2417.93
204.127	2403.03
204.202	2399.03
204.277	2382.37
204.351	2374.04
204.426	2368.23
204.5	2361.19
204.575	2329.88
204.65	2339.59
204.724	2330.4
204.799	2337.58
204.873	2338.63
204.948	2337.53
205.022	2324.73
205.097	2318.02
205.171	2331.58
205.246	2336.77
205.32	2336.35
205.395	2333.39
205.469	2323.31
205.544	2330.79
205.618	2314.41
205.693	2325.55
205.767	2315.56
205.842	2333.79
205.916	2330.88
205.991	2319.99
206.065	2325.27
206.14	2337.68
206.214	2330.25
206.289	2325.54
206.363	2339.54
206.438	2336.73
206.512	2345.25
206.586	2364.38
206.661	2375.09
206.735	2353.25
206.81	2357.97
206.884	2374.77
206.958	2364.16
207.033	2379.24
207.107	2382.09
207.181	2411.9
207.256	2405.86
207.33	2424.8
207.405	2438
207.479	2455.71
207.553	2466.23
207.628	2451.24
207.702	2461.33
207.776	2458.66
207.851	2463.09
207.925	2475.9
207.999	2475.71
208.073	2472.52
208.148	2475.14
208.222	2461.86
208.296	2491.36
208.371	2502.89
208.445	2512.09
208.519	2539.46
208.593	2555.08
208.668	2553.31
208.742	2553.55
208.816	2556.5
208.89	2567.89
208.965	2566.94
209.039	2574.42
209.113	2589.04
209.187	2609.55
209.261	2606.74
209.336	2624.41
209.41	2643.18
209.484	2641.13
209.558	2661.19
209.632	2671.24
209.707	2684.1
209.781	2704.34
209.855	2720.4
209.929	2739.33
210.003	2745.29
210.077	2745.62
210.151	2789.83
210.226	2820.86
210.3	2850.05
210.374	2874.58
210.448	2882.4
210.522	2892.13
210.596	2902.71
210.67	2911.19
210.744	2955.15
210.818	2989.12
210.892	3008.05
210.966	3003.99
211.041	3023.06
211.115	3023.49
211.189	3051.38
211.263	3067.78
211.337	3077.69
211.411	3096.68
211.485	3096.58
211.559	3113.41
211.633	3120.7
211.707	3098.61
211.781	3112.4
211.855	3084.93
211.929	3086.55
212.003	3075.87
212.077	3098.34
212.151	3120.19
212.225	3145.62
212.299	3148.82
212.373	3152.58
212.447	3166.66
212.52	3212.75
212.594	3235.18
212.668	3268.33
212.742	3277.73
212.816	3299.21
212.89	3322.78
212.964	3350.09
213.038	3383.52
213.112	3429.31
213.186	3479.8
213.26	3496.55
213.333	3498.22
213.407	3545.7
213.481	3593.67
213.555	3651.56
213.629	3690.45
213.703	3730.5
213.777	3783.78
213.85	3829.47
213.924	3926.23
213.998	3992.97
214.072	4056.64
214.146	4119.05
214.219	4192.89
214.293	4274.09
214.367	4352.44
214.441	4446.6
214.515	4524
214.588	4592.73
214.662	4653.9
214.736	4737.82
214.81	4846.54
214.883	4961.76
214.957	5065.47
215.031	5165.99
215.105	5264.74
215.178	5373.78
215.252	5484.21
215.326	5589.45
215.4	5697.08
215.473	5779.65
215.547	5896.1
215.621	6014.6
215.694	6157.45
215.768	6275.72
215.842	6402.45
215.915	6541.28
215.989	6665.2
216.063	6802.3
216.136	6954.1
216.21	7106.91
216.284	7267.29
216.357	7428.93
216.431	7585.65
216.504	7753.8
216.578	7939.96
216.652	8111.19
216.725	8271.92
216.799	8448.69
216.873	8621.53
216.946	8799.71
217.02	8970.22
217.093	9139.23
217.167	9292.85
217.24	9446.31
217.314	9616.47
217.387	9779.27
217.461	9944.61
217.535	10133.52
217.608	10305.73
217.682	10482.83
217.755	10665.9
217.829	10828.66
217.902	11003.71
217.976	11166.77
218.049	11324.64
218.123	11477.61
218.196	11655.01
218.27	11816.99
218.343	11972.34
218.417	12135.54
218.49	12291.9
218.563	12466
218.637	12633.84
218.71	12818.07
218.784	12989.96
218.857	13161.52
218.931	13336.78
219.004	13503.67
219.077	13664.58
219.151	13825.97
219.224	13982.34
219.298	14141.13
219.371	14311.1
219.444	14444.58
219.518	14601.82
219.591	14757.66
219.665	14941.12
219.738	15091.85
219.811	15234.92
219.885	15386.42
219.958	15535.75
220.031	15688.74
220.105	15836.95
220.178	15969.94
220.251	16093.9
220.325	16230.01
220.398	16361.98
220.471	16498.24
220.544	16626.73
220.618	16747.65
220.691	16869.59
220.764	16985.98
220.838	17110.42
220.911	17222.08
220.984	17373.51
221.057	17496.64
221.131	17609.75
221.204	17682.33
221.277	17810.37
221.35	17942.28
221.424	18049.17
221.497	18155.23
221.57	18256.73
221.643	18358.55
221.716	18465.34
221.79	18566.64
221.863	18661.43
221.936	18751.79
222.009	18830.05
222.082	18931.01
222.155	19009.17
222.229	19107.29
222.302	19210.41
222.375	19293.93
222.448	19379.71
222.521	19449.87
222.594	19520.37
222.667	19590.15
222.74	19682.63
222.814	19743.83
222.887	19813.66
222.96	19895.97
223.033	19961.75
223.106	20034.62
223.179	20107.72
223.252	20175.14
223.325	20235.29
223.398	20291.38
223.471	20353.74
223.544	20422.32
223.617	20470.8
223.69	20535.28
223.763	20577.69
223.837	20616.49
223.91	20668.88
223.983	20701.94
224.056	20730.85
224.129	20784.54
224.202	20847.05
224.275	20882.14
224.348	20915.44
224.42	20942.72
224.493	20962.72
224.566	21007.59
224.639	21052.6
224.712	21079.31
224.785	21115.98
224.858	21165.82
224.931	21202.93
225.004	21228.48
225.077	21267.13
225.15	21276.43
225.223	21308.68
225.296	21360.4
225.369	21380.01
225.442	21385.55
225.514	21419.63
225.587	21448.36
225.66	21475.88
225.733	21497.66
225.806	21521.52
225.879	21542.97
225.952	21562.78
226.025	21596.42
226.097	21633.93
226.17	21651.81
226.243	21657.98
226.316	21667.62
226.389	21675.09
226.461	21699.43
226.534	21719.48
226.607	21726.86
226.68	21764.02
226.753	21771.06
226.825	21764.79
226.898	21794.92
226.971	21827.12
227.044	21842.59
227.117	21872.43
227.189	21896.1
227.262	21922.03
227.335	21947.43
227.407	21960.35
227.48	21982.67
227.553	21994.09
227.626	21994.58
227.698	22005.23
227.771	22027.79
227.844	22035.6
227.916	22048.52
227.989	22046.35
228.062	22054.2
228.134	22086.69
228.207	22097.4
228.28	22102.17
228.352	22107.62
228.425	22119.86
228.498	22130.51
228.57	22135.29
228.643	22153.46
228.716	22154.38
228.788	22148.49
228.861	22144.59
228.934	22153.99
229.006	22149.94
229.079	22156.16
229.151	22148.3
229.224	22138.71
229.296	22139.43
229.369	22157.94
229.442	22172.26
229.514	22169.85
229.587	22185.71
229.659	22159.29
229.732	22158.52
229.804	22176.84
229.877	22207.5
229.949	22216.47
230.022	22235.51
230.094	22235.27
230.167	22222.64
230.239	22209.72
230.312	22213.19
230.384	22237.78
230.457	22251.95
230.529	22260.19
230.602	22260.48
230.674	22263.86
230.747	22270.8
230.819	22281.31
230.892	22254.12
230.964	22249.3
231.037	22253.35
231.109	22246.36
231.181	22260
231.254	22246.16
231.326	22235.37
231.399	22210.97
231.471	22192.51
231.544	22164.64
231.616	22176.31
231.688	22172.5
231.761	22164.26
231.833	22147.63
231.905	22115.47
231.978	22096.14
232.05	22081.2
232.122	22072.81
232.195	22070.55
232.267	22072.18
232.339	22042.83
232.412	22045.82
232.484	22028.99
232.556	22009.42
232.629	22018.68
232.701	22018.29
232.773	22022.68
232.846	22008.89
232.918	22007.69
232.99	21997.42
233.062	21995.15
233.135	21970.81
233.207	21944.3
233.279	21941.89
233.351	21929.16
233.424	21913.88
233.496	21884.53
233.568	21886.41
233.64	21856.91
233.713	21827.65
233.785	21800.75
233.857	21790.82
233.929	21757.61
234.001	21761.66
234.074	21758.48
234.146	21728.74
234.218	21704.64
234.29	21673.36
234.362	21652.58
234.434	21622.55
234.507	21592.76
234.579	21555.46
234.651	21526.01
234.723	21512.94
234.795	21488.22
234.867	21472.31
234.939	21463.35
235.012	21453.27
235.084	21431.73
235.156	21416.83
235.228	21396.88
235.3	21363.48
235.372	21347.67
235.444	21343.72
235.516	21297.45
235.588	21279.52
235.66	21247.37
235.732	21204.52
235.804	21237.68
235.876	21212.23
235.948	21198.06
236.02	21175.94
236.092	21141.92
236.164	21123.17
236.236	21090.54
236.308	21053.67
236.38	21026.29
236.452	20981.04
236.524	20962.96
236.596	20952.26
236.668	20934.91
236.74	20903.97
236.812	20891.73
236.884	20875.06
236.956	20852.4
237.028	20814.14
237.1	20771.73
237.172	20753.08
237.244	20745.8
237.316	20672.1
237.388	20636.3
237.46	20590.85
237.532	20573.07
237.604	20540.73
237.675	20533.21
237.747	20525.79
237.819	20497.02
237.891	20479.23
237.963	20454.13
238.035	20411.81
238.107	20341.55
238.178	20316.2
238.25	20288.87
238.322	20275.72
238.394	20223.28
238.466	20185.36
238.538	20168.3
238.609	20140.06
238.681	20097.74
238.753	20058.9
238.825	20037.84
238.897	20012.73
238.968	20000.01
239.04	19960.01
239.112	19957.17
239.184	19899.68
239.255	19855.82
239.327	19830.72
239.399	19791.2
239.471	19763.01
239.542	19741.71
239.614	19733.76
239.686	19684.46
239.758	19667.49
239.829	19624.94
239.901	19610.63
239.973	19588.37
240.044	19562.2
240.116	19542.83
240.188	19507.36
240.259	19466.78
240.331	19419.7
240.403	19388.91
240.474	19349.15
240.546	19304.43
240.618	19255.18
240.689	19221.98
240.761	19195.62
240.833	19177.59
240.904	19136.59
240.976	19103.05
241.048	19066.08
241.119	19035.48
241.191	19009.27
241.262	18983.92
241.334	18941.32
241.405	18900.65
241.477	18855.74
241.549	18806.97
241.62	18758.92
241.692	18742.01
241.763	18729
241.835	18703.21
241.906	18673.14
241.978	18611.75
242.049	18591.65
242.121	18573.29
242.192	18558.02
242.264	18501.78
242.335	18449.01
242.407	18433.21
242.478	18400.53
242.55	18381.3
242.621	18336.39
242.693	18292.63
242.764	18253.26
242.836	18220.25
242.907	18189.99
242.979	18158.76
243.05	18118.47
243.122	18100.5
243.193	18053.22
243.264	17989.03
243.336	17943.06
243.407	17926.38
243.479	17920.7
243.55	17890.39
243.622	17849.37
243.693	17807.74
243.764	17796.22
243.836	17755.11
243.907	17708.22
243.978	17666.15
244.05	17624.42
244.121	17567.6
244.192	17542.63
244.264	17488.9
244.335	17457.96
244.407	17403.45
244.478	17376.66
244.549	17351.98
244.62	17302.25
244.692	17273.67
244.763	17253.23
244.834	17223.55
244.906	17174.68
244.977	17139.02
245.048	17118.34
245.119	17084.9
245.191	17044.12
245.262	16986.72
245.333	16967.54
245.405	16944.84
245.476	16914.19
245.547	16879.73
245.618	16867.34
245.689	16840.6
245.761	16815.1
245.832	16785.41
245.903	16772.64
245.974	16734.52
246.045	16696.88
246.117	16680.25
246.188	16629.11
246.259	16587.13
246.33	16554.75
246.401	16515.22
246.473	16471.7
246.544	16437.1
246.615	16397.92
246.686	16354.2
246.757	16344.13
246.828	16305.86
246.899	16274.82
246.97	16229.46
247.042	16187
247.113	16159.72
247.184	16147.58
247.255	16117.98
247.326	16081.21
247.397	16044.34
247.468	16016.48
247.539	15990.11
247.61	15940.85
247.681	15920.9
247.752	15908.13
247.823	15866.14
247.894	15839.73
247.965	15807.34
248.037	15771.05
248.108	15730.46
248.179	15704.19
248.25	15666.02
248.321	15643.84
248.392	15600.13
248.463	15593.19
248.534	15567.35
248.605	15540.89
248.675	15502.91
248.746	15471.05
248.817	15446.46
248.888	15418.94
248.959	15372.52
249.03	15353.48
249.101	15322.05
249.172	15289.57
249.243	15226.18
249.314	15213.84
249.385	15184.24
249.456	15157.1
249.527	15123.56
249.598	15116.28
249.669	15099.12
249.739	15076.46
249.81	15053.76
249.881	15016.35
249.952	14981.89
250.023	14949.49
250.094	14913.68
250.165	14872.8
250.235	14840.03
250.306	14804.98
250.377	14763.53
250.448	14747.14
250.519	14701.63
250.59	14688.47
250.66	14660.32
250.731	14654.15
250.802	14624.41
250.873	14599.2
250.944	14578.32
251.014	14546.22
251.085	14534.75
251.156	14508.62
251.227	14481
251.297	14460.99
251.368	14445.42
251.439	14428.12
251.51	14414.81
251.58	14368.73
251.651	14336.72
251.722	14323.8
251.792	14281.33
251.863	14257.95
251.934	14247.15
252.005	14240.12
252.075	14219.1
252.146	14197.36
252.217	14181.69
252.287	14165.69
252.358	14142.45
252.429	14125.19
252.499	14099.69
252.57	14067.59
252.641	14052.31
252.711	14029.31
252.782	13991.81
252.852	13987.37
252.923	13967.56
252.994	13945.43
253.064	13940.66
253.135	13913.23
253.205	13887.01
253.276	13890.48
253.347	13884.02
253.417	13849.79
253.488	13819.57
253.558	13787.65
253.629	13767.12
253.699	13745.86
253.77	13729.03
253.841	13700.64
253.911	13680.73
253.982	13656.39
254.052	13643.37
254.123	13618.26
254.193	13600.52
254.264	13608.23
254.334	13570.58
254.405	13527.87
254.475	13490.27
254.546	13463.27
254.616	13449.73
254.687	13425.48
254.757	13399.25
254.827	13368.45
254.898	13353.26
254.968	13332.68
255.039	13302.21
255.109	13298.5
255.18	13270.98
255.25	13222.82
255.321	13205.51
255.391	13172.97
255.461	13168.58
255.532	13120.62
255.602	13090.92
255.673	13051.11
255.743	13018.9
255.813	12976.24
255.884	12969.35
255.954	12954.26
256.024	12951.75
256.095	12932.86
256.165	12905.38
256.235	12891.74
256.306	12865.56
256.376	12848.98
256.446	12832.01
256.517	12822.42
256.587	12799.42
256.657	12785.64
256.728	12771.95
256.798	12758.26
256.868	12729.14
256.938	12697.03
257.009	12684.55
257.079	12674.14
257.149	12682.04
257.219	12639.86
257.29	12623.57
257.36	12588.91
257.43	12579.17
257.5	12537.28
257.571	12505.42
257.641	12490.72
257.711	12456.98
257.781	12445.74
257.852	12425.98
257.922	12391.23
257.992	12368.95
258.062	12347.94
258.132	12335.69
258.202	12306.43
258.273	12290.09
258.343	12284.5
258.413	12256.98
258.483	12231.48
258.553	12189.74
258.623	12151.37
258.693	12135.8
258.764	12130.88
258.834	12126.01
258.904	12110.1
258.974	12082.58
259.044	12068.17
259.114	12051.88
259.184	12038.81
259.254	12013.75
259.324	11972.49
259.394	11962.37
259.464	11958.51
259.535	11934.36
259.605	11904.96
259.675	11884.43
259.745	11862.01
259.815	11843.74
259.885	11819.6
259.955	11835.26
260.025	11820.51
260.095	11803.84
260.165	11801.33
260.235	11804.18
260.305	11772.94
260.375	11741.18
260.445	11747.78
260.515	11743.93
260.585	11737.95
260.655	11717.51
260.725	11706.67
260.795	11700.55
260.865	11698.81
260.934	11673.07
261.004	11660.3
261.074	11645.55
261.144	11646.76
261.214	11636.15
261.284	11606.56
261.354	11603.72
261.424	11571.61
261.494	11574.7
261.564	11556.63
261.634	11543.9
261.703	11503.66
261.773	11498.07
261.843	11486.21
261.913	11462.16
261.983	11424.09
262.053	11406.59
262.123	11386.35
262.192	11361.67
262.262	11354.97
262.332	11323.94
262.402	11310.78
262.472	11296.42
262.541	11258.83
262.611	11248.85
262.681	11229.62
262.751	11222.44
262.821	11196.71
262.89	11170.3
262.96	11152.51
263.03	11161.52
263.1	11144.03
263.169	11127.26
263.239	11108.75
263.309	11110.3
263.379	11099.74
263.448	11087.41
263.518	11072.51
263.588	11058.15
263.657	11058.11
263.727	11049.24
263.797	11034.78
263.867	11021.72
263.936	10989.63
264.006	10986.49
264.076	10971.03
264.145	10945.63
264.215	10927.75
264.285	10927.37
264.354	10897.01
264.424	10877.2
264.494	10838.94
264.563	10815.52
264.633	10818.22
264.702	10811.62
264.772	10779.43
264.842	10759
264.911	10746.32
264.981	10717.85
265.05	10702.76
265.12	10683.87
265.19	10669.18
265.259	10662.33
265.329	10648.7
265.398	10636.22
265.468	10641.86
265.537	10614.39
265.607	10607.31
265.676	10598.97
265.746	10589.43
265.815	10584.86
265.885	10571.56
265.955	10550.36
266.024	10529.3
266.094	10497.55
266.163	10493.79
266.232	10493.7
266.302	10478.95
266.371	10472.35
266.441	10460.21
266.51	10455.3
266.58	10437.57
266.649	10416.61
266.719	10410.58
266.788	10401.43
266.858	10407.69
266.927	10378.35
266.996	10374.83
267.066	10364.48
267.135	10337.35
267.205	10330.37
267.274	10322.71
267.343	10316.15
267.413	10306.42
267.482	10313.65
267.552	10313.31
267.621	10282.53
267.69	10248.08
267.76	10242.4
267.829	10230.93
267.898	10220.91
267.968	10199.86
268.037	10193.6
268.106	10188.92
268.176	10164.79
268.245	10145.66
268.314	10122.58
268.384	10116.42
268.453	10101.58
268.522	10092.04
268.592	10093
268.661	10064.87
268.73	10057.26
268.799	10036.31
268.869	10040.69
268.938	10005.14
269.007	9981.34
269.076	9966.46
269.146	9961.5
269.215	9944.78
269.284	9952.44
269.353	9929.95
269.422	9913.86
269.492	9892.28
269.561	9847.59
269.63	9839.73
269.699	9821.43
269.768	9811.75
269.838	9801.83
269.907	9801.78
269.976	9779.77
270.045	9749.47
270.114	9746.15
270.183	9724.28
270.253	9720.67
270.322	9690.09
270.391	9681.13
270.46	9685.03
270.529	9686.23
270.598	9688.59
270.667	9674.87
270.736	9645.92
270.806	9641.87
270.875	9643.32
270.944	9632.92
271.013	9654.2
271.082	9645.68
271.151	9639.27
271.22	9614.47
271.289	9604.45
271.358	9588.56
271.427	9585.76
271.496	9578.64
271.565	9565.3
271.634	9560.77
271.703	9556.97
271.772	9556.29
271.841	9547.38
271.91	9524.6
271.979	9515.84
272.048	9495.08
272.117	9499.03
272.186	9485.21
272.255	9480.63
272.324	9478.27
272.393	9474.09
272.462	9457.76
272.531	9448.27
272.6	9443.65
272.669	9444.66
272.738	9434.69
272.807	9424.39
272.876	9396.7
272.945	9422.41
273.013	9425.5
273.082	9422.9
273.151	9399.64
273.22	9397.37
273.289	9385.77
273.358	9391.5
273.427	9382.78
273.496	9381.87
273.564	9374.89
273.633	9374.26
273.702	9358.03
273.771	9344.31
273.84	9334.54
273.909	9331.12
273.977	9326.98
274.046	9311.47
274.115	9317.49
274.184	9296.02
274.253	9291.11
274.322	9303.14
274.39	9269.77
274.459	9251.43
274.528	9226.68
274.597	9222.35
274.665	9213.63
274.734	9216.38
274.803	9208.43
274.872	9193.74
274.94	9175.59
275.009	9226.6
275.078	9212.35
275.147	9207.83
275.215	9199.93
275.284	9203.93
275.353	9192.76
275.421	9167.29
275.49	9186.79
275.559	9171.96
275.627	9159.2
275.696	9144.33
275.765	9137.97
275.833	9133.06
275.902	9129.31
275.971	9136.62
276.039	9147.5
276.108	9153.23
276.177	9152.85
276.245	9138.36
276.314	9139.22
276.383	9144.66
276.451	9084.79
276.52	9090.72
276.588	9103.62
276.657	9108.53
276.725	9100.39
276.794	9100.68
276.863	9112.67
276.931	9079.93
277	9084.74
277.068	9097.21
277.137	9114.88
277.205	9114.01
277.274	9129.37
277.342	9138.61
277.411	9119.17
277.48	9104.68
277.548	9090.76
277.617	9088.02
277.685	9077.23
277.754	9078.87
277.822	9063.03
277.89	9075.7
277.959	9062.17
278.027	9044.74
278.096	9033.62
278.164	9051.24
278.233	9041.76
278.301	9027.08
278.37	9035.55
278.438	9027.41
278.507	9029.96
278.575	9000.55
278.643	8996.75
278.712	8975.28
278.78	8955.39
278.849	8968.2
278.917	8975.75
278.985	8976.52
279.054	8978.11
279.122	8994
279.191	8982.25
279.259	8983.46
279.327	8960.1
279.396	8976.66
279.464	8970.31
279.532	8975.12
279.601	8975.7
279.669	8974.07
279.737	8988.56
279.806	8988.94
279.874	8992.7
279.942	8993.85
280.011	8992.26
280.079	8994.67
280.147	9010.6
280.215	9014.84
280.284	9011.9
280.352	8995.92
280.42	8993.13
280.488	8982.87
280.557	8976.52
280.625	8984.51
280.693	8982.39
280.761	8980.47
280.83	8959.91
280.898	8968.58
280.966	8949.18
281.034	8920.87
281.102	8906.38
281.171	8898.39
281.239	8905.32
281.307	8900.03
281.375	8887.27
281.443	8912.54
281.512	8912.16
281.58	8920.25
281.648	8909.66
281.716	8908.16
281.784	8915.39
281.852	8915.82
281.92	8916.88
281.989	8923.95
282.057	8905.13
282.125	8948.56
282.193	8947.07
282.261	8947.5
282.329	8943.75
282.397	8950.3
282.465	8950.58
282.533	8964.35
282.601	8958.67
282.67	8939.85
282.738	8931.66
282.806	8941.72
282.874	8929.45
282.942	8927.38
283.01	8917.31
283.078	8922.37
283.146	8920.25
283.214	8921.02
283.282	8921.31
283.35	8930.94
283.418	8924.01
283.486	8930.36
283.554	8885.48
283.622	8888.76
283.69	8891.41
283.758	8885.34
283.826	8886.21
283.894	8894.87
283.962	8908.26
284.03	8913.12
284.098	8907
284.165	8899.74
284.233	8897.23
284.301	8888.67
284.369	8880.43
284.437	8873.55
284.505	8865.27
284.573	8875.81
284.641	8865.51
284.709	8869.41
284.777	8846.5
284.845	8855.21
284.912	8859.93
284.98	8866.47
285.048	8851.46
285.116	8852.66
285.184	8864.5
285.252	8865.51
285.319	8847.7
285.387	8836.15
285.455	8823.92
285.523	8837.55
285.591	8829.46
285.659	8827.63
285.726	8839.62
285.794	8830.28
285.862	8822.39
285.93	8823.83
285.997	8813.19
286.065	8810.21
286.133	8799.38
286.201	8804
286.269	8791.05
286.336	8780.17
286.404	8769.96
286.472	8790.18
286.539	8771.89
286.607	8758.08
286.675	8756.73
286.743	8758.94
286.81	8754.13
286.878	8767.94
286.946	8758.08
287.013	8762.89
287.081	8767.32
287.149	8748.59
287.216	8763.18
287.284	8759.66
287.352	8753.94
287.419	8752.88
287.487	8764.43
287.555	8768.14
287.622	8764.58
287.69	8761.16
287.758	8769.82
287.825	8766.5
287.893	8748.06
287.96	8751.34
288.028	8761.59
288.096	8762.65
288.163	8772.8
288.231	8767.17
288.298	8765.58
288.366	8776.03
288.433	8768.76
288.501	8755.38
288.569	8759.91
288.636	8754.27
288.704	8766.93
288.771	8779.3
288.839	8774.15
288.906	8768.14
288.974	8776.51
289.041	8776.85
289.109	8768.23
289.176	8780.37
289.244	8784.7
289.311	8797.79
289.379	8810.69
289.446	8814.39
289.514	8818.73
289.581	8817.19
289.649	8823.78
289.716	8818.97
289.783	8804.24
289.851	8831.24
289.918	8829.6
289.986	8839.42
290.053	8845.2
290.121	8845.1
290.188	8845.3
290.255	8869.17
290.323	8862.34
290.39	8854.83
290.458	8859.01
290.525	8879.86
290.592	8876.29
290.66	8884.57
290.727	8879.37
290.794	8888.57
290.862	8885.25
290.929	8882.7
290.996	8882.36
291.064	8890.59
291.131	8902.96
291.198	8923.03
291.266	8919.09
291.333	8925.87
291.4	8927.56
291.468	8941.66
291.535	8941.47
291.602	8947.83
291.669	8943.16
291.737	8954.32
291.804	8955.53
291.871	8973.29
291.938	8977.24
292.006	9003.09
292.073	9015.37
292.14	9024.18
292.207	9023.17
292.275	9023.99
292.342	9036.17
292.409	9063.32
292.476	9076.75
292.543	9068.47
292.611	9069.34
292.678	9087.59
292.745	9108.38
292.812	9117.77
292.879	9116.28
292.946	9116.13
293.014	9125.76
293.081	9131.4
293.148	9143.82
293.215	9156.29
293.282	9146.32
293.349	9158.65
293.416	9136.5
293.484	9149.11
293.551	9161.97
293.618	9175.21
293.685	9200.39
293.752	9191.63
293.819	9180.99
293.886	9168.71
293.953	9179.3
294.02	9188.64
294.087	9194.56
294.154	9184.74
294.221	9200.78
294.288	9196.44
294.356	9219.51
294.423	9222.97
294.49	9218.54
294.557	9227.84
294.624	9221.29
294.691	9244.59
294.758	9242.76
294.825	9252.05
294.892	9239.29
294.959	9237.46
295.026	9241.8
295.093	9236.21
295.16	9240.64
295.226	9252.15
295.293	9275.69
295.36	9280.51
295.427	9294.86
295.494	9299.72
295.561	9313.16
295.628	9337.82
295.695	9352.5
295.762	9348.46
295.829	9364.93
295.896	9379.13
295.963	9390.4
296.03	9406.19
296.096	9407.59
296.163	9418.62
296.23	9437.45
296.297	9448.81
296.364	9447.7
296.431	9452.56
296.498	9445.78
296.564	9471.97
296.631	9466.72
296.698	9459.02
296.765	9477.07
296.832	9465.81
296.899	9459.59
296.965	9476.88
297.032	9455.16
297.099	9476.25
297.166	9485.4
297.233	9474.13
297.299	9466.14
297.366	9463.49
297.433	9458.97
297.5	9466.86
297.566	9464.5
297.633	9456.56
297.7	9462.29
297.767	9459.83
297.833	9468.89
297.9	9471.53
297.967	9452.61
298.033	9468.89
298.1	9493.35
298.167	9484.83
298.234	9487.09
298.3	9491.28
298.367	9486.61
298.434	9494.46
298.5	9479.43
298.567	9473.46
298.634	9474.76
298.7	9494.65
298.767	9503.85
298.834	9522.63
298.9	9512.76
298.967	9507.32
299.033	9525.09
299.1	9542.23
299.167	9560.82
299.233	9552.68
299.3	9567.32
299.366	9584.08
299.433	9595.83
299.5	9570.21
299.566	9575.31
299.633	9594.63
299.699	9605.41
299.766	9598.29
299.832	9598.91
299.899	9607.05
299.965	9616.11
300.032	9617.45
300.099	9623.38
300.165	9623.23
300.232	9622.08
300.298	9626.46
300.365	9642.45
300.431	9639.85
300.498	9625.69
300.564	9631.37
300.631	9644.42
300.697	9657.14
300.763	9654.2
300.83	9649.96
300.896	9667.64
300.963	9678.91
301.029	9677.51
301.096	9683.39
301.162	9692.15
301.229	9687.38
301.295	9679.34
301.361	9688.2
301.428	9687.24
301.494	9677.75
301.561	9678.95
301.627	9676.16
301.693	9681.41
301.76	9682.42
301.826	9676.4
301.892	9688.2
301.959	9696.53
302.025	9691.91
302.092	9685.84
302.158	9691.91
302.224	9697.88
302.291	9690.85
302.357	9689.12
302.423	9685.26
302.49	9677.22
302.556	9699.04
302.622	9703.47
302.688	9714.31
302.755	9728.61
302.821	9746.14
302.887	9756.88
302.954	9756.16
303.02	9763.38
303.086	9776.48
303.152	9771.38
303.219	9762.52
303.285	9773.31
303.351	9780.53
303.417	9782.27
303.483	9774.51
303.55	9771.14
303.616	9766.47
303.682	9763.24
303.748	9750.58
303.815	9766.28
303.881	9774.37
303.947	9752.6
304.013	9752.31
304.079	9741.19
304.145	9719.22
304.212	9712.43
304.278	9694.42
304.344	9689.51
304.41	9676.36
304.476	9655.6
304.542	9652.23
304.608	9658.59
304.674	9639.42
304.741	9625.93
304.807	9629.69
304.873	9636.77
304.939	9656.37
305.005	9642.79
305.071	9642.79
305.137	9644.66
305.203	9614.61
305.269	9607.34
305.335	9621.79
305.401	9621.74
305.467	9620.34
305.533	9627.47
305.599	9631.9
305.666	9647.75
305.732	9649.29
305.798	9661.81
305.864	9694.95
305.93	9698.22
305.996	9700.05
306.062	9699.91
306.128	9699.62
306.194	9691.19
306.259	9686.9
306.325	9666.67
306.391	9672.94
306.457	9679.49
306.523	9684.45
306.589	9710.12
306.655	9701.45
306.721	9684.3
306.787	9669.8
306.853	9686.81
306.919	9667.54
306.985	9662.82
307.051	9654.3
307.117	9645.77
307.183	9637.06
307.248	9601.9
307.314	9606.09
307.38	9603.87
307.446	9605.65
307.512	9589.23
307.578	9586.29
307.644	9587.02
307.709	9591.45
307.775	9581.86
307.841	9575.22
307.907	9575.12
307.973	9554.99
308.039	9558.36
308.104	9560.53
308.17	9552.92
308.236	9535.29
308.302	9545.26
308.368	9527.97
308.433	9524.65
308.499	9517.91
308.565	9510.35
308.631	9516.8
308.696	9495.95
308.762	9484.68
308.828	9486.84
308.894	9474.66
308.959	9451.21
309.025	9438.26
309.091	9433.64
309.156	9431.18
309.222	9431.61
309.288	9412.45
309.354	9393.77
309.419	9396.9
309.485	9380.38
309.551	9394.73
309.616	9375.9
309.682	9368.39
309.748	9364.73
309.813	9357.31
309.879	9351.92
309.945	9339.84
310.01	9332.32
310.076	9330.4
310.141	9327.7
310.207	9305.65
310.273	9305.79
310.338	9315.61
310.404	9294.38
310.469	9284.94
310.535	9275.7
310.601	9256.87
310.666	9266.21
310.732	9274.39
310.797	9251.47
310.863	9246.27
310.928	9233.85
310.994	9239.24
311.059	9236.35
311.125	9232.07
311.191	9239.87
311.256	9230.62
311.322	9232.17
311.387	9208.96
311.453	9430.3
311.518	9407.91
311.584	9407.09
311.649	9410.61
311.715	9400.07
311.78	9403.53
311.846	9391.69
311.911	9395.73
311.976	9396.12
312.042	9379.65
312.107	9365.54
312.173	9361.69
312.238	9356.44
312.304	9352.54
312.369	9342.92
312.434	9325.25
312.5	9317.4
312.565	9286.15
312.631	9285.14
312.696	9279.8
312.761	9286.58
312.827	9057.68
312.892	9089.56
312.958	9084.55
313.023	9079.01
313.088	9070.11
313.154	9059.76
313.219	9048.73
313.284	9038
313.35	9031.02
313.415	9022.5
313.48	9016.24
313.546	9016.96
313.611	9025.14
313.676	9012.34
313.741	9007.28
313.807	9019.99
313.872	9026.15
313.937	9031.55
314.003	9042.96
314.068	9044.69
314.133	9044.59
314.198	9029.24
314.264	9008.19
314.329	9000.73
314.394	9000.49
314.459	8997.27
314.525	9008.68
314.59	9012.09
314.655	9001.07
314.72	9002.9
314.785	9004.34
314.851	9000.4
314.916	8982.3
314.981	8965.45
315.046	8956.88
315.111	8943.64
315.176	8926.07
315.242	8929.25
315.307	8931.32
315.372	8906.86
315.437	8891.41
315.502	8883.32
315.567	8896.94
315.632	8874.47
315.698	8877.55
315.763	8869.51
315.828	8867.48
315.893	8863.15
315.958	8848.66
316.023	8842.31
316.088	8829.99
316.153	8806.07
316.218	8794.37
316.283	8776.23
316.348	8755.39
316.413	8753.13
316.479	8739.27
316.544	8709.34
316.609	8671.41
316.674	8631.47
316.739	8604.09
316.804	8578.77
316.869	8543.26
316.934	8503.31
316.999	8477.62
317.064	8420.7
317.129	8377.29
317.194	8340.39
317.259	8292.41
317.324	8243.64
317.389	8192.16
317.454	8146.89
317.518	8111.39
317.583	8082.04
317.648	8051.26
317.713	8016.1
317.778	7952.46
317.843	7918.31
317.908	7875.89
317.973	7836.89
318.038	7801.83
318.103	7762.45
318.168	7725.51
318.233	7695.41
318.297	7648.28
318.362	7607.22
318.427	7570.11
318.492	7547.37
318.557	7497.18
318.622	7468.96
318.687	7442.14
318.751	7401.43
318.816	7370.86
318.881	7335.1
318.946	7283.86
319.011	7241.76
319.075	7197.31
319.14	7164.93
319.205	7119.8
319.27	7081.75
319.335	7035.63
319.399	6995.95
319.464	6961.21
319.529	6904.62
319.594	6861.91
319.658	6825.26
319.723	6782.46
319.788	6752.73
319.853	6693.36
319.917	6659.31
319.982	6605.52
320.047	6571.28
320.112	6545.59
320.176	6491.09
320.241	6454.55
320.306	6421.76
320.37	6380.91
320.435	6352.73
320.5	6324.64
320.564	6287.88
320.629	6252.22
320.694	6224.24
320.758	6184.36
320.823	6139.07
320.888	6112.06
320.952	6063.88
321.017	6022.76
321.082	5987.21
321.146	5950.03
321.211	5915.69
321.275	5880.19
321.34	5835.74
321.405	5787.88
321.469	5740.54
321.534	5700.65
321.598	5648.2
321.663	5613.53
321.727	5582.27
321.792	5528.14
321.857	5480.48
321.921	5440.99
321.986	5399.87
322.05	5339.97
322.115	5298.71
322.179	5256.83
322.244	5201.46
322.308	5164.85
322.373	5118.1
322.437	5075.8
322.502	5047.33
322.566	5001.3
322.631	4960.45
322.695	4918.03
322.76	4874.13
322.824	4836.07
322.889	4793.99
322.953	4751.07
323.018	4688.93
323.082	4623.47
323.146	4572.76
323.211	4520.36
323.275	4474.66
323.34	4426.59
323.404	4389.86
323.468	4349.05
323.533	4302.66
323.597	4259.45
323.662	4207.8
323.726	4171.55
323.79	4124.12
323.855	4059.27
323.919	4012.23
323.983	3969.58
324.048	3903.92
324.112	4046.12
324.177	3915.31
324.241	3710.18
324.305	3513.02
324.37	3316.87
324.434	3129.75
324.498	3090.48
324.562	3041.64
324.627	2982.02
324.691	2926.83
324.755	2864.5
324.82	2787.5
324.884	2715.13
324.948	2641.96
325.012	2550.74
325.077	2431.26
