Data from 20250630_urea_2M_MAYP1162681_07-52-27-169.txt Node
Date: Tue Jul 01 07:52:27 BST 2025
User: adleo
Spectrometer: MAYP116268
Trigger mode: 0
Integration Time (sec): 1.000000E0
Scans to average: 1
Electric dark correction enabled: true
Nonlinearity correction enabled: true
Boxcar width: 10
XAxis mode: Wavelengths
Number of Pixels in Spectrum: 2068
>>>>>Begin Spectral Data<<<<<
179.565	1084.85
179.642	1137.23
179.718	1174.79
179.795	1208.56
179.871	1238.68
179.948	1255.57
180.024	1274.34
180.101	1293.19
180.177	1304.8
180.254	1326.18
180.33	1344.85
180.407	1389.61
180.483	1473.65
180.56	1554.75
180.636	1630.57
180.712	1617.26
180.789	1624.1
180.865	1633.41
180.942	1642.63
181.018	1656.83
181.095	1667.66
181.171	1671.84
181.248	1670.75
181.324	1685.86
181.4	1691.04
181.477	1701.07
181.553	1712.66
181.63	1730.43
181.706	1746.68
181.782	1755.9
181.859	1755.33
181.935	1761.22
182.011	1757.47
182.088	1775.67
182.164	1795.45
182.24	1807.14
182.317	1817.21
182.393	1813.27
182.469	1828.62
182.546	1840.59
182.622	1844.63
182.698	1841.5
182.775	1851.38
182.851	1865.88
182.927	1856.75
183.003	1853.57
183.08	1847.49
183.156	1854.33
183.232	1851.53
183.308	1841.54
183.385	1849.67
183.461	1863.79
183.537	1864.6
183.613	1880.19
183.69	1871.11
183.766	1859.03
183.842	1865.78
183.918	1871.49
183.995	1885.32
184.071	1886.51
184.147	1878.9
184.223	1869.16
184.299	1879.67
184.375	1870.59
184.452	1875.63
184.528	1930.03
184.604	1940.29
184.68	1950.66
184.756	1958.64
184.832	1962.11
184.908	1965.11
184.985	1963.73
185.061	1950.61
185.137	1958.74
185.213	1945.24
185.289	1947.38
185.365	1938.58
185.441	1937.78
185.517	1947.91
185.593	1944.29
185.669	1942.63
185.745	1953.9
185.822	1967.54
185.898	1962.26
185.974	1970.29
186.05	1962.49
186.126	1924.54
186.202	1918.22
186.278	1913.56
186.354	1904.1
186.43	1909
186.506	1909.04
186.582	1906.19
186.658	1912.56
186.734	1896.45
186.81	1896.45
186.886	1899.2
186.962	1911.42
187.038	1909.42
187.114	1902.81
187.19	1912.27
187.266	1902.24
187.341	1902.58
187.417	1896.16
187.493	1893.5
187.569	1895.02
187.645	1888.98
187.721	1877.9
187.797	1883.27
187.873	1891.26
187.949	1885.27
188.025	1880.8
188.101	1882.8
188.176	1889.31
188.252	1883.56
188.328	1889.03
188.404	1891.02
188.48	1884.79
188.556	1878.66
188.632	1876.52
188.707	1877.81
188.783	1872.77
188.859	1869.3
188.935	1858.41
189.011	1863.88
189.086	1858.36
189.162	1854.08
189.238	1851.14
189.314	1849.24
189.39	1846.39
189.465	1835.93
189.541	1850.71
189.617	1836.93
189.693	1831.79
189.768	1834.36
189.844	1859.28
189.92	1852.06
189.996	1861.47
190.071	1871.5
190.147	1871.55
190.223	1879.87
190.298	1871.03
190.374	1860.14
190.45	1870.79
190.526	1879.96
190.601	1875.73
190.677	1880.96
190.753	1904.17
190.828	1909.78
190.904	1921.09
190.98	1934.41
191.055	1945.2
191.131	1938.64
191.207	1957.08
191.282	1966.59
191.358	1958.74
191.433	1944.66
191.509	1957.26
191.585	1952.03
191.66	1952.69
191.736	1958.87
191.811	1949.32
191.887	1964.96
191.963	1987.21
192.038	1992.82
192.114	1991.83
192.189	1994.01
192.265	1989.16
192.34	1969.28
192.416	1968.66
192.491	1965.33
192.567	1967.67
192.642	1971.85
192.718	1972.99
192.793	1960.63
192.869	1956.92
192.944	1958.4
193.02	1965.05
193.095	1968.86
193.171	1974.37
193.246	1975.37
193.322	1974.52
193.397	1975.89
193.473	1963.34
193.548	1945.17
193.624	1949.6
193.699	1952.59
193.775	1972.04
193.85	1972.85
193.925	1982.55
194.001	1979.13
194.076	1970.91
194.152	1961.39
194.227	1953.83
194.302	1943.52
194.378	1949.18
194.453	1944.28
194.529	1955.74
194.604	1942.05
194.679	1934.72
194.755	1917.04
194.83	1927.27
194.905	1924.32
194.981	1928.79
195.056	1922.61
195.131	1927.79
195.207	1927.36
195.282	1914.34
195.357	1893.56
195.433	1906.96
195.508	1894.84
195.583	1902.06
195.659	1916.99
195.734	1925.41
195.809	1922.7
195.884	1930.35
195.96	1931.45
196.035	1945.42
196.11	1940.86
196.185	1952.12
196.261	1955.64
196.336	1983.03
196.411	1969.52
196.486	1975.65
196.561	1974.56
196.637	1982.74
196.712	1999.19
196.787	1998.77
196.862	2012.55
196.937	2023.58
197.013	2029.82
197.088	2041.85
197.163	2061.11
197.238	2077.58
197.313	2077.25
197.388	2092.61
197.464	2122.68
197.539	2130.38
197.614	2124.63
197.689	2136.8
197.764	2153.94
197.839	2173.11
197.914	2169.39
197.989	2188.9
198.065	2200.03
198.14	2244.59
198.215	2268.33
198.29	2278.09
198.365	2290.27
198.44	2302.74
198.515	2327.53
198.59	2341.34
198.665	2365.8
198.74	2378.56
198.815	2381.04
198.89	2398.89
198.965	2425.46
199.04	2418.89
199.115	2436.07
199.19	2477.62
199.265	2479.15
199.34	2487.67
199.415	2519.92
199.49	2540.48
199.565	2552.48
199.64	2575
199.715	2574.67
199.79	2580.81
199.865	2585.77
199.94	2585.58
200.015	2614.73
200.09	2620.63
200.165	2627.3
200.24	2630.35
200.315	2667.64
200.39	2680.07
200.464	2686.31
200.539	2687.5
200.614	2706.03
200.689	2727.85
200.764	2735.09
200.839	2755.66
200.914	2757.42
200.989	2747.79
201.063	2761.71
201.138	2745.09
201.213	2747.24
201.288	2729.8
201.363	2737.09
201.438	2736.8
201.512	2753.52
201.587	2732.93
201.662	2736.51
201.737	2745.66
201.812	2754.52
201.886	2720.24
201.961	2728.43
202.036	2717.91
202.111	2715.24
202.186	2687.67
202.26	2667.52
202.335	2646.46
202.41	2637.12
202.485	2620.51
202.559	2599.98
202.634	2574.78
202.709	2582.87
202.784	2563.92
202.858	2560.44
202.933	2541.63
203.008	2535.82
203.082	2515.2
203.157	2517.25
203.232	2477.41
203.306	2458.03
203.381	2428.83
203.456	2406.07
203.53	2385.16
203.605	2369.74
203.68	2347.88
203.754	2340.89
203.829	2330.32
203.904	2311
203.978	2300
204.053	2307.67
204.127	2295.34
204.202	2293.68
204.277	2275.69
204.351	2267.93
204.426	2263.41
204.5	2256.08
204.575	2226.21
204.65	2236.49
204.724	2228.39
204.799	2235.81
204.873	2233.76
204.948	2230.39
205.022	2221.02
205.097	2211.45
205.171	2222.77
205.246	2230.34
205.32	2228.2
205.395	2228.06
205.469	2218.02
205.544	2225.5
205.618	2206.46
205.693	2219.93
205.767	2208.75
205.842	2228.59
205.916	2223.17
205.991	2215.89
206.065	2221.98
206.14	2235.48
206.214	2229.15
206.289	2222.87
206.363	2234.76
206.438	2235.86
206.512	2242
206.586	2258.31
206.661	2267.93
206.735	2248.33
206.81	2249.05
206.884	2264.89
206.958	2253.66
207.033	2270.45
207.107	2276.12
207.181	2307.06
207.256	2301.02
207.33	2318.57
207.405	2332.86
207.479	2353.38
207.553	2355.8
207.628	2339.63
207.702	2348.76
207.776	2348.05
207.851	2354.14
207.925	2366.14
207.999	2365.28
208.073	2365.19
208.148	2371.71
208.222	2362.76
208.296	2391.31
208.371	2405.93
208.445	2413.93
208.519	2442.25
208.593	2453.48
208.668	2449.06
208.742	2450.58
208.816	2453.06
208.89	2465.3
208.965	2463.25
209.039	2469.63
209.113	2491.15
209.187	2513.08
209.261	2513.75
209.336	2528.18
209.41	2546.13
209.484	2545.8
209.558	2561.37
209.632	2573.23
209.707	2581.27
209.781	2600.23
209.855	2613.09
209.929	2629.92
210.003	2637.82
210.077	2632.87
210.151	2677.06
210.226	2709.47
210.3	2737.51
210.374	2755.74
210.448	2759.51
210.522	2767.61
210.596	2774.23
210.67	2781.71
210.744	2823.13
210.818	2850.14
210.892	2871.73
210.966	2868.21
211.041	2885.36
211.115	2882.74
211.189	2907.05
211.263	2922.3
211.337	2925.01
211.411	2943.46
211.485	2937.22
211.559	2948.32
211.633	2952.8
211.707	2926.47
211.781	2932.19
211.855	2901.96
211.929	2897.39
212.003	2884.67
212.077	2896.5
212.151	2912.18
212.225	2922
212.299	2917.85
212.373	2914.66
212.447	2915.75
212.52	2947.94
212.594	2955.19
212.668	2979.78
212.742	2973.44
212.816	2978.35
212.89	2984.21
212.964	2988.32
213.038	3001.53
213.112	3025.52
213.186	3052.55
213.26	3047.21
213.333	3019.89
213.407	3037.15
213.481	3057.11
213.555	3083.08
213.629	3091.58
213.703	3093.2
213.777	3113.33
213.85	3114.67
213.924	3168.31
213.998	3192.27
214.072	3207.11
214.146	3223.57
214.219	3243.67
214.293	3270.19
214.367	3298.3
214.441	3334.99
214.515	3357.57
214.588	3370.7
214.662	3371.65
214.736	3388.97
214.81	3430.43
214.883	3480.76
214.957	3510.63
215.031	3538.5
215.105	3561.64
215.178	3591.05
215.252	3627.15
215.326	3649.21
215.4	3677.91
215.473	3677
215.547	3705.86
215.621	3743.33
215.694	3796.62
215.768	3828.02
215.842	3868.44
215.915	3905.53
215.989	3939.47
216.063	3983.46
216.136	4042.89
216.21	4103.02
216.284	4169.68
216.357	4230.36
216.431	4282.68
216.504	4351.61
216.578	4440.94
216.652	4516.6
216.725	4584.75
216.799	4663.01
216.873	4732.31
216.946	4808.79
217.02	4877.9
217.093	4947.04
217.167	5000.01
217.24	5061.05
217.314	5137.11
217.387	5202.29
217.461	5274.63
217.535	5364.58
217.608	5434.64
217.682	5507.13
217.755	5593.18
217.829	5662.57
217.902	5746.83
217.976	5830.75
218.049	5900.54
218.123	5962.68
218.196	6044.66
218.27	6116.88
218.343	6184.12
218.417	6269.17
218.49	6348.31
218.563	6442.49
218.637	6527.34
218.71	6632.6
218.784	6723.43
218.857	6812.52
218.931	6903.09
219.004	6991.76
219.077	7079.17
219.151	7167.44
219.224	7249.22
219.298	7333.92
219.371	7436.21
219.444	7503.41
219.518	7589.99
219.591	7681.38
219.665	7791.9
219.738	7876.38
219.811	7958.23
219.885	8053.12
219.958	8139.7
220.031	8222.19
220.105	8313.27
220.178	8400.31
220.251	8475.43
220.325	8563.45
220.398	8646.95
220.471	8734.43
220.544	8820.63
220.618	8895.44
220.691	8979.38
220.764	9067.48
220.838	9149.71
220.911	9228.77
220.984	9334.93
221.057	9415.63
221.131	9499.8
221.204	9550.28
221.277	9647.75
221.35	9757.08
221.424	9830.14
221.497	9913.9
221.57	9996.36
221.643	10080.61
221.716	10166.89
221.79	10237.56
221.863	10306.84
221.936	10379.15
222.009	10452.71
222.082	10537.17
222.155	10612.24
222.229	10703.59
222.302	10779.34
222.375	10858.7
222.448	10939.33
222.521	11010.79
222.594	11089.87
222.667	11152.03
222.74	11237.71
222.814	11303.79
222.887	11364.18
222.96	11448.66
223.033	11523.56
223.106	11600.05
223.179	11677.17
223.252	11743.54
223.325	11821.47
223.398	11897.24
223.471	11977.88
223.544	12049.84
223.617	12114.82
223.69	12181.57
223.763	12237.83
223.837	12305.6
223.91	12374.82
223.983	12419.41
224.056	12470.26
224.129	12536.78
224.202	12615.26
224.275	12669.05
224.348	12724.15
224.42	12778.19
224.493	12819.84
224.566	12876.29
224.639	12941.41
224.712	12988.85
224.785	13046.84
224.858	13100.49
224.931	13144.51
225.004	13194.93
225.077	13257.7
225.15	13294.48
225.223	13347.7
225.296	13423.86
225.369	13470.77
225.442	13517.24
225.514	13570.41
225.587	13637.66
225.66	13690.88
225.733	13746.85
225.806	13817.08
225.879	13868.04
225.952	13911.37
226.025	13989.66
226.097	14066.11
226.17	14110.03
226.243	14148.3
226.316	14204.66
226.389	14260.82
226.461	14332.02
226.534	14387.45
226.607	14440.09
226.68	14524.21
226.753	14583.12
226.825	14621.58
226.898	14684.68
226.971	14735.68
227.044	14796.33
227.117	14849.01
227.189	14911.53
227.262	14973.18
227.335	15018.49
227.407	15072.43
227.48	15129.7
227.553	15174.05
227.626	15207.06
227.698	15261.44
227.771	15317.06
227.844	15359.43
227.916	15410.72
227.989	15444.7
228.062	15485.48
228.134	15548.38
228.207	15585.88
228.28	15627.96
228.352	15667.53
228.425	15715.69
228.498	15770.25
228.57	15806.3
228.643	15861.73
228.716	15904.87
228.788	15933.36
228.861	15981.6
228.934	16039.59
229.006	16088.36
229.079	16123.93
229.151	16159.36
229.224	16195.17
229.296	16241.59
229.369	16303.66
229.442	16362.42
229.514	16397.79
229.587	16452.45
229.659	16477.7
229.732	16528.65
229.804	16581.9
229.877	16648.27
229.949	16693.43
230.022	16744.76
230.094	16789.24
230.167	16823.7
230.239	16848.04
230.312	16895.37
230.384	16955.13
230.457	16992.29
230.529	17035.61
230.602	17086.99
230.674	17141.69
230.747	17191.52
230.819	17240.78
230.892	17253.74
230.964	17286.7
231.037	17333.69
231.109	17376.1
231.181	17420.25
231.254	17438.8
231.326	17475.33
231.399	17497.31
231.471	17528.25
231.544	17539.96
231.616	17586.66
231.688	17618.66
231.761	17650.27
231.833	17670.95
231.905	17671.24
231.978	17700.15
232.05	17730.27
232.122	17758.85
232.195	17777.98
232.267	17816.63
232.339	17833.64
232.412	17877.93
232.484	17901.59
232.556	17914.02
232.629	17958.65
232.701	17984.09
232.773	18014.41
232.846	18035.13
232.918	18061.58
232.99	18082.64
233.062	18118.5
233.135	18147.75
233.207	18155.46
233.279	18184.33
233.351	18223.12
233.424	18241.96
233.496	18249.1
233.568	18279.36
233.64	18279.21
233.713	18294.2
233.785	18303.98
233.857	18326.68
233.929	18330.44
234.001	18359.26
234.074	18399.59
234.146	18388.22
234.218	18408.36
234.29	18422.58
234.362	18422.87
234.434	18422.05
234.507	18434.58
234.579	18431.88
234.651	18431.01
234.723	18453.62
234.795	18463.88
234.867	18460.02
234.939	18492.46
235.012	18519.68
235.084	18533.32
235.156	18553.95
235.228	18560.74
235.3	18565.37
235.372	18578.81
235.444	18598.09
235.516	18581.42
235.588	18588.79
235.66	18590.72
235.732	18596.35
235.804	18651.1
235.876	18670.66
235.948	18688.01
236.02	18679.14
236.092	18678.28
236.164	18680.11
236.236	18681.02
236.308	18682.18
236.38	18688.3
236.452	18678.71
236.524	18671.53
236.596	18682.28
236.668	18689.55
236.74	18684.01
236.812	18680.69
236.884	18674.81
236.956	18666.9
237.028	18654.13
237.1	18637.46
237.172	18653.8
237.244	18651.87
237.316	18603.78
237.388	18591.05
237.46	18576.5
237.532	18595.63
237.604	18585.85
237.675	18595.15
237.747	18591.53
237.819	18582.09
237.891	18582.43
237.963	18560.6
238.035	18549.75
238.107	18507.4
238.178	18517.03
238.25	18500.65
238.322	18518.86
238.394	18493.23
238.466	18481.23
238.538	18486.05
238.609	18480.79
238.681	18451.83
238.753	18434.1
238.825	18421.52
238.897	18405.47
238.968	18401.38
239.04	18373.14
239.112	18394.2
239.184	18360.99
239.255	18344.37
239.327	18328.8
239.399	18302.15
239.471	18295.07
239.542	18278.68
239.614	18278.49
239.686	18224.42
239.758	18222.2
239.829	18192.38
239.901	18194.5
239.973	18180.91
240.044	18166.64
240.116	18147.8
240.188	18129.78
240.259	18103.17
240.331	18081.78
240.403	18080.72
240.474	18048.72
240.546	18023.85
240.618	17980
240.689	17963.32
240.761	17952.77
240.833	17942.02
240.904	17917.45
240.976	17894.27
241.048	17877.16
241.119	17865.45
241.191	17851.91
241.262	17849.69
241.334	17826.75
241.405	17803.43
241.477	17771.19
241.549	17744.78
241.62	17727.72
241.692	17704.68
241.763	17696.2
241.835	17678.22
241.906	17644.39
241.978	17608.97
242.049	17600.25
242.121	17588.73
242.192	17577.89
242.264	17528.87
242.335	17493.45
242.407	17482.71
242.478	17458.61
242.55	17438.37
242.621	17397.84
242.693	17364.59
242.764	17335.43
242.836	17299.43
242.907	17270.75
242.979	17251.77
243.05	17223.48
243.122	17195.81
243.193	17171.14
243.264	17120.39
243.336	17085.11
243.407	17073.35
243.479	17074.36
243.55	17041.45
243.622	17015.86
243.693	16987.57
243.764	16980.29
243.836	16949.73
243.907	16912.77
243.978	16882.12
244.05	16849.34
244.121	16804.09
244.192	16800.18
244.264	16758.25
244.335	16738.01
244.407	16694.88
244.478	16666.39
244.549	16642.78
244.62	16601.91
244.692	16569.62
244.763	16556.02
244.834	16529.76
244.906	16487.73
244.977	16462.62
245.048	16451.49
245.119	16411.19
245.191	16367.38
245.262	16327.19
245.333	16313.79
245.405	16300.63
245.476	16281.98
245.547	16262.07
245.618	16248.34
245.689	16210.45
245.761	16180.42
245.832	16146.16
245.903	16126.06
245.974	16105.48
246.045	16066.87
246.117	16066.34
246.188	16025.32
246.259	15976.49
246.33	15944.39
246.401	15910.22
246.473	15863.13
246.544	15827.85
246.615	15812.52
246.686	15782.01
246.757	15757.38
246.828	15715.73
246.899	15685.66
246.97	15635.96
247.042	15592.78
247.113	15561.11
247.184	15543.37
247.255	15504.95
247.326	15475.84
247.397	15450.15
247.468	15412.17
247.539	15390.19
247.61	15336.3
247.681	15323.04
247.752	15318.42
247.823	15283.42
247.894	15262.69
247.965	15221.43
248.037	15189.52
248.108	15142.38
248.179	15118.47
248.25	15088.63
248.321	15068.39
248.392	15023.7
248.463	15022.93
248.534	14998.45
248.605	14990.44
248.675	14964.37
248.746	14944.36
248.817	14922.86
248.888	14901.12
248.959	14865.36
249.03	14844.48
249.101	14818.41
249.172	14786.83
249.243	14740.27
249.314	14724.99
249.385	14689.7
249.456	14672.54
249.527	14640.1
249.598	14621.78
249.669	14595.75
249.739	14576.66
249.81	14551.98
249.881	14524.6
249.952	14490.9
250.023	14461.84
250.094	14418.6
250.165	14384.52
250.235	14360.65
250.306	14337.03
250.377	14295.34
250.448	14271.57
250.519	14217.92
250.59	14207.26
250.66	14177.18
250.731	14163.11
250.802	14136.98
250.873	14117.6
250.944	14094.99
251.014	14062.84
251.085	14064
251.156	14041.68
251.227	14022.97
251.297	14002
251.368	13983.78
251.439	13970.67
251.51	13954.86
251.58	13914.51
251.651	13888.48
251.722	13874.79
251.792	13835.06
251.863	13810.38
251.934	13800.45
252.005	13809.42
252.075	13786.18
252.146	13770.85
252.217	13759.57
252.287	13743.91
252.358	13727.37
252.429	13719.75
252.499	13692.9
252.57	13656.8
252.641	13641.08
252.711	13616.64
252.782	13584.05
252.852	13579.04
252.923	13557.78
252.994	13540.47
253.064	13530.78
253.135	13491.16
253.205	13458.72
253.276	13458.86
253.347	13452.69
253.417	13419.86
253.488	13389.15
253.558	13357.48
253.629	13336.27
253.699	13313.23
253.77	13298.09
253.841	13265.89
253.911	13247.28
253.982	13225.83
254.052	13216.62
254.123	13188.95
254.193	13168.42
254.264	13178.83
254.334	13145.42
254.405	13107.48
254.475	13074.46
254.546	13050.36
254.616	13049.25
254.687	13031.75
254.757	13005.43
254.827	12979.21
254.898	12958.72
254.968	12936.21
255.039	12903.76
255.109	12885.21
255.18	12855.41
255.25	12805.38
255.321	12794.82
255.391	12759.29
255.461	12765.94
255.532	12718.03
255.602	12687.76
255.673	12644.32
255.743	12612.07
255.813	12566.04
255.884	12551.29
255.954	12538.27
256.024	12540.92
256.095	12514.6
256.165	12483.9
256.235	12467.94
256.306	12444.95
256.376	12435.98
256.446	12425.57
256.517	12409.81
256.587	12400.07
256.657	12387.49
256.728	12375.82
256.798	12347.38
256.868	12319.14
256.938	12281.25
257.009	12272.43
257.079	12269.97
257.149	12277.25
257.219	12238.97
257.29	12228.47
257.36	12189.86
257.43	12169.32
257.5	12123.34
257.571	12093.93
257.641	12077.93
257.711	12036.57
257.781	12013.1
257.852	11998.01
257.922	11957.91
257.992	11941.47
258.062	11912.55
258.132	11899.68
258.202	11879.29
258.273	11871.39
258.343	11867.92
258.413	11841.41
258.483	11818.56
258.553	11787.04
258.623	11757.06
258.693	11741.97
258.764	11736.48
258.834	11734.98
258.904	11723.75
258.974	11699.32
259.044	11688.9
259.114	11671.75
259.184	11661
259.254	11648.56
259.324	11603.69
259.394	11597.18
259.464	11593.18
259.535	11575.5
259.605	11543.25
259.675	11514.14
259.745	11493.99
259.815	11461.27
259.885	11438.76
259.955	11452.4
260.025	11427.25
260.095	11406.81
260.165	11385.75
260.235	11382.42
260.305	11354.08
260.375	11316.49
260.445	11320.54
260.515	11308.25
260.585	11302.9
260.655	11289.12
260.725	11280.44
260.795	11274.9
260.865	11268.44
260.934	11242.95
261.004	11229.12
261.074	11216.92
261.144	11219.57
261.214	11209.26
261.284	11197.4
261.354	11193.93
261.424	11161.79
261.494	11163.18
261.564	11144
261.634	11141.84
261.703	11105.79
261.773	11102.94
261.843	11104.25
261.913	11084.25
261.983	11053.98
262.053	11042.27
262.123	11016.78
262.192	10982.95
262.262	10974.62
262.332	10941.12
262.402	10932.11
262.472	10918.28
262.541	10880.79
262.611	10875.11
262.681	10852.07
262.751	10842.1
262.821	10821.86
262.89	10791.36
262.96	10779.55
263.03	10785.57
263.1	10770.39
263.169	10754.4
263.239	10731.85
263.309	10725.15
263.379	10720.91
263.448	10713.34
263.518	10696.23
263.588	10681.97
263.657	10686.26
263.727	10681.06
263.797	10672.77
263.867	10648.2
263.936	10621.21
264.006	10618.95
264.076	10594.13
264.145	10571.92
264.215	10550.34
264.285	10542.72
264.354	10510.06
264.424	10484.14
264.494	10453.54
264.563	10438.51
264.633	10446.07
264.702	10440.63
264.772	10410.85
264.842	10387.96
264.911	10375.78
264.981	10346.87
265.05	10335.26
265.12	10314.3
265.19	10299.22
265.259	10288.62
265.329	10283.61
265.398	10272.19
265.468	10282.07
265.537	10262.99
265.607	10254.94
265.676	10250.95
265.746	10236.35
265.815	10244.73
265.885	10231.24
265.955	10206.34
266.024	10182.88
266.094	10140.72
266.163	10139.76
266.232	10140.1
266.302	10122.66
266.371	10108.74
266.441	10099.34
266.51	10092.02
266.58	10072.99
266.649	10050.54
266.719	10052.62
266.788	10042.74
266.858	10040.81
266.927	10003.72
266.996	9999.87
267.066	9993.41
267.135	9963.6
267.205	9965.47
267.274	9951.7
267.343	9950.54
267.413	9941.68
267.482	9942.5
267.552	9945.24
267.621	9909.98
267.69	9875.59
267.76	9862.78
267.829	9850.16
267.898	9836.05
267.968	9816.98
268.037	9812.64
268.106	9808.5
268.176	9772.66
268.245	9757.34
268.314	9745.45
268.384	9748.77
268.453	9735.09
268.522	9724.98
268.592	9731.67
268.661	9704.79
268.73	9691.11
268.799	9666.84
268.869	9669.92
268.938	9641.51
269.007	9623.3
269.076	9616.51
269.146	9622.53
269.215	9616.71
269.284	9624.8
269.353	9613.77
269.422	9600.81
269.492	9581.31
269.561	9546.25
269.63	9546.25
269.699	9532.09
269.768	9515.19
269.838	9503.87
269.907	9494.53
269.976	9467.42
270.045	9432.65
270.114	9426.82
270.183	9412.52
270.253	9407.13
270.322	9376.6
270.391	9363.41
270.46	9365.48
270.529	9358.64
270.598	9348.77
270.667	9336.54
270.736	9310.19
270.806	9298.64
270.875	9298.93
270.944	9288.77
271.013	9304.22
271.082	9298.83
271.151	9292.23
271.22	9269.6
271.289	9260.65
271.358	9250.73
271.427	9243.31
271.496	9235.08
271.565	9217.85
271.634	9211.59
271.703	9211.87
271.772	9219.43
271.841	9211.92
271.91	9188.33
271.979	9179.86
272.048	9159.87
272.117	9154.82
272.186	9144.85
272.255	9148.27
272.324	9146.15
272.393	9136.67
272.462	9119.58
272.531	9106.24
272.6	9094.54
272.669	9103.3
272.738	9085.39
272.807	9080.05
272.876	9061.61
272.945	9089
273.013	9087.46
273.082	9085.49
273.151	9059.11
273.22	9051.45
273.289	9045.44
273.358	9048.9
273.427	9038.55
273.496	9035.66
273.564	9032.87
273.633	9028.3
273.702	9003.22
273.771	8992.67
273.84	8988.96
273.909	8987.28
273.977	8980.83
274.046	8970.38
274.115	8967.16
274.184	8952.24
274.253	8943.57
274.322	8954.35
274.39	8923.3
274.459	8911.51
274.528	8881.57
274.597	8881.61
274.665	8877.38
274.734	8884.79
274.803	8877.62
274.872	8877.62
274.94	8864.29
275.009	8913.46
275.078	8901.95
275.147	8903.35
275.215	8896.13
275.284	8900.8
275.353	8889.72
275.421	8867.05
275.49	8873.94
275.559	8858.68
275.627	8851.08
275.696	8845.97
275.765	8837.12
275.833	8830.38
275.902	8827.92
275.971	8840.15
276.039	8847.85
276.108	8846.69
276.177	8837.21
276.245	8832.21
276.314	8823.35
276.383	8826.67
276.451	8767.77
276.52	8771.1
276.588	8783.32
276.657	8788.18
276.725	8786.07
276.794	8786.64
276.863	8796.51
276.931	8776.68
277	8784.38
277.068	8795.83
277.137	8806.62
277.205	8806.28
277.274	8817.64
277.342	8831.07
277.411	8815.57
277.48	8798.44
277.548	8791.07
277.617	8795.21
277.685	8783.28
277.754	8787.51
277.822	8779.67
277.89	8790.02
277.959	8778.52
278.027	8759.07
278.096	8742.17
278.164	8759.99
278.233	8753.87
278.301	8740.3
278.37	8748.68
278.438	8733.08
278.507	8727.93
278.575	8699.78
278.643	8694.58
278.712	8676.34
278.78	8658.48
278.849	8669.55
278.917	8682.78
278.985	8674.22
279.054	8670.66
279.122	8683.94
279.191	8678.69
279.259	8678.74
279.327	8652.36
279.396	8671.81
279.464	8668.87
279.532	8675.13
279.601	8670.65
279.669	8668.24
279.737	8687.25
279.806	8689.08
279.874	8701.79
279.942	8702.51
280.011	8701.65
280.079	8707.18
280.147	8719.16
280.215	8724.7
280.284	8719.26
280.352	8710.07
280.42	8718.35
280.488	8713.48
280.557	8700.06
280.625	8701.55
280.693	8698.04
280.761	8704.63
280.83	8685.47
280.898	8692.07
280.966	8672.53
281.034	8638.79
281.102	8620.65
281.171	8611.6
281.239	8615.83
281.307	8607.22
281.375	8597.54
281.443	8618.05
281.512	8619.88
281.58	8628.64
281.648	8607.94
281.716	8605.83
281.784	8600.87
281.852	8591
281.92	8587.68
281.989	8601.69
282.057	8585.95
282.125	8624.65
282.193	8618.54
282.261	8617.91
282.329	8614.02
282.397	8622.29
282.465	8627.39
282.533	8642.02
282.601	8632.54
282.67	8611.61
282.738	8599.24
282.806	8610.11
282.874	8599.24
282.942	8597.89
283.01	8592.11
283.078	8601.59
283.146	8594.09
283.214	8601.83
283.282	8609.73
283.35	8617.33
283.418	8609.92
283.486	8616.37
283.554	8574.73
283.622	8573.14
283.69	8571.41
283.758	8563.76
283.826	8568.76
283.894	8579.21
283.962	8595.81
284.03	8615.21
284.098	8615.69
284.165	8619.54
284.233	8616.26
284.301	8608.56
284.369	8602.84
284.437	8594.37
284.505	8593.36
284.573	8610.73
284.641	8600.72
284.709	8603.61
284.777	8587.34
284.845	8596.68
284.912	8599.13
284.98	8606.59
285.048	8605.68
285.116	8612.7
285.184	8628.68
285.252	8622.71
285.319	8604.95
285.387	8594.46
285.455	8570.64
285.523	8579.3
285.591	8572.42
285.659	8574.15
285.726	8581.56
285.794	8566.21
285.862	8561.5
285.93	8557.07
285.997	8550.09
286.065	8543.64
286.133	8531.81
286.201	8530.12
286.269	8513.95
286.336	8501.97
286.404	8498.02
286.472	8505.58
286.539	8481.13
286.607	8467.95
286.675	8475.07
286.743	8483.1
286.81	8482.24
286.878	8495.52
286.946	8483.39
287.013	8481.76
287.081	8479.01
287.149	8472.47
287.216	8492.25
287.284	8487.92
287.352	8489.55
287.419	8486.47
287.487	8501.25
287.555	8503.32
287.622	8503.17
287.69	8504.47
287.758	8516.89
287.825	8510.49
287.893	8495.9
287.96	8504.04
288.028	8507.89
288.096	8502.3
288.163	8503.99
288.231	8491.86
288.298	8489.93
288.366	8500.38
288.433	8500.14
288.501	8492.49
288.569	8490.75
288.636	8479.92
288.704	8495.9
288.771	8504.52
288.839	8489.99
288.906	8486.66
288.974	8502.02
289.041	8494.85
289.109	8488.74
289.176	8498.75
289.244	8502.07
289.311	8515.35
289.379	8523.43
289.446	8527.91
289.514	8534.74
289.581	8537.15
289.649	8535.8
289.716	8534.99
289.783	8531.91
289.851	8553.08
289.918	8556.5
289.986	8564.77
290.053	8573.1
290.121	8568.38
290.188	8563.81
290.255	8601.44
290.323	8593.79
290.39	8585.42
290.458	8594.51
290.525	8606.88
290.592	8597.93
290.66	8598.89
290.727	8592.25
290.794	8609.62
290.862	8610.82
290.929	8610.68
290.996	8610.34
291.064	8626.95
291.131	8636.67
291.198	8646.53
291.266	8642.92
291.333	8649.28
291.4	8651.68
291.468	8665.98
291.535	8664.82
291.602	8673.2
291.669	8661.16
291.737	8667.23
291.804	8670.93
291.871	8693.12
291.938	8704.43
292.006	8726.91
292.073	8737.45
292.14	8749.48
292.207	8741.11
292.275	8744.14
292.342	8750.3
292.409	8778.99
292.476	8796.27
292.543	8796.23
292.611	8806.91
292.678	8827.18
292.745	8844.94
292.812	8860.53
292.879	8857.79
292.946	8862.99
293.014	8873.19
293.081	8888.26
293.148	8905.73
293.215	8919.16
293.282	8914.06
293.349	8919.11
293.416	8904.24
293.484	8918.82
293.551	8929.46
293.618	8947.71
293.685	8969.47
293.752	8964.75
293.819	8956.95
293.886	8948.04
293.953	8952.81
294.02	8954.25
294.087	8957.77
294.154	8952.18
294.221	8964.36
294.288	8961.86
294.356	8986.56
294.423	8996.81
294.49	8988.15
294.557	8993.3
294.624	8981.31
294.691	8998.83
294.758	9001.48
294.825	9006.92
294.892	9002.97
294.959	9006.2
295.026	9009.71
295.093	9005.14
295.16	9011.06
295.226	9006.25
295.293	9021.99
295.36	9023.58
295.427	9035.61
295.494	9043.7
295.561	9052.46
295.628	9076.16
295.695	9094.07
295.762	9087.33
295.829	9089.78
295.896	9101.53
295.963	9113.71
296.03	9126.99
296.096	9127.77
296.163	9133.35
296.23	9153.28
296.297	9164.84
296.364	9161.27
296.431	9167.77
296.498	9163.87
296.564	9186.65
296.631	9195.89
296.698	9187.32
296.765	9210.09
296.832	9201.81
296.899	9188.76
296.965	9205.28
297.032	9185.15
297.099	9201.66
297.166	9210.52
297.233	9215.19
297.299	9209.08
297.366	9208.12
297.433	9214.57
297.5	9224.25
297.566	9232.38
297.633	9230.17
297.7	9230.99
297.767	9232.96
297.833	9241.24
297.9	9237.78
297.967	9220.64
298.033	9230.46
298.1	9259.54
298.167	9252.18
298.234	9256.66
298.3	9264.65
298.367	9259.4
298.434	9263.83
298.5	9254.87
298.567	9252.32
298.634	9249.33
298.7	9268.55
298.767	9271.05
298.834	9278.61
298.9	9274.03
298.967	9267.29
299.033	9275.96
299.1	9290.65
299.167	9307.69
299.233	9304.18
299.3	9324.59
299.366	9343.42
299.433	9359.93
299.5	9336.77
299.566	9338.55
299.633	9359.79
299.699	9370.43
299.766	9371.97
299.832	9377.27
299.899	9388.78
299.965	9399.52
300.032	9394.03
300.099	9401.3
300.165	9405.73
300.232	9404.09
300.298	9403.32
300.365	9414.64
300.431	9413.53
300.498	9406.93
300.564	9408.18
300.631	9417.24
300.697	9435.39
300.763	9438.04
300.83	9434.29
300.896	9448.88
300.963	9456.53
301.029	9454.12
301.096	9460.58
301.162	9470.83
301.229	9467.22
301.295	9456.1
301.361	9461.54
301.428	9461.78
301.494	9444.97
301.561	9451.19
301.627	9455.33
301.693	9456.77
301.76	9455.76
301.826	9454.89
301.892	9463.85
301.959	9472.28
302.025	9467.32
302.092	9457.06
302.158	9461.25
302.224	9464.62
302.291	9455.57
302.357	9457.21
302.423	9448.68
302.49	9439.58
302.556	9448.92
302.622	9445.55
302.688	9455.47
302.755	9466.45
302.821	9485.09
302.887	9497.03
302.954	9493.27
303.02	9501.17
303.086	9510.8
303.152	9509.89
303.219	9504.35
303.285	9510.27
303.351	9517.69
303.417	9519.42
303.483	9511.67
303.55	9508.2
303.616	9503.05
303.682	9500.79
303.748	9494.91
303.815	9514.71
303.881	9524.39
303.947	9509.84
304.013	9515.04
304.079	9506.18
304.145	9485.04
304.212	9478.68
304.278	9471.03
304.344	9470.5
304.41	9452.25
304.476	9442.57
304.542	9441.65
304.608	9454.8
304.674	9443.67
304.741	9436.98
304.807	9441.75
304.873	9448.2
304.939	9460.82
305.005	9447.19
305.071	9446.52
305.137	9448.92
305.203	9425.33
305.269	9419.64
305.335	9436.69
305.401	9435.87
305.467	9435.97
305.533	9447.19
305.599	9449.21
305.666	9457.93
305.732	9451.23
305.798	9466.5
305.864	9486.15
305.93	9491.11
305.996	9483.5
306.062	9477.62
306.128	9476.76
306.194	9461.54
306.259	9456.39
306.325	9443.14
306.391	9451.33
306.457	9461.83
306.523	9464.43
306.589	9486.24
306.655	9480.75
306.721	9458.51
306.787	9438.72
306.853	9449.02
306.919	9428.36
306.985	9427.74
307.051	9424.61
307.117	9426.77
307.183	9418.3
307.248	9392.58
307.314	9395.38
307.38	9393.55
307.446	9403.47
307.512	9386.66
307.578	9391.96
307.644	9388.63
307.709	9391.09
307.775	9388.73
307.841	9378.04
307.907	9373.18
307.973	9348.23
308.039	9346.21
308.104	9351.55
308.17	9360.9
308.236	9340.04
308.302	9341.49
308.368	9323.39
308.433	9320.16
308.499	9313.03
308.565	9304.94
308.631	9310.77
308.696	9285.06
308.762	9277.3
308.828	9271.81
308.894	9254.87
308.959	9235.61
309.025	9221.21
309.091	9216.54
309.156	9203.88
309.222	9205.47
309.288	9192.47
309.354	9171.57
309.419	9168.93
309.485	9155.25
309.551	9153.33
309.616	9143.31
309.682	9141.05
309.748	9140.09
309.813	9126.32
309.879	9114.91
309.945	9098.97
310.01	9089
310.076	9093.29
310.141	9085.68
310.207	9069.79
310.273	9072.15
310.338	9077.35
310.404	9063.53
310.469	9052.03
310.535	9045.38
310.601	9025.5
310.666	9031.86
310.732	9043.22
310.797	9032.29
310.863	9027.42
310.928	9021.41
310.994	9023.28
311.059	9020.11
311.125	9018.95
311.191	9027.81
311.256	9015.29
311.322	9021.79
311.387	9004.41
311.453	9315.07
311.518	9292.01
311.584	9285.51
311.649	9292.64
311.715	9278.15
311.78	9277.09
311.846	9263.47
311.911	9269.49
311.976	9272.13
312.042	9254.37
312.107	9234.78
312.173	9232.51
312.238	9220.82
312.304	9208.93
312.369	9197.37
312.434	9186.93
312.5	9173.31
312.565	9145.87
312.631	9157.42
312.696	9147.36
312.761	9144.95
312.827	8819.57
312.892	8853.12
312.958	8849.89
313.023	8844.31
313.088	8842
313.154	8828.67
313.219	8827.95
313.284	8810.86
313.35	8804.41
313.415	8800.12
313.48	8802.1
313.546	8797.04
313.611	8802.48
313.676	8796.56
313.741	8791.17
313.807	8799.16
313.872	8806.91
313.937	8815.14
314.003	8818.22
314.068	8824.77
314.133	8833.91
314.198	8824.67
314.264	8804.93
314.329	8799.88
314.394	8792.32
314.459	8788.9
314.525	8816.97
314.59	8812.87
314.655	8806.43
314.72	8809.75
314.785	8806.38
314.851	8802.72
314.916	8786.93
314.981	8777.88
315.046	8771.53
315.111	8762.15
315.176	8748.48
315.242	8746.41
315.307	8745.3
315.372	8718.54
315.437	8702.7
315.502	8691.49
315.567	8700.54
315.632	8686.19
315.698	8682.2
315.763	8677.91
315.828	8667.76
315.893	8653.32
315.958	8642.92
316.023	8634.41
316.088	8617.32
316.153	8592.68
316.218	8587.2
316.283	8571.13
316.348	8547.84
316.413	8543.12
316.479	8530.18
316.544	8494.86
316.609	8465.27
316.674	8424.03
316.739	8395.12
316.804	8366.3
316.869	8335.02
316.934	8294.03
316.999	8264.2
317.064	8217.82
317.129	8170.68
317.194	8135.42
317.259	8085.29
317.324	8032.53
317.389	7990.54
317.454	7953.64
317.518	7920.99
317.583	7889.04
317.648	7861.44
317.713	7823.73
317.778	7762.51
317.843	7727.89
317.908	7693.75
317.973	7652.54
318.038	7629.46
318.103	7596.38
318.168	7566.04
318.233	7530.61
318.297	7487.15
318.362	7450.23
318.427	7408.99
318.492	7386.01
318.557	7343.58
318.622	7317.62
318.687	7297.96
318.751	7258.56
318.816	7224.1
318.881	7191.04
318.946	7136.06
319.011	7093.77
319.075	7056.1
319.14	7024.54
319.205	6987.26
319.27	6951.37
319.335	6907.27
319.399	6860.39
319.464	6828.63
319.529	6771.58
319.594	6731.08
319.658	6701.55
319.723	6660.44
319.788	6633.64
319.853	6579.71
319.917	6546.92
319.982	6495.4
320.047	6448.54
320.112	6418.1
320.176	6363.42
320.241	6329.53
320.306	6299.15
320.37	6259.74
320.435	6227.96
320.5	6197.3
320.564	6151.56
320.629	6110.25
320.694	6076.95
320.758	6036.89
320.823	5991.55
320.888	5965.46
320.952	5919.65
321.017	5874.8
321.082	5830.72
321.146	5793.54
321.211	5763.14
321.275	5722.28
321.34	5674.1
321.405	5635.41
321.469	5587.85
321.534	5548.69
321.598	5501.18
321.663	5472.51
321.727	5433.39
321.792	5382.92
321.857	5338.78
321.921	5301.5
321.986	5257.85
322.05	5205.68
322.115	5167.07
322.179	5122.66
322.244	5065.57
322.308	5034.44
322.373	4991.48
322.437	4950.63
322.502	4923.04
322.566	4878.21
322.631	4842.44
322.695	4807.41
322.76	4764.81
322.824	4732.01
322.889	4689.71
322.953	4640.09
323.018	4571.46
323.082	4514.67
323.146	4464.59
323.211	4414.6
323.275	4370.92
323.34	4325.83
323.404	4289.2
323.468	4245.25
323.533	4203.65
323.597	4162.98
323.662	4109.62
323.726	4072.38
323.79	4027.93
323.855	3963.23
323.919	3913.05
323.983	3866.88
324.048	3801.36
324.112	3938.45
324.177	3809.03
324.241	3611.02
324.305	3419.55
324.37	3230.38
324.434	3045.23
324.498	3004.75
324.562	2956
324.627	2898.32
324.691	2846.78
324.755	2784.28
324.82	2711.78
324.884	2637.66
324.948	2566.64
325.012	2475.27
325.077	2357.88
