Data from 20250630_urea_2M_MAYP1162681_04-02-27-290.txt Node
Date: Tue Jul 01 04:02:27 BST 2025
User: adleo
Spectrometer: MAYP116268
Trigger mode: 0
Integration Time (sec): 1.000000E0
Scans to average: 1
Electric dark correction enabled: true
Nonlinearity correction enabled: true
Boxcar width: 10
XAxis mode: Wavelengths
Number of Pixels in Spectrum: 2068
>>>>>Begin Spectral Data<<<<<
179.565	1061.1
179.642	1107.89
179.718	1147.56
179.795	1179.63
179.871	1209.49
179.948	1225.03
180.024	1242.96
180.101	1265.37
180.177	1279.19
180.254	1298.4
180.33	1317.5
180.407	1359.5
180.483	1445.73
180.56	1524.73
180.636	1597.32
180.712	1584.39
180.789	1593.13
180.865	1601.63
180.942	1612.6
181.018	1621.15
181.095	1632.7
181.171	1636.59
181.248	1635.6
181.324	1649.9
181.4	1657.5
181.477	1667.43
181.553	1679.54
181.63	1699.26
181.706	1710.72
181.782	1714.89
181.859	1715.65
181.935	1722.02
182.011	1717.84
182.088	1730.44
182.164	1747.26
182.24	1759.61
182.317	1768.21
182.393	1769.16
182.469	1784.23
182.546	1795.25
182.622	1800.1
182.698	1798.44
182.775	1809.13
182.851	1822.2
182.927	1814.88
183.003	1812.02
183.08	1805.7
183.156	1814.02
183.232	1809.46
183.308	1800.24
183.385	1810.41
183.461	1825.33
183.537	1825.76
183.613	1837.31
183.69	1828.56
183.766	1818.53
183.842	1825.04
183.918	1830.46
183.995	1842.82
184.071	1843.63
184.147	1838.3
184.223	1829.94
184.299	1837.12
184.375	1826.81
184.452	1833.08
184.528	1884.43
184.604	1891.66
184.68	1903.16
184.756	1908.53
184.832	1913
184.908	1917.04
184.985	1915.04
185.061	1901.31
185.137	1908.68
185.213	1901.17
185.289	1903.59
185.365	1897.13
185.441	1896.27
185.517	1907.02
185.593	1901.55
185.669	1899.51
185.745	1908.49
185.822	1922.32
185.898	1917.8
185.974	1924.07
186.05	1920.51
186.126	1881.33
186.202	1877.38
186.278	1872.53
186.354	1865.4
186.43	1872.2
186.506	1873.34
186.582	1874.86
186.658	1878.71
186.734	1861.32
186.81	1861.22
186.886	1862.36
186.962	1872.53
187.038	1872.68
187.114	1864.31
187.19	1870.63
187.266	1861.5
187.341	1862.69
187.417	1856.37
187.493	1856.37
187.569	1861.89
187.645	1853.23
187.721	1841.87
187.797	1848
187.873	1852.95
187.949	1846.44
188.025	1837.78
188.101	1837.26
188.176	1839.78
188.252	1835.22
188.328	1843.53
188.404	1845.15
188.48	1842.92
188.556	1838.83
188.632	1836.4
188.707	1838.97
188.783	1837.97
188.859	1836.07
188.935	1828.61
189.011	1837.35
189.086	1831.55
189.162	1823.62
189.238	1823.47
189.314	1823.38
189.39	1815.06
189.465	1807.41
189.541	1822.24
189.617	1808.98
189.693	1806.03
189.768	1809.93
189.844	1834.56
189.92	1823.59
189.996	1830.29
190.071	1837.51
190.147	1834.61
190.223	1841.75
190.298	1834.09
190.374	1823.25
190.45	1832.52
190.526	1837.04
190.601	1831.57
190.677	1831.76
190.753	1857.77
190.828	1860.29
190.904	1872.37
190.98	1889.63
191.055	1900.32
191.131	1890.96
191.207	1912.11
191.282	1919.76
191.358	1911.73
191.433	1897.93
191.509	1913.57
191.585	1910.33
191.66	1914.71
191.736	1923.64
191.811	1915.75
191.887	1930.97
191.963	1954.08
192.038	1958.74
192.114	1960.73
192.189	1963.3
192.265	1960.97
192.34	1938.71
192.416	1938
192.491	1936.1
192.567	1938.05
192.642	1941.71
192.718	1943.75
192.793	1933.58
192.869	1928.35
192.944	1929.78
193.02	1936.29
193.095	1938.19
193.171	1944.75
193.246	1941.19
193.322	1938.1
193.397	1939
193.473	1926.02
193.548	1905.57
193.624	1911.7
193.699	1910.47
193.775	1926.16
193.85	1925.88
193.925	1936.91
194.001	1935.01
194.076	1926.21
194.152	1915.08
194.227	1906.24
194.302	1896.69
194.378	1898.59
194.453	1898.26
194.529	1910.24
194.604	1898.49
194.679	1891.17
194.755	1873.78
194.83	1886.43
194.905	1885.15
194.981	1892.8
195.056	1886.38
195.131	1890.61
195.207	1889.76
195.282	1880.01
195.357	1862.47
195.433	1876.68
195.508	1863.7
195.583	1870.5
195.659	1884.81
195.734	1891.99
195.809	1891.23
195.884	1901.16
195.96	1902.4
196.035	1914.95
196.11	1912.24
196.185	1921.41
196.261	1926.69
196.336	1954.12
196.411	1941.56
196.486	1946.13
196.561	1940.28
196.637	1950.16
196.712	1966.62
196.787	1966.29
196.862	1979.45
196.937	1989.15
197.013	1995.86
197.088	2007.03
197.163	2029.91
197.238	2044.9
197.313	2047.09
197.388	2060.69
197.464	2088.48
197.539	2097.84
197.614	2091.04
197.689	2100.8
197.764	2117.92
197.839	2135.14
197.914	2129.62
197.989	2149.17
198.065	2162.64
198.14	2206.61
198.215	2229.02
198.29	2240.3
198.365	2253.72
198.44	2263.66
198.515	2288.12
198.59	2299.97
198.665	2321.86
198.74	2327.05
198.815	2328.1
198.89	2346.04
198.965	2373.99
199.04	2368.9
199.115	2382.89
199.19	2424.29
199.265	2426.39
199.34	2433.2
199.415	2464.15
199.49	2487.05
199.565	2493.71
199.64	2514.85
199.715	2513.38
199.79	2521.23
199.865	2524.85
199.94	2524.99
200.015	2552.47
200.09	2559.04
200.165	2563.14
200.24	2571.76
200.315	2608.75
200.39	2619.99
200.464	2625.89
200.539	2625.61
200.614	2641.03
200.689	2661.56
200.764	2669.43
200.839	2685.85
200.914	2689.23
200.989	2679.27
201.063	2687.85
201.138	2675.14
201.213	2675.47
201.288	2659.37
201.363	2661.42
201.438	2660.76
201.512	2675.09
201.587	2662.08
201.662	2664.8
201.737	2680.28
201.812	2688.86
201.886	2657.97
201.961	2669.88
202.036	2660.22
202.111	2657.5
202.186	2628.84
202.26	2613.36
202.335	2588.78
202.41	2583.16
202.485	2570.5
202.559	2553.35
202.634	2530.73
202.709	2538.39
202.784	2519.87
202.858	2518.16
202.933	2501.87
203.008	2500.26
203.082	2481.97
203.157	2479.45
203.232	2439.28
203.306	2419.18
203.381	2386.42
203.456	2363.14
203.53	2339.89
203.605	2324.33
203.68	2300.81
203.754	2295.58
203.829	2280.35
203.904	2265.74
203.978	2254.6
204.053	2257.79
204.127	2245.52
204.202	2242.95
204.277	2226.49
204.351	2221.44
204.426	2216.11
204.5	2208.02
204.575	2176.2
204.65	2182.81
204.724	2177.24
204.799	2185.18
204.873	2180.33
204.948	2180.8
205.022	2172.62
205.097	2163.87
205.171	2174.33
205.246	2183.14
205.32	2183.71
205.395	2185.71
205.469	2175.48
205.544	2181.19
205.618	2165.78
205.693	2176.2
205.767	2166.16
205.842	2186.43
205.916	2179.72
205.991	2171.44
206.065	2178.01
206.14	2187.52
206.214	2185.57
206.289	2178.43
206.363	2190.51
206.438	2191.61
206.512	2198.32
206.586	2218.49
206.661	2231.06
206.735	2210.08
206.81	2211.75
206.884	2225.49
206.958	2214.51
207.033	2231.63
207.107	2238.25
207.181	2267
207.256	2259.95
207.33	2278.6
207.405	2290.85
207.479	2310.83
207.553	2317.78
207.628	2304.74
207.702	2320.06
207.776	2314.26
207.851	2319.87
207.925	2332.63
207.999	2332.82
208.073	2330.25
208.148	2330.82
208.222	2317.78
208.296	2349.37
208.371	2363.04
208.445	2375.22
208.519	2402.07
208.593	2411.35
208.668	2409.68
208.742	2412.78
208.816	2416.68
208.89	2427.15
208.965	2424.25
209.039	2429.87
209.113	2447.77
209.187	2465.56
209.261	2461.14
209.336	2478.51
209.41	2494.94
209.484	2494.32
209.558	2513.61
209.632	2524.51
209.707	2533.08
209.781	2555.75
209.855	2570.42
209.929	2585.96
210.003	2588.53
210.077	2584.96
210.151	2629.53
210.226	2660.02
210.3	2683.43
210.374	2705.38
210.448	2710.72
210.522	2721.11
210.596	2731.68
210.67	2738.5
210.744	2781.24
210.818	2809.34
210.892	2828.5
210.966	2822.31
211.041	2840.79
211.115	2840.46
211.189	2865.76
211.263	2885.59
211.337	2889.59
211.411	2903.41
211.485	2905.13
211.559	2918.57
211.633	2923.95
211.707	2897.48
211.781	2905.4
211.855	2876.89
211.929	2875.22
212.003	2862.46
212.077	2875.52
212.151	2892.54
212.225	2907.8
212.299	2904.51
212.373	2902.7
212.447	2907.75
212.52	2944.65
212.594	2959.34
212.668	2978.74
212.742	2978.26
212.816	2982.6
212.89	2993.28
212.964	3001.15
213.038	3016.99
213.112	3046.28
213.186	3081.89
213.26	3084.28
213.333	3066.49
213.407	3092.23
213.481	3117.68
213.555	3154.14
213.629	3168.98
213.703	3181.91
213.777	3210.84
213.85	3226.3
213.924	3291.45
213.998	3325.44
214.072	3357.29
214.146	3380.16
214.219	3415.72
214.293	3454.43
214.367	3501.56
214.441	3559.72
214.515	3602.61
214.588	3627.68
214.662	3647.79
214.736	3680.65
214.81	3743.86
214.883	3803.87
214.957	3853.06
215.031	3900.91
215.105	3940.79
215.178	3990.68
215.252	4049.76
215.326	4091.31
215.4	4142.5
215.473	4172.21
215.547	4229.8
215.621	4287.56
215.694	4369.73
215.768	4427.95
215.842	4498.05
215.915	4564.44
215.989	4614.66
216.063	4685.14
216.136	4767.34
216.21	4853.27
216.284	4949.68
216.357	5032.73
216.431	5117.27
216.504	5217.26
216.578	5332.86
216.652	5440.94
216.725	5539.93
216.799	5641.4
216.873	5745.3
216.946	5849.83
217.02	5941.32
217.093	6036.55
217.167	6118.7
217.24	6199
217.314	6297.84
217.387	6387.01
217.461	6482.07
217.535	6599.26
217.608	6689.15
217.682	6792.4
217.755	6909.04
217.829	7001.05
217.902	7114.25
217.976	7220.14
218.049	7315.64
218.123	7402.51
218.196	7510.57
218.27	7612.07
218.343	7705.5
218.417	7813.76
218.49	7918.6
218.563	8039.65
218.637	8149.14
218.71	8281.78
218.784	8402.6
218.857	8521.06
218.931	8630.27
219.004	8745.92
219.077	8862.22
219.151	8979.8
219.224	9084.11
219.298	9185.99
219.371	9303.66
219.444	9389.31
219.518	9500.68
219.591	9608.78
219.665	9739.11
219.738	9845.84
219.811	9938.98
219.885	10052.85
219.958	10156.71
220.031	10251.12
220.105	10359.47
220.178	10454.52
220.251	10546.12
220.325	10644.75
220.398	10741.21
220.471	10851.12
220.544	10956.79
220.618	11042.29
220.691	11145.07
220.764	11247.72
220.838	11343.53
220.911	11437.94
220.984	11563.29
221.057	11665.81
221.131	11764.08
221.204	11830.16
221.277	11944.01
221.35	12069.86
221.424	12159.8
221.497	12248.4
221.57	12351.26
221.643	12438.75
221.716	12538.19
221.79	12617.39
221.863	12707.87
221.936	12793.86
222.009	12877.6
222.082	12958.87
222.155	13040.67
222.229	13139.45
222.302	13225.74
222.375	13306.63
222.448	13391.37
222.521	13459.97
222.594	13531.56
222.667	13601.65
222.74	13690.4
222.814	13744.53
222.887	13815.3
222.96	13897.97
223.033	13984.79
223.106	14059.03
223.179	14137.41
223.252	14216.32
223.325	14293.06
223.398	14360.36
223.471	14427.12
223.544	14497.26
223.617	14565.14
223.69	14634.6
223.763	14687.38
223.837	14756.07
223.91	14820.76
223.983	14865.4
224.056	14919.24
224.129	14987.84
224.202	15065.35
224.275	15127.15
224.348	15187.3
224.42	15230.35
224.493	15269.49
224.566	15317.93
224.639	15374.38
224.712	15427.73
224.785	15475.36
224.858	15528.71
224.931	15583.04
225.004	15638.23
225.077	15693.85
225.15	15726.43
225.223	15778.83
225.296	15849.34
225.369	15885.35
225.442	15927.52
225.514	15986.33
225.587	16046.05
225.66	16100.08
225.733	16149
225.806	16203.65
225.879	16258.02
225.952	16301.93
226.025	16371.52
226.097	16437.12
226.17	16490.04
226.243	16515.97
226.316	16564.74
226.389	16610.58
226.461	16652.41
226.534	16705.43
226.607	16751.74
226.68	16818.26
226.753	16862.55
226.825	16888.91
226.898	16956.38
226.971	17014.12
227.044	17072.58
227.117	17117.26
227.189	17167.38
227.262	17220.15
227.335	17264.39
227.407	17305.35
227.48	17358.9
227.553	17394.7
227.626	17426.32
227.698	17466.17
227.771	17514.8
227.844	17551.38
227.916	17591.72
227.989	17628.54
228.062	17657.5
228.134	17712.05
228.207	17750.03
228.28	17784.2
228.352	17822.36
228.425	17855.04
228.498	17901.4
228.57	17925.4
228.643	17973.97
228.716	18010.17
228.788	18030.84
228.861	18053.39
228.934	18095.37
229.006	18125.77
229.079	18154.16
229.151	18186.01
229.224	18209.1
229.296	18252.85
229.369	18316.13
229.442	18361.28
229.514	18388.12
229.587	18439.11
229.659	18464.84
229.732	18502.58
229.804	18543.73
229.877	18603.49
229.949	18638.18
230.022	18677.31
230.094	18704.44
230.167	18734.08
230.239	18748.54
230.312	18778.85
230.384	18828.63
230.457	18863.95
230.529	18893.88
230.602	18928.72
230.674	18956.09
230.747	19000.09
230.819	19034.83
230.892	19023.51
230.964	19062.06
231.037	19087.31
231.109	19104.13
231.181	19129.62
231.254	19142.1
231.326	19166.58
231.399	19170.39
231.471	19195.64
231.544	19204.75
231.616	19243.69
231.688	19258.34
231.761	19280.07
231.833	19298.19
231.905	19301.27
231.978	19310
232.05	19325.95
232.122	19345.37
232.195	19356.6
232.267	19381.56
232.339	19390.38
232.412	19421.51
232.484	19420.4
232.556	19450.28
232.629	19495.72
232.701	19512.44
232.773	19531.96
232.846	19536.15
232.918	19553.79
232.99	19567.48
233.062	19587.38
233.135	19603.71
233.207	19614.99
233.279	19628.92
233.351	19648.63
233.424	19653.21
233.496	19665.78
233.568	19697.35
233.64	19695.81
233.713	19709.01
233.785	19708.72
233.857	19717.3
233.929	19710.07
234.001	19734.65
234.074	19740.43
234.146	19720.77
234.218	19726.07
234.29	19729.01
234.362	19724.53
234.434	19704
234.507	19688.05
234.579	19671.28
234.651	19655.62
234.723	19651.23
234.795	19653.98
234.867	19652.82
234.939	19664.24
235.012	19657.25
235.084	19650.17
235.156	19658.65
235.228	19654.12
235.3	19644.72
235.372	19639.57
235.444	19654.17
235.516	19622.89
235.588	19617.35
235.66	19610.27
235.732	19597.35
235.804	19643.86
235.876	19654.94
235.948	19680.68
236.02	19678.46
236.092	19674.89
236.164	19666.94
236.236	19660.05
236.308	19645.01
236.38	19641.83
236.452	19629.88
236.524	19621.5
236.596	19628.39
236.668	19614.85
236.74	19598.66
236.812	19596.87
236.884	19592.68
236.956	19577.69
237.028	19563.96
237.1	19546.51
237.172	19548.68
237.244	19548.01
237.316	19491.14
237.388	19471.91
237.46	19437.89
237.532	19439.39
237.604	19408.79
237.675	19418.86
237.747	19415.15
237.819	19390.81
237.891	19363.01
237.963	19340.36
238.035	19323.83
238.107	19273.76
238.178	19272.26
238.25	19259.2
238.322	19257.37
238.394	19221.33
238.466	19205.09
238.538	19186.97
238.609	19169.91
238.681	19132.85
238.753	19100.66
238.825	19085.72
238.897	19069.92
238.968	19062.49
239.04	19027.6
239.112	19032.28
239.184	18992.76
239.255	18960.28
239.327	18946.89
239.399	18925.68
239.471	18910.84
239.542	18893.88
239.614	18886.31
239.686	18840.97
239.758	18826.85
239.829	18795.14
239.901	18790.46
239.973	18756.06
240.044	18737.31
240.116	18720.3
240.188	18690.37
240.259	18665.17
240.331	18635.53
240.403	18611.77
240.474	18577.27
240.546	18548.93
240.618	18513.27
240.689	18483.11
240.761	18465.95
240.833	18460.55
240.904	18433.28
240.976	18398.24
241.048	18367.74
241.119	18345.57
241.191	18321
241.262	18306.97
241.334	18268.56
241.405	18250.06
241.477	18223.55
241.549	18202.83
241.62	18174.5
241.692	18157.97
241.763	18136.14
241.835	18102.45
241.906	18075.66
241.978	18034.98
242.049	18021.44
242.121	17998.7
242.192	17979.61
242.264	17936.91
242.335	17887.66
242.407	17867.23
242.478	17837.64
242.55	17812.34
242.621	17769.3
242.693	17743.33
242.764	17711.76
242.836	17681.74
242.907	17642.46
242.979	17611.43
243.05	17582.75
243.122	17553.74
243.193	17526.76
243.264	17482.76
243.336	17455.67
243.407	17435.09
243.479	17423.43
243.55	17393.12
243.622	17364.88
243.693	17336.68
243.764	17322.95
243.836	17284.83
243.907	17252.25
243.978	17223.23
244.05	17192.2
244.121	17152.34
244.192	17128.68
244.264	17086.56
244.335	17063.33
244.407	17020.1
244.478	16999.95
244.549	16961.01
244.62	16922.89
244.692	16886.6
244.763	16863.8
244.834	16825.44
244.906	16790.35
244.977	16763.94
245.048	16737.58
245.119	16703.17
245.191	16666.35
245.262	16609.09
245.333	16596.9
245.405	16567.01
245.476	16545.42
245.547	16522.77
245.618	16503.35
245.689	16475.97
245.761	16443.68
245.832	16406.95
245.903	16379
245.974	16348.88
246.045	16323.52
246.117	16307.96
246.188	16261.73
246.259	16225.1
246.33	16202.74
246.401	16167.75
246.473	16122.73
246.544	16089.19
246.615	16066.87
246.686	16022.91
246.757	16011.25
246.828	15965.75
246.899	15950.08
246.97	15895.71
247.042	15858.21
247.113	15833.44
247.184	15817.39
247.255	15779.02
247.326	15751.45
247.397	15725.28
247.468	15701.28
247.539	15676.84
247.61	15635.82
247.681	15621.22
247.752	15597.89
247.823	15553.25
247.894	15518.98
247.965	15483.02
248.037	15447.31
248.108	15398.53
248.179	15376.5
248.25	15341.84
248.321	15318.56
248.392	15273.1
248.463	15271.13
248.534	15240.52
248.605	15216.13
248.675	15182.34
248.746	15156.07
248.817	15126.81
248.888	15100.93
248.959	15049.16
249.03	15018.79
249.101	14992.33
249.172	14960.32
249.243	14907.49
249.314	14896.64
249.385	14870.03
249.456	14848.77
249.527	14820.77
249.598	14808.67
249.669	14776.71
249.739	14766.06
249.81	14743.93
249.881	14703
249.952	14672.78
250.023	14651.23
250.094	14612.24
250.165	14562.92
250.235	14536.84
250.306	14505.66
250.377	14466.8
250.448	14447.23
250.519	14398.69
250.59	14377.43
250.66	14343.44
250.731	14346.58
250.802	14311.92
250.873	14289.45
250.944	14260.1
251.014	14227.8
251.085	14217.92
251.156	14200.37
251.227	14177.42
251.297	14165.18
251.368	14153.85
251.439	14135.63
251.51	14110.51
251.58	14079.71
251.651	14062.41
251.722	14046.02
251.792	14005.23
251.863	13981.18
251.934	13966.38
252.005	13973.32
252.075	13941.5
252.146	13928.97
252.217	13908.43
252.287	13896.24
252.358	13868.62
252.429	13865.63
252.499	13836.75
252.57	13819.25
252.641	13799.87
252.711	13766.9
252.782	13731.56
252.852	13720.43
252.923	13696.66
252.994	13671.35
253.064	13650.96
253.135	13617.32
253.205	13583.28
253.276	13583.86
253.347	13573.06
253.417	13541.82
253.488	13510.73
253.558	13490.82
253.629	13464.64
253.699	13436.88
253.77	13420.29
253.841	13397.16
253.911	13370.16
253.982	13349.96
254.052	13324.32
254.123	13306.58
254.193	13284.59
254.264	13290.28
254.334	13254.51
254.405	13215.08
254.475	13179.65
254.546	13161.86
254.616	13149.52
254.687	13135.97
254.757	13120.26
254.827	13099.77
254.898	13079.09
254.968	13053.69
255.039	13018.54
255.109	13008.23
255.18	12986.15
255.25	12941.22
255.321	12924.83
255.391	12887.76
255.461	12887.66
255.532	12840.66
255.602	12812.51
255.673	12772.16
255.743	12738.56
255.813	12698.94
255.884	12696.43
255.954	12688.82
256.024	12676.72
256.095	12650.73
256.165	12619.21
256.235	12602.05
256.306	12570.23
256.376	12559.58
256.446	12542.71
256.517	12533.69
256.587	12517.69
256.657	12493.59
256.728	12476.09
256.798	12455.46
256.868	12432.17
256.938	12401.37
257.009	12388.94
257.079	12375.44
257.149	12380.26
257.219	12337.02
257.29	12326.13
257.36	12282.65
257.43	12270.45
257.5	12233.62
257.571	12215.89
257.641	12207.74
257.711	12171.01
257.781	12157.75
257.852	12143.77
257.922	12102.85
257.992	12078.7
258.062	12054.65
258.132	12040.04
258.202	12017.63
258.273	11995.65
258.343	11990.44
258.413	11962.01
258.483	11940.07
258.553	11908.74
258.623	11882.91
258.693	11871.58
258.764	11868.4
258.834	11867.96
258.904	11840.73
258.974	11815.96
259.044	11793.79
259.114	11768.77
259.184	11753.68
259.254	11731.37
259.324	11688.52
259.394	11683.6
259.464	11687.84
259.535	11667.6
259.605	11649.57
259.675	11629.38
259.745	11612.99
259.815	11581.81
259.885	11557.23
259.955	11572.85
260.025	11547.93
260.095	11522.05
260.165	11513.03
260.235	11509.76
260.305	11481.51
260.375	11456.79
260.445	11456.11
260.515	11450.04
260.585	11449.27
260.655	11426.33
260.725	11416.06
260.795	11409.56
260.865	11413.8
260.934	11385.55
261.004	11373.36
261.074	11358.85
261.144	11353.17
261.214	11350.85
261.284	11336.78
261.354	11329.65
261.424	11298.46
261.494	11296.05
261.564	11284.78
261.634	11271.52
261.703	11228.68
261.773	11209.64
261.843	11200.68
261.913	11184.01
261.983	11160.05
262.053	11138.85
262.123	11121.69
262.192	11094.42
262.262	11088.3
262.332	11047.62
262.402	11032.93
262.472	11014.27
262.541	10973.94
262.611	10959.05
262.681	10931.68
262.751	10918.19
262.821	10901.51
262.89	10863.25
262.96	10857.76
263.03	10856.89
263.1	10843.78
263.169	10834.72
263.239	10829.95
263.309	10830.96
263.379	10811.35
263.448	10787.65
263.518	10778.92
263.588	10765.67
263.657	10772.27
263.727	10759.36
263.797	10746.88
263.867	10731.17
263.936	10701.63
264.006	10699.42
264.076	10686.7
264.145	10661.88
264.215	10646.95
264.285	10641.16
264.354	10616.06
264.424	10584.79
264.494	10555.49
264.563	10527.26
264.633	10525.19
264.702	10513.48
264.772	10480.33
264.842	10467.03
264.911	10457.1
264.981	10423.81
265.05	10405.21
265.12	10380.11
265.19	10367.39
265.259	10361.17
265.329	10342.77
265.398	10333.33
265.468	10338.87
265.537	10316.85
265.607	10313.67
265.676	10304.57
265.746	10292.09
265.815	10289.92
265.885	10277.54
265.955	10251.19
266.024	10239.34
266.094	10209.42
266.163	10205.8
266.232	10197.18
266.302	10188.22
266.371	10184.56
266.441	10177.91
266.51	10174.2
266.58	10160.91
266.649	10137.01
266.719	10132.72
266.788	10129.3
266.858	10133.3
266.927	10101.07
266.996	10095.34
267.066	10082.09
267.135	10052.61
267.205	10041.2
267.274	10034.31
267.343	10032.09
267.413	10021.88
267.482	10019.14
267.552	10017.21
267.621	9991.24
267.69	9964.61
267.76	9949.82
267.829	9931.08
267.898	9915.33
267.968	9895
268.037	9887.68
268.106	9895.05
268.176	9872.03
268.245	9857.67
268.314	9836
268.384	9841.97
268.453	9823.23
268.522	9815.57
268.592	9820.87
268.661	9796.79
268.73	9781.67
268.799	9758.88
268.869	9763.51
268.938	9728.73
269.007	9711.35
269.076	9696.37
269.146	9698.2
269.215	9693.33
269.284	9702.1
269.353	9688.52
269.422	9675.95
269.492	9659.33
269.561	9613.53
269.63	9607.75
269.699	9590.51
269.768	9576.78
269.838	9562.86
269.907	9562.14
269.976	9541.82
270.045	9508.3
270.114	9509.94
270.183	9496.51
270.253	9490.44
270.322	9460.97
270.391	9451.92
270.46	9455.53
270.529	9453.89
270.598	9455.05
270.667	9433.62
270.736	9406.02
270.806	9392.44
270.875	9394.75
270.944	9375.25
271.013	9393.41
271.082	9386.52
271.151	9380.89
271.22	9353.73
271.289	9341.88
271.358	9329.27
271.427	9324.4
271.496	9319.59
271.565	9300.76
271.634	9289.01
271.703	9291.04
271.772	9288.58
271.841	9281.31
271.91	9255.74
271.979	9241.68
272.048	9215.2
272.117	9215.87
272.186	9200.32
272.255	9202.39
272.324	9192.18
272.393	9188.81
272.462	9169.84
272.531	9154.87
272.6	9137.72
272.669	9141
272.738	9130.31
272.807	9122.03
272.876	9105.08
272.945	9127.42
273.013	9130.84
273.082	9137
273.151	9116.06
273.22	9117.16
273.289	9108.45
273.358	9117.36
273.427	9111.92
273.496	9108.93
273.564	9106.29
273.633	9109.99
273.702	9093.72
273.771	9085.2
273.84	9080.63
273.909	9074.75
273.977	9069.7
274.046	9059.78
274.115	9068.35
274.184	9047.99
274.253	9040.96
274.322	9042.88
274.39	9013.56
274.459	8993.63
274.528	8962.73
274.597	8957.82
274.665	8948.34
274.734	8954.5
274.803	8935.05
274.872	8926.09
274.94	8913.05
275.009	8958.75
275.078	8940.75
275.147	8937.14
275.215	8933.24
275.284	8939.5
275.353	8930.21
275.421	8910.28
275.49	8925.2
275.559	8908.5
275.627	8902.77
275.696	8895.65
275.765	8893.53
275.833	8883.42
275.902	8880.78
275.971	8898.2
276.039	8906.91
276.108	8912.79
276.177	8908.31
276.245	8907.49
276.314	8902.05
276.383	8904.89
276.451	8845.99
276.52	8852.73
276.588	8863.28
276.657	8865.78
276.725	8852.54
276.794	8854.23
276.863	8864.24
276.931	8841.85
277	8850.08
277.068	8862.65
277.137	8871.65
277.205	8860.91
277.274	8880.98
277.342	8894.03
277.411	8873.57
277.48	8859.86
277.548	8849.26
277.617	8847.97
277.685	8840.12
277.754	8842.04
277.822	8831.84
277.89	8846.77
277.959	8839.83
278.027	8819.67
278.096	8809.99
278.164	8830.16
278.233	8821.45
278.301	8809.8
278.37	8815.19
278.438	8807.2
278.507	8803.3
278.575	8781.79
278.643	8785.73
278.712	8764.51
278.78	8750.55
278.849	8758.06
278.917	8761.86
278.985	8753.63
279.054	8753.97
279.122	8762.53
279.191	8763.59
279.259	8762.34
279.327	8732.01
279.396	8744.29
279.464	8743.08
279.532	8742.17
279.601	8740.68
279.669	8736.35
279.737	8747.22
279.806	8744
279.874	8749.97
279.942	8747.08
280.011	8739.48
280.079	8745.16
280.147	8757.19
280.215	8760.37
280.284	8759.02
280.352	8751.41
280.42	8760.17
280.488	8752.04
280.557	8739.86
280.625	8734.9
280.693	8736.78
280.761	8745.64
280.83	8727.68
280.898	8736.3
280.966	8724.84
281.034	8697.26
281.102	8686.96
281.171	8679.65
281.239	8692.21
281.307	8684.8
281.375	8673.06
281.443	8703.38
281.512	8698.13
281.58	8710.26
281.648	8690.19
281.716	8687.88
281.784	8688.17
281.852	8677.82
281.92	8679.22
281.989	8689.18
282.057	8679.17
282.125	8721.15
282.193	8715.91
282.261	8715.33
282.329	8707.34
282.397	8712.01
282.465	8713.93
282.533	8728.37
282.601	8719.85
282.67	8698.96
282.738	8686.93
282.806	8697.81
282.874	8678.41
282.942	8681.01
283.01	8671.91
283.078	8679.75
283.146	8676
283.214	8677.11
283.282	8682.59
283.35	8690.73
283.418	8688.71
283.486	8690.15
283.554	8647.21
283.622	8648.94
283.69	8651.92
283.758	8649.52
283.826	8652.6
283.894	8663.71
283.962	8678.64
284.03	8690.43
284.098	8692.55
284.165	8688.55
284.233	8686.77
284.301	8681.86
284.369	8669.25
284.437	8661.84
284.505	8657.41
284.573	8669.59
284.641	8663.28
284.709	8671.95
284.777	8658.33
284.845	8660.93
284.912	8661.36
284.98	8657.89
285.048	8650.96
285.116	8660.93
285.184	8668.87
285.252	8661.94
285.319	8643.65
285.387	8633.11
285.455	8620.21
285.523	8622.09
285.591	8621.22
285.659	8614.24
285.726	8630.85
285.794	8620.74
285.862	8620.12
285.93	8619.87
285.997	8614.97
286.065	8610.97
286.133	8597.78
286.201	8590.52
286.269	8571.07
286.336	8565.78
286.404	8566.12
286.472	8576.7
286.539	8547.49
286.607	8535.17
286.675	8537.58
286.743	8540.56
286.81	8530.6
286.878	8537.92
286.946	8532.19
287.013	8530.65
287.081	8536.86
287.149	8525.79
287.216	8543.3
287.284	8533.87
287.352	8538.54
287.419	8535.07
287.487	8548.74
287.555	8546.53
287.622	8548.84
287.69	8558.46
287.758	8569.92
287.825	8565.78
287.893	8551.24
287.96	8561.78
288.028	8574.87
288.096	8574.87
288.163	8579.78
288.231	8572.18
288.298	8572.27
288.366	8584.21
288.433	8585.22
288.501	8577.09
288.569	8576.22
288.636	8571.55
288.704	8582
288.771	8590.03
288.839	8582.14
288.906	8575.31
288.974	8585.89
289.041	8581.18
289.109	8573.24
289.176	8580.8
289.244	8584.89
289.311	8596.82
289.379	8603.65
289.446	8600.38
289.514	8604.28
289.581	8601.63
289.649	8607.17
289.716	8611.16
289.783	8606.49
289.851	8622.23
289.918	8626.22
289.986	8634.31
290.053	8646.68
290.121	8642.54
290.188	8639.7
290.255	8667.13
290.323	8663.67
290.39	8655.78
290.458	8669.15
290.525	8680.56
290.592	8672.95
290.66	8674.45
290.727	8677.05
290.794	8696.88
290.862	8699.04
290.929	8707.22
290.996	8708.52
291.064	8721.76
291.131	8732.73
291.198	8740.96
291.266	8742.07
291.333	8743.08
291.4	8749.73
291.468	8760.17
291.535	8756.71
291.602	8763.35
291.669	8755.36
291.737	8758.82
291.804	8765.47
291.871	8771.24
291.938	8778.51
292.006	8802.82
292.073	8814.56
292.14	8818.08
292.207	8804.36
292.275	8805.9
292.342	8806.09
292.409	8832.37
292.476	8853.99
292.543	8844.46
292.611	8842.87
292.678	8854.95
292.745	8871.85
292.812	8878.63
292.879	8872.76
292.946	8884.46
293.014	8892.01
293.081	8897.5
293.148	8908.96
293.215	8923.88
293.282	8926.48
293.349	8933.84
293.416	8919.26
293.484	8930.71
293.551	8939.04
293.618	8958.15
293.685	8983.09
293.752	8978.85
293.819	8975.77
293.886	8958.2
293.953	8972.3
294.02	8988.62
294.087	8997.53
294.154	9000.08
294.221	9017.85
294.288	9018.28
294.356	9032.24
294.423	9039.75
294.49	9039.7
294.557	9052.99
294.624	9042.59
294.691	9057.71
294.758	9062.67
294.825	9068.97
294.892	9064.21
294.959	9069.12
295.026	9071.29
295.093	9064.93
295.16	9070.8
295.226	9072.25
295.293	9099.55
295.36	9097.57
295.427	9106.96
295.494	9113.9
295.561	9113.61
295.628	9124.39
295.695	9142.55
295.762	9145.19
295.829	9151.21
295.896	9164.89
295.963	9174.85
296.03	9189.44
296.096	9197.05
296.163	9203.98
296.23	9221.6
296.297	9234.46
296.364	9231.33
296.431	9241.2
296.498	9240.86
296.564	9263.25
296.631	9266.71
296.698	9251.93
296.765	9273.26
296.832	9257.42
296.899	9247.98
296.965	9268.74
297.032	9258.62
297.099	9271.72
297.166	9280.72
297.233	9284.53
297.299	9277.79
297.366	9278.41
297.433	9275.14
297.5	9278.22
297.566	9274.76
297.633	9272.49
297.7	9280.92
297.767	9284.82
297.833	9287.23
297.9	9289.3
297.967	9273.94
298.033	9282.6
298.1	9311.64
298.167	9303.55
298.234	9319.97
298.3	9330.47
298.367	9327.87
298.434	9327.87
298.5	9317.47
298.567	9313.04
298.634	9313.04
298.7	9327.43
298.767	9328.11
298.834	9344.96
298.9	9342.6
298.967	9339.71
299.033	9348.09
299.1	9356.71
299.167	9367.64
299.233	9360.47
299.3	9372.31
299.366	9387.38
299.433	9406.5
299.5	9381.31
299.566	9384.3
299.633	9393.02
299.699	9403.37
299.766	9401.01
299.832	9408.52
299.899	9416.13
299.965	9426.87
300.032	9421.28
300.099	9426.82
300.165	9429.81
300.232	9421.86
300.298	9428.51
300.365	9447.19
300.431	9447.62
300.498	9440.11
300.564	9447.14
300.631	9462.98
300.697	9478.01
300.763	9477.53
300.83	9472.95
300.896	9485.47
300.963	9492.31
301.029	9494.62
301.096	9494.53
301.162	9503.63
301.229	9504.06
301.295	9496.74
301.361	9495.2
301.428	9501.89
301.494	9490.19
301.561	9493.32
301.627	9505.75
301.693	9508.92
301.76	9510.51
301.826	9507.53
301.892	9521.88
301.959	9525.54
302.025	9518.36
302.092	9511.48
302.158	9519.13
302.224	9519.57
302.291	9511.24
302.357	9510.66
302.423	9508.54
302.49	9504.83
302.556	9524.14
302.622	9520.92
302.688	9525.88
302.755	9547.94
302.821	9551.11
302.887	9560.79
302.954	9563.34
303.02	9565.85
303.086	9569.12
303.152	9564.98
303.219	9556.94
303.285	9558.19
303.351	9564.89
303.417	9567.25
303.483	9555.26
303.55	9550.01
303.616	9551.89
303.682	9552.22
303.748	9546.44
303.815	9557.95
303.881	9565.66
303.947	9543.94
304.013	9543.51
304.079	9535.03
304.145	9510.42
304.212	9513.36
304.278	9503.05
304.344	9497.18
304.41	9485.57
304.476	9472.67
304.542	9472.28
304.608	9483.6
304.674	9467.99
304.741	9465.1
304.807	9469.1
304.873	9473.92
304.939	9485.43
305.005	9462.21
305.071	9461.01
305.137	9459.33
305.203	9435.34
305.269	9432.21
305.335	9446.71
305.401	9444.01
305.467	9446.13
305.533	9451.09
305.599	9462.89
305.666	9475.02
305.732	9475.79
305.798	9483.45
305.864	9502.38
305.93	9507.14
305.996	9506.18
306.062	9505.99
306.128	9503.1
306.194	9489.23
306.259	9489.71
306.325	9477.62
306.391	9487.78
306.457	9492.84
306.523	9498.14
306.589	9518.89
306.655	9510.23
306.721	9492.6
306.787	9482.63
306.853	9486.53
306.919	9473.68
306.985	9452.49
307.051	9446.27
307.117	9437.85
307.183	9431.97
307.248	9412.85
307.314	9413.43
307.38	9414.88
307.446	9414.92
307.512	9395.47
307.578	9399.9
307.644	9393.59
307.709	9401.78
307.775	9400.19
307.841	9394.8
307.907	9396.87
307.973	9376.5
308.039	9374.23
308.104	9383.05
308.17	9379.58
308.236	9371.59
308.302	9374.76
308.368	9365.95
308.433	9359.11
308.499	9354.93
308.565	9346.07
308.631	9348.62
308.696	9325.17
308.762	9306.29
308.828	9305.14
308.894	9298.54
308.959	9277.74
309.025	9265.75
309.091	9265.66
309.156	9257.33
309.222	9257.9
309.288	9239.61
309.354	9224.44
309.419	9219.19
309.485	9198.2
309.551	9204.65
309.616	9194.54
309.682	9192.37
309.748	9184.48
309.813	9177.74
309.879	9171
309.945	9155.73
310.01	9141.92
310.076	9145.14
310.141	9142.88
310.207	9125.69
310.273	9125.55
310.338	9132.04
310.404	9119.48
310.469	9095.4
310.535	9085
310.601	9064.01
310.666	9068.49
310.732	9070.99
310.797	9055.2
310.863	9041.1
310.928	9030.75
310.994	9030.02
311.059	9027.38
311.125	9027.09
311.191	9043.17
311.256	9033.78
311.322	9046.83
311.387	9035.42
311.453	9314.51
311.518	9294.67
311.584	9292.41
311.649	9290.77
311.715	9277.92
311.78	9280.57
311.846	9278.21
311.911	9281.58
311.976	9282.4
312.042	9271.66
312.107	9264.25
312.173	9263.33
312.238	9260.54
312.304	9260.4
312.369	9250.29
312.434	9235.07
312.5	9233.25
312.565	9199.21
312.631	9203.2
312.696	9189.48
312.761	9189.96
312.827	8894.66
312.892	8926
312.958	8927.3
313.023	8921.23
313.088	8915.65
313.154	8903.37
313.219	8887.92
313.284	8876.32
313.35	8871.75
313.415	8858.85
313.48	8847.82
313.546	8847.87
313.611	8858.94
313.676	8841.57
313.741	8835.84
313.807	8842.39
313.872	8842.91
313.937	8849.17
314.003	8852.11
314.068	8850.13
314.133	8855.33
314.198	8850.14
314.264	8828.42
314.329	8816.05
314.394	8816.63
314.459	8815.76
314.525	8828.61
314.59	8827.22
314.655	8820.62
314.72	8823.66
314.785	8824.33
314.851	8814.32
314.916	8801.08
314.981	8784.24
315.046	8775.77
315.111	8766.67
315.176	8753.48
315.242	8751.22
315.307	8751.75
315.372	8734.32
315.437	8730.52
315.502	8716.18
315.567	8728.35
315.632	8711.46
315.698	8712.95
315.763	8706.31
315.828	8701.88
315.893	8698.75
315.958	8695.29
316.023	8685.23
316.088	8671.71
316.153	8652.07
316.218	8651.25
316.283	8633.02
316.348	8616.42
316.413	8617.19
316.479	8599.33
316.544	8566.28
316.609	8531.58
316.674	8489.14
316.739	8458.4
316.804	8421.64
316.869	8388.29
316.934	8342.63
316.999	8318.76
317.064	8269.07
317.129	8223.98
317.194	8183.33
317.259	8132.33
317.324	8080.1
317.389	8029.16
317.454	7984.42
317.518	7951.19
317.583	7922.71
317.648	7890.97
317.713	7855.57
317.778	7795.98
317.843	7763.13
317.908	7722.12
317.973	7692.83
318.038	7669.03
318.103	7631.77
318.168	7599.22
318.233	7568.06
318.297	7521.72
318.362	7481.28
318.427	7436.49
318.492	7414.47
318.557	7370.35
318.622	7345.11
318.687	7320.27
318.751	7281.3
318.816	7252.17
318.881	7216.42
318.946	7163.03
319.011	7115.6
319.075	7073.56
319.14	7038.77
319.205	6992.94
319.27	6964.88
319.335	6917.94
319.399	6873.65
319.464	6838.44
319.529	6786.85
319.594	6745.16
319.658	6715.72
319.723	6672.78
319.788	6641.96
319.853	6583.08
319.917	6551.68
319.982	6495.93
320.047	6457.51
320.112	6431.98
320.176	6379.21
320.241	6341.96
320.306	6312.2
320.37	6277.74
320.435	6240.68
320.5	6209.68
320.564	6169.08
320.629	6125.95
320.694	6091.83
320.758	6049.65
320.823	6006.13
320.888	5975.72
320.952	5924.3
321.017	5880.26
321.082	5839.49
321.146	5806.5
321.211	5775.13
321.275	5734.13
321.34	5689.88
321.405	5645.58
321.469	5601.7
321.534	5558.85
321.598	5504.06
321.663	5467.62
321.727	5431.29
321.792	5383.65
321.857	5340.75
321.921	5304.04
321.986	5260.3
322.05	5198.21
322.115	5161.08
322.179	5113.33
322.244	5056.62
322.308	5024.92
322.373	4979.52
322.437	4936.08
322.502	4908.2
322.566	4858.73
322.631	4818.99
322.695	4780.32
322.76	4734.61
322.824	4697.41
322.889	4651.38
322.953	4612.39
323.018	4549.84
323.082	4489.13
323.146	4439.53
323.211	4385.47
323.275	4341.84
323.34	4295.74
323.404	4265.14
323.468	4216.83
323.533	4179.16
323.597	4138.54
323.662	4088.15
323.726	4050.72
323.79	4007.89
323.855	3941.72
323.919	3892.41
323.983	3849.73
324.048	3788.27
324.112	3906.66
324.177	3776.83
324.241	3582.93
324.305	3388.64
324.37	3198.18
324.434	3016.22
324.498	2975.15
324.562	2925.95
324.627	2866.6
324.691	2812.72
324.755	2746.96
324.82	2673.44
324.884	2595.37
324.948	2522.87
325.012	2431.28
325.077	2312.08
