Data from 20250630_urea_2M_MAYP1162681_18-02-27-180.txt Node
Date: Mon Jun 30 18:02:27 BST 2025
User: adleo
Spectrometer: MAYP116268
Trigger mode: 0
Integration Time (sec): 1.000000E0
Scans to average: 1
Electric dark correction enabled: true
Nonlinearity correction enabled: true
Boxcar width: 10
XAxis mode: Wavelengths
Number of Pixels in Spectrum: 2068
>>>>>Begin Spectral Data<<<<<
179.565	1094.24
179.642	1145.95
179.718	1184.34
179.795	1219.03
179.871	1249.62
179.948	1264.86
180.024	1284.7
180.101	1304.16
180.177	1318.32
180.254	1340.29
180.33	1361.65
180.407	1406.55
180.483	1492.87
180.56	1573.4
180.636	1650.59
180.712	1637.09
180.789	1645.22
180.865	1655.76
180.942	1661.46
181.018	1674.1
181.095	1686.98
181.171	1694.77
181.248	1694.77
181.324	1712.92
181.4	1720.57
181.477	1728.46
181.553	1742.81
181.63	1762.34
181.706	1778.55
181.782	1785.86
181.859	1784.77
181.935	1789.14
182.011	1785.91
182.088	1802.21
182.164	1821.28
182.24	1833.06
182.317	1843.75
182.393	1843.9
182.469	1854.07
182.546	1866.42
182.622	1870.8
182.698	1868.75
182.775	1877.5
182.851	1889.72
182.927	1878.54
183.003	1872.41
183.08	1869.04
183.156	1878.21
183.232	1875.65
183.308	1864
183.385	1869.51
183.461	1884.77
183.537	1884.63
183.613	1895.71
183.69	1887.58
183.766	1879.11
183.842	1885.53
183.918	1888.14
183.995	1901.55
184.071	1907.4
184.147	1902.26
184.223	1891
184.299	1902.46
184.375	1893.81
184.452	1900.09
184.528	1952.92
184.604	1964.42
184.68	1976.02
184.756	1978.92
184.832	1979.3
184.908	1983.77
184.985	1986.34
185.061	1972.55
185.137	1981.3
185.213	1971.17
185.289	1972.55
185.365	1964.71
185.441	1963
185.517	1975.98
185.593	1973.17
185.669	1970.42
185.745	1979.4
185.822	1992.66
185.898	1984.24
185.974	1990.76
186.05	1986.09
186.126	1948.81
186.202	1943.87
186.278	1938.97
186.354	1933.98
186.43	1940.92
186.506	1937.45
186.582	1933.79
186.658	1939.02
186.734	1920.95
186.81	1922.86
186.886	1927.42
186.962	1939.16
187.038	1935.64
187.114	1928.75
187.19	1934.26
187.266	1924.8
187.341	1926.56
187.417	1921.29
187.493	1918.77
187.569	1922.9
187.645	1915.63
187.721	1904.03
187.797	1911.02
187.873	1915.1
187.949	1907.78
188.025	1903.17
188.101	1908.54
188.176	1915.01
188.252	1910.02
188.328	1919.09
188.404	1918.85
188.48	1911.53
188.556	1901.36
188.632	1901.41
188.707	1903.03
188.783	1900.12
188.859	1897.99
188.935	1887.34
189.011	1893.42
189.086	1890.76
189.162	1885.39
189.238	1883.1
189.314	1880.63
189.39	1872.69
189.465	1864.99
189.541	1881.06
189.617	1866.99
189.693	1861.43
189.768	1864.38
189.844	1889.4
189.92	1880.79
189.996	1887.69
190.071	1898.67
190.147	1901.52
190.223	1910.22
190.298	1901.04
190.374	1887.31
190.45	1896.57
190.526	1904.42
190.601	1900.76
190.677	1899.71
190.753	1922.78
190.828	1926.49
190.904	1940.04
190.98	1956.11
191.055	1965.43
191.131	1955.92
191.207	1973.56
191.282	1982.78
191.358	1972.99
191.433	1959.43
191.509	1971.93
191.585	1970.55
191.66	1971.22
191.736	1976.35
191.811	1969.07
191.887	1985.43
191.963	2009.3
192.038	2015.91
192.114	2017.48
192.189	2021.1
192.265	2018.82
192.34	1998.88
192.416	1998.64
192.491	1996.6
192.567	1999.64
192.642	2003.88
192.718	2004.59
192.793	1995.56
192.869	1991.9
192.944	1995.84
193.02	2002.88
193.095	2004.69
193.171	2008.06
193.246	2007.16
193.322	2006.68
193.397	2004.69
193.473	1991.8
193.548	1975.39
193.624	1979.96
193.699	1980.34
193.775	1993.27
193.85	1992.18
193.925	2001.22
194.001	2000.69
194.076	1992.9
194.152	1980.34
194.227	1971.83
194.302	1961.08
194.378	1964.36
194.453	1963.32
194.529	1974.59
194.604	1961.18
194.679	1958.71
194.755	1942.4
194.83	1950.78
194.905	1947.4
194.981	1958.15
195.056	1952.82
195.131	1956.91
195.207	1953.77
195.282	1941.93
195.357	1923.15
195.433	1939.31
195.508	1929.8
195.583	1934.93
195.659	1948.58
195.734	1955.57
195.809	1957.19
195.884	1966.08
195.96	1967.36
196.035	1979.39
196.11	1973.68
196.185	1983.96
196.261	1983.29
196.336	2016.1
196.411	2004.26
196.486	2010.01
196.561	2000.79
196.637	2006.4
196.712	2022.19
196.787	2025.76
196.862	2041.45
196.937	2054.33
197.013	2063.04
197.088	2070.36
197.163	2091.39
197.238	2105
197.313	2108.43
197.388	2118.8
197.464	2146.16
197.539	2155.34
197.614	2150.25
197.689	2163.19
197.764	2179.51
197.839	2197.92
197.914	2189.78
197.989	2211.52
198.065	2226.13
198.14	2273.87
198.215	2299.33
198.29	2310.14
198.365	2324.7
198.44	2335.88
198.515	2360.68
198.59	2372.87
198.665	2398.86
198.74	2407.24
198.815	2411.29
198.89	2431.71
198.965	2460.66
199.04	2458.99
199.115	2470.8
199.19	2511.88
199.265	2515.64
199.34	2523.12
199.415	2559.94
199.49	2581.13
199.565	2593.22
199.64	2612.94
199.715	2612.03
199.79	2621.04
199.865	2626.13
199.94	2623.42
200.015	2653.19
200.09	2657.91
200.165	2665.34
200.24	2669.77
200.315	2706.62
200.39	2720.06
200.464	2722.34
200.539	2720.72
200.614	2734.01
200.689	2757.31
200.764	2760.02
200.839	2776.12
200.914	2781.41
200.989	2768.11
201.063	2778.16
201.138	2761.31
201.213	2763.55
201.288	2744.44
201.363	2747.73
201.438	2748.35
201.512	2762.4
201.587	2745.05
201.662	2748.67
201.737	2758.73
201.812	2769.45
201.886	2734.17
201.961	2742.08
202.036	2733.22
202.111	2732.75
202.186	2707.32
202.26	2694.36
202.335	2677.06
202.41	2670.87
202.485	2653.68
202.559	2636.15
202.634	2613.86
202.709	2620.38
202.784	2600.67
202.858	2602.38
202.933	2585.19
203.008	2581.52
203.082	2563.76
203.157	2562.71
203.232	2524.58
203.306	2504.76
203.381	2471.7
203.456	2457.04
203.53	2437.88
203.605	2420.8
203.68	2400.41
203.754	2395.28
203.829	2378.94
203.904	2359.24
203.978	2347.1
204.053	2353.76
204.127	2341.1
204.202	2339.58
204.277	2325.02
204.351	2319.5
204.426	2309.41
204.5	2302.46
204.575	2269.34
204.65	2276.53
204.724	2267.91
204.799	2271.52
204.873	2265.57
204.948	2264.57
205.022	2250.87
205.097	2238.54
205.171	2252.29
205.246	2258.34
205.32	2258.24
205.395	2258.62
205.469	2250.63
205.544	2254.44
205.618	2236.88
205.693	2250.02
205.767	2237.65
205.842	2255.21
205.916	2250.55
205.991	2241.08
206.065	2246.6
206.14	2260.15
206.214	2255.82
206.289	2253.01
206.363	2267.95
206.438	2270.14
206.512	2276.52
206.586	2297.65
206.661	2309.31
206.735	2284.67
206.81	2285.29
206.884	2298.42
206.958	2286.05
207.033	2298.51
207.107	2309.66
207.181	2339.79
207.256	2332.6
207.33	2352.07
207.405	2366.93
207.479	2385.49
207.553	2395.72
207.628	2379.83
207.702	2389.54
207.776	2385.45
207.851	2388.83
207.925	2402.97
207.999	2400.31
208.073	2399.73
208.148	2397.97
208.222	2385.78
208.296	2416.95
208.371	2432.86
208.445	2441.52
208.519	2468.23
208.593	2483.32
208.668	2480.36
208.742	2484.22
208.816	2484.32
208.89	2497.51
208.965	2496.27
209.039	2502.18
209.113	2517.46
209.187	2534.54
209.261	2531.55
209.336	2550.12
209.41	2566.6
209.484	2567.41
209.558	2591.98
209.632	2604.84
209.707	2615.32
209.781	2635.65
209.855	2652.18
209.929	2668.82
210.003	2675.92
210.077	2676.59
210.151	2719.93
210.226	2747.66
210.3	2773.89
210.374	2795.56
210.448	2797.28
210.522	2806.38
210.596	2815.63
210.67	2826.73
210.744	2873.92
210.818	2906.59
210.892	2929.19
210.966	2925.38
211.041	2940.39
211.115	2940.63
211.189	2966.94
211.263	2985.58
211.337	2994.54
211.411	3010.13
211.485	3008.65
211.559	3025.95
211.633	3033.2
211.707	3014.49
211.781	3028.57
211.855	3000.67
211.929	3005.39
212.003	2997.72
212.077	3016.99
212.151	3042.84
212.225	3062.35
212.299	3067.74
212.373	3071.74
212.447	3085.1
212.52	3130.99
212.594	3149.84
212.668	3179.55
212.742	3188.52
212.816	3208.42
212.89	3231.98
212.964	3261.05
213.038	3294.9
213.112	3335.57
213.186	3386.34
213.26	3400.84
213.333	3401.94
213.407	3446.55
213.481	3492.12
213.555	3554.24
213.629	3592.74
213.703	3630.43
213.777	3688.11
213.85	3728.82
213.924	3824.08
213.998	3886.22
214.072	3949.69
214.146	4016.47
214.219	4091.78
214.293	4169.81
214.367	4258.88
214.441	4355.75
214.515	4430.88
214.588	4500.93
214.662	4570.8
214.736	4650.11
214.81	4761.15
214.883	4877.02
214.957	4982.68
215.031	5088.59
215.105	5184.75
215.178	5293.18
215.252	5410.99
215.326	5517.66
215.4	5630.45
215.473	5718.15
215.547	5834.33
215.621	5955.99
215.694	6103.01
215.768	6226.51
215.842	6356.58
215.915	6484.99
215.989	6606.21
216.063	6752.38
216.136	6907.1
216.21	7062.89
216.284	7236.23
216.357	7399.88
216.431	7551.97
216.504	7727.61
216.578	7912.52
216.652	8088.5
216.725	8261.2
216.799	8440.82
216.873	8612.8
216.946	8792.95
217.02	8960.61
217.093	9139.53
217.167	9292.58
217.24	9450.14
217.314	9615.28
217.387	9781.45
217.461	9950.01
217.535	10139.2
217.608	10304.72
217.682	10481.66
217.755	10665.85
217.829	10832.52
217.902	11006.08
217.976	11186.72
218.049	11343.2
218.123	11503.25
218.196	11679.54
218.27	11840.76
218.343	11987.33
218.417	12154.34
218.49	12315.04
218.563	12495.16
218.637	12666.76
218.71	12854.46
218.784	13023.7
218.857	13195.36
218.931	13360.55
219.004	13532.59
219.077	13705.41
219.151	13878.17
219.224	14037.44
219.298	14193.82
219.371	14365.42
219.444	14501.46
219.518	14651.37
219.591	14805.91
219.665	14975.2
219.738	15137.11
219.811	15280.23
219.885	15443.63
219.958	15601.44
220.031	15750.38
220.105	15890.93
220.178	16028.3
220.251	16157.86
220.325	16302.69
220.398	16447.96
220.471	16594.14
220.544	16730.68
220.618	16840.04
220.691	16959.81
220.764	17085.4
220.838	17213.12
220.911	17312.93
220.984	17458.71
221.057	17578.18
221.131	17697.85
221.204	17789.32
221.277	17903.15
221.35	18049.41
221.424	18158.99
221.497	18263.86
221.57	18372.53
221.643	18497.97
221.716	18609.19
221.79	18704.95
221.863	18797.13
221.936	18885.71
222.009	18983.1
222.082	19082.57
222.155	19174.08
222.229	19284.58
222.302	19381.92
222.375	19458.59
222.448	19555.75
222.521	19634.49
222.594	19727.98
222.667	19797.03
222.74	19886.86
222.814	19964.84
222.887	20022.52
222.96	20086.81
223.033	20169.02
223.106	20234.28
223.179	20289.5
223.252	20343.82
223.325	20419.67
223.398	20480.49
223.471	20547.38
223.544	20598.32
223.617	20649.99
223.69	20711.58
223.763	20753.94
223.837	20807.15
223.91	20873.8
223.983	20913.42
224.056	20954.19
224.129	20997.86
224.202	21063.02
224.275	21096.17
224.348	21130.2
224.42	21164.47
224.493	21203.32
224.566	21233.73
224.639	21274.36
224.712	21305.59
224.785	21346.03
224.858	21372.68
224.931	21402.08
225.004	21431.58
225.077	21472.02
225.15	21478.09
225.223	21510.82
225.296	21555.31
225.369	21561.05
225.442	21576.42
225.514	21606.93
225.587	21644.82
225.66	21672.01
225.733	21690.32
225.806	21724.69
225.879	21736.26
225.952	21745.08
226.025	21778.14
226.097	21812.61
226.17	21838.79
226.243	21839.46
226.316	21854.89
226.389	21873.15
226.461	21916.3
226.534	21933.94
226.607	21941.99
226.68	21975.92
226.753	21986.67
226.825	21977.18
226.898	22001.66
226.971	22026.73
227.044	22036.9
227.117	22043.36
227.189	22061.05
227.262	22084.48
227.335	22096.58
227.407	22112.92
227.48	22139.39
227.553	22149.17
227.626	22142.13
227.698	22145.99
227.771	22174.04
227.844	22171.54
227.916	22180.94
227.989	22146.52
228.062	22150.57
228.134	22182.91
228.207	22191.98
228.28	22196.56
228.352	22199.5
228.425	22206.97
228.498	22208.37
228.57	22206.05
228.643	22226.59
228.716	22224.03
228.788	22214.25
228.861	22208.61
228.934	22223.31
229.006	22219.65
229.079	22212.8
229.151	22205.09
229.224	22192.94
229.296	22187.54
229.369	22217.87
229.442	22237.25
229.514	22234.35
229.587	22243.95
229.659	22209.91
229.732	22210.49
229.804	22218.97
229.877	22250.74
229.949	22259.86
230.022	22276.15
230.094	22270.85
230.167	22257.69
230.239	22245.01
230.312	22247.23
230.384	22271.72
230.457	22270.85
230.529	22268.82
230.602	22268.97
230.674	22274.37
230.747	22280.78
230.819	22292.3
230.892	22257.11
230.964	22250.7
231.037	22251.85
231.109	22246.07
231.181	22254.51
231.254	22242.74
231.326	22227.12
231.399	22199.36
231.471	22175.25
231.544	22141.89
231.616	22149.75
231.688	22144.88
231.761	22127.48
231.833	22110.9
231.905	22074.31
231.978	22053.68
232.05	22042.59
232.122	22031.5
232.195	22010.68
232.267	22006.63
232.339	21981.22
232.412	21985.75
232.484	21961.55
232.556	21947.91
232.629	21949.99
232.701	21945.84
232.773	21923.96
232.846	21903.23
232.918	21882.89
232.99	21885.64
233.062	21880.19
233.135	21871.61
233.207	21838.11
233.279	21831.6
233.351	21823.02
233.424	21797.09
233.496	21774.72
233.568	21776.65
233.64	21750.33
233.713	21740.36
233.785	21724.59
233.857	21713.02
233.929	21672.63
234.001	21667.19
234.074	21665.55
234.146	21616.62
234.218	21598.79
234.29	21587.27
234.362	21566.74
234.434	21536.9
234.507	21502.82
234.579	21462.33
234.651	21430.86
234.723	21429.51
234.795	21417.36
234.867	21394.76
234.939	21391.92
235.012	21380.25
235.084	21364.73
235.156	21352.54
235.228	21322.22
235.3	21299.81
235.372	21280.33
235.444	21279.9
235.516	21238.21
235.588	21218.74
235.66	21206.69
235.732	21172.95
235.804	21194.4
235.876	21187.27
235.948	21175.6
236.02	21148.81
236.092	21127.94
236.164	21101.86
236.236	21068.7
236.308	21029.57
236.38	21001.81
236.452	20965.57
236.524	20939.54
236.596	20921.9
236.668	20904.6
236.74	20879.73
236.812	20849.56
236.884	20819.24
236.956	20789.6
237.028	20756.25
237.1	20712.21
237.172	20693.6
237.244	20683.72
237.316	20623.19
237.388	20575.57
237.46	20547.47
237.532	20533.55
237.604	20494.7
237.675	20487.23
237.747	20456.25
237.819	20431.04
237.891	20410.22
237.963	20366.13
238.035	20321.98
238.107	20254.51
238.178	20234.13
238.25	20191.67
238.322	20178.61
238.394	20139.09
238.466	20099.53
238.538	20082.28
238.609	20067.05
238.681	20022.28
238.753	19978.04
238.825	19944.35
238.897	19927.39
238.968	19914.23
239.04	19875.49
239.112	19873.7
239.184	19818.19
239.255	19786.57
239.327	19752.98
239.399	19711.49
239.471	19698.24
239.542	19684.46
239.614	19655.54
239.686	19592.56
239.758	19581.91
239.829	19545.14
239.901	19521.96
239.973	19494.68
240.044	19466.3
240.116	19431.94
240.188	19392.91
240.259	19360.48
240.331	19319.47
240.403	19290.17
240.474	19231.76
240.546	19193.11
240.618	19138.08
240.689	19100.15
240.761	19062.9
240.833	19048.49
240.904	19017.46
240.976	18978.76
241.048	18939.92
241.119	18925.42
241.191	18902.05
241.262	18879.88
241.334	18832.75
241.405	18796.08
241.477	18750.49
241.549	18700.71
241.62	18669.53
241.692	18643.46
241.763	18620.86
241.835	18586.26
241.906	18544.24
241.978	18506.94
242.049	18478.41
242.121	18459.57
242.192	18442.41
242.264	18405.93
242.335	18356.73
242.407	18328.3
242.478	18284.01
242.55	18253.7
242.621	18208.45
242.693	18169.65
242.764	18127.2
242.836	18091.44
242.907	18057.32
242.979	18033.85
243.05	18016.41
243.122	17987.68
243.193	17958.24
243.264	17896.51
243.336	17865.18
243.407	17844.75
243.479	17834.39
243.55	17808.51
243.622	17773.28
243.693	17734.05
243.764	17708.66
243.836	17662.97
243.907	17623.89
243.978	17595.74
244.05	17565.19
244.121	17515.31
244.192	17490.49
244.264	17441.62
244.335	17413.96
244.407	17370.25
244.478	17341.57
244.549	17297.23
244.62	17247.74
244.692	17215.64
244.763	17194.1
244.834	17153.33
244.906	17105.04
244.977	17069.42
245.048	17048.56
245.119	17007.35
245.191	16967.69
245.262	16905.8
245.333	16892.16
245.405	16852.93
245.476	16824.59
245.547	16783.63
245.618	16762.18
245.689	16723.58
245.761	16695.38
245.832	16656.73
245.903	16630.75
245.974	16593.79
246.045	16557.16
246.117	16546.6
246.188	16494.69
246.259	16447.65
246.33	16410.06
246.401	16379.41
246.473	16335.11
246.544	16289.42
246.615	16267.73
246.686	16231.1
246.757	16222.04
246.828	16172.88
246.899	16155.82
246.97	16115.09
247.042	16084.73
247.113	16062.36
247.184	16057.59
247.255	16029.54
247.326	15998.98
247.397	15964.57
247.468	15939.5
247.539	15907.98
247.61	15852.79
247.681	15825.61
247.752	15818.23
247.823	15788.25
247.894	15758.32
247.965	15713.78
248.037	15674.89
248.108	15627.46
248.179	15599.5
248.25	15568.22
248.321	15542.57
248.392	15510.09
248.463	15501.02
248.534	15463.14
248.605	15437.06
248.675	15400.72
248.746	15371.08
248.817	15349.82
248.888	15325.14
248.959	15277.61
249.03	15256.55
249.101	15233.41
249.172	15212.2
249.243	15155.85
249.314	15144.48
249.385	15115.02
249.456	15094.35
249.527	15072.03
249.598	15055.25
249.669	15028.93
249.739	15001.46
249.81	14984.39
249.881	14937.88
249.952	14909.29
250.023	14882.73
250.094	14834.67
250.165	14791
250.235	14749.79
250.306	14722.36
250.377	14691.27
250.448	14668.9
250.519	14629.61
250.59	14614.96
250.66	14579
250.731	14574.13
250.802	14537.25
250.873	14513.92
250.944	14487.31
251.014	14454
251.085	14445.33
251.156	14419.92
251.227	14403.87
251.297	14388.01
251.368	14376.06
251.439	14355.23
251.51	14341.69
251.58	14314.35
251.651	14290.88
251.722	14293.24
251.792	14250.82
251.863	14220.01
251.934	14207.58
252.005	14202.66
252.075	14181.59
252.146	14165.06
252.217	14145.97
252.287	14133.97
252.358	14103.98
252.429	14096.7
252.499	14063.3
252.57	14045.51
252.641	14025.45
252.711	14004.58
252.782	13965.58
252.852	13958.45
252.923	13929.96
252.994	13908.22
253.064	13895.06
253.135	13855.05
253.205	13814.94
253.276	13810.98
253.347	13801.34
253.417	13771.99
253.488	13744.7
253.558	13708.79
253.629	13691.05
253.699	13670.75
253.77	13658.22
253.841	13635.66
253.911	13616.71
253.982	13597.29
254.052	13569.08
254.123	13552.45
254.193	13533.99
254.264	13550.81
254.334	13512.1
254.405	13471.27
254.475	13431.12
254.546	13407.16
254.616	13403.64
254.687	13385.61
254.757	13370.62
254.827	13349.6
254.898	13327.18
254.968	13295.95
255.039	13266.64
255.109	13250.29
255.18	13216.36
255.25	13164.44
255.321	13149.16
255.391	13113.24
255.461	13113
255.532	13068.22
255.602	13037.37
255.673	12993.6
255.743	12956.53
255.813	12919.21
255.884	12918.88
255.954	12914.63
256.024	12912.37
256.095	12889.66
256.165	12856.02
256.235	12832.59
256.306	12800.77
256.376	12785.4
256.446	12783.08
256.517	12763.37
256.587	12751.27
256.657	12737.67
256.728	12721.23
256.798	12698
256.868	12679.39
256.938	12650.56
257.009	12642.23
257.079	12635.96
257.149	12640.15
257.219	12596.53
257.29	12580.38
257.36	12540.18
257.43	12528.27
257.5	12481.56
257.571	12463.05
257.641	12450.13
257.711	12415.81
257.781	12405.98
257.852	12398.65
257.922	12354.78
257.992	12338.35
258.062	12316.41
258.132	12294.82
258.202	12277.18
258.273	12265.37
258.343	12261.51
258.413	12234.13
258.483	12210.46
258.553	12177.54
258.623	12147.7
258.693	12133.14
258.764	12126.11
258.834	12121.96
258.904	12092.9
258.974	12065.18
259.044	12041.32
259.114	12030.14
259.184	12015.48
259.254	11990.23
259.324	11946.36
259.394	11929.4
259.464	11925.78
259.535	11902.94
259.605	11886.31
259.675	11861.15
259.745	11844.42
259.815	11810.39
259.885	11784.65
259.955	11792.85
260.025	11762.1
260.095	11741.85
260.165	11731.39
260.235	11735.49
260.305	11703.1
260.375	11677.12
260.445	11689.32
260.515	11683.39
260.585	11675.39
260.655	11656.64
260.725	11647.96
260.795	11635.91
260.865	11643.72
260.934	11613.16
261.004	11596.63
261.074	11575.81
261.144	11571.47
261.214	11560.77
261.284	11541.73
261.354	11536.1
261.424	11509.83
261.494	11517.39
261.564	11494.11
261.634	11483.51
261.703	11440.18
261.773	11437.77
261.843	11426.54
261.913	11400.08
261.983	11360.28
262.053	11340.66
262.123	11317.38
262.192	11290.63
262.262	11285.96
262.332	11253.33
262.402	11250.58
262.472	11233.57
262.541	11197.82
262.611	11192.61
262.681	11161.96
262.751	11150.78
262.821	11128.71
262.89	11099.93
262.96	11084.27
263.03	11096.13
263.1	11080.27
263.169	11073.57
263.239	11061.28
263.309	11062.01
263.379	11051.21
263.448	11042.88
263.518	11037.67
263.588	11023.7
263.657	11026.3
263.727	11018.78
263.797	11000.57
263.867	10979.51
263.936	10958.88
264.006	10958.79
264.076	10940.28
264.145	10926.35
264.215	10903.8
264.285	10897.54
264.354	10865.59
264.424	10836.54
264.494	10797.74
264.563	10777.17
264.633	10771.34
264.702	10751.39
264.772	10720.06
264.842	10700.11
264.911	10688.07
264.981	10655.25
265.05	10643.54
265.12	10620.9
265.19	10609.86
265.259	10606.2
265.329	10599.55
265.398	10584.71
265.468	10597.09
265.537	10573.44
265.607	10562.64
265.676	10558.21
265.746	10549.87
265.815	10550.93
265.885	10541.73
265.955	10521.02
266.024	10502.27
266.094	10464.31
266.163	10465.56
266.232	10464.45
266.302	10448.26
266.371	10437.28
266.441	10424.75
266.51	10422.3
266.58	10409.48
266.649	10380.52
266.719	10369.78
266.788	10353.93
266.858	10354.02
266.927	10312.35
266.996	10300.93
267.066	10295.44
267.135	10269.47
267.205	10265.42
267.274	10250.87
267.343	10253.28
267.413	10243.89
267.482	10250.49
267.552	10255.79
267.621	10228.57
267.69	10196.44
267.76	10187.48
267.829	10175.19
267.898	10161.08
267.968	10133.14
268.037	10120.71
268.106	10120.23
268.176	10105
268.245	10092.86
268.314	10069.5
268.384	10067.28
268.453	10052.35
268.522	10040.16
268.592	10042.28
268.661	10016.12
268.73	10008.08
268.799	9981.15
268.869	9982.36
268.938	9943.58
269.007	9923.49
269.076	9915.83
269.146	9910.34
269.215	9900.51
269.284	9901.91
269.353	9889.39
269.422	9878.6
269.492	9856.3
269.561	9820.18
269.63	9806.78
269.699	9789.88
269.768	9783.9
269.838	9780.58
269.907	9783.86
269.976	9759
270.045	9729.09
270.114	9719.56
270.183	9705.3
270.253	9696.68
270.322	9672.26
270.391	9662.77
270.46	9665.04
270.529	9658.97
270.598	9660.17
270.667	9645.39
270.736	9627.33
270.806	9617.41
270.875	9622.75
270.944	9618.03
271.013	9635.56
271.082	9630.89
271.151	9620.58
271.22	9595.64
271.289	9574.3
271.358	9556.96
271.427	9550.95
271.496	9537.27
271.565	9521.62
271.634	9514.01
271.703	9516.95
271.772	9519.79
271.841	9513.92
271.91	9488.92
271.979	9473.32
272.048	9452.9
272.117	9455.35
272.186	9437.97
272.255	9437.92
272.324	9425.55
272.393	9421.45
272.462	9398.19
272.531	9384.8
272.6	9378.3
272.669	9378.93
272.738	9375.17
272.807	9364.72
272.876	9345.37
272.945	9371.47
273.013	9377.68
273.082	9372.24
273.151	9350.18
273.22	9335.59
273.289	9325.29
273.358	9335.26
273.427	9331.31
273.496	9324.76
273.564	9320.76
273.633	9322.26
273.702	9300.68
273.771	9290.72
273.84	9283.49
273.909	9282.29
273.977	9279.59
274.046	9265.82
274.115	9269.05
274.184	9252.39
274.253	9246.81
274.322	9248.44
274.39	9214.79
274.459	9199.28
274.528	9178.15
274.597	9174.49
274.665	9172.32
274.734	9176.94
274.803	9165.43
274.872	9152.39
274.94	9143.82
275.009	9190.35
275.078	9172.24
275.147	9168.3
275.215	9159.49
275.284	9164.01
275.353	9155.87
275.421	9131.18
275.49	9142.01
275.559	9127.71
275.627	9115.44
275.696	9105.61
275.765	9110.09
275.833	9106
275.902	9102.58
275.971	9107.11
276.039	9112.31
276.108	9118.9
276.177	9111.83
276.245	9100.85
276.314	9095.94
276.383	9098.3
276.451	9037.23
276.52	9041.37
276.588	9054.61
276.657	9059.9
276.725	9041.27
276.794	9036.7
276.863	9046.47
276.931	9025
277	9033.18
277.068	9039.63
277.137	9056.53
277.205	9055.33
277.274	9073.81
277.342	9080.12
277.411	9058.84
277.48	9047.58
277.548	9034.87
277.617	9033.13
277.685	9025
277.754	9033.91
277.822	9021.29
277.89	9031.12
277.959	9021.49
278.027	9001.17
278.096	8990.68
278.164	9019.18
278.233	9011.72
278.301	9003.44
278.37	9002.48
278.438	8986.4
278.507	8982.74
278.575	8957.27
278.643	8945
278.712	8920.49
278.78	8902.3
278.849	8917.12
278.917	8925.74
278.985	8918.95
279.054	8928.58
279.122	8940.18
279.191	8932.14
279.259	8927.42
279.327	8909.42
279.396	8930.12
279.464	8927.71
279.532	8934.4
279.601	8929.44
279.669	8920.01
279.737	8931.61
279.806	8937.63
279.874	8949.08
279.942	8953.42
280.011	8951.4
280.079	8962.52
280.147	8977.53
280.215	8989.09
280.284	8982.97
280.352	8971.37
280.42	8981.14
280.488	8965.26
280.557	8958.52
280.625	8960.78
280.693	8961.07
280.761	8961.55
280.83	8944.12
280.898	8954.28
280.966	8945.13
281.034	8911.39
281.102	8907.15
281.171	8891.51
281.239	8905.71
281.307	8894.93
281.375	8883.47
281.443	8904.84
281.512	8901.33
281.58	8908.79
281.648	8889.3
281.716	8886.41
281.784	8885.3
281.852	8873.31
281.92	8870.72
281.989	8876.3
282.057	8857.77
282.125	8897.15
282.193	8893.44
282.261	8889.79
282.329	8879.77
282.397	8876.45
282.465	8883.58
282.533	8896.48
282.601	8892.14
282.67	8863.02
282.738	8852.72
282.806	8868.6
282.874	8856.81
282.942	8858.49
283.01	8856.13
283.078	8860.22
283.146	8858.92
283.214	8858.59
283.282	8863.02
283.35	8875.77
283.418	8868.94
283.486	8877.17
283.554	8834.85
283.622	8835.96
283.69	8836.1
283.758	8829.7
283.826	8837.83
283.894	8834.13
283.962	8851.89
284.03	8860.46
284.098	8863.54
284.165	8868.26
284.233	8859.26
284.301	8855.79
284.369	8846.31
284.437	8831.67
284.505	8833.84
284.573	8846.16
284.641	8840.05
284.709	8845.92
284.777	8825.9
284.845	8829.94
284.912	8829.75
284.98	8837.16
285.048	8831.09
285.116	8832.35
285.184	8848.04
285.252	8840.62
285.319	8835.19
285.387	8824.74
285.455	8813.43
285.523	8815.26
285.591	8801.78
285.659	8801.49
285.726	8807.17
285.794	8793.55
285.862	8792.59
285.93	8791.82
285.997	8787.53
286.065	8780.41
286.133	8768.86
286.201	8768.42
286.269	8756.92
286.336	8749.32
286.404	8739.4
286.472	8741.76
286.539	8727.18
286.607	8710.28
286.675	8710.43
286.743	8717.41
286.81	8708.11
286.878	8720.77
286.946	8716.3
287.013	8719.09
287.081	8720.29
287.149	8705.32
287.216	8718.89
287.284	8715.24
287.352	8712.01
287.419	8708.64
287.487	8726.4
287.555	8728.95
287.622	8726.88
287.69	8734.73
287.758	8745.95
287.825	8749.07
287.893	8740.31
287.96	8737.76
288.028	8747.15
288.096	8750.86
288.163	8757.55
288.231	8754.03
288.298	8752.44
288.366	8763.95
288.433	8759.23
288.501	8749.61
288.569	8754.37
288.636	8756.1
288.704	8763.28
288.771	8769.53
288.839	8759.71
288.906	8753.12
288.974	8763.61
289.041	8759.91
289.109	8744.22
289.176	8756.3
289.244	8753.75
289.311	8765.93
289.379	8779.02
289.446	8785.08
289.514	8783.54
289.581	8781.91
289.649	8781.42
289.716	8782.53
289.783	8775.31
289.851	8799.23
289.918	8802.7
289.986	8811.99
290.053	8811.51
290.121	8812.71
290.188	8812.47
290.255	8840.05
290.323	8835.19
290.39	8828.21
290.458	8835.43
290.525	8853.28
290.592	8840.62
290.66	8847.22
290.727	8838.46
290.794	8848.23
290.862	8843.99
290.929	8845.34
290.996	8838.41
291.064	8841.54
291.131	8845.53
291.198	8854.34
291.266	8846.54
291.333	8851.89
291.4	8851.79
291.468	8871.09
291.535	8866.38
291.602	8867.77
291.669	8857.13
291.737	8860.21
291.804	8860.31
291.871	8880.72
291.938	8882.98
292.006	8912.5
292.073	8920.97
292.14	8936.33
292.207	8938.78
292.275	8946.24
292.342	8951.73
292.409	8977.48
292.476	9003.67
292.543	9001.99
292.611	9000.4
292.678	9013.59
292.745	9034.2
292.812	9048.01
292.879	9038.34
292.946	9044.69
293.014	9060.67
293.081	9071.17
293.148	9085.8
293.215	9101.74
293.282	9093.65
293.349	9109.97
293.416	9092.97
293.484	9107.42
293.551	9112.66
293.618	9127.16
293.685	9148.82
293.752	9145.89
293.819	9143.53
293.886	9131.73
293.953	9143.91
294.02	9161.48
294.087	9177.71
294.154	9169.96
294.221	9178.92
294.288	9180.12
294.356	9199.04
294.423	9202.84
294.49	9194.71
294.557	9209.15
294.624	9198.85
294.691	9211.7
294.758	9205.49
294.825	9211.03
294.892	9203.86
294.959	9208.43
295.026	9206.07
295.093	9204.63
295.16	9206.17
295.226	9213.15
295.293	9235.49
295.36	9236.79
295.427	9247.1
295.494	9254.17
295.561	9263.23
295.628	9290.05
295.695	9309.41
295.762	9308.83
295.829	9320.2
295.896	9339.12
295.963	9343.45
296.03	9354.04
296.096	9366.32
296.163	9376.48
296.23	9391.46
296.297	9401.71
296.364	9398.34
296.431	9408.65
296.498	9396.03
296.564	9426.08
296.631	9425.16
296.698	9408.07
296.765	9426.99
296.832	9413.51
296.899	9399.4
296.965	9421.6
297.032	9395.01
297.099	9411.87
297.166	9419.14
297.233	9420.25
297.299	9412.59
297.366	9418.37
297.433	9419.29
297.5	9425.16
297.566	9427.57
297.633	9424.63
297.7	9430.94
297.767	9431.86
297.833	9435.95
297.9	9443.85
297.967	9425.16
298.033	9433.35
298.1	9463.69
298.167	9451.02
298.234	9456.95
298.3	9465.42
298.367	9458.82
298.434	9470.28
298.5	9453.81
298.567	9447.41
298.634	9436.09
298.7	9454.68
298.767	9456.56
298.834	9474.76
298.9	9469.46
298.967	9463.54
299.033	9472.02
299.1	9488.78
299.167	9505.68
299.233	9505.29
299.3	9523.83
299.366	9538.23
299.433	9554.8
299.5	9536.26
299.566	9544.92
299.633	9561.64
299.699	9573.1
299.766	9568.43
299.832	9570.35
299.899	9578.64
299.965	9597.23
300.032	9601.22
300.099	9609.79
300.165	9611.87
300.232	9609.36
300.298	9607.63
300.365	9618.51
300.431	9618.37
300.498	9606.37
300.564	9607.48
300.631	9616.01
300.697	9624.29
300.763	9623.09
300.83	9622.17
300.896	9631.13
300.963	9636.81
301.029	9639.85
301.096	9644.13
301.162	9659.16
301.229	9657.86
301.295	9653.04
301.361	9651.69
301.428	9659.98
301.494	9646.15
301.561	9649.14
301.627	9641.58
301.693	9648.71
301.76	9651.5
301.826	9652.7
301.892	9662.87
301.959	9672.74
302.025	9665.18
302.092	9657.14
302.158	9666.91
302.224	9669.37
302.291	9659.54
302.357	9658.15
302.423	9651.26
302.49	9637.63
302.556	9640.28
302.622	9637.39
302.688	9646.83
302.755	9656.66
302.821	9663.16
302.887	9671.73
302.954	9665.52
303.02	9683.58
303.086	9686.23
303.152	9687.24
303.219	9680.83
303.285	9691.14
303.351	9695.23
303.417	9698.99
303.483	9690.03
303.55	9682.09
303.616	9678.04
303.682	9682.57
303.748	9677.37
303.815	9692.78
303.881	9707.13
303.947	9692.97
304.013	9694.9
304.079	9685.99
304.145	9671.25
304.212	9669.66
304.278	9655.65
304.344	9657.14
304.41	9633.4
304.476	9627.47
304.542	9619.29
304.608	9623.67
304.674	9602.76
304.741	9594.09
304.807	9597.95
304.873	9604.5
304.939	9618.61
305.005	9606.18
305.071	9600.69
305.137	9597.23
305.203	9572.47
305.269	9570.83
305.335	9582.63
305.401	9577.43
305.467	9570.5
305.533	9578.49
305.599	9578.11
305.666	9595.15
305.732	9589.81
305.798	9602.67
305.864	9621.59
305.93	9625.45
305.996	9621.64
306.062	9620.2
306.128	9623.04
306.194	9608.69
306.259	9605.03
306.325	9596.7
306.391	9604.4
306.457	9609.84
306.523	9619.96
306.589	9645.15
306.655	9635.99
306.721	9620.54
306.787	9614.56
306.853	9634.5
306.919	9613.89
306.985	9606.52
307.051	9593.52
307.117	9584.23
307.183	9585
307.248	9556.77
307.314	9561.16
307.38	9566.41
307.446	9573.05
307.512	9561.35
307.578	9564.57
307.644	9564.48
307.709	9563.13
307.775	9556.72
307.841	9561.4
307.907	9555.62
307.973	9530.38
308.039	9531.34
308.104	9535.77
308.17	9533.12
308.236	9517.71
308.302	9520.51
308.368	9508.08
308.433	9508.61
308.499	9503.56
308.565	9487.86
308.631	9489.74
308.696	9467.78
308.762	9455.83
308.828	9454.44
308.894	9434.98
308.959	9419.62
309.025	9408.5
309.091	9397.23
309.156	9384.42
309.222	9374.26
309.288	9364.68
309.354	9350.33
309.419	9346.23
309.485	9329.72
309.551	9332.9
309.616	9317.25
309.682	9310.65
309.748	9305.35
309.813	9300.78
309.879	9296.45
309.945	9286.53
310.01	9277.47
310.076	9280.36
310.141	9271.41
310.207	9249.35
310.273	9251.57
310.338	9256.67
310.404	9239.58
310.469	9228.36
310.535	9223.11
310.601	9203.37
310.666	9210.64
310.732	9214.25
310.797	9202.65
310.863	9197.26
310.928	9192.3
310.994	9192.06
311.059	9194.27
311.125	9193.26
311.191	9198.07
311.256	9187.39
311.322	9194.13
311.387	9178.1
311.453	9582.64
311.518	9557.08
311.584	9557.56
311.649	9565.7
311.715	9555.49
311.78	9554.48
311.846	9545.62
311.911	9550.49
311.976	9551.69
312.042	9529.83
312.107	9513.32
312.173	9501.57
312.238	9489.3
312.304	9480.15
312.369	9472.49
312.434	9458.87
312.5	9447.94
312.565	9416.79
312.631	9423.38
312.696	9414.77
312.761	9420.93
312.827	9002.71
312.892	9040.64
312.958	9034.15
313.023	9021.15
313.088	9015.27
313.154	9002.47
313.219	8994.09
313.284	8979.02
313.35	8973.68
313.415	8961.65
313.48	8954.86
313.546	8958.08
313.611	8963.96
313.676	8955.19
313.741	8943.64
313.807	8950.04
313.872	8952.26
313.937	8961.45
314.003	8963.19
314.068	8959.91
314.133	8960.68
314.198	8950.33
314.264	8927.75
314.329	8917.35
314.394	8914.47
314.459	8912.88
314.525	8929.29
314.59	8926.4
314.655	8913.7
314.72	8924.34
314.785	8929.49
314.851	8926.79
314.916	8906.09
314.981	8895.5
315.046	8891.6
315.111	8888.81
315.176	8873.26
315.242	8873.5
315.307	8866.91
315.372	8847.17
315.437	8836.92
315.502	8831.38
315.567	8841.97
315.632	8829.94
315.698	8835.96
315.763	8827
315.828	8814.54
315.893	8807.8
315.958	8806.16
316.023	8800.1
316.088	8772.32
316.153	8749.61
316.218	8748.21
316.283	8730.94
316.348	8716.55
316.413	8706.44
316.479	8687.57
316.544	8655.24
316.609	8626.65
316.674	8589.07
316.739	8557.55
316.804	8522.86
316.869	8482.2
316.934	8443.27
316.999	8413.43
317.064	8359.3
317.129	8317.54
317.194	8282.03
317.259	8230.31
317.324	8175.18
317.389	8129.67
317.454	8090.27
317.518	8057.81
317.583	8024.7
317.648	8000.46
317.713	7960.06
317.778	7898.2
317.843	7864.44
317.908	7823.9
317.973	7785.86
318.038	7758.78
318.103	7722.63
318.168	7690.36
318.233	7664.92
318.297	7619.44
318.362	7574.14
318.427	7535.64
318.492	7509.15
318.557	7466.17
318.622	7441.08
318.687	7418.68
318.751	7376.87
318.816	7342.74
318.881	7306.46
318.946	7249.45
319.011	7203.03
319.075	7157.91
319.14	7122.93
319.205	7078.43
319.27	7044.56
319.335	6992.87
319.399	6949.34
319.464	6915.18
319.529	6863.84
319.594	6814.4
319.658	6776.88
319.723	6740.57
319.788	6710.61
319.853	6656.38
319.917	6618.54
319.982	6556.83
320.047	6514.53
320.112	6484.72
320.176	6434.69
320.241	6399.06
320.306	6369.39
320.37	6327.58
320.435	6299.45
320.5	6269.4
320.564	6227.6
320.629	6186.67
320.694	6157.3
320.758	6114.12
320.823	6068.29
320.888	6040.85
320.952	5995.61
321.017	5956.32
321.082	5910.65
321.146	5872.32
321.211	5834.82
321.275	5794.29
321.34	5757.76
321.405	5714.98
321.469	5671.21
321.534	5628.92
321.598	5578.29
321.663	5543.67
321.727	5513.32
321.792	5462.98
321.857	5421.18
321.921	5385.66
321.986	5344.79
322.05	5287.49
322.115	5247.62
322.179	5208.58
322.244	5151.72
322.308	5115.98
322.373	5068.32
322.437	5024.46
322.502	5001.07
322.566	4961.13
322.631	4924.26
322.695	4880.69
322.76	4836.51
322.824	4804.14
322.889	4761.12
322.953	4714.65
323.018	4652.04
323.082	4587.29
323.146	4538.16
323.211	4485.96
323.275	4439.59
323.34	4394.1
323.404	4361.29
323.468	4318.53
323.533	4274.49
323.597	4231.13
323.662	4182.07
323.726	4146.93
323.79	4104.1
323.855	4034.42
323.919	3983.65
323.983	3938.39
324.048	3873.2
324.112	3990.51
324.177	3854.88
324.241	3655.25
324.305	3457.28
324.37	3263.23
324.434	3077.21
324.498	3032.69
324.562	2981
324.627	2919.55
324.691	2862.03
324.755	2795.12
324.82	2719.16
324.884	2639.01
324.948	2566.21
325.012	2468.66
325.077	2342.78
