Data from 20250630_urea_2M_MAYP1162681_20-32-27-457.txt Node
Date: Mon Jun 30 20:32:27 BST 2025
User: adleo
Spectrometer: MAYP116268
Trigger mode: 0
Integration Time (sec): 1.000000E0
Scans to average: 1
Electric dark correction enabled: true
Nonlinearity correction enabled: true
Boxcar width: 10
XAxis mode: Wavelengths
Number of Pixels in Spectrum: 2068
>>>>>Begin Spectral Data<<<<<
179.565	1138.17
179.642	1194.5
179.718	1236.18
179.795	1274.33
179.871	1306.06
179.948	1321.16
180.024	1340.3
180.101	1360.7
180.177	1373.85
180.254	1393.87
180.33	1414.36
180.407	1461.3
180.483	1551.14
180.56	1636.56
180.636	1715.32
180.712	1706.67
180.789	1713.42
180.865	1726.29
180.942	1737.17
181.018	1747.86
181.095	1758.22
181.171	1762.64
181.248	1761.17
181.324	1774.43
181.4	1778.28
181.477	1786.98
181.553	1797.48
181.63	1813.83
181.706	1829.8
181.782	1837.59
181.859	1837.78
181.935	1843.06
182.011	1842.92
182.088	1858.18
182.164	1874.96
182.24	1890.36
182.317	1897.63
182.393	1897.4
182.469	1909.85
182.546	1921.64
182.622	1925.02
182.698	1923.35
182.775	1935.67
182.851	1947.31
182.927	1940.94
183.003	1936.05
183.08	1929.68
183.156	1943.04
183.232	1943.51
183.308	1930.11
183.385	1936.62
183.461	1955.11
183.537	1954.31
183.613	1964.1
183.69	1956.21
183.766	1948.83
183.842	1952.54
183.918	1956.25
183.995	1970.42
184.071	1970.8
184.147	1965.33
184.223	1953.12
184.299	1962.82
184.375	1952.65
184.452	1959.83
184.528	2013.72
184.604	2026.32
184.68	2038.44
184.756	2043.82
184.832	2046.01
184.908	2052.85
184.985	2052.71
185.061	2038.92
185.137	2049.52
185.213	2038.49
185.289	2037.73
185.365	2029.84
185.441	2029.6
185.517	2042.35
185.593	2038.97
185.669	2038.78
185.745	2048.86
185.822	2065.5
185.898	2056.94
185.974	2065.5
186.05	2059.84
186.126	2021.35
186.202	2014.65
186.278	2010.13
186.354	2003.33
186.43	2011.99
186.506	2011.08
186.582	2009.99
186.658	2013.22
186.734	1993.73
186.81	1994.92
186.886	1999.1
186.962	2009.7
187.038	2007.04
187.114	1999.52
187.19	2007.89
187.266	1998.05
187.341	1999.91
187.417	1992.78
187.493	1993.78
187.569	1995.58
187.645	1988.97
187.721	1973.56
187.797	1982.22
187.873	1986.55
187.949	1977.65
188.025	1973.56
188.101	1974.18
188.176	1981.55
188.252	1977.8
188.328	1986.92
188.404	1987.44
188.48	1981.45
188.556	1973.99
188.632	1971.42
188.707	1973.51
188.783	1967.43
188.859	1964.95
188.935	1954.49
189.011	1962.29
189.086	1954.68
189.162	1947.5
189.238	1945.6
189.314	1946.12
189.39	1938.85
189.465	1931.81
189.541	1948.83
189.617	1931.53
189.693	1926.73
189.768	1928.06
189.844	1951.89
189.92	1940.2
189.996	1948.23
190.071	1961.41
190.147	1959.84
190.223	1969.01
190.298	1959.74
190.374	1950.23
190.45	1961.21
190.526	1968.54
190.601	1963.69
190.677	1968.58
190.753	1993.75
190.828	1996.13
190.904	2010.77
190.98	2025.38
191.055	2036.17
191.131	2026.28
191.207	2044.92
191.282	2055.42
191.358	2044.72
191.433	2028.69
191.509	2044.71
191.585	2043.81
191.66	2041.47
191.736	2049.65
191.811	2042.23
191.887	2058.41
191.963	2079.62
192.038	2087.09
192.114	2089.37
192.189	2092.37
192.265	2086.9
192.34	2066.01
192.416	2065.68
192.491	2060.87
192.567	2064.35
192.642	2068.25
192.718	2070.29
192.793	2059.31
192.869	2056.98
192.944	2063.54
193.02	2073.34
193.095	2075.33
193.171	2079.43
193.246	2084.13
193.322	2082.18
193.397	2080.62
193.473	2069.24
193.548	2050.55
193.624	2052.83
193.699	2049.51
193.775	2066.25
193.85	2068.25
193.925	2076.95
194.001	2076.05
194.076	2069.15
194.152	2057.4
194.227	2047.03
194.302	2037.72
194.378	2042.19
194.453	2038.1
194.529	2048.89
194.604	2032.49
194.679	2026.21
194.755	2009
194.83	2017.52
194.905	2014.04
194.981	2023.13
195.056	2013.95
195.131	2021.23
195.207	2018.89
195.282	2008.1
195.357	1988.31
195.433	2006.57
195.508	1994.02
195.583	2001.01
195.659	2014.52
195.734	2022.27
195.809	2024.27
195.884	2033.06
195.96	2032.06
196.035	2047.28
196.11	2043
196.185	2054.51
196.261	2059.88
196.336	2087.56
196.411	2073.57
196.486	2083.13
196.561	2079.33
196.637	2086.46
196.712	2100.07
196.787	2101.92
196.862	2119.19
196.937	2129.17
197.013	2132.12
197.088	2143.16
197.163	2165.33
197.238	2183
197.313	2184.85
197.388	2196.03
197.464	2226.63
197.539	2237.72
197.614	2231.11
197.689	2242.72
197.764	2261.09
197.839	2281.17
197.914	2277.69
197.989	2302.01
198.065	2313.29
198.14	2358.63
198.215	2385.9
198.29	2398.99
198.365	2412.13
198.44	2422.98
198.515	2448.83
198.59	2463.11
198.665	2489.68
198.74	2495.39
198.815	2495.78
198.89	2512.77
198.965	2543.16
199.04	2537.87
199.115	2552.68
199.19	2595.77
199.265	2601.63
199.34	2610.63
199.415	2639.31
199.49	2661.41
199.565	2668.12
199.64	2690.85
199.715	2688.27
199.79	2695.23
199.865	2702.47
199.94	2701.32
200.015	2731.96
200.09	2739.21
200.165	2745.54
200.24	2751.21
200.315	2792.7
200.39	2807.47
200.464	2815.1
200.539	2813.71
200.614	2828.86
200.689	2851.5
200.764	2855.5
200.839	2868.13
200.914	2873.42
200.989	2865.74
201.063	2875.7
201.138	2860.99
201.213	2860.32
201.288	2844.16
201.363	2849.69
201.438	2849.55
201.512	2865.74
201.587	2847.54
201.662	2851.35
201.737	2862.5
201.812	2868.46
201.886	2835.41
201.961	2843.37
202.036	2831.98
202.111	2828.93
202.186	2800.07
202.26	2782.87
202.335	2764.04
202.41	2757.32
202.485	2739.98
202.559	2723.59
202.634	2701.39
202.709	2708.53
202.784	2691.62
202.858	2691.43
202.933	2672.52
203.008	2666.47
203.082	2648.18
203.157	2647.94
203.232	2604.85
203.306	2584.79
203.381	2555.3
203.456	2530.92
203.53	2509.71
203.605	2493.29
203.68	2475.95
203.754	2470
203.829	2456.19
203.904	2435.58
203.978	2425.77
204.053	2430.48
204.127	2416.15
204.202	2412.06
204.277	2396.54
204.351	2390.31
204.426	2382.35
204.5	2373.31
204.575	2341.9
204.65	2351.23
204.724	2344.8
204.799	2353.6
204.873	2349.84
204.948	2347.65
205.022	2338.89
205.097	2329.27
205.171	2341.36
205.246	2346.79
205.32	2348.07
205.395	2349.88
205.469	2341.04
205.544	2348.46
205.618	2331.14
205.693	2341.75
205.767	2330.62
205.842	2350.28
205.916	2342.38
205.991	2333.52
206.065	2340.95
206.14	2352.37
206.214	2346.6
206.289	2338.22
206.363	2350.46
206.438	2354.07
206.512	2360.07
206.586	2377.16
206.661	2386.35
206.735	2365.46
206.81	2365.41
206.884	2377.88
206.958	2365.6
207.033	2381.78
207.107	2387.31
207.181	2419.69
207.256	2413.93
207.33	2433.16
207.405	2445.93
207.479	2466.64
207.553	2475.01
207.628	2458.88
207.702	2471.31
207.776	2466.78
207.851	2471.26
207.925	2485.98
207.999	2480.5
208.073	2480.26
208.148	2483.69
208.222	2474.07
208.296	2506.63
208.371	2524.35
208.445	2534.35
208.519	2562.11
208.593	2572.39
208.668	2568.11
208.742	2568.58
208.816	2572.34
208.89	2584.54
208.965	2584.35
209.039	2590.02
209.113	2607.31
209.187	2625.77
209.261	2622.96
209.336	2641.06
209.41	2656.97
209.484	2657.54
209.558	2679.17
209.632	2692.89
209.707	2702.37
209.781	2721.85
209.855	2734.1
209.929	2752.03
210.003	2755.84
210.077	2752.84
210.151	2798.67
210.226	2833.8
210.3	2858.89
210.374	2880.47
210.448	2888
210.522	2893.77
210.596	2906.21
210.67	2915.41
210.744	2964.09
210.818	2994.92
210.892	3016.23
210.966	3010.65
211.041	3025.62
211.115	3025.19
211.189	3051.46
211.263	3071.01
211.337	3081.55
211.411	3099.05
211.485	3093.61
211.559	3114.73
211.633	3126.79
211.707	3102.12
211.781	3113.91
211.855	3088.82
211.929	3089.49
212.003	3079.76
212.077	3100.99
212.151	3122.27
212.225	3140.63
212.299	3143.4
212.373	3148.7
212.447	3160.34
212.52	3212.2
212.594	3236.2
212.668	3271.36
212.742	3277.23
212.816	3298.71
212.89	3321.37
212.964	3351.79
213.038	3386.45
213.112	3429.33
213.186	3477.39
213.26	3496.86
213.333	3491.99
213.407	3539.28
213.481	3589.69
213.555	3650.06
213.629	3692.49
213.703	3731.19
213.777	3791.17
213.85	3833.51
213.924	3927.12
213.998	3994.58
214.072	4054.13
214.146	4115.39
214.219	4182.68
214.293	4257.02
214.367	4338.44
214.441	4428.19
214.515	4502.81
214.588	4575.27
214.662	4633.52
214.736	4712.12
214.81	4823.81
214.883	4938.52
214.957	5038.69
215.031	5138.11
215.105	5229.05
215.178	5330.9
215.252	5444.15
215.326	5537.55
215.4	5643.39
215.473	5726.01
215.547	5837.5
215.621	5954.75
215.694	6095.14
215.768	6215.32
215.842	6350.53
215.915	6480.61
215.989	6606.34
216.063	6742.19
216.136	6892.27
216.21	7047.41
216.284	7206.95
216.357	7357.58
216.431	7505.47
216.504	7671.3
216.578	7856.11
216.652	8030.31
216.725	8196.02
216.799	8375.74
216.873	8543.3
216.946	8722.63
217.02	8886.92
217.093	9053.8
217.167	9208.86
217.24	9354.99
217.314	9518.63
217.387	9679.12
217.461	9842.57
217.535	10019.81
217.608	10187.58
217.682	10357.11
217.755	10541.72
217.829	10701.43
217.902	10875.32
217.976	11046.22
218.049	11206.35
218.123	11353.2
218.196	11519.99
218.27	11683.46
218.343	11832.69
218.417	12006.1
218.49	12157.64
218.563	12333.23
218.637	12496.29
218.71	12680.42
218.784	12854.82
218.857	13030.67
218.931	13193.26
219.004	13359.27
219.077	13529.15
219.151	13684.41
219.224	13831.3
219.298	13980.73
219.371	14150.84
219.444	14295.17
219.518	14449.76
219.591	14595.44
219.665	14771.47
219.738	14925.44
219.811	15060.65
219.885	15206.8
219.958	15350.34
220.031	15495.29
220.105	15631.65
220.178	15774.08
220.251	15898.96
220.325	16038.69
220.398	16159.53
220.471	16295.64
220.544	16428.33
220.618	16545.93
220.691	16673.7
220.764	16796.89
220.838	16923.88
220.911	17036.17
220.984	17166.64
221.057	17283.46
221.131	17399.03
221.204	17479.17
221.277	17601.58
221.35	17730.98
221.424	17828.81
221.497	17921.72
221.57	18027.36
221.643	18137.24
221.716	18242.92
221.79	18328.41
221.863	18420.17
221.936	18522.91
222.009	18611.19
222.082	18699.82
222.155	18777.4
222.229	18882.41
222.302	18980.67
222.375	19050.3
222.448	19124.47
222.521	19197.57
222.594	19280.12
222.667	19346.67
222.74	19430.09
222.814	19494.66
222.887	19569.55
222.96	19651.43
223.033	19733.69
223.106	19808.62
223.179	19876.48
223.252	19936.81
223.325	20014.98
223.398	20070.25
223.471	20131.36
223.544	20194.39
223.617	20250.64
223.69	20316.61
223.763	20353.28
223.837	20406.97
223.91	20472.61
223.983	20513.48
224.056	20559.79
224.129	20594.68
224.202	20655.31
224.275	20699.21
224.348	20735.41
224.42	20759.74
224.493	20790.35
224.566	20834.64
224.639	20868.81
224.712	20895.17
224.785	20930.89
224.858	20950.55
224.931	20987.18
225.004	21018.55
225.077	21049.49
225.15	21055.47
225.223	21086.65
225.296	21137.26
225.369	21137.21
225.442	21154.04
225.514	21194.04
225.587	21225.32
225.66	21266.67
225.733	21299.83
225.806	21328.8
225.879	21356.61
225.952	21374.88
226.025	21416.23
226.097	21438.93
226.17	21464.24
226.243	21470.17
226.316	21485.21
226.389	21521.21
226.461	21542.18
226.534	21555.77
226.607	21575.24
226.68	21624.79
226.753	21638.96
226.825	21630.05
226.898	21670.73
226.971	21680.08
227.044	21697.67
227.117	21707.36
227.189	21734.59
227.262	21744.86
227.335	21762.31
227.407	21764.24
227.48	21788.48
227.553	21797.98
227.626	21811.96
227.698	21830.08
227.771	21856.5
227.844	21861.41
227.916	21867.49
227.989	21874.52
228.062	21894.43
228.134	21926.25
228.207	21929.72
228.28	21927.6
228.352	21942.49
228.425	21948.81
228.498	21975.75
228.57	21971.37
228.643	21999.13
228.716	21996.19
228.788	22001.45
228.861	22006.36
228.934	22037.07
229.006	22028.3
229.079	22022.7
229.151	22016.58
229.224	21989.54
229.296	21992.48
229.369	22025.74
229.442	22033.7
229.514	22024.83
229.587	22033.65
229.659	22013.31
229.732	22025.21
229.804	22044.74
229.877	22072.26
229.949	22091.16
230.022	22108.13
230.094	22115.74
230.167	22112.8
230.239	22104.75
230.312	22103.26
230.384	22122.49
230.457	22116.23
230.529	22126.83
230.602	22130.88
230.674	22141.39
230.747	22171.13
230.819	22189.06
230.892	22156.04
230.964	22160.86
231.037	22178.36
231.109	22174.21
231.181	22180.14
231.254	22168.38
231.326	22158.35
231.399	22143.99
231.471	22129.38
231.544	22103.74
231.616	22109.86
231.688	22112.36
231.761	22104.41
231.833	22093.61
231.905	22057.75
231.978	22041.31
232.05	22021.74
232.122	22015.18
232.195	22001.88
232.267	22006.03
232.339	21982.94
232.412	21998.7
232.484	21991.13
232.556	21959.46
232.629	21965.97
232.701	21960.91
232.773	21942.06
232.846	21927.21
232.918	21917.33
232.99	21911.45
233.062	21901.91
233.135	21877.13
233.207	21839.34
233.279	21831.48
233.351	21834.71
233.424	21823
233.496	21807.72
233.568	21822.9
233.64	21798.61
233.713	21777.98
233.785	21752.09
233.857	21733.05
233.929	21695.46
234.001	21688.85
234.074	21688.27
234.146	21649.13
234.218	21631.44
234.29	21618.86
234.362	21595.39
234.434	21560.97
234.507	21530.8
234.579	21494.51
234.651	21478.31
234.723	21475.47
234.795	21458.16
234.867	21429.2
234.939	21417.92
235.012	21401
235.084	21381.29
235.156	21373.86
235.228	21345.14
235.3	21316.36
235.372	21301.28
235.444	21285.37
235.516	21231.39
235.588	21215.15
235.66	21187.14
235.732	21164.01
235.804	21187.72
235.876	21171.96
235.948	21164.98
236.02	21136.78
236.092	21115.09
236.164	21098.47
236.236	21056.73
236.308	21028.63
236.38	21004.15
236.452	20977.16
236.524	20953.88
236.596	20942.26
236.668	20909.87
236.74	20890.79
236.812	20867.22
236.884	20844.23
236.956	20816.67
237.028	20782.69
237.1	20744.67
237.172	20744.18
237.244	20723.31
237.316	20662.49
237.388	20636.66
237.46	20599.88
237.532	20590.92
237.604	20563.07
237.675	20545.19
237.747	20537.86
237.819	20503.31
237.891	20477.81
237.963	20440.75
238.035	20409.72
238.107	20334.78
238.178	20323.02
238.25	20290.73
238.322	20273.86
238.394	20225.53
238.466	20193.82
238.538	20177.43
238.609	20156.27
238.681	20106.01
238.753	20068.56
238.825	20032.81
238.897	19991.27
238.968	19977.19
239.04	19936.81
239.112	19937.72
239.184	19889.82
239.255	19846.84
239.327	19820.86
239.399	19786.55
239.471	19757.54
239.542	19728.58
239.614	19719.47
239.686	19664.1
239.758	19643.09
239.829	19611.33
239.901	19596.39
239.973	19566.32
240.044	19550.66
240.116	19510.66
240.188	19466.95
240.259	19427.05
240.331	19397.22
240.403	19372.98
240.474	19323.06
240.546	19274.63
240.618	19215.88
240.689	19182.78
240.761	19152.9
240.833	19137.04
240.904	19108.13
240.976	19075.94
241.048	19048.71
241.119	19020.52
241.191	18989.2
241.262	18968.52
241.334	18929.35
241.405	18894.5
241.477	18864.96
241.549	18814.03
241.62	18788
241.692	18756.87
241.763	18741.94
241.835	18708.64
241.906	18680.88
241.978	18630.23
242.049	18610.62
242.121	18586.81
242.192	18566.38
242.264	18520.84
242.335	18467.54
242.407	18433.47
242.478	18387.88
242.55	18354.15
242.621	18319.65
242.693	18279.26
242.764	18238.11
242.836	18197.63
242.907	18169.24
242.979	18133.97
243.05	18110.69
243.122	18080.09
243.193	18047.71
243.264	17984.48
243.336	17940.67
243.407	17913.2
243.479	17896.29
243.55	17871.13
243.622	17842.89
243.693	17802.56
243.764	17783.18
243.836	17739.14
243.907	17702.22
243.978	17673.11
244.05	17639.04
244.121	17587.28
244.192	17574.27
244.264	17526.42
244.335	17493.26
244.407	17442.51
244.478	17410.27
244.549	17376.25
244.62	17331.04
244.692	17296.97
244.763	17274.46
244.834	17232.53
244.906	17198.22
244.977	17176.1
245.048	17146.08
245.119	17101.93
245.191	17062.94
245.262	17005.98
245.333	16986.22
245.405	16953.44
245.476	16927.95
245.547	16899.9
245.618	16874.16
245.689	16832.86
245.761	16805.53
245.832	16760.42
245.903	16737.19
245.974	16707.22
246.045	16666.97
246.117	16650.15
246.188	16617.38
246.259	16573.47
246.33	16540.12
246.401	16491.54
246.473	16436.11
246.544	16400.49
246.615	16372.49
246.686	16328.44
246.757	16312.05
246.828	16275.37
246.899	16265.25
246.97	16208.62
247.042	16166.11
247.113	16139.65
247.184	16133.77
247.255	16092.27
247.326	16072.99
247.397	16036.41
247.468	16008.5
247.539	15971.34
247.61	15919.81
247.681	15890.46
247.752	15878.17
247.823	15845.01
247.894	15820.81
247.965	15790.49
248.037	15752.99
248.108	15711.49
248.179	15699.2
248.25	15675.92
248.321	15648.06
248.392	15592.39
248.463	15596.15
248.534	15564.87
248.605	15541.2
248.675	15502.98
248.746	15482.88
248.817	15454.88
248.888	15436.37
248.959	15383.34
249.03	15365.7
249.101	15346.08
249.172	15310.46
249.243	15254.98
249.314	15234.54
249.385	15210.97
249.456	15181.04
249.527	15144.11
249.598	15118.9
249.669	15069.93
249.739	15037.87
249.81	15017.44
249.881	14980.46
249.952	14946.05
250.023	14914.33
250.094	14874.27
250.165	14830.07
250.235	14797.68
250.306	14776.08
250.377	14732.07
250.448	14714.43
250.519	14666.13
250.59	14650.27
250.66	14622.89
250.731	14614.41
250.802	14585.68
250.873	14553.76
250.944	14532.51
251.014	14502.04
251.085	14498.52
251.156	14484.06
251.227	14463.91
251.297	14443.57
251.368	14430.46
251.439	14417.39
251.51	14402.16
251.58	14367.45
251.651	14344.41
251.722	14334.04
251.792	14290.61
251.863	14269.93
251.934	14263.42
252.005	14270.12
252.075	14235.99
252.146	14222.11
252.217	14205.96
252.287	14195.94
252.358	14173.66
252.429	14166.96
252.499	14139.1
252.57	14120.11
252.641	14107
252.711	14089.54
252.782	14054.07
252.852	14048.18
252.923	14017.53
252.994	13996.75
253.064	13991.25
253.135	13958.47
253.205	13924.54
253.276	13912.92
253.347	13902.79
253.417	13867.99
253.488	13833.04
253.558	13804.07
253.629	13779
253.699	13760.2
253.77	13737.88
253.841	13709.49
253.911	13692.37
253.982	13669.43
254.052	13650.58
254.123	13624.79
254.193	13596.2
254.264	13605.6
254.334	13563.61
254.405	13525.24
254.475	13487.98
254.546	13460.74
254.616	13450.13
254.687	13431.77
254.757	13415.57
254.827	13382.84
254.898	13359.8
254.968	13339.89
255.039	13317.28
255.109	13301.8
255.18	13270.81
255.25	13226.7
255.321	13211.27
255.391	13168.99
255.461	13170.44
255.532	13114.23
255.602	13090.18
255.673	13046.36
255.743	13008.37
255.813	12968.7
255.884	12960.45
255.954	12951.34
256.024	12938.42
256.095	12913.12
256.165	12876.58
256.235	12857.78
256.306	12835.07
256.376	12829.29
256.446	12812.46
256.517	12795.11
256.587	12784.5
256.657	12763.87
256.728	12751.43
256.798	12731.48
256.868	12710.7
256.938	12680.67
257.009	12673.39
257.079	12657.96
257.149	12669.58
257.219	12638.78
257.29	12635.64
257.36	12593.66
257.43	12576.4
257.5	12535.48
257.571	12511.62
257.641	12499.32
257.711	12458.35
257.781	12445.67
257.852	12423.88
257.922	12386.14
257.992	12361.65
258.062	12338.03
258.132	12326.95
258.202	12302.41
258.273	12287.9
258.343	12283.56
258.413	12257.24
258.483	12240.03
258.553	12208.51
258.623	12170.33
258.693	12153.27
258.764	12139.72
258.834	12141.22
258.904	12122.61
258.974	12098.7
259.044	12081.3
259.114	12063.57
259.184	12050.07
259.254	12031.75
259.324	11991.55
259.394	11982.68
259.464	11979.21
259.535	11957.52
259.605	11929.13
259.675	11901.18
259.745	11882.52
259.815	11855.58
259.885	11824.15
259.955	11828.73
260.025	11799.72
260.095	11782.61
260.165	11768.63
260.235	11759.42
260.305	11735.42
260.375	11706.6
260.445	11712.38
260.515	11710.16
260.585	11706.93
260.655	11693.77
260.725	11687.56
260.795	11681.77
260.865	11678.11
260.934	11658.35
261.004	11646.15
261.074	11628.61
261.144	11627.79
261.214	11618.92
261.284	11597.67
261.354	11597.33
261.424	11569.76
261.494	11577.18
261.564	11559.69
261.634	11548.55
261.703	11517.66
261.773	11506.52
261.843	11496.6
261.913	11471.82
261.983	11425.22
262.053	11414.37
262.123	11392.4
262.192	11355.82
262.262	11347.53
262.332	11313.17
262.402	11301.12
262.472	11284.1
262.541	11242.37
262.611	11234.85
262.681	11204.83
262.751	11195.67
262.821	11175.38
262.89	11144.1
262.96	11129.55
263.03	11137.02
263.1	11118.75
263.169	11098.42
263.239	11089.5
263.309	11088.78
263.379	11081.07
263.448	11076.2
263.518	11060.97
263.588	11050.9
263.657	11049.7
263.727	11033.22
263.797	11019.39
263.867	10995.19
263.936	10965.51
264.006	10973.6
264.076	10956.06
264.145	10938.38
264.215	10911.15
264.285	10908.07
264.354	10874.92
264.424	10860.03
264.494	10823.93
264.563	10806.58
264.633	10811.21
264.702	10794.44
264.772	10764.22
264.842	10741.43
264.911	10726.16
264.981	10695.27
265.05	10678.84
265.12	10663.42
265.19	10652.91
265.259	10652.91
265.329	10639.66
265.398	10633.98
265.468	10643.37
265.537	10623.43
265.607	10615.48
265.676	10606.9
265.746	10596.73
265.815	10602.75
265.885	10574.81
265.955	10550.77
266.024	10531.64
266.094	10498.78
266.163	10495.17
266.232	10489.24
266.302	10472.28
266.371	10463.61
266.441	10452.14
266.51	10445.97
266.58	10428.49
266.649	10401.31
266.719	10387.24
266.788	10385.03
266.858	10378.57
266.927	10338.29
266.996	10326.05
267.066	10318.39
267.135	10296.19
267.205	10287.08
267.274	10270.41
267.343	10271.37
267.413	10261.11
267.482	10263.09
267.552	10267.71
267.621	10237.46
267.69	10202.48
267.76	10191.88
267.829	10178.93
267.898	10167.22
267.968	10146.84
268.037	10140.1
268.106	10142.07
268.176	10121.74
268.245	10102.91
268.314	10084.94
268.384	10087.59
268.453	10074.97
268.522	10069.86
268.592	10070.1
268.661	10048.32
268.73	10037.87
268.799	10018.27
268.869	10025.35
268.938	9993.02
269.007	9967.4
269.076	9953.28
269.146	9957.04
269.215	9947.65
269.284	9953.33
269.353	9934.69
269.422	9928.19
269.492	9905.17
269.561	9867.84
269.63	9860.42
269.699	9846.74
269.768	9835.13
269.838	9823.67
269.907	9822.51
269.976	9796.45
270.045	9766.54
270.114	9761.73
270.183	9748.48
270.253	9738.56
270.322	9708.94
270.391	9704.03
270.46	9707.69
270.529	9705.42
270.598	9704.36
270.667	9697.52
270.736	9674.36
270.806	9666.89
270.875	9658.41
270.944	9645.65
271.013	9663.47
271.082	9650.66
271.151	9644.21
271.22	9618.88
271.289	9602.84
271.358	9587.52
271.427	9579.96
271.496	9569.85
271.565	9557.52
271.634	9551.5
271.703	9557.09
271.772	9558.05
271.841	9540.19
271.91	9516.97
271.979	9514.42
272.048	9484.23
272.117	9480.08
272.186	9465.68
272.255	9462.17
272.324	9456.92
272.393	9456.34
272.462	9434.48
272.531	9431.64
272.6	9419.84
272.669	9426.58
272.738	9416.13
272.807	9409.34
272.876	9384.78
272.945	9410.02
273.013	9406.31
273.082	9405.06
273.151	9380.93
273.22	9370.87
273.289	9365.67
273.358	9376.84
273.427	9358.92
273.496	9366.63
273.564	9367.54
273.633	9367.64
273.702	9350.98
273.771	9342.51
273.84	9334.8
273.909	9330.47
273.977	9324.01
274.046	9316.02
274.115	9320.89
274.184	9305.58
274.253	9299.27
274.322	9303.74
274.39	9269.85
274.459	9250.73
274.528	9220.11
274.597	9205.33
274.665	9198.59
274.734	9202.63
274.803	9188.52
274.872	9184.53
274.94	9168.06
275.009	9207.66
275.078	9193.45
275.147	9191.58
275.215	9181.46
275.284	9185.41
275.353	9179.3
275.421	9157.87
275.49	9168.27
275.559	9151.18
275.627	9142.18
275.696	9134.81
275.765	9137.89
275.833	9131.92
275.902	9135.63
275.971	9149.02
276.039	9167.31
276.108	9172.8
276.177	9164.04
276.245	9152.53
276.314	9143.14
276.383	9145.26
276.451	9085.2
276.52	9088.09
276.588	9098.06
276.657	9102.1
276.725	9087.8
276.794	9084.33
276.863	9093.24
276.931	9069.31
277	9071.53
277.068	9084.28
277.137	9099.11
277.205	9094.3
277.274	9111.34
277.342	9118.56
277.411	9099.11
277.48	9091.75
277.548	9080.19
277.617	9084.86
277.685	9077.83
277.754	9081.93
277.822	9074.9
277.89	9091.8
277.959	9079.96
278.027	9055.55
278.096	9046.26
278.164	9073.17
278.233	9067.01
278.301	9054.54
278.37	9057.19
278.438	9046.36
278.507	9043.28
278.575	9013.67
278.643	9009.09
278.712	8989.45
278.78	8971.69
278.849	8974.53
278.917	8979.44
278.985	8978.33
279.054	8981.08
279.122	8993.98
279.191	8992.29
279.259	8990.8
279.327	8959.7
279.396	8977.37
279.464	8978.86
279.532	8984.01
279.601	8978.33
279.669	8972.21
279.737	8986.7
279.806	8992.1
279.874	9000.62
279.942	9004.76
280.011	8998.16
280.079	9005
280.147	9020.5
280.215	9025.55
280.284	9026.37
280.352	9010.2
280.42	9012.84
280.488	8997.01
280.557	8983.14
280.625	8989.64
280.693	8988.97
280.761	8998.5
280.83	8980.06
280.898	8988.34
280.966	8968.56
281.034	8934.62
281.102	8920.95
281.171	8914.64
281.239	8915.02
281.307	8908.33
281.375	8891.34
281.443	8918.88
281.512	8909.34
281.58	8915.22
281.648	8901.31
281.716	8899.28
281.784	8897.6
281.852	8894.13
281.92	8900.25
281.989	8914.59
282.057	8896.44
282.125	8938.82
282.193	8930.73
282.261	8935.69
282.329	8931.4
282.397	8938.48
282.465	8942.52
282.533	8959.42
282.601	8941.46
282.67	8920.72
282.738	8906.42
282.806	8911.28
282.874	8898.43
282.942	8906.56
283.01	8898.28
283.078	8903.53
283.146	8903.43
283.214	8914.26
283.282	8911.28
283.35	8917.83
283.418	8910.56
283.486	8911.95
283.554	8861.88
283.622	8867.27
283.69	8859.81
283.758	8855.72
283.826	8859.09
283.894	8868.66
283.962	8890.43
284.03	8905.97
284.098	8910.4
284.165	8912.04
284.233	8920.46
284.301	8915.94
284.369	8908.38
284.437	8896.39
284.505	8885.47
284.573	8894.9
284.641	8879.88
284.709	8889.85
284.777	8873
284.845	8875.36
284.912	8874.39
284.98	8876.13
285.048	8868.33
285.116	8872.56
285.184	8884.89
285.252	8876.61
285.319	8861.21
285.387	8847.1
285.455	8835.98
285.523	8841.27
285.591	8839.64
285.659	8838.43
285.726	8846.33
285.794	8830.16
285.862	8832.9
285.93	8834.92
285.997	8829.43
286.065	8825.15
286.133	8810.04
286.201	8803.59
286.269	8788.18
286.336	8780.24
286.404	8780.92
286.472	8785.05
286.539	8763.93
286.607	8746.21
286.675	8752.86
286.743	8760.89
286.81	8749.92
286.878	8761.9
286.946	8753.58
287.013	8747.22
287.081	8743.52
287.149	8726.04
287.216	8746.93
287.284	8735.96
287.352	8730.47
287.419	8726.24
287.487	8741.45
287.555	8746.07
287.622	8748.28
287.69	8748.62
287.758	8763.3
287.825	8756.56
287.893	8747.99
287.96	8755.65
288.028	8764.55
288.096	8761.23
288.163	8762.14
288.231	8758.34
288.298	8752.85
288.366	8765.66
288.433	8764.79
288.501	8752.18
288.569	8761.04
288.636	8754.06
288.704	8767.58
288.771	8775.57
288.839	8769.07
288.906	8760.46
288.974	8770.52
289.041	8763.73
289.109	8758.2
289.176	8760.41
289.244	8764.5
289.311	8773.07
289.379	8782.26
289.446	8785.97
289.514	8785.83
289.581	8790.88
289.649	8792.47
289.716	8792.57
289.783	8784.29
289.851	8801.47
289.918	8805.27
289.986	8812.88
290.053	8817.54
290.121	8816.58
290.188	8820.1
290.255	8847.53
290.323	8844.65
290.39	8839.21
290.458	8852.1
290.525	8868.37
290.592	8866.3
290.66	8867.46
290.727	8865.58
290.794	8878.1
290.862	8878.87
290.929	8884.5
290.996	8877.23
291.064	8887.68
291.131	8897.64
291.198	8912.66
291.266	8912.42
291.333	8920.51
291.4	8918
291.468	8924.89
291.535	8924.41
291.602	8930.09
291.669	8920.17
291.737	8924.79
291.804	8917.91
291.871	8927.34
291.938	8934.56
292.006	8964.41
292.073	8975.24
292.14	8985.55
292.207	8981.07
292.275	8985.35
292.342	8999.17
292.409	9028.15
292.476	9052.13
292.543	9044.77
292.611	9045.54
292.678	9066.62
292.745	9085.5
292.812	9101.33
292.879	9103.21
292.946	9097.2
293.014	9113.85
293.081	9121.36
293.148	9128.25
293.215	9146.69
293.282	9148.56
293.349	9154.34
293.416	9131.32
293.484	9143.41
293.551	9156.84
293.618	9174.51
293.685	9195.26
293.752	9188.81
293.819	9185.01
293.886	9166.28
293.953	9175.38
294.02	9182.74
294.087	9184.53
294.154	9173.88
294.221	9183.13
294.288	9180.39
294.356	9206.38
294.423	9211.1
294.49	9211.49
294.557	9228.19
294.624	9225.11
294.691	9241.34
294.758	9242.59
294.825	9254
294.892	9248.18
294.959	9245.24
295.026	9250.73
295.093	9243.46
295.16	9243.55
295.226	9240.66
295.293	9266.33
295.36	9268.64
295.427	9283.28
295.494	9299.7
295.561	9308.8
295.628	9338.04
295.695	9354.74
295.762	9355.9
295.829	9360.47
295.896	9371.64
295.963	9380.6
296.03	9393.36
296.096	9400.06
296.163	9414.12
296.23	9427.02
296.297	9443.15
296.364	9440.02
296.431	9445.7
296.498	9441.66
296.564	9466.65
296.631	9475.22
296.698	9460.49
296.765	9482.16
296.832	9471.37
296.899	9451
296.965	9470.74
297.032	9450.13
297.099	9467.75
297.166	9474.78
297.233	9471.12
297.299	9468.67
297.366	9467.46
297.433	9464.38
297.5	9469.05
297.566	9472.81
297.633	9474.54
297.7	9474.83
297.767	9477.53
297.833	9481.96
297.9	9485.91
297.967	9472.66
298.033	9486.53
298.1	9514.9
298.167	9506.91
298.234	9507.05
298.3	9517.98
298.367	9517.79
298.434	9516.1
298.5	9510.66
298.567	9507.77
298.634	9507.72
298.7	9526.79
298.767	9534.16
298.834	9546.92
298.9	9543.65
298.967	9530.36
299.033	9539.7
299.1	9558.24
299.167	9572.4
299.233	9565.37
299.3	9575.92
299.366	9589.59
299.433	9599.23
299.5	9575
299.566	9581.12
299.633	9602.26
299.699	9612.76
299.766	9606.02
299.832	9613.58
299.899	9615.94
299.965	9635.2
300.032	9637.18
300.099	9640.5
300.165	9641.75
300.232	9638.14
300.298	9638.38
300.365	9654.85
300.431	9651.86
300.498	9642.81
300.564	9649.55
300.631	9656.97
300.697	9672.96
300.763	9671.42
300.83	9664.91
300.896	9676.95
300.963	9686.15
301.029	9685.29
301.096	9690.97
301.162	9699.01
301.229	9695.69
301.295	9693.33
301.361	9685.38
301.428	9691.35
301.494	9673.39
301.561	9675.51
301.627	9682.49
301.693	9684.03
301.76	9689.67
301.826	9685.19
301.892	9698.68
301.959	9705.51
302.025	9704.7
302.092	9693.14
302.158	9700.94
302.224	9708.16
302.291	9700.7
302.357	9691.84
302.423	9683.7
302.49	9672.43
302.556	9685.62
302.622	9683.02
302.688	9691.16
302.755	9708.31
302.821	9717.27
302.887	9735.14
302.954	9732.15
303.02	9733.11
303.086	9738.56
303.152	9728.49
303.219	9723.53
303.285	9722.61
303.351	9725.65
303.417	9731.96
303.483	9727.58
303.55	9717.32
303.616	9715.82
303.682	9709.27
303.748	9704.17
303.815	9719.53
303.881	9735.53
303.947	9724.59
304.013	9726.28
304.079	9713.71
304.145	9693.28
304.212	9684.37
304.278	9666.99
304.344	9668.34
304.41	9662.32
304.476	9657.84
304.542	9654.23
304.608	9665.93
304.674	9651.58
304.741	9651
304.807	9649.6
304.873	9653.94
304.939	9668.48
305.005	9645.51
305.071	9648.83
305.137	9647.39
305.203	9618.68
305.269	9611.07
305.335	9623.21
305.401	9615.36
305.467	9611.17
305.533	9618.73
305.599	9631.06
305.666	9646.66
305.732	9640.31
305.798	9648.93
305.864	9674.55
305.93	9677.92
305.996	9672.53
306.062	9670.41
306.128	9661.74
306.194	9646.14
306.259	9650.86
306.325	9640.12
306.391	9650.09
306.457	9660.3
306.523	9666.85
306.589	9693.14
306.655	9687.31
306.721	9664.68
306.787	9657.84
306.853	9672.62
306.919	9657.79
306.985	9646.57
307.051	9632.8
307.117	9629.28
307.183	9619.31
307.248	9585.11
307.314	9590.94
307.38	9595.47
307.446	9606.26
307.512	9596.67
307.578	9607.65
307.644	9599.46
307.709	9598.36
307.775	9595.37
307.841	9585.31
307.907	9585.5
307.973	9567.44
308.039	9564.88
308.104	9571.05
308.17	9581.45
308.236	9568.06
308.302	9570.08
308.368	9555.78
308.433	9557.85
308.499	9551.64
308.565	9542.2
308.631	9546.97
308.696	9524.05
308.762	9506.28
308.828	9501.6
308.894	9482.92
308.959	9462.5
309.025	9450.37
309.091	9449.45
309.156	9437.51
309.222	9437.22
309.288	9421.62
309.354	9406.74
309.419	9403.95
309.485	9387.14
309.551	9379.92
309.616	9362.44
309.682	9359.55
309.748	9352.47
309.813	9341.93
309.879	9334.56
309.945	9326.85
310.01	9320.98
310.076	9321.7
310.141	9317.27
310.207	9299.16
310.273	9302.05
310.338	9304.36
310.404	9287.66
310.469	9271.77
310.535	9264.93
310.601	9244.32
310.666	9250.87
310.732	9252.03
310.797	9232.57
310.863	9226.46
310.928	9219.96
310.994	9222.61
311.059	9216.73
311.125	9214.76
311.191	9231.03
311.256	9219.77
311.322	9224.25
311.387	9200.22
311.453	9584.72
311.518	9558.87
311.584	9555.88
311.649	9559.11
311.715	9549.24
311.78	9551.79
311.846	9550.92
311.911	9562.82
311.976	9570.42
312.042	9552.95
312.107	9542.79
312.173	9538.55
312.238	9530.42
312.304	9523.77
312.369	9515.59
312.434	9501.91
312.5	9496.14
312.565	9460.41
312.631	9459.45
312.696	9446.83
312.761	9449.77
312.827	9058.58
312.892	9095.79
312.958	9090.5
313.023	9088.23
313.088	9083.52
313.154	9068.93
313.219	9051.02
313.284	9035.18
313.35	9028.78
313.415	9019
313.48	9015.44
313.546	9016.65
313.611	9026.52
313.676	9019.73
313.741	9009.57
313.807	9015.2
313.872	9017.61
313.937	9019.54
314.003	9038.41
314.068	9037.54
314.133	9036.19
314.198	9019.54
314.264	8991.52
314.329	8977.84
314.394	8972.31
314.459	8968.36
314.525	8986.22
314.59	8983.52
314.655	8963.88
314.72	8965.47
314.785	8966.72
314.851	8952.67
314.916	8931.3
314.981	8919.26
315.046	8908.33
315.111	8906.55
315.176	8894.9
315.242	8893.7
315.307	8895.05
315.372	8872.18
315.437	8862.98
315.502	8856.53
315.567	8874.92
315.632	8866.59
315.698	8872.08
315.763	8867.32
315.828	8856.34
315.893	8844.5
315.958	8841.03
316.023	8835.93
316.088	8815.33
316.153	8793.53
316.218	8787.27
316.283	8777.41
316.348	8754.93
316.413	8746.22
316.479	8725.77
316.544	8689.63
316.609	8659.69
316.674	8616.24
316.739	8579.57
316.804	8547.43
316.869	8512.88
316.934	8469.22
316.999	8439.53
317.064	8383.96
317.129	8339.35
317.194	8307.16
317.259	8262.32
317.324	8207.86
317.389	8168.85
317.454	8134.26
317.518	8100.73
317.583	8075.09
317.648	8045.84
317.713	8006.3
317.778	7952.38
317.843	7920.87
317.908	7883.08
317.973	7837.49
318.038	7810.17
318.103	7767.77
318.168	7733.05
318.233	7700.59
318.297	7651.44
318.362	7614.08
318.427	7578.8
318.492	7550.43
318.557	7501.35
318.622	7473.75
318.687	7451.3
318.751	7408.57
318.816	7373.38
318.881	7339.93
318.946	7286.52
319.011	7240.38
319.075	7199.35
319.14	7160.19
319.205	7115.2
319.27	7083.98
319.335	7042.51
319.399	7004.36
319.464	6980.29
319.529	6930.38
319.594	6885.37
319.658	6853.86
319.723	6806.64
319.788	6777
319.853	6720.8
319.917	6691.17
319.982	6637.19
320.047	6598.39
320.112	6571.59
320.176	6517.76
320.241	6479.11
320.306	6444.93
320.37	6405.08
320.435	6377.76
320.5	6351.12
320.564	6308.74
320.629	6265.26
320.694	6229.89
320.758	6185.79
320.823	6140.15
320.888	6106.08
320.952	6065.06
321.017	6021.45
321.082	5981.54
321.146	5947.13
321.211	5916.77
321.275	5873.22
321.34	5830.01
321.405	5786.7
321.469	5740.66
321.534	5697.99
321.598	5645.77
321.663	5611
321.727	5577.35
321.792	5525.18
321.857	5484.33
321.921	5446.42
321.986	5403.24
322.05	5349.58
322.115	5311.1
322.179	5266.78
322.244	5212.08
322.308	5176.38
322.373	5133.12
322.437	5092.41
322.502	5064.8
322.566	5012.44
322.631	4976.24
322.695	4934.87
322.76	4890.39
322.824	4851.17
322.889	4813.5
322.953	4771.43
323.018	4712.22
323.082	4648.9
323.146	4598
323.211	4540.81
323.275	4493.15
323.34	4452.49
323.404	4417.67
323.468	4370.36
323.533	4324.69
323.597	4284.34
323.662	4231.31
323.726	4193
323.79	4146.05
323.855	4074.78
323.919	4028.13
323.983	3979.28
324.048	3914.32
324.112	4070.14
324.177	3941.36
324.241	3734.17
324.305	3534.14
324.37	3335.79
324.434	3147.15
324.498	3104.69
324.562	3056.55
324.627	3000.78
324.691	2942.93
324.755	2880.11
324.82	2809.58
324.884	2735.78
324.948	2665.06
325.012	2576.46
325.077	2456.05
