Data from 20250630_urea_2M_MAYP1162681_07-12-27-358.txt Node
Date: Tue Jul 01 07:12:27 BST 2025
User: adleo
Spectrometer: MAYP116268
Trigger mode: 0
Integration Time (sec): 1.000000E0
Scans to average: 1
Electric dark correction enabled: true
Nonlinearity correction enabled: true
Boxcar width: 10
XAxis mode: Wavelengths
Number of Pixels in Spectrum: 2068
>>>>>Begin Spectral Data<<<<<
179.565	1090.39
179.642	1140.97
179.718	1179.01
179.795	1211.98
179.871	1242.61
179.948	1255.76
180.024	1272.76
180.101	1292.47
180.177	1304.86
180.254	1323.34
180.33	1345.57
180.407	1389.76
180.483	1475.08
180.56	1557.55
180.636	1632.28
180.712	1619.68
180.789	1626.62
180.865	1634.27
180.942	1642.82
181.018	1653.12
181.095	1667.76
181.171	1670.8
181.248	1669.33
181.324	1685.06
181.4	1692.14
181.477	1698.89
181.553	1711.66
181.63	1730.48
181.706	1744.64
181.782	1751.96
181.859	1751.48
181.935	1754.29
182.011	1752.01
182.088	1768.54
182.164	1783.57
182.24	1799.34
182.317	1806.04
182.393	1805.57
182.469	1821.49
182.546	1831.99
182.622	1834.41
182.698	1829.28
182.775	1841.02
182.851	1854.52
182.927	1846.34
183.003	1842.59
183.08	1838.36
183.156	1848.86
183.232	1844.54
183.308	1834.08
183.385	1842.87
183.461	1862.12
183.537	1864.64
183.613	1875.15
183.69	1866.26
183.766	1855.51
183.842	1859.41
183.918	1867.92
183.995	1880.13
184.071	1883.65
184.147	1879.42
184.223	1869.21
184.299	1879.48
184.375	1867.74
184.452	1875.25
184.528	1927.18
184.604	1937.35
184.68	1951.7
184.756	1955.51
184.832	1961.55
184.908	1964.21
184.985	1963.16
185.061	1945.29
185.137	1950.99
185.213	1940.63
185.289	1940.96
185.365	1936.02
185.441	1934.69
185.517	1944.06
185.593	1940.4
185.669	1935.36
185.745	1945.01
185.822	1959.93
185.898	1950.71
185.974	1960.5
186.05	1951.08
186.126	1912.66
186.202	1906.05
186.278	1902.1
186.354	1895.35
186.43	1900.91
186.506	1901.01
186.582	1900.63
186.658	1907.09
186.734	1889.03
186.81	1889.93
186.886	1893.17
186.962	1902.67
187.038	1899.49
187.114	1894.35
187.19	1901.53
187.266	1891.88
187.341	1893.5
187.417	1888.27
187.493	1891.17
187.569	1893.93
187.645	1892.45
187.721	1882.66
187.797	1887.51
187.873	1887.51
187.949	1881.99
188.025	1876.62
188.101	1881.28
188.176	1882.28
188.252	1878.19
188.328	1886.27
188.404	1888.07
188.48	1882.61
188.556	1877.66
188.632	1876.24
188.707	1876.62
188.783	1874
188.859	1869.87
188.935	1857.65
189.011	1862.5
189.086	1855.37
189.162	1849.43
189.238	1844.34
189.314	1842.49
189.39	1840.44
189.465	1835.07
189.541	1851.38
189.617	1836.55
189.693	1829.56
189.768	1836.79
189.844	1860.99
189.92	1851.78
189.996	1858.95
190.071	1869.89
190.147	1870.08
190.223	1882.35
190.298	1875.93
190.374	1863.14
190.45	1876.16
190.526	1884.19
190.601	1880.82
190.677	1883.81
190.753	1907.03
190.828	1911.3
190.904	1925.19
190.98	1937.74
191.055	1947.34
191.131	1936.84
191.207	1956.99
191.282	1969.06
191.358	1960.89
191.433	1945.62
191.509	1957.54
191.585	1954.03
191.66	1955.17
191.736	1961.63
191.811	1950.51
191.887	1964.58
191.963	1987.6
192.038	1995.06
192.114	1996.25
192.189	2000.34
192.265	1994.64
192.34	1975.89
192.416	1972.57
192.491	1969.85
192.567	1973.09
192.642	1974.61
192.718	1976.04
192.793	1967.34
192.869	1961.11
192.944	1962.58
193.02	1972.19
193.095	1978.04
193.171	1981.32
193.246	1982.27
193.322	1980.37
193.397	1978.8
193.473	1964.62
193.548	1946.32
193.624	1948.03
193.699	1945.22
193.775	1956.83
193.85	1959.3
193.925	1966.48
194.001	1966.72
194.076	1957.97
194.152	1948.27
194.227	1945.08
194.302	1935.24
194.378	1936.9
194.453	1935.62
194.529	1946.89
194.604	1932.29
194.679	1926.21
194.755	1911.24
194.83	1921.84
194.905	1919.37
194.981	1930.55
195.056	1925.41
195.131	1930.36
195.207	1928.41
195.282	1921.61
195.357	1906.01
195.433	1921.46
195.508	1910.76
195.583	1919.27
195.659	1932.16
195.734	1939.01
195.809	1934.73
195.884	1944.8
195.96	1944.47
196.035	1957.26
196.11	1952.17
196.185	1961.06
196.261	1964.58
196.336	1992.39
196.411	1979.03
196.486	1985.3
196.561	1978.17
196.637	1986.35
196.712	2002.23
196.787	2007.09
196.862	2019.59
196.937	2029.76
197.013	2032.24
197.088	2041.46
197.163	2059.83
197.238	2076.87
197.313	2076.49
197.388	2088.47
197.464	2116.73
197.539	2128.62
197.614	2122.25
197.689	2132.48
197.764	2147.65
197.839	2165.3
197.914	2160.4
197.989	2179.67
198.065	2192.23
198.14	2239.26
198.215	2264
198.29	2274.76
198.365	2286.09
198.44	2295.6
198.515	2320.45
198.59	2338.15
198.665	2360.62
198.74	2369.47
198.815	2370.09
198.89	2387.94
198.965	2418.41
199.04	2413.17
199.115	2425.74
199.19	2466.44
199.265	2473.05
199.34	2483.33
199.415	2513.49
199.49	2535.38
199.565	2545.71
199.64	2566.48
199.715	2563.33
199.79	2569.62
199.865	2577.19
199.94	2576.52
200.015	2608.19
200.09	2616.34
200.165	2623.39
200.24	2628.39
200.315	2666.77
200.39	2678.2
200.464	2684.2
200.539	2682.15
200.614	2698.53
200.689	2721.02
200.764	2725.07
200.839	2738.93
200.914	2744.26
200.989	2733.87
201.063	2746.6
201.138	2729.03
201.213	2731.27
201.288	2712.26
201.363	2719.5
201.438	2719.36
201.512	2732.98
201.587	2717.49
201.662	2720.21
201.737	2731.03
201.812	2742.22
201.886	2710.33
201.961	2719.57
202.036	2710.43
202.111	2707.05
202.186	2677.01
202.26	2662.28
202.335	2640.99
202.41	2637.18
202.485	2621.56
202.559	2606.32
202.634	2583.6
202.709	2594.07
202.784	2573.78
202.858	2573.83
202.933	2552.83
203.008	2547.4
203.082	2528.4
203.157	2525.45
203.232	2485.79
203.306	2462.83
203.381	2431.16
203.456	2409.36
203.53	2389.78
203.605	2372.93
203.68	2352.6
203.754	2350.32
203.829	2334.37
203.904	2319.61
203.978	2309.24
204.053	2313.19
204.127	2302.29
204.202	2298.81
204.277	2282.82
204.351	2277.16
204.426	2271.5
204.5	2266.4
204.575	2235.53
204.65	2247.33
204.724	2241
204.799	2246.47
204.873	2244.47
204.948	2245.18
205.022	2233.1
205.097	2225.53
205.171	2236.38
205.246	2244.94
205.32	2243.42
205.395	2241.28
205.469	2232.06
205.544	2236.1
205.618	2220.54
205.693	2229.06
205.767	2217.17
205.842	2237.82
205.916	2231.11
205.991	2222.31
206.065	2225.93
206.14	2239.34
206.214	2232.91
206.289	2228.39
206.363	2239.19
206.438	2242.76
206.512	2248.61
206.586	2267.21
206.661	2276.4
206.735	2256.28
206.81	2254.48
206.884	2267.32
206.958	2258.09
207.033	2274.12
207.107	2281.93
207.181	2310.25
207.256	2307.4
207.33	2324.81
207.405	2335.72
207.479	2353.76
207.553	2358.37
207.628	2343.91
207.702	2351.76
207.776	2348.15
207.851	2350.24
207.925	2365.05
207.999	2361.86
208.073	2360.86
208.148	2366
208.222	2350.86
208.296	2382.31
208.371	2399.6
208.445	2411.79
208.519	2439.35
208.593	2449.34
208.668	2443.48
208.742	2448.34
208.816	2448.92
208.89	2461.96
208.965	2460.3
209.039	2469.73
209.113	2489.96
209.187	2508.52
209.261	2505.47
209.336	2521.04
209.41	2539.61
209.484	2540.52
209.558	2561.38
209.632	2570.38
209.707	2576.19
209.781	2598.09
209.855	2611.43
209.929	2630.26
210.003	2633.98
210.077	2630.55
210.151	2678.32
210.226	2711.2
210.3	2736
210.374	2758.33
210.448	2763.62
210.522	2770.39
210.596	2778.92
210.67	2786.54
210.744	2829.38
210.818	2861.01
210.892	2882.36
210.966	2877.31
211.041	2891.47
211.115	2888.75
211.189	2915.77
211.263	2932.92
211.337	2940.93
211.411	2955.57
211.485	2948.56
211.559	2962.28
211.633	2968
211.707	2937.23
211.781	2945.91
211.855	2914.5
211.929	2907.83
212.003	2891.11
212.077	2904.84
212.151	2921.24
212.225	2936.31
212.299	2933.63
212.373	2927.2
212.447	2926.87
212.52	2961.1
212.594	2969.87
212.668	2988.18
212.742	2982.08
212.816	2985.03
212.89	2988.84
212.964	2995.86
213.038	3006.4
213.112	3033.02
213.186	3056.04
213.26	3051.32
213.333	3024.14
213.407	3044.35
213.481	3063.56
213.555	3092.05
213.629	3102.21
213.703	3103.6
213.777	3121.63
213.85	3124.93
213.924	3176.89
213.998	3202.56
214.072	3219.7
214.146	3236.17
214.219	3259.31
214.293	3284.12
214.367	3316.81
214.441	3356.66
214.515	3381.43
214.588	3399.09
214.662	3399.57
214.736	3418.42
214.81	3462.5
214.883	3508.16
214.957	3541.71
215.031	3574.92
215.105	3600.55
215.178	3629.78
215.252	3673.95
215.326	3699.27
215.4	3730.26
215.473	3740.77
215.547	3775.04
215.621	3818.21
215.694	3876.34
215.768	3912.37
215.842	3957.77
215.915	4004.15
215.989	4042.93
216.063	4090.37
216.136	4152.2
216.21	4216.02
216.284	4293.84
216.357	4361.81
216.431	4428.88
216.504	4501.17
216.578	4594.36
216.652	4673.86
216.725	4748.16
216.799	4831.34
216.873	4906.03
216.946	4988.42
217.02	5058.56
217.093	5130.64
217.167	5185.88
217.24	5248.09
217.314	5318.26
217.387	5391.51
217.461	5462.88
217.535	5550.94
217.608	5622.94
217.682	5706.53
217.755	5797.65
217.829	5870.81
217.902	5952.5
217.976	6032.04
218.049	6108.96
218.123	6172.32
218.196	6264.41
218.27	6340.45
218.343	6404.21
218.417	6488.8
218.49	6571.29
218.563	6667.23
218.637	6760.7
218.71	6867.24
218.784	6959.77
218.857	7059.15
218.931	7152.74
219.004	7242.69
219.077	7336.61
219.151	7427.54
219.224	7506.62
219.298	7586.04
219.371	7686.83
219.444	7761.06
219.518	7848.24
219.591	7938.55
219.665	8058.34
219.738	8145.03
219.811	8225.69
219.885	8324.45
219.958	8418.18
220.031	8501.37
220.105	8598.43
220.178	8681.79
220.251	8758.08
220.325	8852.86
220.398	8945.91
220.471	9034.19
220.544	9127.72
220.618	9202.93
220.691	9294.36
220.764	9380.2
220.838	9473.38
220.911	9548.8
220.984	9658.74
221.057	9749.9
221.131	9831.39
221.204	9884.62
221.277	9980.62
221.35	10097.1
221.424	10175.42
221.497	10259.3
221.57	10346.1
221.643	10430.9
221.716	10520.95
221.79	10599.14
221.863	10677.78
221.936	10750.73
222.009	10828.5
222.082	10912.2
222.155	10987.18
222.229	11086.69
222.302	11168.08
222.375	11243.07
222.448	11321.43
222.521	11393.34
222.594	11472.81
222.667	11535.61
222.74	11612.33
222.814	11683.09
222.887	11750.76
222.96	11829.42
223.033	11910.5
223.106	11986.65
223.179	12065.17
223.252	12145
223.325	12218.36
223.398	12289.7
223.471	12359.59
223.544	12435.51
223.617	12499.48
223.69	12571.15
223.763	12614.35
223.837	12675.81
223.91	12742.43
223.983	12797.19
224.056	12839.94
224.129	12903.77
224.202	12983.31
224.275	13039.85
224.348	13088.01
224.42	13136.6
224.493	13186.64
224.566	13236.1
224.639	13296.89
224.712	13343.21
224.785	13387.56
224.858	13445.84
224.931	13487.93
225.004	13537.92
225.077	13595.57
225.15	13630.76
225.223	13682.3
225.296	13763.67
225.369	13811.01
225.442	13857.33
225.514	13913.69
225.587	13988.26
225.66	14049.53
225.733	14106.37
225.806	14168.21
225.879	14230.69
225.952	14278.89
226.025	14342.24
226.097	14407.41
226.17	14465.4
226.243	14498.28
226.316	14550.43
226.389	14603.36
226.461	14673.45
226.534	14739.54
226.607	14777.81
226.68	14857.64
226.753	14914.33
226.825	14949.42
226.898	15026.59
226.971	15089.69
227.044	15152.4
227.117	15199.35
227.189	15247.99
227.262	15302.55
227.335	15363.67
227.407	15408.55
227.48	15461.09
227.553	15515.22
227.626	15560.48
227.698	15603.23
227.771	15666.76
227.844	15708.79
227.916	15762.92
227.989	15792.47
228.062	15832.33
228.134	15912.34
228.207	15957.46
228.28	15990.67
228.352	16033.51
228.425	16073.86
228.498	16123.11
228.57	16145.05
228.643	16203.12
228.716	16241.15
228.788	16276.53
228.861	16307.13
228.934	16364.34
229.006	16400.78
229.079	16438.76
229.151	16474.81
229.224	16503.34
229.296	16543.88
229.369	16603.16
229.442	16656.22
229.514	16687.36
229.587	16736.13
229.659	16748.85
229.732	16796.76
229.804	16858.16
229.877	16929.34
229.949	16971.27
230.022	17031.42
230.094	17088.05
230.167	17123.13
230.239	17156.05
230.312	17195.66
230.384	17257.16
230.457	17291.28
230.529	17340.92
230.602	17377.55
230.674	17416.44
230.747	17470.51
230.819	17523.62
230.892	17540.01
230.964	17571.43
231.037	17616.34
231.109	17647.04
231.181	17692.87
231.254	17702.66
231.326	17737.31
231.399	17754.75
231.471	17789.02
231.544	17798.94
231.616	17843.52
231.688	17878.07
231.761	17910.46
231.833	17938.31
231.905	17943.85
231.978	17973.83
232.05	18004.43
232.122	18036.38
232.195	18068.04
232.267	18115.46
232.339	18129.63
232.412	18162.21
232.484	18184.13
232.556	18206.35
232.629	18262.35
232.701	18292.61
232.773	18328.75
232.846	18342.25
232.918	18358.92
232.99	18381.86
233.062	18407.4
233.135	18427.3
233.207	18427.01
233.279	18446.43
233.351	18481.08
233.424	18499.06
233.496	18503.01
233.568	18529.85
233.64	18525.51
233.713	18536.98
233.785	18541.13
233.857	18559.83
233.929	18566.57
234.001	18598.57
234.074	18628.83
234.146	18618.67
234.218	18631.97
234.29	18635.29
234.362	18643.44
234.434	18644.74
234.507	18639.97
234.579	18634.47
234.651	18631.24
234.723	18665.6
234.795	18676.06
234.867	18672.83
234.939	18693.79
235.012	18701.31
235.084	18704.01
235.156	18722.47
235.228	18721.5
235.3	18720.88
235.372	18733.89
235.444	18742.61
235.516	18721.07
235.588	18722.08
235.66	18719.33
235.732	18705.46
235.804	18772.01
235.876	18785.45
235.948	18800.63
236.02	18807.47
236.092	18808.68
236.164	18810.61
236.236	18794.17
236.308	18791.43
236.38	18804.87
236.452	18801.55
236.524	18800.97
236.596	18816.34
236.668	18827.14
236.74	18832.73
236.812	18833.59
236.884	18827.33
236.956	18832.48
237.028	18818.61
237.1	18803.72
237.172	18818.7
237.244	18836.39
237.316	18780.15
237.388	18765.21
237.46	18751.91
237.532	18754.27
237.604	18741.26
237.675	18742.95
237.747	18744.78
237.819	18730.95
237.891	18718.76
237.963	18695.29
238.035	18693.31
238.107	18652.83
238.178	18655.34
238.25	18631.1
238.322	18632.98
238.394	18610.52
238.466	18593.56
238.538	18587.73
238.609	18589.46
238.681	18549.61
238.753	18529.32
238.825	18525.37
238.897	18512.7
238.968	18516.17
239.04	18494.58
239.112	18506.77
239.184	18477.76
239.255	18455.49
239.327	18449.42
239.399	18439.88
239.471	18444.22
239.542	18429.91
239.614	18423.16
239.686	18369.23
239.758	18361.96
239.829	18338.25
239.901	18334.83
239.973	18312.18
240.044	18305.57
240.116	18281.19
240.188	18265.24
240.259	18244.61
240.331	18207.75
240.403	18188.37
240.474	18146.35
240.546	18112.86
240.618	18076.57
240.689	18053.97
240.761	18036.19
240.833	18030.84
240.904	17996.86
240.976	17960.58
241.048	17937.3
241.119	17925.01
241.191	17916.39
241.262	17914.84
241.334	17888.58
241.405	17861.69
241.477	17837.74
241.549	17806.51
241.62	17774.9
241.692	17753.06
241.763	17737.11
241.835	17723.23
241.906	17701.98
241.978	17662.08
242.049	17655.72
242.121	17638.95
242.192	17629.07
242.264	17599.81
242.335	17553.5
242.407	17535
242.478	17507.86
242.55	17484.63
242.621	17449.21
242.693	17418.9
242.764	17387.19
242.836	17352.68
242.907	17325.65
242.979	17306.51
243.05	17284.06
243.122	17274.51
243.193	17252.15
243.264	17203.72
243.336	17178.46
243.407	17165.31
243.479	17168.44
243.55	17142.85
243.622	17121.02
243.693	17100.05
243.764	17081.55
243.836	17046.75
243.907	17013.74
243.978	16987.95
244.05	16969.3
244.121	16925.83
244.192	16910.84
244.264	16857.78
244.335	16835.37
244.407	16791.85
244.478	16768.18
244.549	16743.26
244.62	16697.38
244.692	16660.42
244.763	16642.05
244.834	16602.1
244.906	16564.41
244.977	16535.73
245.048	16517.23
245.119	16472.11
245.191	16427
245.262	16376.49
245.333	16362.95
245.405	16330.95
245.476	16305.11
245.547	16262.31
245.618	16238.41
245.689	16209.87
245.761	16195.46
245.832	16159.7
245.903	16135.41
245.974	16112.51
246.045	16075.74
246.117	16072.03
246.188	16036.84
246.259	16000.31
246.33	15970.04
246.401	15928.05
246.473	15878.17
246.544	15842.74
246.615	15828.57
246.686	15793.39
246.757	15775.36
246.828	15734.58
246.899	15718.92
246.97	15673.17
247.042	15638.37
247.113	15622.03
247.184	15607.77
247.255	15568.15
247.326	15543.37
247.397	15519.94
247.468	15490.25
247.539	15461.91
247.61	15410.58
247.681	15392.6
247.752	15373.94
247.823	15337.21
247.894	15314.37
247.965	15279.8
248.037	15241.82
248.108	15191.11
248.179	15168.07
248.25	15136.11
248.321	15111.38
248.392	15072.58
248.463	15065.83
248.534	15043.13
248.605	15019.75
248.675	14986.78
248.746	14964.7
248.817	14947.88
248.888	14919.83
248.959	14867.04
249.03	14845.59
249.101	14820.24
249.172	14784.61
249.243	14723.83
249.314	14716.65
249.385	14693.85
249.456	14674.37
249.527	14650.03
249.598	14628.96
249.669	14601.87
249.739	14587.99
249.81	14565.09
249.881	14530
249.952	14506.96
250.023	14483.34
250.094	14447.04
250.165	14418.74
250.235	14394.88
250.306	14363.31
250.377	14324.45
250.448	14308.3
250.519	14264.24
250.59	14250.99
250.66	14225.58
250.731	14224.81
250.802	14194.34
250.873	14175.64
250.944	14155.15
251.014	14124.11
251.085	14124.35
251.156	14102.61
251.227	14082.6
251.297	14068.67
251.368	14053.49
251.439	14030.2
251.51	14004.32
251.58	13966.62
251.651	13926.46
251.722	13908.39
251.792	13863.31
251.863	13842.05
251.934	13834.63
252.005	13837.52
252.075	13812.36
252.146	13795.68
252.217	13786.81
252.287	13770.52
252.358	13736.53
252.429	13719.9
252.499	13686.59
252.57	13654.34
252.641	13646.19
252.711	13621.8
252.782	13584.05
252.852	13573.78
252.923	13546.11
252.994	13529.48
253.064	13520.47
253.135	13487.78
253.205	13455.73
253.276	13452.79
253.347	13438.71
253.417	13407.09
253.488	13374.31
253.558	13342.44
253.629	13321.62
253.699	13296.69
253.77	13272.59
253.841	13250.95
253.911	13234.27
253.982	13216.57
254.052	13201.49
254.123	13167.64
254.193	13146
254.264	13159.69
254.334	13120.74
254.405	13094.66
254.475	13060.43
254.546	13031.9
254.616	13030.84
254.687	13015.02
254.757	12996.32
254.827	12977.81
254.898	12959.01
254.968	12934.42
255.039	12908.15
255.109	12892.73
255.18	12861.05
255.25	12821.14
255.321	12802.87
255.391	12770.43
255.461	12774.24
255.532	12726.8
255.602	12702.55
255.673	12660.71
255.743	12630.97
255.813	12592.98
255.884	12575
255.954	12566.95
256.024	12559.05
256.095	12537.5
256.165	12506.17
256.235	12484.72
256.306	12460.95
256.376	12452.37
256.446	12441.43
256.517	12428.27
256.587	12422.29
256.657	12411.74
256.728	12395.25
256.798	12376.84
256.868	12350.85
256.938	12317.11
257.009	12315.86
257.079	12297.54
257.149	12300.05
257.219	12256.38
257.29	12250.25
257.36	12217.67
257.43	12208.51
257.5	12171.44
257.571	12143.92
257.641	12125.41
257.711	12096.1
257.781	12078.56
257.852	12058.17
257.922	12021.58
257.992	12002.69
258.062	11974.78
258.132	11960.32
258.202	11940.41
258.273	11924.5
258.343	11916.84
258.413	11891.49
258.483	11869.31
258.553	11845.65
258.623	11819.57
258.693	11809.11
258.764	11796.15
258.834	11792.05
258.904	11761.1
258.974	11740.86
259.044	11720.86
259.114	11711.7
259.184	11696.13
259.254	11675.31
259.324	11633.67
259.394	11618.54
259.464	11617.14
259.535	11590.92
259.605	11560.65
259.675	11532.55
259.745	11512.02
259.815	11480.93
259.885	11455.2
259.955	11461.08
260.025	11431.82
260.095	11419.73
260.165	11401.46
260.235	11400.64
260.305	11369.99
260.375	11343.91
260.445	11344.78
260.515	11339.58
260.585	11335.09
260.655	11318.71
260.725	11305.6
260.795	11298.32
260.865	11309.94
260.934	11275.53
261.004	11267.38
261.074	11257.12
261.144	11253.79
261.214	11245.36
261.284	11229.94
261.354	11229.17
261.424	11196.73
261.494	11201.74
261.564	11172.97
261.634	11168.1
261.703	11134.22
261.773	11123.38
261.843	11117.45
261.913	11092.1
261.983	11062.03
262.053	11043.57
262.123	11019.34
262.192	10990.86
262.262	10984.98
262.332	10943.34
262.402	10939.53
262.472	10919.97
262.541	10878.19
262.611	10882.14
262.681	10861.81
262.751	10857.04
262.821	10826.63
262.89	10803.93
262.96	10791.45
263.03	10797.86
263.1	10779.07
263.169	10763.74
263.239	10759.17
263.309	10759.26
263.379	10750.78
263.448	10738.35
263.518	10727.27
263.588	10713.25
263.657	10716.81
263.727	10705.92
263.797	10687.81
263.867	10667.13
263.936	10641.4
264.006	10642.8
264.076	10620.83
264.145	10597.75
264.215	10577.61
264.285	10576.65
264.354	10549.18
264.424	10526.54
264.494	10498.44
264.563	10480.42
264.633	10482.45
264.702	10462.6
264.772	10422.46
264.842	10401.21
264.911	10391.63
264.981	10367.49
265.05	10356.02
265.12	10334.92
265.19	10324.51
265.259	10324.37
265.329	10309.72
265.398	10298.5
265.468	10307.07
265.537	10280.81
265.607	10274.65
265.676	10267.37
265.746	10255.96
265.815	10251.76
265.885	10237.22
265.955	10211.83
266.024	10192.08
266.094	10151.9
266.163	10155.13
266.232	10163.46
266.302	10153.3
266.371	10137.98
266.441	10124.68
266.51	10121.45
266.58	10102.62
266.649	10082.96
266.719	10080.36
266.788	10075.35
266.858	10080.07
266.927	10042.59
266.996	10031.95
267.066	10019.91
267.135	9992.74
267.205	9987.68
267.274	9970.82
267.343	9962.59
267.413	9951.94
267.482	9947.99
267.552	9953.48
267.621	9918.13
267.69	9886.77
267.76	9875.69
267.829	9865.09
267.898	9848.04
267.968	9823.33
268.037	9818.13
268.106	9809.41
268.176	9783.98
268.245	9766.2
268.314	9744.19
268.384	9739.23
268.453	9727.38
268.522	9720.21
268.592	9720.64
268.661	9694.49
268.73	9684.08
268.799	9661.74
268.869	9662.03
268.938	9634.38
269.007	9613.58
269.076	9613.43
269.146	9607.51
269.215	9597.35
269.284	9606.16
269.353	9585.36
269.422	9573.75
269.492	9554.25
269.561	9517.21
269.63	9506.23
269.699	9497.76
269.768	9486.68
269.838	9484.56
269.907	9482.64
269.976	9457.5
270.045	9425.43
270.114	9421.48
270.183	9410.31
270.253	9409.25
270.322	9382.33
270.391	9368.27
270.46	9371.11
270.529	9364.9
270.598	9364.32
270.667	9350.02
270.736	9320.5
270.806	9318.86
270.875	9319.3
270.944	9310.24
271.013	9328.98
271.082	9322.86
271.151	9309.91
271.22	9282.27
271.289	9262.53
271.358	9247.02
271.427	9236.48
271.496	9235.37
271.565	9221.07
271.634	9213.56
271.703	9216.55
271.772	9218.09
271.841	9215.49
271.91	9196.42
271.979	9182.46
272.048	9159.92
272.117	9157.8
272.186	9147.21
272.255	9143.5
272.324	9136.96
272.393	9133.39
272.462	9114.57
272.531	9100.31
272.6	9088.81
272.669	9096.8
272.738	9086.83
272.807	9082.79
272.876	9071.48
272.945	9094.73
273.013	9100.08
273.082	9097.96
273.151	9069.31
273.22	9063.29
273.289	9057.81
273.358	9063.29
273.427	9055.93
273.496	9056.31
273.564	9056.41
273.633	9053.71
273.702	9039.32
273.771	9026.42
273.84	9022.37
273.909	9017.13
273.977	9015.2
274.046	9007.31
274.115	9007.93
274.184	8994.5
274.253	8986.7
274.322	8993.59
274.39	8959.98
274.459	8944.24
274.528	8915.36
274.597	8915.55
274.665	8913.82
274.734	8919.31
274.803	8906.36
274.872	8897.6
274.94	8880.94
275.009	8926.74
275.078	8916.78
275.147	8910.42
275.215	8906.43
275.284	8912.25
275.353	8896.95
275.421	8872.78
275.49	8883.37
275.559	8874.08
275.627	8865.47
275.696	8858.54
275.765	8850.59
275.833	8844.92
275.902	8839
275.971	8854.4
276.039	8864.02
276.108	8860.8
276.177	8847.46
276.245	8839.43
276.314	8831.58
276.383	8838.85
276.451	8784.96
276.52	8784.96
276.588	8794.54
276.657	8804.41
276.725	8785.2
276.794	8788.09
276.863	8800.65
276.931	8780.1
277	8784
277.068	8791.17
277.137	8802.62
277.205	8802.09
277.274	8816.44
277.342	8827.84
277.411	8808.59
277.48	8795.74
277.548	8793.34
277.617	8799.74
277.685	8793.77
277.754	8796.46
277.822	8778.51
277.89	8782.56
277.959	8772.45
278.027	8758.88
278.096	8742.03
278.164	8769.18
278.233	8763.5
278.301	8753.63
278.37	8757.34
278.438	8749.11
278.507	8751.47
278.575	8723.74
278.643	8717.29
278.712	8695.92
278.78	8679.37
278.849	8687.45
278.917	8699.1
278.985	8684.13
279.054	8685.38
279.122	8691.98
279.191	8694.96
279.259	8696.88
279.327	8678.26
279.396	8695.1
279.464	8683.55
279.532	8695.54
279.601	8697.56
279.669	8694.29
279.737	8705.55
279.806	8711.28
279.874	8716.33
279.942	8716.38
280.011	8714.17
280.079	8723.6
280.147	8741.55
280.215	8744.92
280.284	8746.89
280.352	8727.55
280.42	8739.63
280.488	8727.78
280.557	8722.54
280.625	8718.45
280.693	8721.67
280.761	8719.12
280.83	8703.72
280.898	8719.98
280.966	8695.78
281.034	8661.17
281.102	8652.5
281.171	8649.04
281.239	8648.85
281.307	8636.67
281.375	8618.91
281.443	8644.85
281.512	8636.14
281.58	8636.48
281.648	8621.9
281.716	8616.6
281.784	8611.07
281.852	8603.03
281.92	8604.57
281.989	8609.91
282.057	8592.73
282.125	8630.47
282.193	8630.96
282.261	8628.69
282.329	8621.67
282.397	8627.35
282.465	8622.58
282.533	8631
282.601	8624.94
282.67	8607.23
282.738	8603.76
282.806	8621.37
282.874	8610.45
282.942	8620.65
283.01	8616.95
283.078	8627
283.146	8629.51
283.214	8646.06
283.282	8648.8
283.35	8656.17
283.418	8650.59
283.486	8658.43
283.554	8616.5
283.622	8613.85
283.69	8611.4
283.758	8603.8
283.826	8607.12
283.894	8624.59
283.962	8639.89
284.03	8644.71
284.098	8643.79
284.165	8636.67
284.233	8632.87
284.301	8624.49
284.369	8611.45
284.437	8601.92
284.505	8593.79
284.573	8600.38
284.641	8588.59
284.709	8590.37
284.777	8575.07
284.845	8583.44
284.912	8583.25
284.98	8584.93
285.048	8583.87
285.116	8586.71
285.184	8602.5
285.252	8601.1
285.319	8583.87
285.387	8577.52
285.455	8565.97
285.523	8573.33
285.591	8567.37
285.659	8571.02
285.726	8580.7
285.794	8565.3
285.862	8562.85
285.93	8564.19
285.997	8560.39
286.065	8552.93
286.133	8545.86
286.201	8540.9
286.269	8527.23
286.336	8523.82
286.404	8518.19
286.472	8528.82
286.539	8510.2
286.607	8494.9
286.675	8493.02
286.743	8495.76
286.81	8490.18
286.878	8501.06
286.946	8492.97
287.013	8494.08
287.081	8491.91
287.149	8474.01
287.216	8494.27
287.284	8492.97
287.352	8486.57
287.419	8479.01
287.487	8496.68
287.555	8502.6
287.622	8500.82
287.69	8500.53
287.758	8508.9
287.825	8507.55
287.893	8489.99
287.96	8494.51
288.028	8501.73
288.096	8502.5
288.163	8505.91
288.231	8495.18
288.298	8492.05
288.366	8506.3
288.433	8506.2
288.501	8495.04
288.569	8501.87
288.636	8495.57
288.704	8506.01
288.771	8515.88
288.839	8514.19
288.906	8501.29
288.974	8504.71
289.041	8506.49
289.109	8494.85
289.176	8505.48
289.244	8512.61
289.311	8532.19
289.379	8543.26
289.446	8545.52
289.514	8550.53
289.581	8551.68
289.649	8555.58
289.716	8560.68
289.783	8550.86
289.851	8571.27
289.918	8577.52
289.986	8585.37
290.053	8588.4
290.121	8588.88
290.188	8591.62
290.255	8618.24
290.323	8617.9
290.39	8615.06
290.458	8625.5
290.525	8647.35
290.592	8643.16
290.66	8647.25
290.727	8631.04
290.794	8643.02
290.862	8642.92
290.929	8640.47
290.996	8646.58
291.064	8654.86
291.131	8660.2
291.198	8667.76
291.266	8666.99
291.333	8671.51
291.4	8676.81
291.468	8689.61
291.535	8680.85
291.602	8680.56
291.669	8672.91
291.737	8680.27
291.804	8681.71
291.871	8693.07
291.938	8698.75
292.006	8720.13
292.073	8726
292.14	8742.12
292.207	8736.78
292.275	8737.4
292.342	8748.47
292.409	8763.35
292.476	8785.25
292.543	8775
292.611	8782.31
292.678	8797.28
292.745	8819.72
292.812	8829.78
292.879	8832.04
292.946	8841.04
293.014	8857.79
293.081	8866.79
293.148	8873.43
293.215	8892.64
293.282	8889.46
293.349	8900.54
293.416	8883.35
293.484	8900.73
293.551	8910.4
293.618	8928.65
293.685	8950.98
293.752	8947.56
293.819	8947.27
293.886	8934.85
293.953	8941.74
294.02	8954.98
294.087	8960.7
294.154	8956.47
294.221	8974.38
294.288	8968.79
294.356	8983.04
294.423	8991.08
294.49	8975.58
294.557	8991.61
294.624	8978.42
294.691	8998.98
294.758	8993.3
294.825	9006.06
294.892	8998.35
294.959	8997.58
295.026	9002.73
295.093	9000.33
295.16	9004.08
295.226	9006.44
295.293	9034.37
295.36	9045.68
295.427	9056.8
295.494	9064.31
295.561	9063.59
295.628	9081.74
295.695	9101.92
295.762	9103.12
295.829	9107.98
295.896	9131.71
295.963	9136.67
296.03	9148.23
296.096	9156.51
296.163	9167.63
296.23	9174.66
296.297	9184.19
296.364	9186.41
296.431	9190.64
296.498	9189.92
296.564	9212.07
296.631	9214.52
296.698	9197.43
296.765	9217.12
296.832	9208.45
296.899	9194.01
296.965	9212.35
297.032	9191.6
297.099	9209.13
297.166	9222.61
297.233	9215.63
297.299	9207.78
297.366	9206.62
297.433	9213.56
297.5	9212.31
297.566	9220.11
297.633	9225.93
297.7	9228.82
297.767	9232.09
297.833	9241.53
297.9	9238.64
297.967	9226.94
298.033	9239.94
298.1	9268.16
298.167	9260.12
298.234	9261.47
298.3	9278.8
298.367	9276.92
298.434	9281.74
298.5	9267.63
298.567	9261.8
298.634	9267.53
298.7	9286.41
298.767	9297.43
298.834	9303.84
298.9	9298.25
298.967	9285.59
299.033	9288.38
299.1	9308.75
299.167	9322.52
299.233	9316.65
299.3	9335.86
299.366	9351.36
299.433	9364.89
299.5	9342.5
299.566	9347.17
299.633	9363.93
299.699	9372.12
299.766	9372.65
299.832	9380.5
299.899	9392.25
299.965	9405.01
300.032	9401.68
300.099	9409.82
300.165	9413.96
300.232	9410.02
300.298	9413.72
300.365	9432.79
300.431	9430.48
300.498	9419.35
300.564	9422.05
300.631	9436.02
300.697	9453.45
300.763	9454.17
300.83	9451.76
300.896	9468.91
300.963	9476.95
301.029	9486.68
301.096	9491.45
301.162	9497.56
301.229	9489.66
301.295	9480.85
301.361	9485.57
301.428	9488.41
301.494	9473.68
301.561	9478.4
301.627	9483.69
301.693	9486.44
301.76	9484.27
301.826	9491.16
301.892	9500.02
301.959	9512.59
302.025	9505.6
302.092	9494.58
302.158	9497.13
302.224	9497.32
302.291	9484.27
302.357	9479.45
302.423	9467.32
302.49	9459.03
302.556	9468.47
302.622	9471.75
302.688	9479.55
302.755	9490.53
302.821	9503.05
302.887	9511.57
302.954	9510.95
303.02	9520.24
303.086	9528.09
303.152	9531.75
303.219	9524.72
303.285	9530.4
303.351	9524.29
303.417	9521.78
303.483	9515.96
303.55	9511.24
303.616	9512.87
303.682	9514.56
303.748	9508.2
303.815	9523.76
303.881	9530.93
303.947	9519.81
304.013	9522.7
304.079	9517.45
304.145	9495.92
304.212	9491.54
304.278	9479.41
304.344	9465.2
304.41	9454.13
304.476	9443.63
304.542	9437.46
304.608	9435.68
304.674	9421.04
304.741	9419.74
304.807	9427.45
304.873	9426.68
304.939	9443.24
305.005	9428.02
305.071	9421.38
305.137	9421.81
305.203	9394.03
305.269	9391.57
305.335	9402.21
305.401	9397.35
305.467	9394.12
305.533	9400.14
305.599	9406.26
305.666	9416.47
305.732	9417.67
305.798	9420.22
305.864	9444.3
305.93	9444.35
305.996	9444.35
306.062	9444.01
306.128	9440.69
306.194	9423.35
306.259	9424.75
306.325	9416.03
306.391	9426.39
306.457	9430.33
306.523	9432.45
306.589	9459.61
306.655	9449.17
306.721	9432.41
306.787	9417.96
306.853	9433.71
306.919	9414.02
306.985	9405.93
307.051	9401.74
307.117	9398.75
307.183	9397.84
307.248	9371.54
307.314	9375.54
307.38	9387.39
307.446	9392.35
307.512	9382.52
307.578	9387.19
307.644	9380.64
307.709	9375.88
307.775	9360.37
307.841	9360.9
307.907	9363.31
307.973	9338.17
308.039	9341.4
308.104	9342.74
308.17	9344.77
308.236	9324.25
308.302	9333.64
308.368	9322.32
308.433	9320.06
308.499	9315.73
308.565	9302.68
308.631	9303.35
308.696	9281.83
308.762	9261.99
308.828	9257.47
308.894	9238.93
308.959	9224.25
309.025	9216.16
309.091	9211.58
309.156	9203.11
309.222	9202.48
309.288	9188.23
309.354	9168.83
309.419	9161.27
309.485	9147.83
309.551	9151.21
309.616	9142.59
309.682	9142.06
309.748	9137.87
309.813	9131.9
309.879	9124.77
309.945	9119.81
310.01	9112.83
310.076	9115.77
310.141	9110.33
310.207	9089.92
310.273	9094.83
310.338	9096.65
310.404	9078.84
310.469	9068.35
310.535	9067.24
310.601	9041.44
310.666	9045.48
310.732	9057.52
310.797	9049.52
310.863	9042.21
310.928	9040.71
310.994	9038.45
311.059	9033.25
311.125	9034.5
311.191	9044.57
311.256	9032.63
311.322	9033.06
311.387	9015.3
311.453	9400.03
311.518	9374.23
311.584	9377.51
311.649	9380.2
311.715	9366.63
311.78	9366.92
311.846	9351.03
311.911	9356.18
311.976	9358.93
312.042	9345.11
312.107	9325.32
312.173	9312.61
312.238	9310.3
312.304	9302.17
312.369	9293.12
312.434	9282.29
312.5	9265.34
312.565	9233.09
312.631	9235.11
312.696	9223.99
312.761	9226.11
312.827	8831.41
312.892	8870.11
312.958	8861.64
313.023	8854.03
313.088	8853.6
313.154	8841.52
313.219	8833.92
313.284	8824.72
313.35	8824.72
313.415	8809.9
313.48	8805.8
313.546	8811
313.611	8814.9
313.676	8802.77
313.741	8794.93
313.807	8797.33
313.872	8804.46
313.937	8812.78
314.003	8821.98
314.068	8827.95
314.133	8827.75
314.198	8818.8
314.264	8799.98
314.329	8793.48
314.394	8791.02
314.459	8792.8
314.525	8814.7
314.59	8814.85
314.655	8801.71
314.72	8814.18
314.785	8818.31
314.851	8813.65
314.916	8791.75
314.981	8775.91
315.046	8767.63
315.111	8759.79
315.176	8744.63
315.242	8747.27
315.307	8746.79
315.372	8731.1
315.437	8711.85
315.502	8701.45
315.567	8707.9
315.632	8690.05
315.698	8689.52
315.763	8684.27
315.828	8669.11
315.893	8664.73
315.958	8656.6
316.023	8647.69
316.088	8618.48
316.153	8596.73
316.218	8591.24
316.283	8579.84
316.348	8567.18
316.413	8558.95
316.479	8542.59
316.544	8508.87
316.609	8476.1
316.674	8435.29
316.739	8400.46
316.804	8373.18
316.869	8343.59
316.934	8303.51
316.999	8275.94
317.064	8220.86
317.129	8175.73
317.194	8140.86
317.259	8088.22
317.324	8040.56
317.389	7995.3
317.454	7953.69
317.518	7925.84
317.583	7896.55
317.648	7863.75
317.713	7823.25
317.778	7769
317.843	7742.07
317.908	7709.14
317.973	7668.7
318.038	7642.1
318.103	7607.83
318.168	7578.35
318.233	7546.14
318.297	7496
318.362	7456.38
318.427	7424.76
318.492	7399.18
318.557	7349.3
318.622	7320.56
318.687	7295.86
318.751	7253.52
318.816	7222.33
318.881	7186.05
318.946	7131.55
319.011	7088.78
319.075	7044.63
319.14	7006.63
319.205	6958.82
319.27	6925.53
319.335	6883.74
319.399	6840.89
319.464	6810.57
319.529	6754.48
319.594	6712.69
319.658	6685.12
319.723	6640.17
319.788	6611.79
319.853	6554.98
319.917	6529.25
319.982	6476.72
320.047	6439.84
320.112	6415.07
320.176	6365.44
320.241	6327.17
320.306	6297.17
320.37	6259.3
320.435	6232.33
320.5	6211.74
320.564	6170.86
320.629	6125.27
320.694	6093.7
320.758	6048.89
320.823	6000.38
320.888	5976.54
320.952	5928.9
321.017	5887.79
321.082	5847.8
321.146	5811.72
321.211	5782.85
321.275	5737.35
321.34	5695.25
321.405	5650.76
321.469	5604.87
321.534	5563.99
321.598	5511.26
321.663	5481.28
321.727	5447.59
321.792	5398.27
321.857	5349.32
321.921	5311.56
321.986	5269.59
322.05	5210.48
322.115	5179.71
322.179	5138.52
322.244	5084.68
322.308	5048.95
322.373	4998.76
322.437	4959.01
322.502	4928.35
322.566	4886.02
322.631	4852.5
322.695	4811.77
322.76	4767.35
322.824	4732.54
322.889	4688.62
322.953	4646.61
323.018	4578.84
323.082	4517.93
323.146	4469.71
323.211	4419.81
323.275	4374.22
323.34	4328.6
323.404	4294.37
323.468	4242.42
323.533	4195.33
323.597	4149.54
323.662	4099.58
323.726	4065.97
323.79	4021.33
323.855	3960.89
323.919	3908.89
323.983	3865.49
324.048	3800.26
324.112	3933.07
324.177	3802.99
324.241	3606.46
324.305	3412.6
324.37	3222.95
324.434	3039.66
324.498	2995.69
324.562	2943.98
324.627	2886.75
324.691	2835.71
324.755	2772.71
324.82	2701.57
324.884	2630.45
324.948	2559.34
325.012	2471.54
325.077	2355.45
