Data from 20250630_urea_2M_MAYP1162681_08-12-27-071.txt Node
Date: Tue Jul 01 08:12:27 BST 2025
User: adleo
Spectrometer: MAYP116268
Trigger mode: 0
Integration Time (sec): 1.000000E0
Scans to average: 1
Electric dark correction enabled: true
Nonlinearity correction enabled: true
Boxcar width: 10
XAxis mode: Wavelengths
Number of Pixels in Spectrum: 2068
>>>>>Begin Spectral Data<<<<<
179.565	1088.06
179.642	1136.64
179.718	1174.15
179.795	1208.3
179.871	1238.02
179.948	1253.43
180.024	1271.72
180.101	1292.47
180.177	1305.42
180.254	1325.95
180.33	1347.71
180.407	1392.84
180.483	1479.07
180.56	1558.69
180.636	1633.23
180.712	1620.73
180.789	1629.33
180.865	1638.06
180.942	1644.52
181.018	1653.17
181.095	1665.38
181.171	1669.94
181.248	1672.98
181.324	1686.15
181.4	1695.65
181.477	1704.97
181.553	1716.18
181.63	1735.8
181.706	1750.87
181.782	1760.37
181.859	1759.66
181.935	1763.08
182.011	1759.32
182.088	1776.43
182.164	1795.5
182.24	1806.42
182.317	1814.69
182.393	1813.74
182.469	1829.14
182.546	1843.54
182.622	1848.15
182.698	1844.01
182.775	1854.23
182.851	1867.59
182.927	1862.03
183.003	1854.8
183.08	1849.15
183.156	1857.51
183.232	1853.28
183.308	1842.73
183.385	1849.43
183.461	1864.07
183.537	1866.02
183.613	1877
183.69	1866.07
183.766	1856.79
183.842	1865.3
183.918	1873.15
183.995	1887.5
184.071	1889.07
184.147	1883.51
184.223	1874.67
184.299	1884.32
184.375	1874.72
184.452	1881.57
184.528	1934.5
184.604	1942.81
184.68	1956.17
184.756	1965.21
184.832	1967.73
184.908	1971.1
184.985	1969.25
185.061	1956.89
185.137	1963.4
185.213	1952.89
185.289	1955.13
185.365	1947.67
185.441	1948.57
185.517	1958.99
185.593	1952.42
185.669	1953.04
185.745	1962.17
185.822	1978.57
185.898	1971.25
185.974	1979.94
186.05	1965.96
186.126	1927.35
186.202	1922.83
186.278	1916.7
186.354	1907
186.43	1913.66
186.506	1911.71
186.582	1909.57
186.658	1915.03
186.734	1897.31
186.81	1900.77
186.886	1902.58
186.962	1913.51
187.038	1911.09
187.114	1903.15
187.19	1912.08
187.266	1901.53
187.341	1901.48
187.417	1895.97
187.493	1897.54
187.569	1899.25
187.645	1898.3
187.721	1887.98
187.797	1896.63
187.873	1903.34
187.949	1897.02
188.025	1891.5
188.101	1893.49
188.176	1898.72
188.252	1894.87
188.328	1903.05
188.404	1902.57
188.48	1897.39
188.556	1892.68
188.632	1890.54
188.707	1891.83
188.783	1889.12
188.859	1884.32
188.935	1872.58
189.011	1875.71
189.086	1870.63
189.162	1865.35
189.238	1863.54
189.314	1861.74
189.39	1854.32
189.465	1845.86
189.541	1862.98
189.617	1850.33
189.693	1845.63
189.768	1849.24
189.844	1872.59
189.92	1865.04
189.996	1871.93
190.071	1883.05
190.147	1881.01
190.223	1889.33
190.298	1879.92
190.374	1865.7
190.45	1878.11
190.526	1888.09
190.601	1885.76
190.677	1887.14
190.753	1914.25
190.828	1916.53
190.904	1929.94
190.98	1946.25
191.055	1955.76
191.131	1946.54
191.207	1966.79
191.282	1977.39
191.358	1967.4
191.433	1951.71
191.509	1961.12
191.585	1960.64
191.66	1961.12
191.736	1968.68
191.811	1958.6
191.887	1973.91
191.963	1998.06
192.038	2001.82
192.114	2001.2
192.189	2002.15
192.265	2000.11
192.34	1976.04
192.416	1973.14
192.491	1968.14
192.567	1969.33
192.642	1972.71
192.718	1971.24
192.793	1959.06
192.869	1955.88
192.944	1961.06
193.02	1969.33
193.095	1974.37
193.171	1978.79
193.246	1977.56
193.322	1974.23
193.397	1974.13
193.473	1960.58
193.548	1945.17
193.624	1952.21
193.699	1948.88
193.775	1964.58
193.85	1965.15
193.925	1973.9
194.001	1977.22
194.076	1972.09
194.152	1962.53
194.227	1956.82
194.302	1948.7
194.378	1951.88
194.453	1947.84
194.529	1956.11
194.604	1941.9
194.679	1938
194.755	1920.65
194.83	1932.97
194.905	1931.21
194.981	1940.77
195.056	1933.64
195.131	1936.35
195.207	1933.97
195.282	1927.08
195.357	1908.34
195.433	1921.13
195.508	1909.67
195.583	1911.81
195.659	1925.41
195.734	1932.83
195.809	1930.45
195.884	1939.2
195.96	1940.81
196.035	1954.88
196.11	1954.41
196.185	1966.01
196.261	1968.48
196.336	1995.92
196.411	1983.22
196.486	1987.26
196.561	1982.31
196.637	1993.44
196.712	2008.56
196.787	2011.13
196.862	2025.82
196.937	2037.14
197.013	2042.61
197.088	2054.31
197.163	2076.43
197.238	2088.9
197.313	2088.61
197.388	2098.65
197.464	2127.81
197.539	2135.66
197.614	2130.67
197.689	2139.56
197.764	2153.64
197.839	2170.91
197.914	2167.44
197.989	2188.09
198.065	2204.17
198.14	2249.01
198.215	2274.13
198.29	2284.89
198.365	2296.5
198.44	2305.64
198.515	2330.63
198.59	2343.19
198.665	2364.37
198.74	2372.51
198.815	2377.42
198.89	2398.69
198.965	2428.93
199.04	2424.5
199.115	2439.63
199.19	2478.48
199.265	2483.62
199.34	2493.42
199.415	2525.24
199.49	2544.14
199.565	2554.14
199.64	2574.29
199.715	2570.57
199.79	2578.19
199.865	2584.67
199.94	2583.67
200.015	2614.1
200.09	2619.06
200.165	2627.48
200.24	2634.15
200.315	2669.91
200.39	2683.01
200.464	2691.77
200.539	2694.25
200.614	2710.92
200.689	2733.41
200.764	2740.41
200.839	2755.7
200.914	2758.46
200.989	2748.4
201.063	2762.27
201.138	2745.56
201.213	2744.03
201.288	2726.98
201.363	2729.98
201.438	2731.51
201.512	2747.41
201.587	2732.02
201.662	2735.83
201.737	2748.84
201.812	2755.99
201.886	2727
201.961	2732.24
202.036	2716.72
202.111	2710.38
202.186	2679.81
202.26	2664.56
202.335	2642.17
202.41	2636.69
202.485	2620.65
202.559	2602.12
202.634	2574.55
202.709	2582.54
202.784	2566.97
202.858	2569.16
202.933	2552.78
203.008	2545.63
203.082	2526.11
203.157	2524.3
203.232	2483.65
203.306	2461.55
203.381	2432.55
203.456	2411.41
203.53	2393.21
203.605	2376.55
203.68	2356.31
203.754	2353.75
203.829	2340.46
203.904	2324.28
203.978	2315.14
204.053	2321.18
204.127	2310.57
204.202	2308
204.277	2291.44
204.351	2286.21
204.426	2277.45
204.5	2271.02
204.575	2241.76
204.65	2250.95
204.724	2243.14
204.799	2251.37
204.873	2250.89
204.948	2249.18
205.022	2239
205.097	2229.24
205.171	2241.85
205.246	2249.27
205.32	2246.8
205.395	2244.47
205.469	2234.34
205.544	2238
205.618	2220.97
205.693	2232.77
205.767	2223.92
205.842	2245.1
205.916	2237.63
205.991	2230.16
206.065	2232.83
206.14	2243.62
206.214	2238.29
206.289	2231.39
206.363	2244.66
206.438	2244
206.512	2251.94
206.586	2270.02
206.661	2279.74
206.735	2258.95
206.81	2260.33
206.884	2274.41
206.958	2262.14
207.033	2279.45
207.107	2283.4
207.181	2314.15
207.256	2308.06
207.33	2325.62
207.405	2338.34
207.479	2358.42
207.553	2365.13
207.628	2349.86
207.702	2359.76
207.776	2354.14
207.851	2358.67
207.925	2370.9
207.999	2367.62
208.073	2366.05
208.148	2366.95
208.222	2355.34
208.296	2384.03
208.371	2398.13
208.445	2409.65
208.519	2438.82
208.593	2448.3
208.668	2449.39
208.742	2450.87
208.816	2451.53
208.89	2463.2
208.965	2459.3
209.039	2463.72
209.113	2481.25
209.187	2504.32
209.261	2502.32
209.336	2523.13
209.41	2540.75
209.484	2539.32
209.558	2559.04
209.632	2572.04
209.707	2579.75
209.781	2598.7
209.855	2612.42
209.929	2628.39
210.003	2634.97
210.077	2634.25
210.151	2678.97
210.226	2708.75
210.3	2733.07
210.374	2755.02
210.448	2761.07
210.522	2770.22
210.596	2782.61
210.67	2790.71
210.744	2833.14
210.818	2865.81
210.892	2882.69
210.966	2879.73
211.041	2898.32
211.115	2898.89
211.189	2921.48
211.263	2938.54
211.337	2948.31
211.411	2964.85
211.485	2961.42
211.559	2972.24
211.633	2973.67
211.707	2945.38
211.781	2952.4
211.855	2922.41
211.929	2918.98
212.003	2902.17
212.077	2916.71
212.151	2928.58
212.225	2940.98
212.299	2934.3
212.373	2926.72
212.447	2925.72
212.52	2956.28
212.594	2963.67
212.668	2978.07
212.742	2973.2
212.816	2979.5
212.89	2980.26
212.964	2987.51
213.038	3000.2
213.112	3022.62
213.186	3049.55
213.26	3044.02
213.333	3017.13
213.407	3036.29
213.481	3049.2
213.555	3081.18
213.629	3086.57
213.703	3089.34
213.777	3106.13
213.85	3108.8
213.924	3160.48
213.998	3184.01
214.072	3197.23
214.146	3208.2
214.219	3230.53
214.293	3253.1
214.367	3280.68
214.441	3322.01
214.515	3337.81
214.588	3343.82
214.662	3342.58
214.736	3358.52
214.81	3402.93
214.883	3446
214.957	3474.44
215.031	3506.74
215.105	3525.45
215.178	3551.18
215.252	3588.28
215.326	3606.95
215.4	3633.88
215.473	3636.27
215.547	3667.28
215.621	3706.51
215.694	3759.8
215.768	3790.85
215.842	3832.8
215.915	3870.13
215.989	3898.14
216.063	3946.33
216.136	4004.69
216.21	4065.29
216.284	4133.58
216.357	4189.57
216.431	4244.46
216.504	4310.7
216.578	4397.59
216.652	4469.36
216.725	4536.45
216.799	4610.64
216.873	4685.68
216.946	4760.81
217.02	4822.5
217.093	4889.14
217.167	4940.72
217.24	4994.65
217.314	5066.67
217.387	5127.39
217.461	5196.23
217.535	5285.22
217.608	5348.32
217.682	5420.55
217.755	5502.76
217.829	5572.14
217.902	5653.8
217.976	5732.05
218.049	5804.22
218.123	5862.08
218.196	5945.59
218.27	6016.79
218.343	6081.86
218.417	6160.96
218.49	6236.64
218.563	6326.42
218.637	6412.69
218.71	6512.85
218.784	6609.66
218.857	6695.51
218.931	6778.66
219.004	6864.68
219.077	6948.25
219.151	7031.54
219.224	7116
219.298	7197.7
219.371	7286.47
219.444	7357.41
219.518	7446.91
219.591	7530.74
219.665	7641.05
219.738	7730.68
219.811	7812.37
219.885	7906.29
219.958	7993.68
220.031	8077.31
220.105	8170.1
220.178	8253.33
220.251	8326.71
220.325	8410.59
220.398	8501.67
220.471	8596.31
220.544	8687.85
220.618	8759.13
220.691	8846.62
220.764	8925.8
220.838	9013.7
220.911	9094.92
220.984	9198.14
221.057	9284.27
221.131	9371.27
221.204	9423.33
221.277	9514.4
221.35	9622.08
221.424	9694.71
221.497	9771.29
221.57	9850.65
221.643	9937.6
221.716	10021.56
221.79	10101.13
221.863	10180.38
221.936	10255.63
222.009	10330.73
222.082	10402.95
222.155	10475.6
222.229	10570.03
222.302	10651.99
222.375	10722.62
222.448	10796.2
222.521	10863.86
222.594	10930.4
222.667	10990.25
222.74	11073.42
222.814	11134.92
222.887	11197.91
222.96	11281.43
223.033	11357.09
223.106	11427.02
223.179	11494.54
223.252	11562.45
223.325	11632.58
223.398	11700.73
223.471	11772.31
223.544	11846.24
223.617	11919.12
223.69	11993.3
223.763	12045.98
223.837	12113.03
223.91	12180.08
223.983	12232.86
224.056	12287.47
224.129	12359.06
224.202	12436.76
224.275	12493.64
224.348	12543.14
224.42	12592.31
224.493	12639.26
224.566	12697.11
224.639	12763.44
224.712	12815.07
224.785	12874.31
224.858	12928.25
224.931	12982.05
225.004	13024.86
225.077	13070.12
225.15	13104.45
225.223	13153.67
225.296	13232.19
225.369	13274.57
225.442	13325.86
225.514	13380.24
225.587	13439.91
225.66	13497.14
225.733	13552.62
225.806	13618.57
225.879	13676.22
225.952	13725.25
226.025	13793.27
226.097	13867.7
226.17	13929.79
226.243	13967.68
226.316	14022.15
226.389	14093.59
226.461	14151.24
226.534	14215.6
226.607	14280.48
226.68	14358.77
226.753	14417.05
226.825	14448.53
226.898	14517.12
226.971	14566.44
227.044	14629.15
227.117	14689.94
227.189	14747.21
227.262	14816.76
227.335	14864.2
227.407	14918.28
227.48	14979.4
227.553	15035.17
227.626	15073.88
227.698	15118.85
227.771	15177.81
227.844	15219.12
227.916	15260.23
227.989	15292.48
228.062	15335.04
228.134	15405.37
228.207	15449.38
228.28	15489.19
228.352	15536.72
228.425	15584.58
228.498	15645.65
228.57	15684.12
228.643	15735.16
228.716	15774.59
228.788	15806.88
228.861	15847.85
228.934	15906.22
229.006	15948.1
229.079	15981.12
229.151	16021.46
229.224	16054.24
229.296	16103.35
229.369	16171.17
229.442	16215.27
229.514	16259.76
229.587	16322.41
229.659	16342.8
229.732	16385.12
229.804	16444.69
229.877	16509.85
229.949	16558.87
230.022	16626.82
230.094	16668.85
230.167	16709.53
230.239	16740.8
230.312	16770.93
230.384	16833.53
230.457	16878.16
230.529	16919.27
230.602	16965.1
230.674	17003.56
230.747	17055.13
230.819	17104.58
230.892	17118.99
230.964	17172.73
231.037	17218.13
231.109	17248.82
231.181	17284.15
231.254	17314.51
231.326	17346.61
231.399	17366.51
231.471	17393.84
231.544	17390.56
231.616	17443.72
231.688	17479.48
231.761	17508.25
231.833	17544.73
231.905	17553.07
231.978	17581.98
232.05	17618.42
232.122	17647.43
232.195	17676.68
232.267	17716.68
232.339	17741.64
232.412	17783.76
232.484	17807.18
232.556	17827.23
232.629	17868.1
232.701	17908.72
232.773	17943.57
232.846	17962.31
232.918	17997.39
232.99	18032.09
233.062	18070.89
233.135	18087.32
233.207	18099.46
233.279	18127.94
233.351	18159.8
233.424	18179.07
233.496	18185.15
233.568	18220.37
233.64	18227.12
233.713	18241.96
233.785	18257.29
233.857	18272.61
233.929	18275.12
234.001	18295.45
234.074	18315.6
234.146	18313.62
234.218	18327.74
234.29	18328.61
234.362	18337.77
234.434	18336.18
234.507	18336.13
234.579	18331.4
234.651	18336.75
234.723	18355.16
234.795	18375.6
234.867	18380.03
234.939	18410.92
235.012	18424.85
235.084	18428.07
235.156	18444.89
235.228	18458.29
235.3	18460.02
235.372	18470.34
235.444	18487.97
235.516	18473.47
235.588	18484.12
235.66	18487.78
235.732	18470.92
235.804	18532.55
235.876	18544.6
235.948	18564.84
236.02	18570.09
236.092	18567.87
236.164	18566.09
236.236	18561.8
236.308	18556.45
236.38	18559.63
236.452	18544.79
236.524	18545.03
236.596	18567.78
236.668	18568.4
236.74	18559.05
236.812	18560.98
236.884	18569.46
236.956	18563.15
237.028	18560.5
237.1	18556.69
237.172	18573.75
237.244	18595.87
237.316	18553.66
237.388	18544.31
237.46	18528.12
237.532	18535.54
237.604	18535.68
237.675	18545.71
237.747	18542.48
237.819	18527.01
237.891	18520.98
237.963	18496.31
238.035	18478.38
238.107	18424.85
238.178	18435.54
238.25	18428.22
238.322	18437.76
238.394	18409.86
238.466	18395.45
238.538	18391.35
238.609	18390.68
238.681	18355.79
238.753	18335.26
238.825	18328.03
238.897	18327.12
238.968	18328.99
239.04	18303.65
239.112	18315.55
239.184	18293.53
239.255	18283.94
239.327	18268.03
239.399	18257.14
239.471	18263.17
239.542	18254.88
239.614	18258.69
239.686	18221.39
239.758	18213.92
239.829	18184.57
239.901	18184.47
239.973	18172.47
240.044	18156.18
240.116	18128.47
240.188	18104.04
240.259	18085.05
240.331	18058.98
240.403	18043.08
240.474	18010.79
240.546	17985.35
240.618	17944.72
240.689	17922.41
240.761	17899.04
240.833	17904.82
240.904	17878.22
240.976	17853.26
241.048	17845.11
241.119	17834.99
241.191	17821.35
241.262	17821.83
241.334	17794.61
241.405	17765.5
241.477	17735.04
241.549	17717.4
241.62	17702.9
241.692	17689.6
241.763	17681.45
241.835	17659.24
241.906	17637.65
241.978	17600.1
242.049	17589.69
242.121	17570.85
242.192	17559.48
242.264	17529.98
242.335	17484.3
242.407	17466.13
242.478	17438.71
242.55	17412.2
242.621	17375.57
242.693	17342.85
242.764	17305.6
242.836	17275.91
242.907	17256.34
242.979	17241.5
243.05	17212.34
243.122	17190.17
243.193	17166.22
243.264	17117.11
243.336	17088.73
243.407	17070.94
243.479	17065.64
243.55	17039.23
243.622	17020.24
243.693	16993.45
243.764	16976.68
243.836	16942.84
243.907	16910.07
243.978	16887.03
244.05	16866.89
244.121	16827.46
244.192	16807.56
244.264	16772.67
244.335	16753.24
244.407	16707.94
244.478	16684.27
244.549	16659.02
244.62	16614.97
244.692	16584.56
244.763	16565.71
244.834	16532.65
244.906	16491.68
244.977	16466.19
245.048	16452.07
245.119	16415.58
245.191	16373.02
245.262	16328.3
245.333	16317.84
245.405	16290.75
245.476	16264.91
245.547	16236.19
245.618	16210.93
245.689	16189.2
245.761	16156.04
245.832	16123.41
245.903	16112.66
245.974	16088.85
246.045	16052.27
246.117	16042.82
246.188	16003.92
246.259	15970.71
246.33	15943.14
246.401	15910.51
246.473	15859.37
246.544	15822.55
246.615	15807.61
246.686	15771.79
246.757	15757.24
246.828	15711.25
246.899	15700.31
246.97	15656.21
247.042	15615.91
247.113	15596.15
247.184	15583.81
247.255	15549.93
247.326	15524.91
247.397	15485.53
247.468	15455.07
247.539	15430.39
247.61	15389.46
247.681	15375
247.752	15356.88
247.823	15322.22
247.894	15294.75
247.965	15260.04
248.037	15221
248.108	15175.54
248.179	15155.68
248.25	15126.04
248.321	15111.58
248.392	15070.75
248.463	15067.13
248.534	15039.23
248.605	15020.52
248.675	14983.02
248.746	14956.46
248.817	14935.06
248.888	14916.65
248.959	14871.04
249.03	14847.96
249.101	14816.53
249.172	14790.21
249.243	14742.44
249.314	14721.66
249.385	14695.34
249.456	14679.67
249.527	14651.81
249.598	14626.07
249.669	14598.45
249.739	14571.84
249.81	14550.24
249.881	14508.4
249.952	14472.63
250.023	14445.69
250.094	14402.59
250.165	14362.34
250.235	14344.65
250.306	14312.11
250.377	14272.39
250.448	14251.76
250.519	14212.18
250.59	14196.51
250.66	14157.18
250.731	14148.5
250.802	14125.75
250.873	14108.15
250.944	14088.29
251.014	14061.68
251.085	14058.21
251.156	14041.34
251.227	14030.11
251.297	14021.72
251.368	14006.78
251.439	14000.85
251.51	13986.96
251.58	13955.97
251.651	13927.67
251.722	13908.15
251.792	13866.16
251.863	13842.1
251.934	13830.68
252.005	13830.53
252.075	13810.77
252.146	13805.66
252.217	13786.62
252.287	13773.02
252.358	13742.22
252.429	13731.18
252.499	13702.3
252.57	13680.42
252.641	13662.77
252.711	13634.14
252.782	13583.33
252.852	13582.9
252.923	13547.99
252.994	13522.88
253.064	13512.03
253.135	13484.36
253.205	13454.76
253.276	13453.03
253.347	13435.53
253.417	13407.42
253.488	13370.21
253.558	13340.9
253.629	13310.09
253.699	13288.35
253.77	13268.59
253.841	13244.82
253.911	13223.08
253.982	13207.75
254.052	13187.6
254.123	13161.67
254.193	13139.4
254.264	13161.96
254.334	13128.26
254.405	13098.52
254.475	13065.93
254.546	13042.65
254.616	13036.67
254.687	13021.97
254.757	12997.19
254.827	12982.97
254.898	12964.84
254.968	12948.98
255.039	12923.14
255.109	12909.4
255.18	12876.62
255.25	12834.78
255.321	12820.27
255.391	12785.18
255.461	12777.61
255.532	12736.2
255.602	12708.24
255.673	12669.24
255.743	12632.61
255.813	12586.67
255.884	12576.98
255.954	12569.75
256.024	12559.92
256.095	12536.44
256.165	12500.67
256.235	12487.08
256.306	12453.05
256.376	12438.2
256.446	12423.11
256.517	12406.05
256.587	12392.65
256.657	12376.35
256.728	12359.24
256.798	12335.19
256.868	12309.25
256.938	12274.79
257.009	12258.59
257.079	12252.04
257.149	12255.22
257.219	12209.91
257.29	12197.76
257.36	12159.68
257.43	12142.23
257.5	12101.02
257.571	12072.05
257.641	12054.55
257.711	12025.05
257.781	12014.4
257.852	11998.54
257.922	11964.13
257.992	11942.39
258.062	11916.07
258.132	11908.69
258.202	11885.75
258.273	11874.38
258.343	11874.91
258.413	11854.18
258.483	11831.77
258.553	11798.8
258.623	11772.53
258.693	11761.3
258.764	11753.44
258.834	11747.03
258.904	11727.61
258.974	11701.15
259.044	11682.16
259.114	11675.22
259.184	11654.78
259.254	11637.67
259.324	11601.43
259.394	11592.94
259.464	11589.76
259.535	11575.59
259.605	11553.95
259.675	11531.3
259.745	11515.15
259.815	11490.81
259.885	11470.86
259.955	11484.31
260.025	11458.62
260.095	11436.79
260.165	11429.6
260.235	11427.15
260.305	11396.16
260.375	11369.36
260.445	11383.14
260.515	11382.61
260.585	11372.73
260.655	11359.19
260.725	11349.31
260.795	11338.52
260.865	11329.12
260.934	11300.25
261.004	11285.45
261.074	11263.09
261.144	11261.65
261.214	11247.28
261.284	11219.38
261.354	11211.82
261.424	11184.34
261.494	11183.76
261.564	11165.6
261.634	11152.92
261.703	11118.32
261.773	11111.62
261.843	11101.45
261.913	11077.45
261.983	11041.26
262.053	11030.03
262.123	11007.53
262.192	10971.19
262.262	10957.56
262.332	10925.13
262.402	10915.87
262.472	10903.63
262.541	10869.13
262.611	10856.12
262.681	10839.64
262.751	10831.5
262.821	10809.43
262.89	10771.21
262.96	10758.2
263.03	10763.7
263.1	10742.93
263.169	10727.7
263.239	10715.17
263.309	10714.64
263.379	10700.43
263.448	10689.35
263.518	10676.38
263.588	10661.16
263.657	10665.3
263.727	10662.7
263.797	10651.67
263.867	10629.6
263.936	10598.23
264.006	10594.09
264.076	10578.33
264.145	10558
264.215	10534.39
264.285	10535.4
264.354	10513.48
264.424	10495.8
264.494	10460.77
264.563	10444.87
264.633	10447.23
264.702	10435.28
264.772	10402.47
264.842	10381.27
264.911	10375.92
264.981	10346.58
265.05	10334.77
265.12	10312.66
265.19	10294.21
265.259	10286.21
265.329	10285.53
265.398	10274.65
265.468	10290.4
265.537	10267.81
265.607	10250.27
265.676	10245.41
265.746	10229.36
265.815	10231.53
265.885	10214.67
265.955	10198.29
266.024	10179.26
266.094	10141.78
266.163	10142.12
266.232	10138.51
266.302	10123.62
266.371	10108.35
266.441	10095.39
266.51	10090.91
266.58	10076.85
266.649	10056.95
266.719	10056.37
266.788	10043.08
266.858	10040.76
266.927	10003.43
266.996	9995.58
267.066	9982.23
267.135	9960.03
267.205	9957.38
267.274	9943.84
267.343	9940.57
267.413	9920.73
267.482	9921.83
267.552	9924.19
267.621	9897.84
267.69	9870.49
267.76	9858.54
267.829	9843.13
267.898	9830.41
267.968	9812.2
268.037	9806.09
268.106	9805.17
268.176	9779.16
268.245	9763.41
268.314	9749.06
268.384	9742.02
268.453	9728.78
268.522	9728.35
268.592	9726.28
268.661	9703.25
268.73	9687.98
268.799	9663.04
268.869	9666.89
268.938	9636.93
269.007	9616.37
269.076	9603.08
269.146	9603.37
269.215	9600.33
269.284	9608.04
269.353	9594.41
269.422	9575.68
269.492	9562.19
269.561	9522.75
269.63	9513.46
269.699	9497.66
269.768	9486.49
269.838	9481.67
269.907	9477.34
269.976	9448.49
270.045	9417.63
270.114	9405.88
270.183	9391.48
270.253	9389.17
270.322	9362.78
270.391	9353.68
270.46	9360.52
270.529	9357.92
270.598	9353.2
270.667	9339.09
270.736	9315.49
270.806	9305.14
270.875	9304.9
270.944	9291.66
271.013	9313.9
271.082	9310.2
271.151	9305.91
271.22	9280.68
271.289	9261.32
271.358	9252.22
271.427	9245.96
271.496	9238.6
271.565	9220.35
271.634	9215.44
271.703	9216.07
271.772	9230.56
271.841	9215.11
271.91	9188.29
271.979	9176.01
272.048	9156.22
272.117	9152.66
272.186	9141.29
272.255	9144.18
272.324	9143.22
272.393	9136.14
272.462	9115.97
272.531	9102.29
272.6	9087.32
272.669	9087.13
272.738	9080.14
272.807	9074.7
272.876	9056.94
272.945	9088.14
273.013	9097.86
273.082	9102.2
273.151	9081.35
273.22	9067.15
273.289	9066.09
273.358	9074.08
273.427	9067.87
273.496	9062.82
273.564	9060.41
273.633	9058.34
273.702	9037.78
273.771	9023.77
273.84	9018.38
273.909	9017.22
273.977	9015.68
274.046	9007.02
274.115	9009.86
274.184	8995.08
274.253	8983.05
274.322	8995.37
274.39	8967.35
274.459	8948.24
274.528	8917.86
274.597	8905.64
274.665	8895.14
274.734	8898.03
274.803	8887.78
274.872	8879.3
274.94	8864.19
275.009	8886
275.078	8872.57
275.147	8866.36
275.215	8865.35
275.284	8874.45
275.353	8861.93
275.421	8837.1
275.49	8850.86
275.559	8842.2
275.627	8833.68
275.696	8824.97
275.765	8816.31
275.833	8797.29
275.902	8797.82
275.971	8811.06
276.039	8828.87
276.108	8832.91
276.177	8829.54
276.245	8817.41
276.314	8807.79
276.383	8816.36
276.451	8786.6
276.52	8786.45
276.588	8794.01
276.657	8799.69
276.725	8787.95
276.794	8786.07
276.863	8796.56
276.931	8774.03
277	8783.42
277.068	8795.4
277.137	8814.9
277.205	8816.34
277.274	8836.41
277.342	8841.95
277.411	8821.2
277.48	8806.52
277.548	8795.45
277.617	8796.75
277.685	8790.06
277.754	8792.18
277.822	8784.72
277.89	8796.27
277.959	8787.47
278.027	8772.16
278.096	8758.49
278.164	8782.95
278.233	8774.57
278.301	8765.52
278.37	8769.33
278.438	8752.14
278.507	8753.01
278.575	8727.21
278.643	8724.71
278.712	8703.87
278.78	8695.73
278.849	8702.57
278.917	8713.49
278.985	8708.92
279.054	8713.49
279.122	8725.33
279.191	8725.62
279.259	8721.63
279.327	8699.58
279.396	8713.54
279.464	8713.44
279.532	8712.77
279.601	8701.98
279.669	8696.64
279.737	8706.46
279.806	8712.09
279.874	8724.12
279.942	8723.3
280.011	8715.08
280.079	8720.27
280.147	8740.2
280.215	8741.26
280.284	8742.32
280.352	8725.47
280.42	8735.77
280.488	8725.47
280.557	8718.59
280.625	8722.1
280.693	8721.67
280.761	8717.77
280.83	8701.93
280.898	8708.86
280.966	8693.13
281.034	8666.8
281.102	8655.3
281.171	8653.66
281.239	8656.41
281.307	8644.71
281.375	8630.51
281.443	8653.76
281.512	8643.65
281.58	8648.46
281.648	8630.61
281.716	8626.09
281.784	8624.83
281.852	8615.21
281.92	8608.95
281.989	8618
282.057	8597.6
282.125	8632.83
282.193	8627.06
282.261	8627.73
282.329	8626
282.397	8636.01
282.465	8632.69
282.533	8646.74
282.601	8633.94
282.67	8609.34
282.738	8603.38
282.806	8611.03
282.874	8597.89
282.942	8606.26
283.01	8598.66
283.078	8602.51
283.146	8600.92
283.214	8609.58
283.282	8612.32
283.35	8620.03
283.418	8607.42
283.486	8614.73
283.554	8575.35
283.622	8580.79
283.69	8577.62
283.758	8565.1
283.826	8565.2
283.894	8578.53
283.962	8599.37
284.03	8607.51
284.098	8612.03
284.165	8610.1
284.233	8607.55
284.301	8603.03
284.369	8595.38
284.437	8584.31
284.505	8583.68
284.573	8599.76
284.641	8589.41
284.709	8593.98
284.777	8581.61
284.845	8586.33
284.912	8591.14
284.98	8596.72
285.048	8595.28
285.116	8602.84
285.184	8618.91
285.252	8623.29
285.319	8606.45
285.387	8588.39
285.455	8574.29
285.523	8576.51
285.591	8563.47
285.659	8563.04
285.726	8575.79
285.794	8555.92
285.862	8552.6
285.93	8552.45
285.997	8546.24
286.065	8540.47
286.133	8531.76
286.201	8529.45
286.269	8523.29
286.336	8513.23
286.404	8504.62
286.472	8507.99
286.539	8489.36
286.607	8468.62
286.675	8461.79
286.743	8467.18
286.81	8466.7
286.878	8475.45
286.946	8474.01
287.013	8479.64
287.081	8483.49
287.149	8469.29
287.216	8487.82
287.284	8486.28
287.352	8487.34
287.419	8475.74
287.487	8490.32
287.555	8493.26
287.622	8493.88
287.69	8501.05
287.758	8519.2
287.825	8510.82
287.893	8498.21
287.96	8501.49
288.028	8521.07
288.096	8522.52
288.163	8527.67
288.231	8517.37
288.298	8520.69
288.366	8533.34
288.433	8532.58
288.501	8520.83
288.569	8521.31
288.636	8519.58
288.704	8529.69
288.771	8533.63
288.839	8531.71
288.906	8527.19
288.974	8535.75
289.041	8532.38
289.109	8522.95
289.176	8526.42
289.244	8537.82
289.311	8550.38
289.379	8569.39
289.446	8564.91
289.514	8565.01
289.581	8564.96
289.649	8569.53
289.716	8564.82
289.783	8558.51
289.851	8579.3
289.918	8583.54
289.986	8590.42
290.053	8595.23
290.121	8596.34
290.188	8604.28
290.255	8628.78
290.323	8623.53
290.39	8620.26
290.458	8626.32
290.525	8633.49
290.592	8622.28
290.66	8624.15
290.727	8619.29
290.794	8623.96
290.862	8629.01
290.929	8638.69
290.996	8637.97
291.064	8645.76
291.131	8662.66
291.198	8669.3
291.266	8657.65
291.333	8660.63
291.4	8669.63
291.468	8684.03
291.535	8678.88
291.602	8672.43
291.669	8658.71
291.737	8660.59
291.804	8656.4
291.871	8670.74
291.938	8678.11
292.006	8708.14
292.073	8718.54
292.14	8730.86
292.207	8719.26
292.275	8716.9
292.342	8717.29
292.409	8741.45
292.476	8762.59
292.543	8749.11
292.611	8749.73
292.678	8770.29
292.745	8798.49
292.812	8805.91
292.879	8802.25
292.946	8811.01
293.014	8827.23
293.081	8850.43
293.148	8863.37
293.215	8882.1
293.282	8874.49
293.349	8888.89
293.416	8869.2
293.484	8881.28
293.551	8888.89
293.618	8906.36
293.685	8935.53
293.752	8932.5
293.819	8930.33
293.886	8920.13
293.953	8931.68
294.02	8946.89
294.087	8954.16
294.154	8945.2
294.221	8959.02
294.288	8960.71
294.356	8976.45
294.423	8981.6
294.49	8970.14
294.557	8985.69
294.624	8977.65
294.691	9003.79
294.758	9004.95
294.825	9013.37
294.892	9012.74
294.959	9014.48
295.026	9025.89
295.093	9012.5
295.16	9019.72
295.226	9022.32
295.293	9043.7
295.36	9048.22
295.427	9061.56
295.494	9071.34
295.561	9073.55
295.628	9093.58
295.695	9108.22
295.762	9109.23
295.829	9117.32
295.896	9136.05
295.963	9148.03
296.03	9155.83
296.096	9161.47
296.163	9169.75
296.23	9183.95
296.297	9195.51
296.364	9197.34
296.431	9196.85
296.498	9195.65
296.564	9213.17
296.631	9212.74
296.698	9199.98
296.765	9223.24
296.832	9209.47
296.899	9196.47
296.965	9214.95
297.032	9198.24
297.099	9217.12
297.166	9226.22
297.233	9227.86
297.299	9218.52
297.366	9211.1
297.433	9215.58
297.5	9219.67
297.566	9215.72
297.633	9214.23
297.7	9213.03
297.767	9209.99
297.833	9220.3
297.9	9230.79
297.967	9217.8
298.033	9227.67
298.1	9255.88
298.167	9251.45
298.234	9255.5
298.3	9266.57
298.367	9259.54
298.434	9264.31
298.5	9250.25
298.567	9247.26
298.634	9245.24
298.7	9264.21
298.767	9270.33
298.834	9285.78
298.9	9275.09
298.967	9271.53
299.033	9275.62
299.1	9288.48
299.167	9307.79
299.233	9305.28
299.3	9312.12
299.366	9328.1
299.433	9345.25
299.5	9324.25
299.566	9327.82
299.633	9342.55
299.699	9352.42
299.766	9355.7
299.832	9357.91
299.899	9367.35
299.965	9377.46
300.032	9377.03
300.099	9380.74
300.165	9384.01
300.232	9379.24
300.298	9384.25
300.365	9400.38
300.431	9402.55
300.498	9400.09
300.564	9406.79
300.631	9415.89
300.697	9428.79
300.763	9433.22
300.83	9430.77
300.896	9445.26
300.963	9453.16
301.029	9453.88
301.096	9455.61
301.162	9465.77
301.229	9462.6
301.295	9453.35
301.361	9455.85
301.428	9458.17
301.494	9447.14
301.561	9448.44
301.627	9445.55
301.693	9447.19
301.76	9450.61
301.826	9452.82
301.892	9460.29
301.959	9461.97
302.025	9460.53
302.092	9456.14
302.158	9461.49
302.224	9471.94
302.291	9455.04
302.357	9448.39
302.423	9443.82
302.49	9440.69
302.556	9447.57
302.622	9447.19
302.688	9464.96
302.755	9472.95
302.821	9480.18
302.887	9488.36
302.954	9489.9
303.02	9499.92
303.086	9508.2
303.152	9506.28
303.219	9502.42
303.285	9499.25
303.351	9506.61
303.417	9508.2
303.483	9498.52
303.55	9494.38
303.616	9484.61
303.682	9491.78
303.748	9484.03
303.815	9499.53
303.881	9510.13
303.947	9497.27
304.013	9499.44
304.079	9487.25
304.145	9473.14
304.212	9469.63
304.278	9462.98
304.344	9459.56
304.41	9447.96
304.476	9442.76
304.542	9435.1
304.608	9439.73
304.674	9430.53
304.741	9421.71
304.807	9424.17
304.873	9429.71
304.939	9442.76
305.005	9428.36
305.071	9423.5
305.137	9424.32
305.203	9401.3
305.269	9395.61
305.335	9406.55
305.401	9407.56
305.467	9399.95
305.533	9406.59
305.599	9410.4
305.666	9416.75
305.732	9414.54
305.798	9423.54
305.864	9446.66
305.93	9456.63
305.996	9455.47
306.062	9459.76
306.128	9459.18
306.194	9441.61
306.259	9437.08
306.325	9425.33
306.391	9431.44
306.457	9444.44
306.523	9450.66
306.589	9473.92
306.655	9459.66
306.721	9443.72
306.787	9433.9
306.853	9448.2
306.919	9436.02
306.985	9428.07
307.051	9423.02
307.117	9416.33
307.183	9412.71
307.248	9380.01
307.314	9383.53
307.38	9385.07
307.446	9389.89
307.512	9377.85
307.578	9383.58
307.644	9382.04
307.709	9382.18
307.775	9375.25
307.841	9362.1
307.907	9355.07
307.973	9334.65
308.039	9343.51
308.104	9351.36
308.17	9344.43
308.236	9325.41
308.302	9329.74
308.368	9319.53
308.433	9312.31
308.499	9303.89
308.565	9293.73
308.631	9298.25
308.696	9268.01
308.762	9254.77
308.828	9245.14
308.894	9227.52
308.959	9208.12
309.025	9199.4
309.091	9196.75
309.156	9188.86
309.222	9190.59
309.288	9184.24
309.354	9163.05
309.419	9155.3
309.485	9141.1
309.551	9151.01
309.616	9139.41
309.682	9128.05
309.748	9125.45
309.813	9123.72
309.879	9118.56
309.945	9103.3
310.01	9099.74
310.076	9108.84
310.141	9099.36
310.207	9082.74
310.273	9084.72
310.338	9090.93
310.404	9078.41
310.469	9059.59
310.535	9051.31
310.601	9033.69
310.666	9032.58
310.732	9042.54
310.797	9027.04
310.863	9016.06
310.928	9001.91
310.994	9010.91
311.059	9012.6
311.125	9008.6
311.191	9017.22
311.256	9005.14
311.322	9015.39
311.387	8996.18
311.453	9351.23
311.518	9335.3
311.584	9339.58
311.649	9342.86
311.715	9326.01
311.78	9321.73
311.846	9318.26
311.911	9326.35
311.976	9321.78
312.042	9306.03
312.107	9294.43
312.173	9295.78
312.238	9292.75
312.304	9292.46
312.369	9279.65
312.434	9263.57
312.5	9257.03
312.565	9228.05
312.631	9236.85
312.696	9228.57
312.761	9229.59
312.827	8861.15
312.892	8891.29
312.958	8887.1
313.023	8886.38
313.088	8893.12
313.154	8883.15
313.219	8869.63
313.284	8857.06
313.35	8855.72
313.415	8852.4
313.48	8839.02
313.546	8838.49
313.611	8844.6
313.676	8834.2
313.741	8820.15
313.807	8830.02
313.872	8829.2
313.937	8833.48
314.003	8845.13
314.068	8845.28
314.133	8848.6
314.198	8840.37
314.264	8823.61
314.329	8808.5
314.394	8801.95
314.459	8796.51
314.525	8811.72
314.59	8815.28
314.655	8803.25
314.72	8810.9
314.785	8808.06
314.851	8808.45
314.916	8786.84
314.981	8771.34
315.046	8763.45
315.111	8760.65
315.176	8747.56
315.242	8753.96
315.307	8752.9
315.372	8728.11
315.437	8715.17
315.502	8704.77
315.567	8715.7
315.632	8696.78
315.698	8709.92
315.763	8705.64
315.828	8692.02
315.893	8687.16
315.958	8675.27
316.023	8666.22
316.088	8645.33
316.153	8622.09
316.218	8615.36
316.283	8599.38
316.348	8580.52
316.413	8576.04
316.479	8563.68
316.544	8526.82
316.609	8491.55
316.674	8449.74
316.739	8420.92
316.804	8385.27
316.869	8349.37
316.934	8307.03
316.999	8273.25
317.064	8213.02
317.129	8167.94
317.194	8132.05
317.259	8084.47
317.324	8034.64
317.389	7990.63
317.454	7946.91
317.518	7917.19
317.583	7883.13
317.648	7860.29
317.713	7825.42
317.778	7763.67
317.843	7727.45
317.908	7692.5
317.973	7649.61
318.038	7623.93
318.103	7580.81
318.168	7552.59
318.233	7525.37
318.297	7473.65
318.362	7438.07
318.427	7398.57
318.492	7372.65
318.557	7331.32
318.622	7299.26
318.687	7273.5
318.751	7232.42
318.816	7200.89
318.881	7166.87
318.946	7117.04
319.011	7066.77
319.075	7024.06
319.14	6987.94
319.205	6943.69
319.27	6906.46
319.335	6864.05
319.399	6823.11
319.464	6795.02
319.529	6744.06
319.594	6698.23
319.658	6672.3
319.723	6633.4
319.788	6607.56
319.853	6550.27
319.917	6515.27
319.982	6464.66
320.047	6430.72
320.112	6402.06
320.176	6352.04
320.241	6314.02
320.306	6285.17
320.37	6243.61
320.435	6212.13
320.5	6187.51
320.564	6147.96
320.629	6110.64
320.694	6077.2
320.758	6034.11
320.823	5992.18
320.888	5966.51
320.952	5919.93
321.017	5872.59
321.082	5828.61
321.146	5790.71
321.211	5756.86
321.275	5715.77
321.34	5670.41
321.405	5624.53
321.469	5583.1
321.534	5543.84
321.598	5493.99
321.663	5459.18
321.727	5432.86
321.792	5385.08
321.857	5341.03
321.921	5300.06
321.986	5252.77
322.05	5199.27
322.115	5160.6
322.179	5116.53
322.244	5057.19
322.308	5025.05
322.373	4983.24
322.437	4946.46
322.502	4916.76
322.566	4872.13
322.631	4839.33
322.695	4799.94
322.76	4761.07
322.824	4725.26
322.889	4683.72
322.953	4638.99
323.018	4572.28
323.082	4506.3
323.146	4454.69
323.211	4399.01
323.275	4356.77
323.34	4315.98
323.404	4286.05
323.468	4244.29
323.533	4198.92
323.597	4157.43
323.662	4102.98
323.726	4064.4
323.79	4014.26
323.855	3951.1
323.919	3903.74
323.983	3858.67
324.048	3795.64
324.112	3922.27
324.177	3790.38
324.241	3590.99
324.305	3398.85
324.37	3212.45
324.434	3030.82
324.498	2989.94
324.562	2943.71
324.627	2886.31
324.691	2831.9
324.755	2764.73
324.82	2687.4
324.884	2613.36
324.948	2540.5
325.012	2452.07
325.077	2335.61
