Data from 20250630_urea_2M_MAYP1162681_19-12-26-829.txt Node
Date: Mon Jun 30 19:12:26 BST 2025
User: adleo
Spectrometer: MAYP116268
Trigger mode: 0
Integration Time (sec): 1.000000E0
Scans to average: 1
Electric dark correction enabled: true
Nonlinearity correction enabled: true
Boxcar width: 10
XAxis mode: Wavelengths
Number of Pixels in Spectrum: 2068
>>>>>Begin Spectral Data<<<<<
179.565	1112.01
179.642	1166.99
179.718	1207.83
179.795	1244.11
179.871	1275.89
179.948	1292.36
180.024	1311.87
180.101	1331.76
180.177	1344.31
180.254	1365.48
180.33	1385.26
180.407	1430.49
180.483	1519.9
180.56	1602.52
180.636	1681.09
180.712	1671.01
180.789	1683.56
180.865	1697.43
180.942	1705.84
181.018	1718.81
181.095	1729.93
181.171	1736.58
181.248	1735.63
181.324	1749.51
181.4	1754.88
181.477	1764.29
181.553	1776.21
181.63	1797.27
181.706	1813.62
181.782	1821.32
181.859	1818.32
181.935	1824.36
182.011	1821.65
182.088	1835.91
182.164	1855.69
182.24	1867.71
182.317	1874.75
182.393	1871.09
182.469	1885.02
182.546	1900.23
182.622	1905.03
182.698	1901.8
182.775	1912.59
182.851	1925.04
182.927	1917.44
183.003	1915.16
183.08	1910.35
183.156	1922
183.232	1918.96
183.308	1908.21
183.385	1915.53
183.461	1936.93
183.537	1935.5
183.613	1947.29
183.69	1939.16
183.766	1930.79
183.842	1935.59
183.918	1941.72
183.995	1953.94
184.071	1953.9
184.147	1946.57
184.223	1934.22
184.299	1943.82
184.375	1931.13
184.452	1939.31
184.528	1994.44
184.604	2004.18
184.68	2017.45
184.756	2020.4
184.832	2022.68
184.908	2027.58
184.985	2028.24
185.061	2011.12
185.137	2021.01
185.213	2010.03
185.289	2010.46
185.365	2002.52
185.441	2003.04
185.517	2017.84
185.593	2014.79
185.669	2011.42
185.745	2023.64
185.822	2039.18
185.898	2032.14
185.974	2043.46
186.05	2035.47
186.126	1996.74
186.202	1989.9
186.278	1982.48
186.354	1974.87
186.43	1978.63
186.506	1977.92
186.582	1976.4
186.658	1982.86
186.734	1965.56
186.81	1970.93
186.886	1974.82
186.962	1983.72
187.038	1980.24
187.114	1970.06
187.19	1975.1
187.266	1967.64
187.341	1967.97
187.417	1963.17
187.493	1964.46
187.569	1967.59
187.645	1962.08
187.721	1950.24
187.797	1957.08
187.873	1963.22
187.949	1958.18
188.025	1955.7
188.101	1956.56
188.176	1964.31
188.252	1958.94
188.328	1967.35
188.404	1966.59
188.48	1963.36
188.556	1958.36
188.632	1958.36
188.707	1960.51
188.783	1959.6
188.859	1957.04
188.935	1945.95
189.011	1956.18
189.086	1950
189.162	1942.58
189.238	1940.63
189.314	1939.3
189.39	1933.93
189.465	1925.13
189.541	1941.3
189.617	1925.09
189.693	1921
189.768	1922.57
189.844	1945.92
189.92	1937.08
189.996	1944.83
190.071	1955.25
190.147	1954.25
190.223	1962
190.298	1952.39
190.374	1938.56
190.45	1949.01
190.526	1956.43
190.601	1948.49
190.677	1947.87
190.753	1971.66
190.828	1980.03
190.904	1993.91
190.98	2011.13
191.055	2021.12
191.131	2014.41
191.207	2035.43
191.282	2044.08
191.358	2035.19
191.433	2024.05
191.509	2039.5
191.585	2036.27
191.66	2034.94
191.736	2041.36
191.811	2035.32
191.887	2052.15
191.963	2074.46
192.038	2079.36
192.114	2080.16
192.189	2082.59
192.265	2082.92
192.34	2062.32
192.416	2056.9
192.491	2054.62
192.567	2055.95
192.642	2057.47
192.718	2058.04
192.793	2047.53
192.869	2043.39
192.944	2045.82
193.02	2051.1
193.095	2052.95
193.171	2057.28
193.246	2055.14
193.322	2053.71
193.397	2050.53
193.473	2038.26
193.548	2020.75
193.624	2026.27
193.699	2023.42
193.775	2037.5
193.85	2038.07
193.925	2046.01
194.001	2044.68
194.076	2033.03
194.152	2022.61
194.227	2016.81
194.302	2005.68
194.378	2007.63
194.453	2005.87
194.529	2016.76
194.604	2005.4
194.679	1998.07
194.755	1980.63
194.83	1991.85
194.905	1988.86
194.981	1999.32
195.056	1989
195.131	1996.66
195.207	1996.18
195.282	1989.81
195.357	1971.22
195.433	1985.1
195.508	1974.73
195.583	1980.06
195.659	1996.66
195.734	2004.6
195.809	2006.03
195.884	2014.01
195.96	2015.25
196.035	2028.9
196.11	2024.9
196.185	2033.84
196.261	2038.55
196.336	2069.89
196.411	2058.28
196.486	2063.71
196.561	2057.57
196.637	2068.7
196.712	2082.83
196.787	2083.44
196.862	2097.24
196.937	2107.08
197.013	2114.22
197.088	2124.49
197.163	2144.81
197.238	2159.99
197.313	2160.13
197.388	2171.08
197.464	2199.63
197.539	2208.86
197.614	2203.96
197.689	2218.38
197.764	2234.7
197.839	2252.49
197.914	2245.88
197.989	2265.15
198.065	2277.85
198.14	2325.23
198.215	2350.64
198.29	2363.26
198.365	2375.4
198.44	2387.58
198.515	2416.72
198.59	2429.29
198.665	2453.71
198.74	2462.94
198.815	2462.71
198.89	2482.94
198.965	2509.94
199.04	2507.75
199.115	2523.84
199.19	2567.17
199.265	2567.13
199.34	2576.32
199.415	2606.9
199.49	2630.9
199.565	2643.57
199.64	2668.48
199.715	2668
199.79	2675.39
199.865	2678.86
199.94	2678.72
200.015	2708.02
200.09	2712.46
200.165	2718.22
200.24	2722.46
200.315	2759.22
200.39	2771.61
200.464	2775.99
200.539	2778.61
200.614	2793.81
200.689	2813.2
200.764	2816.49
200.839	2833.97
200.914	2836.54
200.989	2828.68
201.063	2838.35
201.138	2824.49
201.213	2822.97
201.288	2804.53
201.363	2805.72
201.438	2806.81
201.512	2820.72
201.587	2801.23
201.662	2802.8
201.737	2812.71
201.812	2823.34
201.886	2792.15
201.961	2803.21
202.036	2791.31
202.111	2790.12
202.186	2760.78
202.26	2747.63
202.335	2728.13
202.41	2722.8
202.485	2711.03
202.559	2690.79
202.634	2664.21
202.709	2667.3
202.784	2649.87
202.858	2647.11
202.933	2632.29
203.008	2629.53
203.082	2613.76
203.157	2611.86
203.232	2572.16
203.306	2552.29
203.381	2520.52
203.456	2499.9
203.53	2478.5
203.605	2460.65
203.68	2439.27
203.754	2432.99
203.829	2420.08
203.904	2398.61
203.978	2386.47
204.053	2386.61
204.127	2375.76
204.202	2376.43
204.277	2361.15
204.351	2354.53
204.426	2348.39
204.5	2338.87
204.575	2303.37
204.65	2311.08
204.724	2303.42
204.799	2312.74
204.873	2310.36
204.948	2307.6
205.022	2295.37
205.097	2288.13
205.171	2302.31
205.246	2308.5
205.32	2307.31
205.395	2302.94
205.469	2294.71
205.544	2300.61
205.618	2283.95
205.693	2294.66
205.767	2282.38
205.842	2306.23
205.916	2301.81
205.991	2293.62
206.065	2301.33
206.14	2315.98
206.214	2310.98
206.289	2304.89
206.363	2314.98
206.438	2318.07
206.512	2329.02
206.586	2348.39
206.661	2356.1
206.735	2334.03
206.81	2334.31
206.884	2349.35
206.958	2338.55
207.033	2353.25
207.107	2361.2
207.181	2390.53
207.256	2383.44
207.33	2401.14
207.405	2414.15
207.479	2432.57
207.553	2438.24
207.628	2420.63
207.702	2431.53
207.776	2427.44
207.851	2434.91
207.925	2450.91
207.999	2449.53
208.073	2446.25
208.148	2449.34
208.222	2437.53
208.296	2467.61
208.371	2485.14
208.445	2495.09
208.519	2525.09
208.593	2537.61
208.668	2533.8
208.742	2538.99
208.816	2542.42
208.89	2554.09
208.965	2548.46
209.039	2554.66
209.113	2574.42
209.187	2595.07
209.261	2592.22
209.336	2607.79
209.41	2621.55
209.484	2621.84
209.558	2643.95
209.632	2657.61
209.707	2668.81
209.781	2689.19
209.855	2706.16
209.929	2721.13
210.003	2727.47
210.077	2727.27
210.151	2773.67
210.226	2807.38
210.3	2834.04
210.374	2859.24
210.448	2867.67
210.522	2880.97
210.596	2889.93
210.67	2898.84
210.744	2947.09
210.818	2975.92
210.892	3000.42
210.966	2998.13
211.041	3015.87
211.115	3012.96
211.189	3035.22
211.263	3052.62
211.337	3062.92
211.411	3080.75
211.485	3079.61
211.559	3098.01
211.633	3104.44
211.707	3078.54
211.781	3092.52
211.855	3067.86
211.929	3067.39
212.003	3057.57
212.077	3074.65
212.151	3097.88
212.225	3117.67
212.299	3120.01
212.373	3127.26
212.447	3139.43
212.52	3186.85
212.594	3211.71
212.668	3246.44
212.742	3258.7
212.816	3281.94
212.89	3302.12
212.964	3329.05
213.038	3364.34
213.112	3408.55
213.186	3456.08
213.26	3478.36
213.333	3473.2
213.407	3520.45
213.481	3570.47
213.555	3632.56
213.629	3673.12
213.703	3716.64
213.777	3776.86
213.85	3817.67
213.924	3916.69
213.998	3981.28
214.072	4046.43
214.146	4102.08
214.219	4177.7
214.293	4254.45
214.367	4337.83
214.441	4438.44
214.515	4513.44
214.588	4584.37
214.662	4648.17
214.736	4731.41
214.81	4842.86
214.883	4961.32
214.957	5065.48
215.031	5167.91
215.105	5264.61
215.178	5372.63
215.252	5488.69
215.326	5593.8
215.4	5701.7
215.473	5784.95
215.547	5900.14
215.621	6021.58
215.694	6170.08
215.768	6291
215.842	6420.6
215.915	6556.57
215.989	6683.71
216.063	6839.81
216.136	6992.77
216.21	7153.67
216.284	7322.74
216.357	7483.43
216.431	7637.6
216.504	7808.11
216.578	7997.61
216.652	8174.52
216.725	8340.01
216.799	8516.46
216.873	8682.18
216.946	8864.79
217.02	9034.82
217.093	9206.18
217.167	9353.93
217.24	9515.5
217.314	9688.36
217.387	9859.31
217.461	10027.26
217.535	10212.99
217.608	10367.01
217.682	10541.16
217.755	10721.84
217.829	10883.11
217.902	11052.33
217.976	11225.75
218.049	11387.15
218.123	11540.12
218.196	11714.87
218.27	11884.67
218.343	12039.24
218.417	12205.33
218.49	12374.95
218.563	12557.25
218.637	12736.22
218.71	12925.08
218.784	13102.8
218.857	13273.98
218.931	13446.45
219.004	13606.25
219.077	13771.74
219.151	13940.74
219.224	14098.57
219.298	14257.26
219.371	14433.92
219.444	14573.14
219.518	14730.38
219.591	14878.99
219.665	15054.5
219.738	15211.64
219.811	15359.71
219.885	15517.48
219.958	15669.7
220.031	15809
220.105	15949.5
220.178	16086.77
220.251	16223.17
220.325	16354.02
220.398	16493.99
220.471	16632.6
220.544	16781.24
220.618	16905.01
220.691	17031.13
220.764	17154.99
220.838	17272.44
220.911	17378.23
220.984	17526.33
221.057	17654.47
221.131	17781.03
221.204	17874.09
221.277	18000.88
221.35	18129.45
221.424	18228.39
221.497	18339.76
221.57	18444.04
221.643	18551.03
221.716	18650.64
221.79	18741.67
221.863	18839.88
221.936	18924.41
222.009	19012.74
222.082	19096.25
222.155	19177.21
222.229	19276.39
222.302	19372.14
222.375	19454.5
222.448	19551.46
222.521	19629.04
222.594	19697.62
222.667	19764.31
222.74	19844.6
222.814	19903.87
222.887	19971.01
222.96	20047.77
223.033	20122.66
223.106	20194.28
223.179	20276.78
223.252	20345.79
223.325	20412.69
223.398	20467.43
223.471	20534.61
223.544	20588.97
223.617	20645.51
223.69	20707.77
223.763	20747.58
223.837	20800.06
223.91	20867.39
223.983	20882.86
224.056	20916.31
224.129	20971.64
224.202	21025.18
224.275	21061.86
224.348	21099.45
224.42	21130.39
224.493	21169.1
224.566	21211.99
224.639	21253.83
224.712	21269.54
224.785	21310.8
224.858	21353.46
224.931	21381.36
225.004	21391.63
225.077	21429.56
225.15	21434.81
225.223	21452.98
225.296	21511.21
225.369	21521.29
225.442	21532.52
225.514	21578.26
225.587	21611.9
225.66	21634.41
225.733	21661.98
225.806	21686.42
225.879	21706.52
225.952	21713.84
226.025	21746.48
226.097	21767.25
226.17	21791.84
226.243	21793.52
226.316	21800.9
226.389	21813.77
226.461	21845.68
226.534	21883.95
226.607	21906.22
226.68	21954.81
226.753	21981.85
226.825	21965.56
226.898	21998.63
226.971	22017.43
227.044	22041.67
227.117	22048.23
227.189	22066.98
227.262	22086.41
227.335	22108.49
227.407	22111.47
227.48	22130.42
227.553	22136.01
227.626	22138.08
227.698	22154.18
227.771	22172.6
227.844	22169.9
227.916	22172.65
227.989	22159.97
228.062	22163.68
228.134	22182.77
228.207	22185.95
228.28	22186.67
228.352	22194.15
228.425	22201.14
228.498	22217.57
228.57	22206.82
228.643	22235.41
228.716	22231.36
228.788	22218.39
228.861	22211.84
228.934	22229.67
229.006	22236.62
229.079	22228.66
229.151	22222.06
229.224	22199.93
229.296	22197.04
229.369	22230.21
229.442	22248.14
229.514	22245.73
229.587	22245.97
229.659	22225.48
229.732	22224.13
229.804	22225.92
229.877	22245.1
229.949	22246.79
230.022	22261.06
230.094	22260.82
230.167	22259.32
230.239	22252.19
230.312	22258.65
230.384	22281.6
230.457	22288.35
230.529	22276.58
230.602	22286.52
230.674	22292.54
230.747	22303.63
230.819	22319.68
230.892	22280.87
230.964	22283.38
231.037	22285.45
231.109	22280.87
231.181	22284.49
231.254	22271.04
231.326	22263.52
231.399	22261.06
231.471	22252.87
231.544	22212.66
231.616	22211.65
231.688	22199.31
231.761	22186.24
231.833	22180.6
231.905	22151.29
231.978	22139.91
232.05	22123.29
232.122	22116.39
232.195	22098.17
232.267	22094.12
232.339	22079.95
232.412	22083.61
232.484	22053.14
232.556	22036.71
232.629	22042.54
232.701	22038.49
232.773	22027.65
232.846	22013.14
232.918	21996.5
232.99	21976.5
233.062	21976.5
233.135	21966.47
233.207	21931.62
233.279	21921.6
233.351	21904.92
233.424	21883.37
233.496	21852.71
233.568	21867.37
233.64	21831.6
233.713	21822.15
233.785	21810.2
233.857	21792.89
233.929	21767.73
234.001	21774.29
234.074	21780.22
234.146	21749.51
234.218	21737.8
234.29	21715.34
234.362	21690.76
234.434	21657.64
234.507	21630.12
234.579	21596.28
234.651	21562.69
234.723	21556.47
234.795	21543.02
234.867	21526.63
234.939	21513.81
235.012	21497.33
235.084	21483.54
235.156	21471.16
235.228	21443.34
235.3	21411.92
235.372	21379.1
235.444	21360.15
235.516	21310.85
235.588	21278.6
235.66	21251.71
235.732	21201.29
235.804	21235.85
235.876	21222.31
235.948	21209.92
236.02	21187.32
236.092	21166.5
236.164	21147.99
236.236	21115.99
236.308	21080.66
236.38	21050.97
236.452	21012.8
236.524	20989.95
236.596	20970
236.668	20942.58
236.74	20907.01
236.812	20880.45
236.884	20866.43
236.956	20845.37
237.028	20809.75
237.1	20769.32
237.172	20756.02
237.244	20757.08
237.316	20685.45
237.388	20655.38
237.46	20615.62
237.532	20602.41
237.604	20564.2
237.675	20548.44
237.747	20524.39
237.819	20490.13
237.891	20455.81
237.963	20418.51
238.035	20367.48
238.107	20302.61
238.178	20286.8
238.25	20260.1
238.322	20243.72
238.394	20198.18
238.466	20156.35
238.538	20130.9
238.609	20111.24
238.681	20063.43
238.753	20016.25
238.825	19994.04
238.897	19958.62
238.968	19953.51
239.04	19906.81
239.112	19898.91
239.184	19847.68
239.255	19812.93
239.327	19798.62
239.399	19773.95
239.471	19749.8
239.542	19731.11
239.614	19713.76
239.686	19651.83
239.758	19636.12
239.829	19588.03
239.901	19574.54
239.973	19551.26
240.044	19529.96
240.116	19494.49
240.188	19451.31
240.259	19420.47
240.331	19371.17
240.403	19341.1
240.474	19283.23
240.546	19242.36
240.618	19180.82
240.689	19142.03
240.761	19114.95
240.833	19091
240.904	19053.94
240.976	19021.85
241.048	18992.79
241.119	18974.33
241.191	18951.44
241.262	18927.39
241.334	18903.2
241.405	18862.14
241.477	18820.03
241.549	18780.66
241.62	18746.25
241.692	18722.25
241.763	18691.89
241.835	18652.81
241.906	18620.38
241.978	18572.33
242.049	18557.01
242.121	18544.43
242.192	18532.53
242.264	18485.35
242.335	18427.9
242.407	18398.56
242.478	18359.28
242.55	18327.19
242.621	18274.42
242.693	18236.2
242.764	18194.86
242.836	18157.32
242.907	18125.65
242.979	18097.27
243.05	18068.36
243.122	18041.8
243.193	18014.09
243.264	17965.56
243.336	17938.72
243.407	17914.58
243.479	17903.98
243.55	17872.07
243.622	17837.52
243.693	17797.09
243.764	17779.35
243.836	17741.04
243.907	17708.37
243.978	17671.88
244.05	17639.84
244.121	17595.11
244.192	17573.38
244.264	17520.9
244.335	17483.55
244.407	17433.81
244.478	17405.86
244.549	17367.11
244.62	17320.17
244.692	17283.02
244.763	17254.29
244.834	17209.72
244.906	17172.27
244.977	17146.49
245.048	17116.85
245.119	17077.23
245.191	17030.97
245.262	16975.01
245.333	16957.9
245.405	16914.86
245.476	16895.83
245.547	16874.96
245.618	16851.54
245.689	16820.45
245.761	16797.03
245.832	16759.15
245.903	16731.24
245.974	16700.49
246.045	16668.44
246.117	16655.81
246.188	16608.68
246.259	16562.07
246.33	16534.26
246.401	16501.68
246.473	16444.71
246.544	16405.48
246.615	16375.12
246.686	16343.93
246.757	16325.67
246.828	16279.64
246.899	16270.09
246.97	16214.04
247.042	16159.24
247.113	16133.6
247.184	16120.3
247.255	16080.68
247.326	16053.2
247.397	16024.33
247.468	15990.35
247.539	15958.64
247.61	15899.35
247.681	15874.77
247.752	15860.7
247.823	15809.41
247.894	15774.9
247.965	15736.82
248.037	15705.83
248.108	15663.65
248.179	15640.23
248.25	15601.47
248.321	15585.47
248.392	15536.07
248.463	15536.07
248.534	15505.27
248.605	15484.97
248.675	15445.93
248.746	15423.18
248.817	15393.54
248.888	15369.44
248.959	15327.79
249.03	15302.2
249.101	15278.58
249.172	15246.81
249.243	15194.13
249.314	15188.68
249.385	15159.8
249.456	15139.27
249.527	15105.14
249.598	15084.7
249.669	15047.11
249.739	15032.5
249.81	15010.28
249.881	14967.47
249.952	14934.74
250.023	14906.35
250.094	14852.61
250.165	14816.84
250.235	14781.89
250.306	14757.93
250.377	14718.65
250.448	14686.49
250.519	14634.82
250.59	14625.76
250.66	14600.93
250.731	14594.38
250.802	14571.24
250.873	14545.5
250.944	14528.34
251.014	14495.85
251.085	14492.9
251.156	14473.62
251.227	14458.05
251.297	14437.28
251.368	14423.49
251.439	14405.08
251.51	14393.31
251.58	14374.18
251.651	14344
251.722	14334.89
251.792	14292.52
251.863	14264.99
251.934	14260.55
252.005	14270.44
252.075	14243.2
252.146	14226.04
252.217	14209.31
252.287	14189.21
252.358	14162.55
252.429	14149.59
252.499	14118.15
252.57	14092.12
252.641	14073.76
252.711	14046.95
252.782	14008.1
252.852	14007.81
252.923	13984.09
252.994	13962.74
253.064	13947.65
253.135	13914.44
253.205	13880.16
253.276	13879.15
253.347	13869.22
253.417	13831.04
253.488	13793
253.558	13762.59
253.629	13742.72
253.699	13720.07
253.77	13705.03
253.841	13680.25
253.911	13654.89
253.982	13642.79
254.052	13619.36
254.123	13600.18
254.193	13570.19
254.264	13576.12
254.334	13545.17
254.405	13512.92
254.475	13485.25
254.546	13461.15
254.616	13452.76
254.687	13435.17
254.757	13410.97
254.827	13391.68
254.898	13380.79
254.968	13361.94
255.039	13338.03
255.109	13316.53
255.18	13285.39
255.25	13238.29
255.321	13218.57
255.391	13181.36
255.461	13179.58
255.532	13137.01
255.602	13110.59
255.673	13068.22
255.743	13036.55
255.813	12986.99
255.884	12975.95
255.954	12959.8
256.024	12949.29
256.095	12926.98
256.165	12887.11
256.235	12866.67
256.306	12834.18
256.376	12824.92
256.446	12815.09
256.517	12792.39
256.587	12781.2
256.657	12765
256.728	12742.59
256.798	12724.75
256.868	12699.93
256.938	12665.89
257.009	12657.46
257.079	12642.9
257.149	12654.52
257.219	12616.77
257.29	12602.89
257.36	12562.21
257.43	12549.14
257.5	12509.47
257.571	12481.22
257.641	12475.97
257.711	12448.64
257.781	12434.66
257.852	12407.81
257.922	12366.59
257.992	12354.49
258.062	12330.39
258.132	12316.94
258.202	12303.69
258.273	12288.26
258.343	12284.84
258.413	12262.14
258.483	12244.06
258.553	12221.02
258.623	12187.85
258.693	12169.73
258.764	12164.19
258.834	12160.38
258.904	12141.77
258.974	12117.67
259.044	12102.1
259.114	12089.09
259.184	12069.9
259.254	12051.2
259.324	12013.8
259.394	12008.35
259.464	11998.47
259.535	11978.66
259.605	11951.81
259.675	11922.07
259.745	11904
259.815	11878.06
259.885	11846.49
259.955	11854.11
260.025	11826.2
260.095	11805.09
260.165	11791.79
260.235	11784.12
260.305	11756.31
260.375	11729.85
260.445	11730.57
260.515	11720.89
260.585	11707.68
260.655	11692.45
260.725	11682.42
260.795	11680.64
260.865	11673.94
260.934	11648.59
261.004	11636.44
261.074	11624.44
261.144	11619.57
261.214	11609.35
261.284	11594.41
261.354	11593.5
261.424	11563.52
261.494	11562.46
261.564	11551.18
261.634	11544.77
261.703	11514.21
261.773	11504.19
261.843	11491.08
261.913	11473.73
261.983	11441.82
262.053	11433.53
262.123	11414.64
262.192	11382.78
262.262	11368.37
262.332	11333.09
262.402	11324.85
262.472	11304.27
262.541	11262.73
262.611	11260.23
262.681	11234.06
262.751	11224.32
262.821	11204.66
262.89	11172.03
262.96	11156.95
263.03	11161.38
263.1	11149.33
263.169	11130.54
263.239	11115.65
263.309	11114.83
263.379	11098.06
263.448	11085.62
263.518	11072.61
263.588	11056.23
263.657	11061.29
263.727	11054.59
263.797	11041.87
263.867	11022.2
263.936	10997.05
264.006	10999.31
264.076	10978.93
264.145	10958.26
264.215	10937.34
264.285	10926.07
264.354	10895.37
264.424	10876.39
264.494	10841.4
264.563	10812
264.633	10815.18
264.702	10804.2
264.772	10768.39
264.842	10748.35
264.911	10740.35
264.981	10703.73
265.05	10687.83
265.12	10661.03
265.19	10647.93
265.259	10641.71
265.329	10629.28
265.398	10622.05
265.468	10632.46
265.537	10611.4
265.607	10608.71
265.676	10598.49
265.746	10585.77
265.815	10583.89
265.885	10566.02
265.955	10538.41
266.024	10526.6
266.094	10491.62
266.163	10485.41
266.232	10481.12
266.302	10465.13
266.371	10456.65
266.441	10446.29
266.51	10441.9
266.58	10433.18
266.649	10411.74
266.719	10404.71
266.788	10397.19
266.858	10387.7
266.927	10345.73
266.996	10333.02
267.066	10316.25
267.135	10290.09
267.205	10289.99
267.274	10283.68
267.343	10280.69
267.413	10274.48
267.482	10273.52
267.552	10275.59
267.621	10248.22
267.69	10220.04
267.76	10205.35
267.829	10194.61
267.898	10183.29
267.968	10161.46
268.037	10155.83
268.106	10149.03
268.176	10130.39
268.245	10112.13
268.314	10100.71
268.384	10100.62
268.453	10089.92
268.522	10079.32
268.592	10077.25
268.661	10053.36
268.73	10037.61
268.799	10020.65
268.869	10021.56
268.938	9990.06
269.007	9966.84
269.076	9959.71
269.146	9958.17
269.215	9956.73
269.284	9954.46
269.353	9945.41
269.422	9931.1
269.492	9907.36
269.561	9868.15
269.63	9857.17
269.699	9839.06
269.768	9825.86
269.838	9815.31
269.907	9811.5
269.976	9790.5
270.045	9761.56
270.114	9758.33
270.183	9745.09
270.253	9738.82
270.322	9704.73
270.391	9698.32
270.46	9700.15
270.529	9698.42
270.598	9690.08
270.667	9676.12
270.736	9654.1
270.806	9637.01
270.875	9636
270.944	9620.1
271.013	9640.91
271.082	9630.31
271.151	9633.69
271.22	9602.82
271.289	9591.74
271.358	9575.27
271.427	9569.39
271.496	9562.75
271.565	9546.04
271.634	9535.25
271.703	9532.5
271.772	9539.78
271.841	9524.22
271.91	9504.77
271.979	9493.35
272.048	9479
272.117	9476.78
272.186	9462.67
272.255	9462.87
272.324	9458.53
272.393	9454.34
272.462	9438.31
272.531	9425.06
272.6	9406.91
272.669	9416.68
272.738	9405.12
272.807	9402.48
272.876	9383.94
272.945	9405.13
273.013	9402.62
273.082	9405.94
273.151	9378.4
273.22	9375.99
273.289	9370.12
273.358	9375.13
273.427	9361.4
273.496	9357.6
273.564	9354.95
273.633	9352.93
273.702	9339.16
273.771	9329.29
273.84	9324.66
273.909	9318.31
273.977	9318.74
274.046	9310.46
274.115	9311.61
274.184	9287.98
274.253	9276.56
274.322	9284.56
274.39	9253.45
274.459	9235.63
274.528	9205.3
274.597	9205.88
274.665	9196.64
274.734	9194.23
274.803	9179.93
274.872	9171.98
274.94	9154.17
275.009	9177
275.078	9163.28
275.147	9155.81
275.215	9148.4
275.284	9153.98
275.353	9141.85
275.421	9118.5
275.49	9129.62
275.559	9116.38
275.627	9118.98
275.696	9110.61
275.765	9106.51
275.833	9101.27
275.902	9106.85
275.971	9122.35
276.039	9133.14
276.108	9139.44
276.177	9143.1
276.245	9135.21
276.314	9128.08
276.383	9134.15
276.451	9098.32
276.52	9094.28
276.588	9105.45
276.657	9109.49
276.725	9100.58
276.794	9097.98
276.863	9106.22
276.931	9086.28
277	9095
277.068	9105.64
277.137	9122.58
277.205	9116.04
277.274	9126.63
277.342	9130.33
277.411	9107.28
277.48	9090.47
277.548	9073.86
277.617	9070.44
277.685	9062.31
277.754	9067.27
277.822	9059.76
277.89	9075.6
277.959	9072.71
278.027	9055.23
278.096	9045.94
278.164	9066.45
278.233	9064.38
278.301	9061.16
278.37	9061.93
278.438	9053.31
278.507	9047.68
278.575	9022.88
278.643	9014.51
278.712	9000.6
278.78	8985.77
278.849	8992.84
278.917	9006.76
278.985	9003.24
279.054	9001.56
279.122	9016.24
279.191	9015.76
279.259	9005.27
279.327	8980.42
279.396	8991.64
279.464	8986.92
279.532	8987.45
279.601	8985.48
279.669	8980.08
279.737	8985.91
279.806	8985.96
279.874	8988.89
279.942	8987.93
280.011	8981.05
280.079	8991.06
280.147	9003.53
280.215	9002.61
280.284	8996.5
280.352	8978.59
280.42	8985.57
280.488	8978.88
280.557	8962.42
280.625	8961.79
280.693	8970.02
280.761	8966.41
280.83	8947.54
280.898	8954.71
280.966	8941.24
281.034	8908.21
281.102	8891.36
281.171	8887.13
281.239	8897.62
281.307	8888.33
281.375	8880.63
281.443	8904.89
281.512	8901.28
281.58	8905.28
281.648	8892.52
281.716	8894.06
281.784	8893
281.852	8880.53
281.92	8882.36
281.989	8894.73
282.057	8875.53
282.125	8908.7
282.193	8911.64
282.261	8922.76
282.329	8924.49
282.397	8931.04
282.465	8929.93
282.533	8944.27
282.601	8930.41
282.67	8900.95
282.738	8891.9
282.806	8899.07
282.874	8886.17
282.942	8889.64
283.01	8881.07
283.078	8888.58
283.146	8886.51
283.214	8893.97
283.282	8894.45
283.35	8898.06
283.418	8892.09
283.486	8896.71
283.554	8857.38
283.622	8856.27
283.69	8843.37
283.758	8830.9
283.826	8828.64
283.894	8839.9
283.962	8855.74
284.03	8867
284.098	8869.7
284.165	8857.33
284.233	8855.5
284.301	8845.06
284.369	8832.06
284.437	8825.51
284.505	8820.17
284.573	8837.4
284.641	8819.06
284.709	8827.73
284.777	8813.24
284.845	8818.15
284.912	8822
284.98	8825.03
285.048	8819.11
285.116	8835.67
285.184	8851.03
285.252	8854.01
285.319	8843.18
285.387	8834.03
285.455	8815.93
285.523	8825.42
285.591	8827.2
285.659	8823.78
285.726	8836.63
285.794	8822.63
285.862	8822.15
285.93	8818.25
285.997	8808.33
286.065	8811.03
286.133	8800.29
286.201	8804.14
286.269	8792.06
286.336	8789.41
286.404	8781.76
286.472	8786.38
286.539	8756.78
286.607	8738.54
286.675	8731.99
286.743	8740.03
286.81	8729.68
286.878	8744.22
286.946	8737.86
287.013	8736.47
287.081	8736.8
287.149	8722.8
287.216	8746.57
287.284	8734.59
287.352	8736.61
287.419	8728.81
287.487	8740.8
287.555	8747.92
287.622	8737.19
287.69	8741.04
287.758	8749.94
287.825	8749.13
287.893	8736.37
287.96	8743.83
288.028	8757.4
288.096	8760.92
288.163	8757.6
288.231	8750.47
288.298	8750.66
288.366	8757.4
288.433	8759.14
288.501	8753.26
288.569	8755.48
288.636	8741.9
288.704	8756.68
288.771	8763.95
288.839	8754.95
288.906	8747.25
288.974	8766.12
289.041	8767.08
289.109	8758.03
289.176	8767.28
289.244	8774.88
289.311	8785.23
289.379	8798.32
289.446	8803.38
289.514	8796.97
289.581	8798.95
289.649	8805.11
289.716	8806.84
289.783	8804.68
289.851	8823.54
289.918	8818.15
289.986	8830.81
290.053	8839.23
290.121	8840.78
290.188	8842.36
290.255	8879
290.323	8874.86
290.39	8857.96
290.458	8863.68
290.525	8872.73
290.592	8864.5
290.66	8866.23
290.727	8858.24
290.794	8862.29
290.862	8853.81
290.929	8859.88
290.996	8856.94
291.064	8861.27
291.131	8873.5
291.198	8889.68
291.266	8888.72
291.333	8894.78
291.4	8900.41
291.468	8915.19
291.535	8908.84
291.602	8913.51
291.669	8903.4
291.737	8911.48
291.804	8912.88
291.871	8928.14
291.938	8933.91
292.006	8960.2
292.073	8969.4
292.14	8994.33
292.207	8989.71
292.275	8988.61
292.342	8998.19
292.409	9028.42
292.476	9058.22
292.543	9050.71
292.611	9049.27
292.678	9064.05
292.745	9088.99
292.812	9101.02
292.879	9096.69
292.946	9106.75
293.014	9116.43
293.081	9123.12
293.148	9135.3
293.215	9149.5
293.282	9147.05
293.349	9162.21
293.416	9137.9
293.484	9150.94
293.551	9157.78
293.618	9173.52
293.685	9203.47
293.752	9203.04
293.819	9195.96
293.886	9178.29
293.953	9182.52
294.02	9188.93
294.087	9195.24
294.154	9186.09
294.221	9190.52
294.288	9198.03
294.356	9213
294.423	9224.27
294.49	9215.27
294.557	9225.62
294.624	9214.79
294.691	9228.36
294.758	9227.54
294.825	9241.51
294.892	9233.51
294.959	9225.47
295.026	9237.32
295.093	9225.28
295.16	9221.38
295.226	9219.6
295.293	9244.11
295.36	9248.97
295.427	9262.6
295.494	9273.68
295.561	9281.57
295.628	9305.75
295.695	9314.71
295.762	9310.61
295.829	9314.66
295.896	9333.77
295.963	9345.14
296.03	9356.64
296.096	9371.67
296.163	9384.86
296.23	9398.83
296.297	9412.07
296.364	9413.61
296.431	9420.01
296.498	9421.51
296.564	9447.22
296.631	9455.12
296.698	9440.72
296.765	9461.62
296.832	9446.11
296.899	9430.31
296.965	9452.42
297.032	9432.04
297.099	9449.96
297.166	9459.11
297.233	9460.27
297.299	9451.79
297.366	9453.77
297.433	9460.36
297.5	9463.2
297.566	9464.5
297.633	9464.74
297.7	9469.13
297.767	9470.76
297.833	9474.76
297.9	9477.17
297.967	9459.06
298.033	9465.95
298.1	9495.91
298.167	9487.96
298.234	9490.95
298.3	9504.91
298.367	9497.98
298.434	9508.23
298.5	9495.47
298.567	9492.63
298.634	9487.48
298.7	9508.04
298.767	9509.39
298.834	9523.59
298.9	9520.22
298.967	9514.64
299.033	9516.76
299.1	9529.23
299.167	9541.7
299.233	9534.14
299.3	9546.28
299.366	9564.81
299.433	9579.36
299.5	9554.07
299.566	9558.55
299.633	9579.31
299.699	9587.01
299.766	9584.56
299.832	9587.26
299.899	9597.51
299.965	9615.81
300.032	9613.98
300.099	9621.55
300.165	9625.5
300.232	9617.4
300.298	9620.97
300.365	9636.43
300.431	9643.36
300.498	9635.27
300.564	9643.99
300.631	9660.03
300.697	9675.54
300.763	9676.4
300.83	9669.8
300.896	9687.09
300.963	9695.23
301.029	9701.01
301.096	9710.07
301.162	9725.86
301.229	9721.14
301.295	9713.39
301.361	9713.92
301.428	9715.56
301.494	9696
301.561	9700.29
301.627	9704.77
301.693	9701.83
301.76	9695.09
301.826	9688.88
301.892	9704.53
301.959	9711.51
302.025	9705.16
302.092	9695.76
302.158	9706.65
302.224	9715.9
302.291	9699.81
302.357	9691.82
302.423	9680.26
302.49	9664.84
302.556	9670.48
302.622	9666.15
302.688	9675.2
302.755	9684.06
302.821	9695.86
302.887	9706.12
302.954	9704.91
303.02	9712.67
303.086	9720.71
303.152	9723.02
303.219	9716.23
303.285	9717.73
303.351	9725.34
303.417	9724.13
303.483	9719.03
303.55	9705.21
303.616	9702.6
303.682	9704.77
303.748	9705.11
303.815	9719.37
303.881	9736.7
303.947	9729.14
304.013	9734.49
304.079	9723.89
304.145	9703.13
304.212	9697.5
304.278	9696.3
304.344	9687.92
304.41	9672.36
304.476	9661.47
304.542	9658.49
304.608	9670.1
304.674	9650.44
304.741	9637.15
304.807	9643.65
304.873	9642.4
304.939	9662.39
305.005	9646.98
305.071	9644.71
305.137	9646.59
305.203	9626.27
305.269	9616.15
305.335	9616.49
305.401	9612.78
305.467	9611.77
305.533	9625.2
305.599	9637.44
305.666	9639.22
305.732	9638.5
305.798	9651.36
305.864	9677.27
305.93	9675.82
305.996	9669.95
306.062	9670.77
306.128	9670.48
306.194	9653.77
306.259	9659.74
306.325	9647.89
306.391	9648.66
306.457	9656.13
306.523	9654.54
306.589	9673.13
306.655	9661.71
306.721	9648.52
306.787	9636
306.853	9649.67
306.919	9630.84
306.985	9618.42
307.051	9620.15
307.117	9616.83
307.183	9614.56
307.248	9585.86
307.314	9593.03
307.38	9594.05
307.446	9601.37
307.512	9591.25
307.578	9597.66
307.644	9585.86
307.709	9581.96
307.775	9583.31
307.841	9579.07
307.907	9581.33
307.973	9562.36
308.039	9565.05
308.104	9570.49
308.17	9573.29
308.236	9560.57
308.302	9564.18
308.368	9554.12
308.433	9549.26
308.499	9545.98
308.565	9530.91
308.631	9533.41
308.696	9511.5
308.762	9499.51
308.828	9497.2
308.894	9483.14
308.959	9462.96
309.025	9457.62
309.091	9457.47
309.156	9447.02
309.222	9444.08
309.288	9427.9
309.354	9406.24
309.419	9403.3
309.485	9384.52
309.551	9385.34
309.616	9368.39
309.682	9361.74
309.748	9354.33
309.813	9345.75
309.879	9337.09
309.945	9321.92
310.01	9309.83
310.076	9311.71
310.141	9307.14
310.207	9283.01
310.273	9277.62
310.338	9282.34
310.404	9261.54
310.469	9241.46
310.535	9229.42
310.601	9211.7
310.666	9213.44
310.732	9227.54
310.797	9215.55
310.863	9212.66
310.928	9203.03
310.994	9208.67
311.059	9202.94
311.125	9202.26
311.191	9213.05
311.256	9194.27
311.322	9201.54
311.387	9183.35
311.453	9535.41
311.518	9511.29
311.584	9513.17
311.649	9518.42
311.715	9501.23
311.78	9508.55
311.846	9507.01
311.911	9517.31
311.976	9514.67
312.042	9500.41
312.107	9477.3
312.173	9469.41
312.238	9456.84
312.304	9451.11
312.369	9439.8
312.434	9430.99
312.5	9418.86
312.565	9382.22
312.631	9390.21
312.696	9381.69
312.761	9385.54
312.827	9017
312.892	9051.52
312.958	9045.75
313.023	9037.23
313.088	9042.76
313.154	9026.49
313.219	9014.99
313.284	9004.49
313.35	9001.55
313.415	8997.36
313.48	8996.35
313.546	9000.98
313.611	9009.59
313.676	9000.93
313.741	8990.58
313.807	8994
313.872	9003.14
313.937	9009.98
314.003	9014.5
314.068	9011.61
314.133	9017.05
314.198	9011.71
314.264	8989.95
314.329	8982.29
314.394	8983.35
314.459	8971.46
314.525	8984.12
314.59	8983.45
314.655	8970.64
314.72	8979.74
314.785	8974.59
314.851	8970.89
314.916	8948.21
314.981	8932.86
315.046	8925.3
315.111	8921.01
315.176	8911.15
315.242	8908.5
315.307	8903.01
315.372	8882.94
315.437	8877.21
315.502	8867.96
315.567	8877.79
315.632	8856.94
315.698	8857.18
315.763	8850.59
315.828	8851.17
315.893	8846.88
315.958	8840.24
316.023	8828.64
316.088	8807.75
316.153	8790.18
316.218	8776.22
316.283	8762.08
316.348	8743.12
316.413	8735.17
316.479	8713.71
316.544	8680.41
316.609	8650.62
316.674	8614.62
316.739	8579.74
316.804	8542.54
316.869	8504.86
316.934	8462.8
316.999	8436.77
317.064	8385.04
317.129	8338.9
317.194	8298.87
317.259	8252.68
317.324	8199.52
317.389	8153.34
317.454	8108.69
317.518	8070.07
317.583	8044.81
317.648	8017.2
317.713	7985.31
317.778	7926.67
317.843	7892.81
317.908	7854.2
317.973	7812.26
318.038	7783.31
318.103	7745.23
318.168	7710.75
318.233	7679.21
318.297	7629.59
318.362	7589.39
318.427	7550.07
318.492	7524.54
318.557	7477.76
318.622	7451.61
318.687	7431.71
318.751	7390.43
318.816	7357.88
318.881	7326.55
318.946	7267.62
319.011	7226.72
319.075	7187.88
319.14	7155.79
319.205	7113.69
319.27	7075.4
319.335	7031.63
319.399	6994.15
319.464	6968.4
319.529	6922.04
319.594	6877.6
319.658	6846.43
319.723	6808.58
319.788	6776.89
319.853	6723.47
319.917	6687.6
319.982	6629.78
320.047	6584.78
320.112	6558.32
320.176	6506.13
320.241	6465.17
320.306	6443.14
320.37	6398.1
320.435	6364.16
320.5	6335.4
320.564	6295.85
320.629	6256.02
320.694	6221.71
320.758	6174.63
320.823	6126.97
320.888	6096.46
320.952	6050.93
321.017	6012.97
321.082	5969.85
321.146	5937.27
321.211	5898.32
321.275	5859
321.34	5814.4
321.405	5766.45
321.469	5720.03
321.534	5680.53
321.598	5632.48
321.663	5595.7
321.727	5561.89
321.792	5510.93
321.857	5465.04
321.921	5430.19
321.986	5385.06
322.05	5327.75
322.115	5292.81
322.179	5250.17
322.244	5193.31
322.308	5155.8
322.373	5104.88
322.437	5062.01
322.502	5033.83
322.566	4987.9
322.631	4951.84
322.695	4918.66
322.76	4875.34
322.824	4836.13
322.889	4792.24
322.953	4746.68
323.018	4678.99
323.082	4612.86
323.146	4557.79
323.211	4503.77
323.275	4453.71
323.34	4409.57
323.404	4374.51
323.468	4327.72
323.533	4284.58
323.597	4238.36
323.662	4189.73
323.726	4156.64
323.79	4110.17
323.855	4045.36
323.919	4000.57
323.983	3955.59
324.048	3883.46
324.112	4011.95
324.177	3881.97
324.241	3679.41
324.305	3481.44
324.37	3289.02
324.434	3102.91
324.498	3061.83
324.562	3011.88
324.627	2951.76
324.691	2898.2
324.755	2832.68
324.82	2754.8
324.884	2675.48
324.948	2606.1
325.012	2511.7
325.077	2384.45
